  Pressure (Pa) 22mC5-500 (mol/kg) 24mC5-500 (mol/kg) 2mC6-500 (mol/kg) 3mC6-500 (mol/kg) C7-500 (mol/kg)
    0.1000000000E+01    0.2256271886E-05    0.1266308141E+00    0.1464457335E-04    0.5870704289E-05    0.4181632371E-02
    0.3000000000E+01    0.4662843549E-05    0.2785168134E+00    0.2887297582E-04    0.1492954680E-04    0.4216126606E-02
    0.5000000000E+01    0.5880789461E-05    0.3664173670E+00    0.3549160355E-04    0.2325263071E-04    0.4233697202E-02
    0.7000000000E+01    0.6595095889E-05    0.4237316496E+00    0.3932093366E-04    0.3122753953E-04    0.4244781669E-02
    0.9000000000E+01    0.7062263703E-05    0.4640586478E+00    0.4199825656E-04    0.3898439686E-04    0.4252390258E-02
    0.1100000000E+02    0.7396512678E-05    0.4939761036E+00    0.4417805372E-04    0.4658811956E-04    0.4257888402E-02
    0.1300000000E+02    0.7654808868E-05    0.5170539134E+00    0.4614921473E-04    0.5407725915E-04    0.4262001320E-02
    0.1500000000E+02    0.7867938523E-05    0.5353970339E+00    0.4804724784E-04    0.6147717405E-04    0.4265153064E-02
    0.1700000000E+02    0.8053559334E-05    0.5503270133E+00    0.4993770663E-04    0.6880571885E-04    0.4267609112E-02
    0.1900000000E+02    0.8222268426E-05    0.5627154266E+00    0.5185230153E-04    0.7607609360E-04    0.4269544534E-02
    0.2100000000E+02    0.8380652098E-05    0.5731603687E+00    0.5380569614E-04    0.8329842347E-04    0.4271079634E-02
    0.2300000000E+02    0.8532916150E-05    0.5820859183E+00    0.5580375874E-04    0.9048070240E-04    0.4272299912E-02
    0.2500000000E+02    0.8681802167E-05    0.5898011352E+00    0.5784778749E-04    0.9762939026E-04    0.4273267854E-02
    0.2700000000E+02    0.8829124261E-05    0.5965365788E+00    0.5993674085E-04    0.1047498082E-03    0.4274030221E-02
    0.2900000000E+02    0.8976094596E-05    0.6024677444E+00    0.6206843917E-04    0.1118464108E-03    0.4274622729E-02
    0.3100000000E+02    0.9123526702E-05    0.6077305753E+00    0.6424021854E-04    0.1189229782E-03    0.4275073137E-02
    0.3300000000E+02    0.9271965712E-05    0.6124320113E+00    0.6644928568E-04    0.1259827570E-03    0.4275403362E-02
    0.3500000000E+02    0.9421773597E-05    0.6166573320E+00    0.6869290661E-04    0.1330285642E-03    0.4275630944E-02
    0.3700000000E+02    0.9573186012E-05    0.6204753765E+00    0.7096850220E-04    0.1400628670E-03    0.4275770092E-02
    0.3900000000E+02    0.9726350824E-05    0.6239423232E+00    0.7327369096E-04    0.1470878431E-03    0.4275832441E-02
    0.4100000000E+02    0.9881354584E-05    0.6271044723E+00    0.7560630260E-04    0.1541054294E-03    0.4275827616E-02
    0.4300000000E+02    0.1003824094E-04    0.6300003259E+00    0.7796437536E-04    0.1611173597E-03    0.4275763646E-02
    0.4500000000E+02    0.1019702356E-04    0.6326621631E+00    0.8034614501E-04    0.1681251954E-03    0.4275647287E-02
    0.4700000000E+02    0.1035769534E-04    0.6351172486E+00    0.8275002991E-04    0.1751303502E-03    0.4275484262E-02
    0.4900000000E+02    0.1052023485E-04    0.6373887702E+00    0.8517461467E-04    0.1821341106E-03    0.4275279456E-02
    0.1000000000E+02    0.7241597182E-05    0.4800492717E+00    0.4312716877E-04    0.4280258275E-04    0.4255348238E-02
    0.3000000000E+02    0.9049713735E-05    0.6051754367E+00    0.6314949307E-04    0.1153869848E-03    0.4274864208E-02
    0.5000000000E+02    0.1060219559E-04    0.6384620099E+00    0.8639426861E-04    0.1856358393E-03    0.4275162719E-02
    0.7000000000E+02    0.1232992815E-04    0.6538761437E+00    0.1116314644E-03    0.2558377903E-03    0.4271396212E-02
    0.9000000000E+02    0.1419981863E-04    0.6627655489E+00    0.1381052187E-03    0.3268146746E-03    0.4265977823E-02
    0.1100000000E+03    0.1618437865E-04    0.6685493213E+00    0.1655607365E-03    0.3990200319E-03    0.4259650894E-02
    0.1300000000E+03    0.1826849812E-04    0.6726128849E+00    0.1939167344E-03    0.4727628214E-03    0.4252717719E-02
    0.1500000000E+03    0.2044446543E-04    0.6756242902E+00    0.2231608050E-03    0.5482834595E-03    0.4245321030E-02
    0.1700000000E+03    0.2270884499E-04    0.6779453173E+00    0.2533118843E-03    0.6257867963E-03    0.4237533803E-02
    0.1900000000E+03    0.2506079470E-04    0.6797889415E+00    0.2844051224E-03    0.7054588051E-03    0.4229394265E-02
    0.2100000000E+03    0.2750114970E-04    0.6812887063E+00    0.3164852536E-03    0.7874760402E-03    0.4220921537E-02
    0.2300000000E+03    0.3003190738E-04    0.6825325962E+00    0.3496035445E-03    0.8720115135E-03    0.4212123340E-02
    0.2500000000E+03    0.3265592967E-04    0.6835809380E+00    0.3838163836E-03    0.9592386541E-03    0.4203000094E-02
    0.2700000000E+03    0.3537676831E-04    0.6844764770E+00    0.4191846789E-03    0.1049334186E-02    0.4193547209E-02
    0.2900000000E+03    0.3819856283E-04    0.6852503463E+00    0.4557736821E-03    0.1142480376E-02    0.4183756425E-02
    0.3100000000E+03    0.4112598349E-04    0.6859257595E+00    0.4936530529E-03    0.1238866907E-02    0.4173616617E-02
    0.3300000000E+03    0.4416420325E-04    0.6865203785E+00    0.5328970701E-03    0.1338692540E-02    0.4163114278E-02
    0.3500000000E+03    0.4731888967E-04    0.6870478789E+00    0.5735849419E-03    0.1442166664E-02    0.4152233805E-02
    0.3700000000E+03    0.5059621087E-04    0.6875190152E+00    0.6158011903E-03    0.1549510800E-02    0.4140957661E-02
    0.3900000000E+03    0.5400285236E-04    0.6879423607E+00    0.6596360980E-03    0.1660960115E-02    0.4129266449E-02
    0.4100000000E+03    0.5754604263E-04    0.6883248341E+00    0.7051862130E-03    0.1776764981E-02    0.4117138925E-02
    0.4300000000E+03    0.6123358634E-04    0.6886720801E+00    0.7525549105E-03    0.1897192610E-02    0.4104551961E-02
    0.4500000000E+03    0.6507390435E-04    0.6889887497E+00    0.8018530142E-03    0.2022528788E-02    0.4091480483E-02
    0.4700000000E+03    0.6907608060E-04    0.6892787098E+00    0.8531994819E-03    0.2153079749E-02    0.4077897368E-02
    0.4900000000E+03    0.7324991551E-04    0.6895452018E+00    0.9067221609E-03    0.2289174196E-02    0.4063773318E-02
    0.1000000000E+03    0.1517893315E-04    0.6659341920E+00    0.1517176621E-03    0.3627423076E-03    0.4262903549E-02
    0.3000000000E+03    0.3964875819E-04    0.6855991473E+00    0.4745475406E-03    0.1190256407E-02    0.4178730942E-02
    0.5000000000E+03    0.7540447825E-04    0.6896705196E+00    0.9343421654E-03    0.2359409627E-02    0.4056498657E-02
    0.7000000000E+03    0.1306932618E-03    0.6914293452E+00    0.1642233936E-02    0.4160972502E-02    0.3873131868E-02
    0.9000000000E+03    0.2241238472E-03    0.6924098311E+00    0.2838528371E-02    0.7211679688E-02    0.3574264965E-02
    0.1100000000E+04    0.3991557414E-03    0.6930348825E+00    0.5084277810E-02    0.1295500682E-01    0.3039705023E-02
    0.1300000000E+04    0.7401456356E-03    0.6934680285E+00    0.9478162534E-02    0.2424304526E-01    0.2069063403E-02
    0.1500000000E+04    0.1222578120E-02    0.6937858311E+00    0.1575298148E-01    0.4051187217E-01    0.8728881740E-03
    0.1700000000E+04    0.1549681105E-02    0.6940289119E+00    0.2011003778E-01    0.5206657943E-01    0.3111847142E-03
    0.1900000000E+04    0.1726762726E-02    0.6942208252E+00    0.2257404016E-01    0.5886293453E-01    0.1973662454E-03
    0.2100000000E+04    0.1860748375E-02    0.6943761688E+00    0.2450575579E-01    0.6435569768E-01    0.1805674071E-03
    0.2300000000E+04    0.1980828626E-02    0.6945044715E+00    0.2627886378E-01    0.6949969156E-01    0.1788316267E-03
    0.2500000000E+04    0.2092477342E-02    0.6946122170E+00    0.2796230051E-01    0.7446876452E-01    0.1792774136E-03
    0.2700000000E+04    0.2196968872E-02    0.6947039706E+00    0.2957075404E-01    0.7929693781E-01    0.1799986787E-03
    0.2900000000E+04    0.2294871611E-02    0.6947830392E+00    0.3110985935E-01    0.8399499453E-01    0.1807176300E-03
    0.3100000000E+04    0.2386614547E-02    0.6948518775E+00    0.3258357037E-01    0.8856961228E-01    0.1813978116E-03
    0.3300000000E+04    0.2472580009E-02    0.6949123453E+00    0.3399536468E-01    0.9302649049E-01    0.1820382655E-03
    0.3500000000E+04    0.2553120596E-02    0.6949658778E+00    0.3534845510E-01    0.9737088435E-01    0.1826426996E-03
    0.3700000000E+04    0.2628563741E-02    0.6950135998E+00    0.3664583920E-01    0.1016077145E+00    0.1832149232E-03
    0.3900000000E+04    0.2699214120E-02    0.6950564057E+00    0.3789032102E-01    0.1057416047E+00    0.1837582622E-03
    0.4100000000E+04    0.2765355529E-02    0.6950950154E+00    0.3908452687E-01    0.1097769067E+00    0.1842755643E-03
    0.4300000000E+04    0.2827252558E-02    0.6951300148E+00    0.4023091907E-01    0.1137177196E+00    0.1847692754E-03
    0.4500000000E+04    0.2885152094E-02    0.6951618858E+00    0.4133180837E-01    0.1175679090E+00    0.1852415096E-03
    0.4700000000E+04    0.2939284697E-02    0.6951910281E+00    0.4238936521E-01    0.1213311231E+00    0.1856941068E-03
    0.4900000000E+04    0.2989865843E-02    0.6952177762E+00    0.4340563006E-01    0.1250108082E+00    0.1861286784E-03
    0.1000000000E+04    0.2970684708E-03    0.6927535126E+00    0.3773662326E-02    0.9600878880E-02    0.3348020315E-02
    0.3000000000E+04    0.2341488374E-02    0.6948186093E+00    0.3185466457E-01    0.8629736422E-01    0.1810628565E-03
    0.5000000000E+04    0.3013888116E-02    0.6952303424E+00    0.4389888243E-01    0.1268203525E+00    0.1863396547E-03
    0.7000000000E+04    0.3350415506E-02    0.6954057751E+00    0.5200675395E-01    0.1593302501E+00    0.1898830579E-03
    0.9000000000E+04    0.3496005474E-02    0.6955026157E+00    0.5759967862E-01    0.1862940266E+00    0.1925678131E-03
    0.1100000000E+05    0.3529711377E-02    0.6955638299E+00    0.6150831398E-01    0.2092260443E+00    0.1947361357E-03
    0.1300000000E+05    0.3496878511E-02    0.6956059173E+00    0.6424724366E-01    0.2291122023E+00    0.1965583995E-03
    0.1500000000E+05    0.3424521911E-02    0.6956365639E+00    0.6615029632E-01    0.2466251462E+00    0.1981320713E-03
    0.1700000000E+05    0.3329198832E-02    0.6956598311E+00    0.6744227260E-01    0.2622416806E+00    0.1995182546E-03
    0.1900000000E+05    0.3221266713E-02    0.6956780656E+00    0.6827927705E-01    0.2763106937E+00    0.2007578378E-03
    0.2100000000E+05    0.3107291800E-02    0.6956927173E+00    0.6877252829E-01    0.2890944032E+00    0.2018795565E-03
    0.2300000000E+05    0.2991463165E-02    0.6957047295E+00    0.6900300188E-01    0.3007944456E+00    0.2029043915E-03
    0.2500000000E+05    0.2876449011E-02    0.6957147426E+00    0.6903075396E-01    0.3115689621E+00    0.2038481390E-03
    0.2700000000E+05    0.2763929002E-02    0.6957232062E+00    0.6890103834E-01    0.3215441301E+00    0.2047229950E-03
    0.2900000000E+05    0.2654932583E-02    0.6957304450E+00    0.6864842584E-01    0.3308221533E+00    0.2055385755E-03
    0.3100000000E+05    0.2550058081E-02    0.6957366997E+00    0.6829964222E-01    0.3394869265E+00    0.2063025995E-03
    0.3300000000E+05    0.2449616830E-02    0.6957421520E+00    0.6787556332E-01    0.3476081364E+00    0.2070213589E-03
    0.3500000000E+05    0.2353729233E-02    0.6957469417E+00    0.6739264293E-01    0.3552442840E+00    0.2077000509E-03
    0.3700000000E+05    0.2262389476E-02    0.6957511784E+00    0.6686395140E-01    0.3624449493E+00    0.2083430193E-03
    0.3900000000E+05    0.2175509461E-02    0.6957549489E+00    0.6629994193E-01    0.3692525143E+00    0.2089539323E-03
    0.4100000000E+05    0.2092948829E-02    0.6957583227E+00    0.6570902347E-01    0.3757034907E+00    0.2095359160E-03
    0.4300000000E+05    0.2014535521E-02    0.6957613565E+00    0.6509799402E-01    0.3818295567E+00    0.2100916571E-03
    0.4500000000E+05    0.1940079875E-02    0.6957640968E+00    0.6447237206E-01    0.3876583750E+00    0.2106234813E-03
    0.4700000000E+05    0.1869384250E-02    0.6957665819E+00    0.6383665231E-01    0.3932142452E+00    0.2111334158E-03
    0.4900000000E+05    0.1802249553E-02    0.6957688439E+00    0.6319450514E-01    0.3985186288E+00    0.2116232386E-03
    0.1000000000E+05    0.3523450822E-02    0.6955363349E+00    0.5972697557E-01    0.1981931732E+00    0.1937034993E-03
    0.3000000000E+05    0.2601955220E-02    0.6957336829E+00    0.6848463256E-01    0.3352265475E+00    0.2059266098E-03
    0.5000000000E+05    0.1769956047E-02    0.6957698999E+00    0.6287198210E-01    0.4010825506E+00    0.2118611053E-03
    0.7000000000E+05    0.1267503655E-02    0.6957840533E+00    0.5657418028E-01    0.4428322099E+00    0.2158617950E-03
    0.9000000000E+05    0.9504084538E-03    0.6957911500E+00    0.5103156425E-01    0.4724257883E+00    0.2188986869E-03
    0.1100000000E+06    0.7387693518E-03    0.6957951734E+00    0.4633605726E-01    0.4947566462E+00    0.2213540325E-03
    0.1300000000E+06    0.5907208790E-03    0.6957976145E+00    0.4236875044E-01    0.5123120899E+00    0.2234189340E-03
    0.1500000000E+06    0.4831466178E-03    0.6957991499E+00    0.3899502720E-01    0.5265251452E+00    0.2252029990E-03
    0.1700000000E+06    0.4025276608E-03    0.6958001278E+00    0.3610072065E-01    0.5382923946E+00    0.2267750624E-03
    0.1900000000E+06    0.3405482538E-03    0.6958007438E+00    0.3359516701E-01    0.5482087860E+00    0.2281812455E-03
    0.2100000000E+06    0.2918692767E-03    0.6958011154E+00    0.3140748624E-01    0.5566870274E+00    0.2294539921E-03
    0.2300000000E+06    0.2529361307E-03    0.6958013168E+00    0.2948222330E-01    0.5640235665E+00    0.2306170089E-03
    0.2500000000E+06    0.2213079736E-03    0.6958013968E+00    0.2777569225E-01    0.5704374394E+00    0.2316881550E-03
    0.2700000000E+06    0.1952635718E-03    0.6958013887E+00    0.2625316332E-01    0.5760943197E+00    0.2326812258E-03
    0.2900000000E+06    0.1735607912E-03    0.6958013156E+00    0.2488675626E-01    0.5811220235E+00    0.2336071034E-03
    0.3100000000E+06    0.1552849303E-03    0.6958011941E+00    0.2365387217E-01    0.5856208490E+00    0.2344745258E-03
    0.3300000000E+06    0.1397502754E-03    0.6958010364E+00    0.2253602256E-01    0.5896706716E+00    0.2352906177E-03
    0.3500000000E+06    0.1264345519E-03    0.6958008515E+00    0.2151794899E-01    0.5933359323E+00    0.2360612659E-03
    0.3700000000E+06    0.1149342792E-03    0.6958006459E+00    0.2058695546E-01    0.5966692217E+00    0.2367913916E-03
    0.3900000000E+06    0.1049337400E-03    0.6958004250E+00    0.1973239731E-01    0.5997139016E+00    0.2374851513E-03
    0.4100000000E+06    0.9618301596E-04    0.6958001925E+00    0.1894528635E-01    0.6025060571E+00    0.2381460883E-03
    0.4300000000E+06    0.8848218311E-04    0.6957999516E+00    0.1821798293E-01    0.6050759691E+00    0.2387772477E-03
    0.4500000000E+06    0.8166976688E-04    0.6957997046E+00    0.1754395364E-01    0.6074492424E+00    0.2393812663E-03
    0.4700000000E+06    0.7561419404E-04    0.6957994535E+00    0.1691757913E-01    0.6096476785E+00    0.2399604429E-03
    0.4900000000E+06    0.7020738323E-04    0.6957991996E+00    0.1633400039E-01    0.6116899595E+00    0.2405167933E-03
    0.1000000000E+06    0.8346215963E-03    0.6957934238E+00    0.4858407231E-01    0.4843094869E+00    0.2201844515E-03
    0.3000000000E+06    0.1640418268E-03    0.6958012601E+00    0.2425486420E-01    0.5834321419E+00    0.2340476434E-03
    0.5000000000E+06    0.6771869071E-04    0.6957990721E+00    0.1605691790E-01    0.6126576625E+00    0.2407869727E-03
    0.7000000000E+06    0.3672678385E-04    0.6957965627E+00    0.1198031960E-01    0.6267580613E+00    0.2453315985E-03
    0.9000000000E+06    0.2299467226E-04    0.6957942892E+00    0.9545920335E-02    0.6350672836E+00    0.2487818495E-03
    0.1100000000E+07    0.1573554776E-04    0.6957922773E+00    0.7929199122E-02    0.6405452400E+00    0.2515716068E-03
    0.1300000000E+07    0.1144002441E-04    0.6957904895E+00    0.6778052794E-02    0.6444278945E+00    0.2539178532E-03
    0.1500000000E+07    0.8690423486E-05    0.6957888862E+00    0.5917008109E-02    0.6473231755E+00    0.2559450640E-03
    0.1700000000E+07    0.6825342276E-05    0.6957874351E+00    0.5248859995E-02    0.6495649718E+00    0.2577314215E-03
    0.1900000000E+07    0.5502578348E-05    0.6957861104E+00    0.4715431913E-02    0.6513519112E+00    0.2593293147E-03
    0.2100000000E+07    0.4530677337E-05    0.6957848923E+00    0.4279784494E-02    0.6528095526E+00    0.2607755990E-03
    0.2300000000E+07    0.3795749915E-05    0.6957837649E+00    0.3917340156E-02    0.6540211525E+00    0.2620972060E-03
    0.2500000000E+07    0.3226612935E-05    0.6957827155E+00    0.3611113919E-02    0.6550440937E+00    0.2633144253E-03
    0.2700000000E+07    0.2776924822E-05    0.6957817341E+00    0.3348993254E-02    0.6559192100E+00    0.2644429300E-03
    0.2900000000E+07    0.2415467098E-05    0.6957808122E+00    0.3122108764E-02    0.6566763493E+00    0.2654950841E-03
    0.3100000000E+07    0.2120588103E-05    0.6957799428E+00    0.2923817452E-02    0.6573378349E+00    0.2664808154E-03
    0.3300000000E+07    0.1876889897E-05    0.6957791204E+00    0.2749045781E-02    0.6579206949E+00    0.2674082190E-03
    0.3500000000E+07    0.1673180154E-05    0.6957783399E+00    0.2593852297E-02    0.6584381445E+00    0.2682839839E-03
    0.3700000000E+07    0.1501165797E-05    0.6957775972E+00    0.2455128735E-02    0.6589005959E+00    0.2691137016E-03
    0.3900000000E+07    0.1354596570E-05    0.6957768887E+00    0.2330391047E-02    0.6593163643E+00    0.2699020950E-03
    0.4100000000E+07    0.1228689802E-05    0.6957762114E+00    0.2217630282E-02    0.6596921697E+00    0.2706531903E-03
    0.4300000000E+07    0.1119735609E-05    0.6957755625E+00    0.2115204262E-02    0.6600335023E+00    0.2713704476E-03
    0.4500000000E+07    0.1024820649E-05    0.6957749397E+00    0.2021757583E-02    0.6603448914E+00    0.2720568631E-03
    0.4700000000E+07    0.9416314149E-06    0.6957743410E+00    0.1936161674E-02    0.6606301064E+00    0.2727150488E-03
    0.4900000000E+07    0.8683119485E-06    0.6957737645E+00    0.1857469278E-02    0.6608923101E+00    0.2733472955E-03
    0.1000000000E+07    0.1885221830E-04    0.6957932526E+00    0.8663384420E-02    0.6380613491E+00    0.2502427120E-03
    0.3000000000E+07    0.2260785630E-05    0.6957803713E+00    0.3019736886E-02    0.6570178806E+00    0.2659957093E-03
    0.5000000000E+07    0.8348722192E-06    0.6957734841E+00    0.1820456680E-02    0.6610156346E+00    0.2736543325E-03
    0.7000000000E+07    0.4356490243E-06    0.6957687258E+00    0.1300610999E-02    0.6627478387E+00    0.2788189581E-03
    0.9000000000E+07    0.2698556799E-06    0.6957650703E+00    0.1010693426E-02    0.6637142987E+00    0.2827399311E-03
    0.1100000000E+08    0.1853070519E-06    0.6957620930E+00    0.8259391364E-03    0.6643305604E+00    0.2859103065E-03
    0.1300000000E+08    0.1363342969E-06    0.6957595764E+00    0.6979830404E-03    0.6647576368E+00    0.2885766639E-03
    0.1500000000E+08    0.1053868565E-06    0.6957573938E+00    0.6041591359E-03    0.6650709840E+00    0.2908804592E-03
    0.1700000000E+08    0.8454883195E-07    0.6957554648E+00    0.5324380816E-03    0.6653106548E+00    0.2929105405E-03
    0.1900000000E+08    0.6982245702E-07    0.6957537350E+00    0.4758450832E-03    0.6654998779E+00    0.2947264439E-03
    0.2100000000E+08    0.5901076840E-07    0.6957521661E+00    0.4300584810E-03    0.6656530502E+00    0.2963700532E-03
    0.2300000000E+08    0.5082447478E-07    0.6957507300E+00    0.3922582967E-03    0.6657795689E+00    0.2978719744E-03
    0.2500000000E+08    0.4446608538E-07    0.6957494051E+00    0.3605264040E-03    0.6658858277E+00    0.2992552652E-03
    0.2700000000E+08    0.3942057216E-07    0.6957481751E+00    0.3335128626E-03    0.6659763279E+00    0.3005377372E-03
