  Pressure (Pa) 22mC5-500 (mol/kg) 24mC5-500 (mol/kg) 2mC6-500 (mol/kg) 3mC6-500 (mol/kg) C7-500 (mol/kg)
    0.1000000000E+01    0.2364432787E-05    0.9949507615E-01    0.2147613617E-04    0.3092472653E-05    0.4204011032E-02
    0.3000000000E+01    0.5230202651E-05    0.2320878353E+00    0.4553823548E-04    0.7948606565E-05    0.4264194061E-02
    0.5000000000E+01    0.6859719808E-05    0.3164272019E+00    0.5809746662E-04    0.1242681919E-04    0.4301250820E-02
    0.7000000000E+01    0.7880835618E-05    0.3748001337E+00    0.6554309682E-04    0.1672354025E-04    0.4326939513E-02
    0.9000000000E+01    0.8568473731E-05    0.4175994244E+00    0.7048751817E-04    0.2090522998E-04    0.4345865756E-02
    0.1100000000E+02    0.9059558828E-05    0.4503243953E+00    0.7413972906E-04    0.2500519004E-04    0.4360408546E-02
    0.1300000000E+02    0.9428626371E-05    0.4761577422E+00    0.7710717017E-04    0.2904325868E-04    0.4371937718E-02
    0.1500000000E+02    0.9719009163E-05    0.4970691966E+00    0.7971320171E-04    0.3303251625E-04    0.4381301331E-02
    0.1700000000E+02    0.9957208310E-05    0.5143431156E+00    0.8213711794E-04    0.3698218980E-04    0.4389053732E-02
    0.1900000000E+02    0.1016009336E-04    0.5288527305E+00    0.8448107733E-04    0.4089911112E-04    0.4395573144E-02
    0.2100000000E+02    0.1033875506E-04    0.5412124653E+00    0.8680416718E-04    0.4478852668E-04    0.4401126767E-02
    0.2300000000E+02    0.1050067972E-04    0.5518672057E+00    0.8914063056E-04    0.4865458235E-04    0.4405908920E-02
    0.2500000000E+02    0.1065103143E-04    0.5611470036E+00    0.9151002259E-04    0.5250063047E-04    0.4410064415E-02
    0.2700000000E+02    0.1079343677E-04    0.5693018828E+00    0.9392306049E-04    0.5632943364E-04    0.4413703464E-02
    0.2900000000E+02    0.1093048038E-04    0.5765247094E+00    0.9638508561E-04    0.6014330482E-04    0.4416911484E-02
    0.3100000000E+02    0.1106402644E-04    0.5829666423E+00    0.9889815799E-04    0.6394420695E-04    0.4419755739E-02
    0.3300000000E+02    0.1119543236E-04    0.5887478293E+00    0.1014623458E-03    0.6773382538E-04    0.4422289947E-02
    0.3500000000E+02    0.1132569368E-04    0.5939649722E+00    0.1040765294E-03    0.7151362191E-04    0.4424557551E-02
    0.3700000000E+02    0.1145554410E-04    0.5986967798E+00    0.1067389080E-03    0.7528487585E-04    0.4426594079E-02
    0.3900000000E+02    0.1158552576E-04    0.6030079669E+00    0.1094473191E-03    0.7904871569E-04    0.4428428882E-02
    0.4100000000E+02    0.1171603929E-04    0.6069522322E+00    0.1121994407E-03    0.8280614401E-04    0.4430086427E-02
    0.4300000000E+02    0.1184737984E-04    0.6105745066E+00    0.1149929179E-03    0.8655805719E-04    0.4431587286E-02
    0.4500000000E+02    0.1197976347E-04    0.6139126725E+00    0.1178254409E-03    0.9030526133E-04    0.4432948884E-02
    0.4700000000E+02    0.1211334650E-04    0.6169988941E+00    0.1206947909E-03    0.9404848518E-04    0.4434186084E-02
    0.4900000000E+02    0.1224823998E-04    0.6198606567E+00    0.1235988662E-03    0.9778839071E-04    0.4435311646E-02
    0.1000000000E+02    0.8832949443E-05    0.4349849632E+00    0.7242807923E-04    0.2296397765E-04    0.4353583374E-02
    0.3000000000E+02    0.1099759585E-04    0.5798351525E+00    0.9763520118E-04    0.6204526589E-04    0.4418375451E-02
    0.5000000000E+02    0.1231620319E-04    0.6212148814E+00    0.1250633044E-03    0.9965728992E-04    0.4435836067E-02
    0.7000000000E+02    0.1375214441E-04    0.6408152928E+00    0.1557679978E-03    0.1369839906E-03    0.4442486132E-02
    0.9000000000E+02    0.1532410775E-04    0.6522485514E+00    0.1884455883E-03    0.1744422267E-03    0.4444753118E-02
    0.1100000000E+03    0.1700836007E-04    0.6597390333E+00    0.2225075781E-03    0.2122532713E-03    0.4444726231E-02
    0.1300000000E+03    0.1878627002E-04    0.6650261961E+00    0.2576889726E-03    0.2505600448E-03    0.4443301192E-02
    0.1500000000E+03    0.2064573427E-04    0.6689574751E+00    0.2938690165E-03    0.2894670812E-03    0.4440929899E-02
    0.1700000000E+03    0.2257919127E-04    0.6719951106E+00    0.3309968476E-03    0.3290578413E-03    0.4437866138E-02
    0.1900000000E+03    0.2458205213E-04    0.6744126743E+00    0.3690583585E-03    0.3694034149E-03    0.4434263539E-02
    0.2100000000E+03    0.2665169611E-04    0.6763824153E+00    0.4080602619E-03    0.4105673739E-03    0.4430220266E-02
    0.2300000000E+03    0.2878684491E-04    0.6780181928E+00    0.4480219279E-03    0.4526087032E-03    0.4425801530E-02
    0.2500000000E+03    0.3098716897E-04    0.6793982847E+00    0.4889709902E-03    0.4955836889E-03    0.4421051837E-02
    0.2700000000E+03    0.3325303510E-04    0.6805782794E+00    0.5309408930E-03    0.5395472031E-03    0.4416002062E-02
    0.2900000000E+03    0.3558534142E-04    0.6815987410E+00    0.5739694910E-03    0.5845536252E-03    0.4410673745E-02
    0.3100000000E+03    0.3798540797E-04    0.6824899639E+00    0.6180982473E-03    0.6306575326E-03    0.4405081803E-02
    0.3300000000E+03    0.4045490313E-04    0.6832750292E+00    0.6633717836E-03    0.6779142428E-03    0.4399236308E-02
    0.3500000000E+03    0.4299579431E-04    0.6839718312E+00    0.7098376479E-03    0.7263802582E-03    0.4393143681E-02
    0.3700000000E+03    0.4561031493E-04    0.6845944567E+00    0.7575462196E-03    0.7761136457E-03    0.4386807512E-02
    0.3900000000E+03    0.4830094303E-04    0.6851541463E+00    0.8065507069E-03    0.8271743739E-03    0.4380229139E-02
    0.4100000000E+03    0.5107038816E-04    0.6856599792E+00    0.8569072073E-03    0.8796246227E-03    0.4373408059E-02
    0.4300000000E+03    0.5392158448E-04    0.6861193681E+00    0.9086748150E-03    0.9335290762E-03    0.4366342224E-02
    0.4500000000E+03    0.5685768846E-04    0.6865384254E+00    0.9619157635E-03    0.9889552080E-03    0.4359028256E-02
    0.4700000000E+03    0.5988208038E-04    0.6869222362E+00    0.1016695598E-02    0.1045973564E-02    0.4351461604E-02
    0.4900000000E+03    0.6299836876E-04    0.6872750652E+00    0.1073083374E-02    0.1104658049E-02    0.4343636653E-02
    0.1000000000E+03    0.1615353690E-04    0.6563471550E+00    0.2053248186E-03    0.1932935160E-03    0.4444955296E-02
    0.3000000000E+03    0.3677680788E-04    0.6820589233E+00    0.5958936310E-03    0.6074649589E-03    0.4407910000E-02
    0.5000000000E+03    0.6459216589E-04    0.6874410099E+00    0.1101902834E-02    0.1134649176E-02    0.4339625293E-02
    0.7000000000E+03    0.1023945102E-03    0.6897717589E+00    0.1783223348E-02    0.1843659815E-02    0.4243684100E-02
    0.9000000000E+03    0.1559605487E-03    0.6910723147E+00    0.2746077688E-02    0.2846500978E-02    0.4107928205E-02
    0.1100000000E+04    0.2361189734E-03    0.6919017420E+00    0.4186589735E-02    0.4349051742E-02    0.3907763248E-02
    0.1300000000E+04    0.3640862642E-03    0.6924765920E+00    0.6488734533E-02    0.6754986954E-02    0.3595917030E-02
    0.1500000000E+04    0.5812751242E-03    0.6928983553E+00    0.1040459029E-01    0.1085805349E-01    0.3085336939E-02
    0.1700000000E+04    0.9480795762E-03    0.6932209160E+00    0.1704345496E-01    0.1784196159E-01    0.2270222071E-02
    0.1900000000E+04    0.1437850042E-02    0.6934755327E+00    0.2597343786E-01    0.2730419957E-01    0.1287889730E-02
    0.2100000000E+04    0.1829244583E-02    0.6936815844E+00    0.3322571661E-01    0.3510795226E-01    0.6630824439E-03
    0.2300000000E+04    0.2054499018E-02    0.6938517238E+00    0.3753435448E-01    0.3988164892E-01    0.4556707416E-03
    0.2500000000E+04    0.2205075044E-02    0.6939945617E+00    0.4052181723E-01    0.4329906345E-01    0.4064270248E-03
    0.2700000000E+04    0.2330732025E-02    0.6941161615E+00    0.4308113526E-01    0.4629232964E-01    0.3966788553E-03
    0.2900000000E+04    0.2445793946E-02    0.6942209161E+00    0.4546978579E-01    0.4913079314E-01    0.3957302092E-03
    0.3100000000E+04    0.2553987304E-02    0.6943120860E+00    0.4775380858E-01    0.5188272627E-01    0.3966561311E-03
    0.3300000000E+04    0.2656429191E-02    0.6943921418E+00    0.4995191738E-01    0.5456647795E-01    0.3979336235E-03
    0.3500000000E+04    0.2753607282E-02    0.6944629901E+00    0.5207144054E-01    0.5718839884E-01    0.3992312789E-03
    0.3700000000E+04    0.2845847029E-02    0.6945261252E+00    0.5411684368E-01    0.5975187998E-01    0.4004807832E-03
    0.3900000000E+04    0.2933422119E-02    0.6945827352E+00    0.5609174883E-01    0.6225950015E-01    0.4016719149E-03
    0.4100000000E+04    0.3016581482E-02    0.6946337761E+00    0.5799942444E-01    0.6471354443E-01    0.4028068918E-03
    0.4300000000E+04    0.3095556642E-02    0.6946800263E+00    0.5984291336E-01    0.6711613555E-01    0.4038901649E-03
    0.4500000000E+04    0.3170564322E-02    0.6947221259E+00    0.6162507378E-01    0.6946927203E-01    0.4049261832E-03
    0.4700000000E+04    0.3241807846E-02    0.6947606057E+00    0.6334859833E-01    0.7177484322E-01    0.4059189614E-03
    0.4900000000E+04    0.3309478186E-02    0.6947959100E+00    0.6501602713E-01    0.7403463825E-01    0.4068720492E-03
    0.1000000000E+04    0.1917259521E-03    0.6915283477E+00    0.3388725896E-02    0.3516515206E-02    0.4018138307E-02
    0.3000000000E+04    0.2500654008E-02    0.6942680293E+00    0.4662324579E-01    0.5051594316E-01    0.3961035233E-03
    0.5000000000E+04    0.3342029938E-02    0.6948124907E+00    0.6582946041E-01    0.7514790316E-01    0.4073347030E-03
    0.7000000000E+04    0.3843776080E-02    0.6950435150E+00    0.7967000581E-01    0.9537860293E-01    0.4151006352E-03
    0.9000000000E+04    0.4138150416E-02    0.6951704794E+00    0.8995189156E-01    0.1125107807E+00    0.4209801998E-03
    0.1100000000E+05    0.4300941484E-02    0.6952503657E+00    0.9776283506E-01    0.1273589910E+00    0.4257266797E-03
    0.1300000000E+05    0.4377921077E-02    0.6953050292E+00    0.1037959366E+00    0.1404626173E+00    0.4297144793E-03
    0.1500000000E+05    0.4397863526E-02    0.6953446377E+00    0.1085126199E+00    0.1521946645E+00    0.4331575662E-03
    0.1700000000E+05    0.4379446711E-02    0.6953745567E+00    0.1122312723E+00    0.1628224109E+00    0.4361899844E-03
    0.1900000000E+05    0.4335112246E-02    0.6953978823E+00    0.1151782317E+00    0.1725431375E+00    0.4389013859E-03
    0.2100000000E+05    0.4273322831E-02    0.6954165244E+00    0.1175185039E+00    0.1815061615E+00    0.4413547510E-03
    0.2300000000E+05    0.4199932413E-02    0.6954317243E+00    0.1193750027E+00    0.1898269559E+00    0.4435960499E-03
    0.2500000000E+05    0.4119044608E-02    0.6954443232E+00    0.1208410099E+00    0.1975965030E+00    0.4456598842E-03
    0.2700000000E+05    0.4033565326E-02    0.6954549107E+00    0.1219884796E+00    0.2048876677E+00    0.4475729633E-03
    0.2900000000E+05    0.3945567014E-02    0.6954639124E+00    0.1228737145E+00    0.2117596512E+00    0.4493563436E-03
    0.3100000000E+05    0.3856533724E-02    0.6954716429E+00    0.1235413321E+00    0.2182611720E+00    0.4510269244E-03
    0.3300000000E+05    0.3767528993E-02    0.6954783394E+00    0.1240270911E+00    0.2244327823E+00    0.4525984790E-03
    0.3500000000E+05    0.3679312691E-02    0.6954841844E+00    0.1243599416E+00    0.2303085851E+00    0.4540823833E-03
    0.3700000000E+05    0.3592423495E-02    0.6954893204E+00    0.1245635362E+00    0.2359175271E+00    0.4554881443E-03
    0.3900000000E+05    0.3507237839E-02    0.6954938602E+00    0.1246573583E+00    0.2412843853E+00    0.4568237894E-03
    0.4100000000E+05    0.3424012499E-02    0.6954978942E+00    0.1246575777E+00    0.2464305309E+00    0.4580961597E-03
    0.4300000000E+05    0.3342915678E-02    0.6955014958E+00    0.1245777056E+00    0.2513745270E+00    0.4593111335E-03
    0.4500000000E+05    0.3264049865E-02    0.6955047249E+00    0.1244291013E+00    0.2561326015E+00    0.4604737997E-03
    0.4700000000E+05    0.3187468800E-02    0.6955076313E+00    0.1242213701E+00    0.2607190248E+00    0.4615885937E-03
    0.4900000000E+05    0.3113190117E-02    0.6955102562E+00    0.1239626757E+00    0.2651464149E+00    0.4626594050E-03
    0.1000000000E+05    0.4232623100E-02    0.6952145302E+00    0.9411606660E-01    0.1201818132E+00    0.4234664331E-03
    0.3000000000E+05    0.3901104984E-02    0.6954679202E+00    0.1232323101E+00    0.2150540161E+00    0.4502048096E-03
    0.5000000000E+05    0.3076912196E-02    0.6955114743E+00    0.1238164369E+00    0.2673040257E+00    0.4631794049E-03
    0.7000000000E+05    0.2462541638E-02    0.6955271493E+00    0.1194634521E+00    0.3042755139E+00    0.4719248563E-03
    0.9000000000E+05    0.2017015072E-02    0.6955341836E+00    0.1140499998E+00    0.3330434058E+00    0.4785629997E-03
    0.1100000000E+06    0.1685996461E-02    0.6955375843E+00    0.1085953536E+00    0.3565702472E+00    0.4839297565E-03
    0.1300000000E+06    0.1433169968E-02    0.6955391871E+00    0.1034116547E+00    0.3764122408E+00    0.4884429757E-03
    0.1500000000E+06    0.1235281351E-02    0.6955398067E+00    0.9858810450E-01    0.3935030648E+00    0.4923422954E-03
    0.1700000000E+06    0.1077139418E-02    0.6955398525E+00    0.9413476141E-01    0.4084537821E+00    0.4957782024E-03
    0.1900000000E+06    0.9485179389E-03    0.6955395483E+00    0.9003273740E-01    0.4216894421E+00    0.4988515219E-03
    0.2100000000E+06    0.8423267435E-03    0.6955390250E+00    0.8625350408E-01    0.4335192755E+00    0.5016331769E-03
    0.2300000000E+06    0.7535171155E-03    0.6955383626E+00    0.8276668875E-01    0.4441761070E+00    0.5041749894E-03
    0.2500000000E+06    0.6784083673E-03    0.6955376119E+00    0.7954321720E-01    0.4538400400E+00    0.5065159976E-03
    0.2700000000E+06    0.6142610941E-03    0.6955368061E+00    0.7655647581E-01    0.4626534723E+00    0.5086863566E-03
    0.2900000000E+06    0.5589990242E-03    0.6955359675E+00    0.7378261107E-01    0.4707310364E+00    0.5107098529E-03
    0.3100000000E+06    0.5110229857E-03    0.6955351112E+00    0.7120045783E-01    0.4781664188E+00    0.5126055860E-03
    0.3300000000E+06    0.4690835509E-03    0.6955342477E+00    0.6879131929E-01    0.4850371799E+00    0.5143891289E-03
    0.3500000000E+06    0.4321920030E-03    0.6955333842E+00    0.6653870086E-01    0.4914082472E+00    0.5160733489E-03
    0.3700000000E+06    0.3995569078E-03    0.6955325257E+00    0.6442804410E-01    0.4973345019E+00    0.5176690024E-03
    0.3900000000E+06    0.3705381514E-03    0.6955316757E+00    0.6244648029E-01    0.5028627323E+00    0.5191851744E-03
    0.4100000000E+06    0.3446131175E-03    0.6955308368E+00    0.6058261042E-01    0.5080331305E+00    0.5206296093E-03
    0.4300000000E+06    0.3213514457E-03    0.6955300104E+00    0.5882631285E-01    0.5128804587E+00    0.5220089630E-03
    0.4500000000E+06    0.3003959549E-03    0.6955291976E+00    0.5716857668E-01    0.5174349675E+00    0.5233289987E-03
    0.4700000000E+06    0.2814480533E-03    0.6955283992E+00    0.5560135836E-01    0.5217231282E+00    0.5245947404E-03
    0.4900000000E+06    0.2642564624E-03    0.6955276155E+00    0.5411745851E-01    0.5257682235E+00    0.5258105945E-03
    0.1000000000E+06    0.1839840980E-02    0.6955361871E+00    0.1113001976E+00    0.3453446613E+00    0.4813733739E-03
    0.3000000000E+06    0.5341853441E-03    0.6955355408E+00    0.7246879387E-01    0.4745238210E+00    0.5116726448E-03
    0.5000000000E+06    0.2562514896E-03    0.6955272292E+00    0.5340470771E-01    0.5277061453E+00    0.5264010463E-03
    0.7000000000E+06    0.1506763032E-03    0.6955202468E+00    0.4226103934E-01    0.5576302362E+00    0.5363327995E-03
    0.9000000000E+06    0.9923008545E-04    0.6955144555E+00    0.3495307021E-01    0.5769328619E+00    0.5438728039E-03
    0.1100000000E+07    0.7028954282E-04    0.6955095421E+00    0.2979131844E-01    0.5904428407E+00    0.5499693290E-03
    0.1300000000E+07    0.5239451240E-04    0.6955052826E+00    0.2595170427E-01    0.6004349029E+00    0.5550965924E-03
    0.1500000000E+07    0.4055827145E-04    0.6955015248E+00    0.2298425191E-01    0.6081271805E+00    0.5595266328E-03
    0.1700000000E+07    0.3232344911E-04    0.6954981627E+00    0.2062238056E-01    0.6142324666E+00    0.5634303146E-03
    0.1900000000E+07    0.2636392075E-04    0.6954951202E+00    0.1869809228E-01    0.6191961528E+00    0.5669221307E-03
    0.2100000000E+07    0.2191247682E-04    0.6954923410E+00    0.1710025275E-01    0.6233110566E+00    0.5700826260E-03
    0.2300000000E+07    0.1850010089E-04    0.6954897827E+00    0.1575240899E-01    0.6267776733E+00    0.5729706573E-03
    0.2500000000E+07    0.1582692036E-04    0.6954874120E+00    0.1460024070E-01    0.6297379345E+00    0.5756305653E-03
    0.2700000000E+07    0.1369393506E-04    0.6954852028E+00    0.1360409288E-01    0.6322951490E+00    0.5780966023E-03
    0.2900000000E+07    0.1196486931E-04    0.6954831340E+00    0.1273434060E-01    0.6345263104E+00    0.5803957879E-03
    0.3100000000E+07    0.1054385714E-04    0.6954811887E+00    0.1196840728E-01    0.6364899768E+00    0.5825498186E-03
    0.3300000000E+07    0.9361870422E-05    0.6954793524E+00    0.1128878684E-01    0.6382314783E+00    0.5845763850E-03
    0.3500000000E+07    0.8368182644E-05    0.6954776134E+00    0.1068169643E-01    0.6397864531E+00    0.5864901047E-03
    0.3700000000E+07    0.7524840548E-05    0.6954759616E+00    0.1013613689E-01    0.6411833067E+00    0.5883031975E-03
    0.3900000000E+07    0.6802990413E-05    0.6954743885E+00    0.9643224110E-02    0.6424449575E+00    0.5900259846E-03
    0.4100000000E+07    0.6180380495E-05    0.6954728868E+00    0.9195704184E-02    0.6435901012E+00    0.5916672642E-03
    0.4300000000E+07    0.5639628124E-05    0.6954714501E+00    0.8787596050E-02    0.6446341401E+00    0.5932345982E-03
    0.4500000000E+07    0.5166995135E-05    0.6954700729E+00    0.8413924191E-02    0.6455898778E+00    0.5947345344E-03
    0.4700000000E+07    0.4751508093E-05    0.6954687503E+00    0.8070515947E-02    0.6464680446E+00    0.5961727804E-03
    0.4900000000E+07    0.4384316661E-05    0.6954674781E+00    0.7753845942E-02    0.6472777012E+00    0.5975543428E-03
    0.1000000000E+07    0.8289415659E-04    0.6955119051E+00    0.3216766584E-01    0.5842347906E+00    0.5470652700E-03
    0.3000000000E+07    0.1122068136E-04    0.6954821469E+00    0.1233959133E-01    0.6355384851E+00    0.5814897605E-03
    0.5000000000E+07    0.4216527247E-05    0.6954668596E+00    0.7604582808E-02    0.6476592914E+00    0.5982252680E-03
    0.7000000000E+07    0.2196588383E-05    0.6954564051E+00    0.5486307282E-02    0.6530720692E+00    0.6095107089E-03
    0.9000000000E+07    0.1347926240E-05    0.6954484147E+00    0.4286880744E-02    0.6561353846E+00    0.6180784750E-03
    0.1100000000E+08    0.9131027749E-06    0.6954419278E+00    0.3515626624E-02    0.6581049345E+00    0.6250060274E-03
    0.1300000000E+08    0.6609556948E-06    0.6954364573E+00    0.2978282717E-02    0.6594772121E+00    0.6308322051E-03
    0.1500000000E+08    0.5017783023E-06    0.6954317213E+00    0.2582598501E-02    0.6604878361E+00    0.6358661218E-03
    0.1700000000E+08    0.3948628564E-06    0.6954275415E+00    0.2279165548E-02    0.6612629575E+00    0.6403019301E-03
    0.1900000000E+08    0.3195705826E-06    0.6954237982E+00    0.2039143132E-02    0.6618761992E+00    0.6442697287E-03
    0.2100000000E+08    0.2645316785E-06    0.6954204066E+00    0.1844568865E-02    0.6623734105E+00    0.6478610416E-03
    0.2300000000E+08    0.2230641651E-06    0.6954173047E+00    0.1683673885E-02    0.6627846306E+00    0.6511427484E-03
    0.2500000000E+08    0.1910320575E-06    0.6954144458E+00    0.1548426462E-02    0.6631303603E+00    0.6541652341E-03
    0.2700000000E+08    0.1657639864E-06    0.6954117934E+00    0.1433158418E-02    0.6634250675E+00    0.6569674203E-03
