  Pressure (Pa) 22mC5-500 (mol/kg) 24mC5-500 (mol/kg) 2mC6-500 (mol/kg) 3mC6-500 (mol/kg) C7-500 (mol/kg)
    0.1000000000E+01    0.2056420205E-05    0.1741118574E+00    0.7982766618E-05    0.7187598877E-05    0.4167287356E-02
    0.3000000000E+01    0.3817168035E-05    0.3481384462E+00    0.1410139836E-04    0.1809893792E-04    0.4190277909E-02
    0.5000000000E+01    0.4569618384E-05    0.4351211131E+00    0.1663312079E-04    0.2808402104E-04    0.4198626307E-02
    0.7000000000E+01    0.4987765223E-05    0.4873014884E+00    0.1824016670E-04    0.3763304534E-04    0.4203008759E-02
    0.9000000000E+01    0.5268939619E-05    0.5220847777E+00    0.1958212660E-04    0.4690960146E-04    0.4205574984E-02
    0.1100000000E+02    0.5487320281E-05    0.5469282995E+00    0.2086213687E-04    0.5599504184E-04    0.4207139735E-02
    0.1300000000E+02    0.5675256484E-05    0.5655600624E+00    0.2214872100E-04    0.6493757127E-04    0.4208089842E-02
    0.1500000000E+02    0.5848293299E-05    0.5800509344E+00    0.2346453535E-04    0.7376884400E-04    0.4208634464E-02
    0.1700000000E+02    0.6014407368E-05    0.5916433287E+00    0.2481534393E-04    0.8251111680E-04    0.4208897106E-02
    0.1900000000E+02    0.6177873893E-05    0.6011278204E+00    0.2620056623E-04    0.9118082522E-04    0.4208955561E-02
    0.2100000000E+02    0.6341043524E-05    0.6090314330E+00    0.2761738679E-04    0.9979056367E-04    0.4208861330E-02
    0.2300000000E+02    0.6505219083E-05    0.6157190143E+00    0.2906240915E-04    0.1083502669E-03    0.4208649888E-02
    0.2500000000E+02    0.6671112984E-05    0.6214511613E+00    0.3053231493E-04    0.1168679569E-03    0.4208346477E-02
    0.2700000000E+02    0.6839096758E-05    0.6264189736E+00    0.3202410525E-04    0.1253502370E-03    0.4207969550E-02
    0.2900000000E+02    0.7009342096E-05    0.6307657724E+00    0.3353516466E-04    0.1338026312E-03    0.4207532909E-02
    0.3100000000E+02    0.7181902874E-05    0.6346011545E+00    0.3506325177E-04    0.1422298249E-03    0.4207047084E-02
    0.3300000000E+02    0.7356763940E-05    0.6380103603E+00    0.3660646213E-04    0.1506358398E-03    0.4206520242E-02
    0.3500000000E+02    0.7533870597E-05    0.6410606839E+00    0.3816318379E-04    0.1590241637E-03    0.4205958817E-02
    0.3700000000E+02    0.7713146634E-05    0.6438059601E+00    0.3973205397E-04    0.1673978497E-03    0.4205367943E-02
    0.3900000000E+02    0.7894505409E-05    0.6462897689E+00    0.4131192010E-04    0.1757595917E-03    0.4204751764E-02
    0.4100000000E+02    0.8077856635E-05    0.6485477662E+00    0.4290180626E-04    0.1841117847E-03    0.4204113662E-02
    0.4300000000E+02    0.8263110513E-05    0.6506094068E+00    0.4450088473E-04    0.1924565715E-03    0.4203456420E-02
    0.4500000000E+02    0.8450180161E-05    0.6524992362E+00    0.4610845221E-04    0.2007958814E-03    0.4202782350E-02
    0.4700000000E+02    0.8638982997E-05    0.6542378724E+00    0.4772391004E-04    0.2091314603E-03    0.4202093387E-02
    0.4900000000E+02    0.8829441432E-05    0.6558427613E+00    0.4934674775E-04    0.2174648968E-03    0.4201391162E-02
    0.1000000000E+02    0.5383391197E-05    0.5354622283E+00    0.2022394806E-04    0.5147268633E-04    0.4206452502E-02
    0.3000000000E+02    0.7095332800E-05    0.6327415787E+00    0.3429720617E-04    0.1380191129E-03    0.4207295587E-02
    0.5000000000E+02    0.8925268694E-05    0.6565997823E+00    0.5016079524E-04    0.2216312701E-03    0.4201035516E-02
    0.7000000000E+02    0.1091394949E-04    0.6673845716E+00    0.6675227301E-04    0.3051430408E-03    0.4193471858E-02
    0.9000000000E+02    0.1301429302E-04    0.6735305580E+00    0.8384221051E-04    0.3895678331E-03    0.4185374763E-02
    0.1100000000E+03    0.1520612312E-04    0.6775008629E+00    0.1013919822E-03    0.4754637799E-03    0.4176947911E-02
    0.1300000000E+03    0.1748136214E-04    0.6802770136E+00    0.1194127272E-03    0.5632107393E-03    0.4168258052E-02
    0.1500000000E+03    0.1983750087E-04    0.6823273154E+00    0.1379314986E-03    0.6531042565E-03    0.4159326193E-02
    0.1700000000E+03    0.2227487666E-04    0.6839035135E+00    0.1569813576E-03    0.7453962630E-03    0.4150154812E-02
    0.1900000000E+03    0.2479544681E-04    0.6851530018E+00    0.1765981720E-03    0.8403156610E-03    0.4140737766E-02
    0.2100000000E+03    0.2740219500E-04    0.6861678140E+00    0.1968195996E-03    0.9380799895E-03    0.4131064382E-02
    0.2300000000E+03    0.3009882928E-04    0.6870083839E+00    0.2176848617E-03    0.1038902677E-02    0.4121121301E-02
    0.2500000000E+03    0.3288962499E-04    0.6877160355E+00    0.2392348205E-03    0.1142997940E-02    0.4110893344E-02
    0.2700000000E+03    0.3577934452E-04    0.6883199829E+00    0.2615121805E-03    0.1250584349E-02    0.4100363916E-02
    0.2900000000E+03    0.3877320054E-04    0.6888414636E+00    0.2845617442E-03    0.1361887629E-02    0.4089515190E-02
    0.3100000000E+03    0.4187684533E-04    0.6892962867E+00    0.3084306941E-03    0.1477143002E-02    0.4078328156E-02
    0.3300000000E+03    0.4509637683E-04    0.6896964635E+00    0.3331688919E-03    0.1596597275E-02    0.4066782612E-02
    0.3500000000E+03    0.4843835637E-04    0.6900512827E+00    0.3588291944E-03    0.1720510794E-02    0.4054857103E-02
    0.3700000000E+03    0.5190983501E-04    0.6903680412E+00    0.3854677867E-03    0.1849159356E-02    0.4042528831E-02
    0.3900000000E+03    0.5551838709E-04    0.6906525501E+00    0.4131445361E-03    0.1982836135E-02    0.4029773557E-02
    0.4100000000E+03    0.5927215004E-04    0.6909094950E+00    0.4419233709E-03    0.2121853668E-02    0.4016565467E-02
    0.4300000000E+03    0.6317987021E-04    0.6911426957E+00    0.4718726883E-03    0.2266545955E-02    0.4002877038E-02
    0.4500000000E+03    0.6725095465E-04    0.6913552975E+00    0.5030657961E-03    0.2417270686E-02    0.3988678877E-02
    0.4700000000E+03    0.7149552912E-04    0.6915499136E+00    0.5355813926E-03    0.2574411645E-02    0.3973939555E-02
    0.4900000000E+03    0.7592450264E-04    0.6917287331E+00    0.5695040915E-03    0.2738381316E-02    0.3958625415E-02
    0.1000000000E+03    0.1409945654E-04    0.6757084573E+00    0.9255949658E-04    0.4323054911E-03    0.4181196770E-02
    0.3000000000E+03    0.4031092882E-04    0.6890763823E+00    0.2963907460E-03    0.1419006173E-02    0.4083965195E-02
    0.5000000000E+03    0.7821177976E-04    0.6918128081E+00    0.5870213035E-03    0.2823064361E-02    0.3950741613E-02
    0.7000000000E+03    0.1371816376E-03    0.6929918143E+00    0.1038619234E-02    0.5008686852E-02    0.3752174145E-02
    0.9000000000E+03    0.2379786279E-03    0.6936483164E+00    0.1811484750E-02    0.8757967726E-02    0.3427130029E-02
    0.1100000000E+04    0.4288892049E-03    0.6940665816E+00    0.3279223699E-02    0.1590023223E-01    0.2842961575E-02
    0.1300000000E+04    0.7955010333E-03    0.6943563343E+00    0.6111502363E-02    0.2975078747E-01    0.1806741203E-02
    0.1500000000E+04    0.1272372487E-02    0.6945688906E+00    0.9834520583E-02    0.4814490407E-01    0.6574250101E-03
    0.1700000000E+04    0.1573532951E-02    0.6947314571E+00    0.1224873314E-01    0.6037444073E-01    0.1865378405E-03
    0.1900000000E+04    0.1744440047E-02    0.6948598014E+00    0.1367935561E-01    0.6790802508E-01    0.9652826820E-04
    0.2100000000E+04    0.1879282959E-02    0.6949636919E+00    0.1484559575E-01    0.7422387267E-01    0.8312690469E-04
    0.2300000000E+04    0.2001444690E-02    0.6950495028E+00    0.1592672052E-01    0.8019313426E-01    0.8148320938E-04
    0.2500000000E+04    0.2115316100E-02    0.6951215707E+00    0.1695564910E-01    0.8597290667E-01    0.8155658640E-04
    0.2700000000E+04    0.2221981268E-02    0.6951829481E+00    0.1793969950E-01    0.9159470878E-01    0.8186320056E-04
    0.2900000000E+04    0.2321966311E-02    0.6952358463E+00    0.1888191340E-01    0.9706921059E-01    0.8218523831E-04
    0.3100000000E+04    0.2415684212E-02    0.6952819061E+00    0.1978452650E-01    0.1024033777E+00    0.8249236485E-04
    0.3300000000E+04    0.2503507628E-02    0.6953223708E+00    0.2064953483E-01    0.1076032681E+00    0.8278201778E-04
    0.3500000000E+04    0.2585782269E-02    0.6953581997E+00    0.2147879443E-01    0.1126745089E+00    0.8305552628E-04
    0.3700000000E+04    0.2662830631E-02    0.6953901446E+00    0.2227404502E-01    0.1176223939E+00    0.8331454375E-04
    0.3900000000E+04    0.2734954031E-02    0.6954188033E+00    0.2303692078E-01    0.1224519184E+00    0.8356055183E-04
    0.4100000000E+04    0.2802434249E-02    0.6954446568E+00    0.2376895835E-01    0.1271678022E+00    0.8379482597E-04
    0.4300000000E+04    0.2865534988E-02    0.6954680969E+00    0.2447160394E-01    0.1317745082E+00    0.8401846322E-04
    0.4500000000E+04    0.2924503208E-02    0.6954894455E+00    0.2514621973E-01    0.1362762603E+00    0.8423241275E-04
    0.4700000000E+04    0.2979570343E-02    0.6955089699E+00    0.2579408970E-01    0.1406770592E+00    0.8443750110E-04
    0.4900000000E+04    0.3030953419E-02    0.6955268935E+00    0.2641642511E-01    0.1449806967E+00    0.8463445249E-04
    0.1000000000E+04    0.3173743105E-03    0.6938783194E+00    0.2421284021E-02    0.1172222702E-01    0.3179930329E-02
    0.3000000000E+04    0.2369584662E-02    0.6952596455E+00    0.1933804153E-01    0.9975344506E-01    0.8234101009E-04
    0.5000000000E+04    0.3055327571E-02    0.6955353151E+00    0.2671837720E-01    0.1470972114E+00    0.8473007924E-04
    0.7000000000E+04    0.3392649993E-02    0.6956529930E+00    0.3166305496E-01    0.1851093609E+00    0.8633705033E-04
    0.9000000000E+04    0.3529736344E-02    0.6957180868E+00    0.3502948422E-01    0.2165501250E+00    0.8755551390E-04
    0.1100000000E+05    0.3549251624E-02    0.6957593231E+00    0.3733099109E-01    0.2431570142E+00    0.8854001562E-04
    0.1300000000E+05    0.3499291637E-02    0.6957877387E+00    0.3889106430E-01    0.2660828374E+00    0.8936762161E-04
    0.1500000000E+05    0.3408733543E-02    0.6958084779E+00    0.3992208969E-01    0.2861257060E+00    0.9008246416E-04
    0.1700000000E+05    0.3295317501E-02    0.6958242608E+00    0.4056824299E-01    0.3038578953E+00    0.9071222942E-04
    0.1900000000E+05    0.3170111686E-02    0.6958366598E+00    0.4093013467E-01    0.3197019813E+00    0.9127545344E-04
    0.2100000000E+05    0.3040078813E-02    0.6958466473E+00    0.4107961258E-01    0.3339778731E+00    0.9178516780E-04
    0.2300000000E+05    0.2909600760E-02    0.6958548563E+00    0.4106899294E-01    0.3469329862E+00    0.9225089031E-04
    0.2500000000E+05    0.2781409573E-02    0.6958617167E+00    0.4093700478E-01    0.3587622410E+00    0.9267978844E-04
    0.2700000000E+05    0.2657169303E-02    0.6958675307E+00    0.4071272585E-01    0.3696216984E+00    0.9307739710E-04
    0.2900000000E+05    0.2537846788E-02    0.6958725167E+00    0.4041825249E-01    0.3796380906E+00    0.9344808125E-04
    0.3100000000E+05    0.2423951814E-02    0.6958768365E+00    0.4007054977E-01    0.3889156317E+00    0.9379534509E-04
    0.3300000000E+05    0.2315694764E-02    0.6958806126E+00    0.3968275795E-01    0.3975409802E+00    0.9412204529E-04
    0.3500000000E+05    0.2213091224E-02    0.6958839392E+00    0.3926513064E-01    0.4055869193E+00    0.9443054186E-04
    0.3700000000E+05    0.2116031955E-02    0.6958868901E+00    0.3882571856E-01    0.4131151293E+00    0.9472280741E-04
    0.3900000000E+05    0.2024329954E-02    0.6958895239E+00    0.3837087482E-01    0.4201783068E+00    0.9500050782E-04
    0.4100000000E+05    0.1937752191E-02    0.6958918877E+00    0.3790563271E-01    0.4268218051E+00    0.9526506303E-04
    0.4300000000E+05    0.1856040993E-02    0.6958940196E+00    0.3743399135E-01    0.4330849194E+00    0.9551769328E-04
    0.4500000000E+05    0.1778928378E-02    0.6958959512E+00    0.3695913387E-01    0.4390019050E+00    0.9575945509E-04
    0.4700000000E+05    0.1706145581E-02    0.6958977084E+00    0.3648359550E-01    0.4446027916E+00    0.9599126937E-04
    0.4900000000E+05    0.1637429254E-02    0.6958993129E+00    0.3600939420E-01    0.4499140403E+00    0.9621394379E-04
    0.1000000000E+05    0.3550602613E-02    0.6957407901E+00    0.3628984586E-01    0.2303754095E+00    0.8807111844E-04
    0.3000000000E+05    0.2480202123E-02    0.6958747515E+00    0.4025015635E-01    0.3843634382E+00    0.9362444900E-04
    0.5000000000E+05    0.1604516201E-02    0.6959000638E+00    0.3577330976E-01    0.4524684776E+00    0.9632207946E-04
    0.7000000000E+05    0.1105105581E-02    0.6959102888E+00    0.3136588606E-01    0.4928425777E+00    0.9814089980E-04
    0.9000000000E+05    0.8037712210E-03    0.6959156202E+00    0.2771393035E-01    0.5200022455E+00    0.9952163511E-04
    0.1100000000E+06    0.6097706430E-03    0.6959187882E+00    0.2474610616E-01    0.5396621980E+00    0.1006380072E-03
    0.1300000000E+06    0.4780018289E-03    0.6959208244E+00    0.2231740699E-01    0.5546054658E+00    0.1015768777E-03
    0.1500000000E+06    0.3845745527E-03    0.6959222015E+00    0.2030463717E-01    0.5663711332E+00    0.1023880706E-03
    0.1700000000E+06    0.3159910850E-03    0.6959231649E+00    0.1861442127E-01    0.5758867288E+00    0.1031028778E-03
    0.1900000000E+06    0.2641886579E-03    0.6959238543E+00    0.1717746322E-01    0.5837473251E+00    0.1037422665E-03
    0.2100000000E+06    0.2241199464E-03    0.6959243543E+00    0.1594214871E-01    0.5903534419E+00    0.1043209863E-03
    0.2300000000E+06    0.1924980167E-03    0.6959247192E+00    0.1486958983E-01    0.5959851061E+00    0.1048498153E-03
    0.2500000000E+06    0.1671092972E-03    0.6959249849E+00    0.1393008167E-01    0.6008442726E+00    0.1053368729E-03
    0.2700000000E+06    0.1464195343E-03    0.6959251765E+00    0.1310061511E-01    0.6050804059E+00    0.1057884312E-03
    0.2900000000E+06    0.1293384759E-03    0.6959253114E+00    0.1236312794E-01    0.6088065747E+00    0.1062094378E-03
    0.3100000000E+06    0.1150743209E-03    0.6959254025E+00    0.1170326337E-01    0.6121099406E+00    0.1066038657E-03
    0.3300000000E+06    0.1030408820E-03    0.6959254592E+00    0.1110947771E-01    0.6150588041E+00    0.1069749541E-03
    0.3500000000E+06    0.9279674194E-04    0.6959254888E+00    0.1057239036E-01    0.6177074613E+00    0.1073253795E-03
    0.3700000000E+06    0.8400440822E-04    0.6959254966E+00    0.1008430404E-01    0.6200996288E+00    0.1076573797E-03
    0.3900000000E+06    0.7640229776E-04    0.6959254869E+00    0.9638846131E-02    0.6222709080E+00    0.1079728444E-03
    0.4100000000E+06    0.6978514655E-04    0.6959254630E+00    0.9230697191E-02    0.6242505886E+00    0.1082733846E-03
    0.4300000000E+06    0.6399007055E-04    0.6959254276E+00    0.8855383209E-02    0.6260629916E+00    0.1085603850E-03
    0.4500000000E+06    0.5888648952E-04    0.6959253828E+00    0.8509114869E-02    0.6277284817E+00    0.1088350445E-03
    0.4700000000E+06    0.5436873757E-04    0.6959253302E+00    0.8188661958E-02    0.6292642419E+00    0.1090984082E-03
    0.4900000000E+06    0.5035057223E-04    0.6959252714E+00    0.7891254321E-02    0.6306848724E+00    0.1093513928E-03
    0.1000000000E+06    0.6968623535E-03    0.6959173904E+00    0.2615374502E-01    0.5305549839E+00    0.1001062299E-03
    0.3000000000E+06    0.1218949079E-03    0.6959253617E+00    0.1202427165E-01    0.6105064625E+00    0.1064097567E-03
    0.5000000000E+06    0.4850615699E-04    0.6959252399E+00    0.7750432874E-02    0.6313559879E+00    0.1094742494E-03
    0.7000000000E+06    0.2583775712E-04    0.6959244684E+00    0.5707081653E-02    0.6409880946E+00    0.1115408040E-03
    0.9000000000E+06    0.1600451119E-04    0.6959236368E+00    0.4511920959E-02    0.6465372631E+00    0.1131097333E-03
    0.1100000000E+07    0.1087408751E-04    0.6959228485E+00    0.3728363583E-02    0.6501450739E+00    0.1143783248E-03
    0.1300000000E+07    0.7865192737E-05    0.6959221214E+00    0.3175341434E-02    0.6526782470E+00    0.1154452428E-03
    0.1500000000E+07    0.5951633529E-05    0.6959214541E+00    0.2764325940E-02    0.6545544523E+00    0.1163670880E-03
    0.1700000000E+07    0.4660041834E-05    0.6959208403E+00    0.2446936239E-02    0.6559997775E+00    0.1171794112E-03
    0.1900000000E+07    0.3747567402E-05    0.6959202735E+00    0.2194509181E-02    0.6571472685E+00    0.1179060347E-03
    0.2100000000E+07    0.3079233105E-05    0.6959197475E+00    0.1988988214E-02    0.6580803219E+00    0.1185637174E-03
    0.2300000000E+07    0.2575168559E-05    0.6959192573E+00    0.1818435220E-02    0.6588538659E+00    0.1191647058E-03
    0.2500000000E+07    0.2185668764E-05    0.6959187984E+00    0.1674642744E-02    0.6595055507E+00    0.1197182258E-03
    0.2700000000E+07    0.1878491656E-05    0.6959183672E+00    0.1551783087E-02    0.6600620457E+00    0.1202314047E-03
    0.2900000000E+07    0.1631983610E-05    0.6959179605E+00    0.1445604560E-02    0.6605427701E+00    0.1207098644E-03
    0.3100000000E+07    0.1431166276E-05    0.6959175757E+00    0.1352932764E-02    0.6609621994E+00    0.1211581195E-03
    0.3300000000E+07    0.1265411962E-05    0.6959172105E+00    0.1271349905E-02    0.6613313439E+00    0.1215798511E-03
    0.3500000000E+07    0.1127011243E-05    0.6959168631E+00    0.1198982183E-02    0.6616587270E+00    0.1219781008E-03
    0.3700000000E+07    0.1010261908E-05    0.6959165317E+00    0.1134355036E-02    0.6619510496E+00    0.1223554112E-03
    0.3900000000E+07    0.9108731903E-06    0.6959162150E+00    0.1076292249E-02    0.6622136525E+00    0.1227139301E-03
    0.4100000000E+07    0.8255664922E-06    0.6959159117E+00    0.1023844181E-02    0.6624508445E+00    0.1230554881E-03
    0.4300000000E+07    0.7518019057E-06    0.6959156206E+00    0.9762357445E-03    0.6626661403E+00    0.1233816588E-03
    0.4500000000E+07    0.6875871907E-06    0.6959153408E+00    0.9328280883E-03    0.6628624352E+00    0.1236938046E-03
    0.4700000000E+07    0.6313419830E-06    0.6959150714E+00    0.8930899436E-03    0.6630421361E+00    0.1239931132E-03
    0.4900000000E+07    0.5817997104E-06    0.6959148117E+00    0.8565759067E-03    0.6632072596E+00    0.1242806265E-03
    0.1000000000E+07    0.1307029857E-04    0.6959232353E+00    0.4083194048E-02    0.6485141033E+00    0.1137740331E-03
    0.3000000000E+07    0.1526609800E-05    0.6959177655E+00    0.1397746267E-02    0.6607593907E+00    0.1209375205E-03
    0.5000000000E+07    0.5592140786E-06    0.6959146852E+00    0.8394080369E-03    0.6632848976E+00    0.1244202512E-03
    0.7000000000E+07    0.2901291130E-06    0.6959125299E+00    0.5987113954E-03    0.6643737008E+00    0.1267688675E-03
    0.9000000000E+07    0.1787823654E-06    0.6959108636E+00    0.4648215864E-03    0.6649798940E+00    0.1285519437E-03
    0.1100000000E+08    0.1221479072E-06    0.6959095009E+00    0.3796276014E-03    0.6653660051E+00    0.1299936903E-03
    0.1300000000E+08    0.8941566086E-07    0.6959083457E+00    0.3206833810E-03    0.6656334151E+00    0.1312062369E-03
    0.1500000000E+08    0.6877228485E-07    0.6959073415E+00    0.2774931363E-03    0.6658295399E+00    0.1322539092E-03
    0.1700000000E+08    0.5489864220E-07    0.6959064524E+00    0.2444950503E-03    0.6659795156E+00    0.1331771103E-03
    0.1900000000E+08    0.4511211992E-07    0.6959056538E+00    0.2184679146E-03    0.6660979071E+00    0.1340029140E-03
    0.2100000000E+08    0.3794023976E-07    0.6959049286E+00    0.1974175470E-03    0.6661937353E+00    0.1347503668E-03
    0.2300000000E+08    0.3251978897E-07    0.6959042638E+00    0.1800435846E-03    0.6662728859E+00    0.1354333865E-03
    0.2500000000E+08    0.2831734666E-07    0.6959036500E+00    0.1654620190E-03    0.6663393616E+00    0.1360624587E-03
    0.2700000000E+08    0.2498873897E-07    0.6959030795E+00    0.1530509866E-03    0.6663959797E+00    0.1366456831E-03
