  Pressure (Pa) 22mC5-500 (mol/kg) 24mC5-500 (mol/kg) 2mC6-500 (mol/kg) 3mC6-500 (mol/kg) C7-500 (mol/kg)
    0.1000000000E+01    0.2256343676E-05    0.1266328254E+00    0.5858100192E-05    0.8388201937E-05    0.4181457292E-02
    0.3000000000E+01    0.4663227069E-05    0.2785254209E+00    0.1155073126E-04    0.2133822190E-04    0.4215744218E-02
    0.5000000000E+01    0.5881585364E-05    0.3664307125E+00    0.1420004268E-04    0.3324369823E-04    0.4233138026E-02
    0.7000000000E+01    0.6596399724E-05    0.4237478116E+00    0.1573420555E-04    0.4465777304E-04    0.4244059055E-02
    0.9000000000E+01    0.7064180205E-05    0.4640763643E+00    0.1680815281E-04    0.5576605360E-04    0.4251512260E-02
    0.1100000000E+02    0.7399152247E-05    0.4939945937E+00    0.1768368341E-04    0.6666110111E-04    0.4256860553E-02
    0.1300000000E+02    0.7658284566E-05    0.5170726959E+00    0.1847635258E-04    0.7739786887E-04    0.4260827694E-02
    0.1500000000E+02    0.7872364432E-05    0.5354158119E+00    0.1924036023E-04    0.8801249805E-04    0.4263836793E-02
    0.1700000000E+02    0.8059049758E-05    0.5503456033E+00    0.2000192370E-04    0.9853043370E-04    0.4266152675E-02
    0.1900000000E+02    0.8228937535E-05    0.5627337163E+00    0.2077372333E-04    0.1089704885E-03    0.4267949928E-02
    0.2100000000E+02    0.8388613800E-05    0.5731782915E+00    0.2156162131E-04    0.1193470950E-03    0.4269348493E-02
    0.2300000000E+02    0.8542284077E-05    0.5821034367E+00    0.2236796240E-04    0.1296716512E-03    0.4270433582E-02
    0.2500000000E+02    0.8692689717E-05    0.5898182307E+00    0.2319326402E-04    0.1399533712E-03    0.4271267449E-02
    0.2700000000E+02    0.8841644662E-05    0.5965532456E+00    0.2403710833E-04    0.1501998489E-03    0.4271896669E-02
    0.2900000000E+02    0.8990360982E-05    0.6024839845E+00    0.2489862281E-04    0.1604174452E-03    0.4272356797E-02
    0.3100000000E+02    0.9139652190E-05    0.6077463961E+00    0.2577674177E-04    0.1706115625E-03    0.4272675463E-02
    0.3300000000E+02    0.9290063472E-05    0.6124474235E+00    0.2667034819E-04    0.1807868446E-03    0.4272874467E-02
    0.3500000000E+02    0.9441956923E-05    0.6166723483E+00    0.2757834919E-04    0.1909473250E-03    0.4272971251E-02
    0.3700000000E+02    0.9595568384E-05    0.6204900107E+00    0.2849971416E-04    0.2010965399E-03    0.4272979937E-02
    0.3900000000E+02    0.9751045967E-05    0.6239565896E+00    0.2943349187E-04    0.2112376154E-03    0.4272912086E-02
    0.4100000000E+02    0.9908476521E-05    0.6271183853E+00    0.3037881586E-04    0.2213733354E-03    0.4272777254E-02
    0.4300000000E+02    0.1006790404E-04    0.6300138998E+00    0.3133490330E-04    0.2315061957E-03    0.4272583411E-02
    0.4500000000E+02    0.1022934260E-04    0.6326754117E+00    0.3230105066E-04    0.2416384479E-03    0.4272337258E-02
    0.4700000000E+02    0.1039278549E-04    0.6351301856E+00    0.3327662759E-04    0.2517721343E-03    0.4272044470E-02
    0.4900000000E+02    0.1055821180E-04    0.6374014084E+00    0.3426107048E-04    0.2619091170E-03    0.4271709886E-02
    0.1000000000E+02    0.7243861199E-05    0.4800674505E+00    0.1726144930E-04    0.6123621531E-04    0.4254394731E-02
    0.3000000000E+02    0.9064895531E-05    0.6051914660E+00    0.2533567646E-04    0.1655171327E-03    0.4272532333E-02
    0.5000000000E+02    0.1064165948E-04    0.6384745035E+00    0.3475645714E-04    0.2669793831E-03    0.4271528242E-02
    0.7000000000E+02    0.1240534574E-04    0.6538862898E+00    0.4503335401E-04    0.3689085250E-03    0.4266454503E-02
    0.9000000000E+02    0.1432352493E-04    0.6627740858E+00    0.5586749235E-04    0.4725109687E-03    0.4259695547E-02
    0.1100000000E+03    0.1636958111E-04    0.6685566952E+00    0.6716145985E-04    0.5784760131E-03    0.4251978306E-02
    0.1300000000E+03    0.1852943688E-04    0.6726193809E+00    0.7888805122E-04    0.6872935736E-03    0.4243593193E-02
    0.1500000000E+03    0.2079655957E-04    0.6756301001E+00    0.9104835112E-04    0.7993623181E-03    0.4234672991E-02
    0.1700000000E+03    0.2316883840E-04    0.6779505762E+00    0.1036567232E-03    0.9150368315E-03    0.4225281541E-02
    0.1900000000E+03    0.2564690842E-04    0.6797937480E+00    0.1167347943E-03    0.1034651798E-02    0.4215448180E-02
    0.2100000000E+03    0.2823324505E-04    0.6812931345E+00    0.1303088584E-03    0.1158536040E-02    0.4205183037E-02
    0.2300000000E+03    0.3093166311E-04    0.6825367033E+00    0.1444087294E-03    0.1287021583E-02    0.4194484518E-02
    0.2500000000E+03    0.3374703619E-04    0.6835847690E+00    0.1590672648E-03    0.1420450129E-02    0.4183343225E-02
    0.2700000000E+03    0.3668514178E-04    0.6844800680E+00    0.1743202270E-03    0.1559178098E-02    0.4171744107E-02
    0.2900000000E+03    0.3975258212E-04    0.6852537266E+00    0.1902063313E-03    0.1703580927E-02    0.4159667667E-02
    0.3100000000E+03    0.4295675322E-04    0.6859289535E+00    0.2067674058E-03    0.1854056980E-02    0.4147090640E-02
    0.3300000000E+03    0.4630584662E-04    0.6865234063E+00    0.2240486287E-03    0.2011031318E-02    0.4133986346E-02
    0.3500000000E+03    0.4980887484E-04    0.6870507577E+00    0.2420988260E-03    0.2174959507E-02    0.4120324834E-02
    0.3700000000E+03    0.5347571556E-04    0.6875217594E+00    0.2609708214E-03    0.2346331565E-02    0.4106072904E-02
    0.3900000000E+03    0.5731717163E-04    0.6879449829E+00    0.2807218379E-03    0.2525676170E-02    0.4091194010E-02
    0.4100000000E+03    0.6134504558E-04    0.6883273450E+00    0.3014139515E-03    0.2713565194E-02    0.4075648100E-02
    0.4300000000E+03    0.6557222828E-04    0.6886744892E+00    0.3231146022E-03    0.2910618667E-02    0.4059391387E-02
    0.4500000000E+03    0.7001280180E-04    0.6889910652E+00    0.3458971657E-03    0.3117510225E-02    0.4042376057E-02
    0.4700000000E+03    0.7468215748E-04    0.6892809391E+00    0.3698415959E-03    0.3334973162E-02    0.4024549927E-02
    0.4900000000E+03    0.7959713010E-04    0.6895473513E+00    0.3950351428E-03    0.3563807142E-02    0.4005856046E-02
    0.1000000000E+03    0.1533167556E-04    0.6659421039E+00    0.6145964527E-04    0.5251645952E-03    0.4255933142E-02
    0.3000000000E+03    0.4133708319E-04    0.6856024317E+00    0.1983997554E-03    0.1778033904E-02    0.4153443317E-02
    0.5000000000E+03    0.8215241535E-04    0.6896726313E+00    0.4081297920E-03    0.3682758140E-02    0.3996164486E-02
    0.7000000000E+03    0.1519557324E-03    0.6914309140E+00    0.7655508813E-03    0.6933060845E-02    0.3737420894E-02
    0.9000000000E+03    0.2875846557E-03    0.6924110846E+00    0.1460731239E-02    0.1327203456E-01    0.3258085159E-02
    0.1100000000E+04    0.5797849346E-03    0.6930359291E+00    0.2964216242E-02    0.2704195458E-01    0.2295530314E-02
    0.1300000000E+04    0.1060800878E-02    0.6934689284E+00    0.5462175300E-02    0.5013045155E-01    0.9168549000E-03
    0.1500000000E+04    0.1389049706E-02    0.6937866214E+00    0.7211496967E-02    0.6670160272E-01    0.2863670764E-03
    0.1700000000E+04    0.1558658270E-02    0.6940296170E+00    0.8161524124E-02    0.7611158655E-01    0.1881149874E-03
    0.1900000000E+04    0.1690422911E-02    0.6942214622E+00    0.8927316424E-02    0.8393896222E-01    0.1778517533E-03
    0.2100000000E+04    0.1809559265E-02    0.6943767499E+00    0.9637782352E-02    0.9135884380E-01    0.1775997830E-03
    0.2300000000E+04    0.1919827718E-02    0.6945050060E+00    0.1031141864E-01    0.9853447329E-01    0.1783779535E-03
    0.2500000000E+04    0.2022172584E-02    0.6946127120E+00    0.1095217874E-01    0.1054951840E+00    0.1792071045E-03
    0.2700000000E+04    0.2117161984E-02    0.6947044316E+00    0.1156212910E-01    0.1122532894E+00    0.1799876662E-03
    0.2900000000E+04    0.2205285270E-02    0.6947834707E+00    0.1214299884E-01    0.1188184705E+00    0.1807159464E-03
    0.3100000000E+04    0.2286991527E-02    0.6948522830E+00    0.1269637616E-01    0.1251995742E+00    0.1813976199E-03
    0.3300000000E+04    0.2362696771E-02    0.6949127279E+00    0.1322374033E-01    0.1314048745E+00    0.1820383135E-03
    0.3500000000E+04    0.2432787141E-02    0.6949662399E+00    0.1372647290E-01    0.1374421400E+00    0.1826427837E-03
    0.3700000000E+04    0.2497621387E-02    0.6950139435E+00    0.1420586576E-01    0.1433186752E+00    0.1832150099E-03
    0.3900000000E+04    0.2557533075E-02    0.6950567329E+00    0.1466312808E-01    0.1490413554E+00    0.1837583461E-03
    0.4100000000E+04    0.2612832593E-02    0.6950953275E+00    0.1509939264E-01    0.1546166576E+00    0.1842756448E-03
    0.4300000000E+04    0.2663808975E-02    0.6951303132E+00    0.1551572162E-01    0.1600506895E+00    0.1847693526E-03
    0.4500000000E+04    0.2710731557E-02    0.6951621716E+00    0.1591311185E-01    0.1653492155E+00    0.1852415837E-03
    0.4700000000E+04    0.2753851496E-02    0.6951913023E+00    0.1629249961E-01    0.1705176808E+00    0.1856941781E-03
    0.4900000000E+04    0.2793403154E-02    0.6952180399E+00    0.1665476501E-01    0.1755612331E+00    0.1861287471E-03
    0.1000000000E+04    0.4059092187E-03    0.6927546530E+00    0.2068577637E-02    0.1882973686E-01    0.2857993279E-02
    0.3000000000E+04    0.2246913795E-02    0.6948190274E+00    0.1242302921E-01    0.1220315025E+00    0.1810622374E-03
    0.5000000000E+04    0.2811909836E-02    0.6952306010E+00    0.1682973749E-01    0.1780376994E+00    0.1863397221E-03
    0.7000000000E+04    0.3040696943E-02    0.6954059619E+00    0.1960724278E-01    0.2220635565E+00    0.1898831077E-03
    0.9000000000E+04    0.3089072894E-02    0.6955027611E+00    0.2136724197E-01    0.2578076531E+00    0.1925678524E-03
    0.1100000000E+05    0.3039706360E-02    0.6955639481E+00    0.2246478424E-01    0.2875521518E+00    0.1947361681E-03
    0.1300000000E+05    0.2938268314E-02    0.6956060162E+00    0.2311740872E-01    0.3127876950E+00    0.1965584269E-03
    0.1500000000E+05    0.2810695280E-02    0.6956366483E+00    0.2346420341E-01    0.3345333044E+00    0.1981320950E-03
    0.1700000000E+05    0.2671958479E-02    0.6956599042E+00    0.2359718735E-01    0.3535119906E+00    0.1995182752E-03
    0.1900000000E+05    0.2530740985E-02    0.6956781296E+00    0.2357895259E-01    0.3702528132E+00    0.2007578560E-03
    0.2100000000E+05    0.2392032594E-02    0.6956927736E+00    0.2345305459E-01    0.3851530824E+00    0.2018795727E-03
    0.2300000000E+05    0.2258616342E-02    0.6957047795E+00    0.2325037569E-01    0.3985178230E+00    0.2029044060E-03
    0.2500000000E+05    0.2131942604E-02    0.6957147871E+00    0.2299315362E-01    0.4105856916E+00    0.2038481520E-03
    0.2700000000E+05    0.2012653993E-02    0.6957232459E+00    0.2269760560E-01    0.4215465111E+00    0.2047230067E-03
    0.2900000000E+05    0.1900905833E-02    0.6957304806E+00    0.2237568008E-01    0.4315534484E+00    0.2055385861E-03
    0.3100000000E+05    0.1796564234E-02    0.6957367315E+00    0.2203625168E-01    0.4407316661E+00    0.2063026091E-03
    0.3300000000E+05    0.1699329514E-02    0.6957421805E+00    0.2168595171E-01    0.4491845975E+00    0.2070213675E-03
    0.3500000000E+05    0.1608813364E-02    0.6957469672E+00    0.2132975508E-01    0.4569985787E+00    0.2077000587E-03
    0.3700000000E+05    0.1524586993E-02    0.6957512012E+00    0.2097140128E-01    0.4642463251E+00    0.2083430264E-03
    0.3900000000E+05    0.1446210897E-02    0.6957549692E+00    0.2061370026E-01    0.4709895790E+00    0.2089539386E-03
    0.4100000000E+05    0.1373252907E-02    0.6957583407E+00    0.2025875736E-01    0.4772811518E+00    0.2095359218E-03
    0.4300000000E+05    0.1305298726E-02    0.6957613724E+00    0.1990814034E-01    0.4831665191E+00    0.2100916622E-03
    0.4500000000E+05    0.1241957688E-02    0.6957641107E+00    0.1956300475E-01    0.4886850801E+00    0.2106234858E-03
    0.4700000000E+05    0.1182865449E-02    0.6957665940E+00    0.1922418867E-01    0.4938711618E+00    0.2111334199E-03
    0.4900000000E+05    0.1127684767E-02    0.6957688543E+00    0.1889228490E-01    0.4987548267E+00    0.2116232422E-03
    0.1000000000E+05    0.3073145594E-02    0.6955364655E+00    0.2198287851E-01    0.2733228413E+00    0.1937035348E-03
    0.3000000000E+05    0.1847825137E-02    0.6957337165E+00    0.2220769455E-01    0.4362392342E+00    0.2059266199E-03
    0.5000000000E+05    0.1101463199E-02    0.6957699095E+00    0.1872905723E-01    0.5010916454E+00    0.2118611087E-03
    0.7000000000E+05    0.7199821645E-03    0.6957840506E+00    0.1586418479E-01    0.5369627495E+00    0.2158617948E-03
    0.9000000000E+05    0.5049211040E-03    0.6957911392E+00    0.1367640332E-01    0.5599262435E+00    0.2188986843E-03
    0.1100000000E+06    0.3728854533E-03    0.6957951567E+00    0.1198841772E-01    0.5759417528E+00    0.2213540281E-03
    0.1300000000E+06    0.2863221501E-03    0.6957975931E+00    0.1065744948E-01    0.5877678048E+00    0.2234189282E-03
    0.1500000000E+06    0.2266110306E-03    0.6957991246E+00    0.9585183459E-02    0.5968661868E+00    0.2252029918E-03
    0.1700000000E+06    0.1837327361E-03    0.6958000991E+00    0.8704700165E-02    0.6040867213E+00    0.2267750542E-03
    0.1900000000E+06    0.1519254436E-03    0.6958007121E+00    0.7969679949E-02    0.6099582268E+00    0.2281812363E-03
    0.2100000000E+06    0.1276910958E-03    0.6958010809E+00    0.7347320549E-02    0.6148274373E+00    0.2294539821E-03
    0.2300000000E+06    0.1088086731E-03    0.6958012799E+00    0.6813852251E-02    0.6189313531E+00    0.2306169981E-03
    0.2500000000E+06    0.9381403278E-04    0.6958013576E+00    0.6351678457E-02    0.6224375604E+00    0.2316881434E-03
    0.2700000000E+06    0.8171072299E-04    0.6958013473E+00    0.5947517823E-02    0.6254679577E+00    0.2326812136E-03
    0.2900000000E+06    0.7180176681E-04    0.6958012723E+00    0.5591170301E-02    0.6281133563E+00    0.2336070905E-03
    0.3100000000E+06    0.6358793761E-04    0.6958011490E+00    0.5274679379E-02    0.6304428112E+00    0.2344745123E-03
    0.3300000000E+06    0.5670413459E-04    0.6958009895E+00    0.4991751320E-02    0.6325097756E+00    0.2352906036E-03
    0.3500000000E+06    0.5087839753E-04    0.6958008028E+00    0.4737344730E-02    0.6343562770E+00    0.2360612512E-03
    0.3700000000E+06    0.4590480935E-04    0.6958005957E+00    0.4507375297E-02    0.6360158180E+00    0.2367913763E-03
    0.3900000000E+06    0.4162516191E-04    0.6958003732E+00    0.4298499899E-02    0.6375154351E+00    0.2374851355E-03
    0.4100000000E+06    0.3791629194E-04    0.6958001392E+00    0.4107956395E-02    0.6388771883E+00    0.2381460720E-03
    0.4300000000E+06    0.3468116940E-04    0.6957998969E+00    0.3933443091E-02    0.6401192566E+00    0.2387772309E-03
    0.4500000000E+06    0.3184252013E-04    0.6957996485E+00    0.3773026927E-02    0.6412567558E+00    0.2393812491E-03
    0.4700000000E+06    0.2933819192E-04    0.6957993960E+00    0.3625072719E-02    0.6423023581E+00    0.2399604251E-03
    0.4900000000E+06    0.2711773996E-04    0.6957991409E+00    0.3488188061E-02    0.6432667671E+00    0.2405167751E-03
    0.1000000000E+06    0.4315077471E-03    0.6957934099E+00    0.1278003714E-01    0.5685869174E+00    0.2201844479E-03
    0.3000000000E+06    0.6750835927E-04    0.6958012158E+00    0.5428369614E-02    0.6293139267E+00    0.2340476302E-03
    0.5000000000E+06    0.2610076412E-04    0.6957990127E+00    0.3423517212E-02    0.6437214229E+00    0.2407869543E-03
    0.7000000000E+06    0.1372996905E-04    0.6957964922E+00    0.2495353805E-02    0.6501809025E+00    0.2453315762E-03
    0.9000000000E+06    0.8449928099E-05    0.6957942095E+00    0.1961162280E-02    0.6538468589E+00    0.2487818239E-03
    0.1100000000E+07    0.5721271766E-05    0.6957921896E+00    0.1614345969E-02    0.6562088922E+00    0.2515715783E-03
    0.1300000000E+07    0.4130884624E-05    0.6957903946E+00    0.1371169704E-02    0.6578574293E+00    0.2539178221E-03
    0.1500000000E+07    0.3123788860E-05    0.6957887849E+00    0.1191287591E-02    0.6590732178E+00    0.2559450304E-03
    0.1700000000E+07    0.2446125149E-05    0.6957873277E+00    0.1052874259E-02    0.6600068144E+00    0.2577313857E-03
    0.1900000000E+07    0.1968456589E-05    0.6957859975E+00    0.9430964772E-03    0.6607462058E+00    0.2593292768E-03
    0.2100000000E+07    0.1619178866E-05    0.6957847741E+00    0.8539167659E-03    0.6613462514E+00    0.2607755591E-03
    0.2300000000E+07    0.1356077553E-05    0.6957836417E+00    0.7800456842E-03    0.6618429307E+00    0.2620971643E-03
    0.2500000000E+07    0.1152959598E-05    0.6957825877E+00    0.7178604450E-03    0.6622608211E+00    0.2633143817E-03
    0.2700000000E+07    0.9928755950E-06    0.6957816017E+00    0.6647967524E-03    0.6626172824E+00    0.2644428848E-03
    0.2900000000E+07    0.8644652813E-06    0.6957806754E+00    0.6189887392E-03    0.6629249248E+00    0.2654950371E-03
    0.3100000000E+07    0.7598837208E-06    0.6957798020E+00    0.5790464686E-03    0.6631931289E+00    0.2664807668E-03
    0.3300000000E+07    0.6735725638E-06    0.6957789755E+00    0.5439133692E-03    0.6634290172E+00    0.2674081689E-03
    0.3500000000E+07    0.6015046117E-06    0.6957781911E+00    0.5127720007E-03    0.6636380952E+00    0.2682839323E-03
    0.3700000000E+07    0.5407042617E-06    0.6957774447E+00    0.4849800635E-03    0.6638246853E+00    0.2691136485E-03
    0.3900000000E+07    0.4889344323E-06    0.6957767326E+00    0.4600259046E-03    0.6639922282E+00    0.2699020405E-03
    0.4100000000E+07    0.4444870590E-06    0.6957760517E+00    0.4374969271E-03    0.6641434972E+00    0.2706531344E-03
    0.4300000000E+07    0.4060397794E-06    0.6957753994E+00    0.4170567395E-03    0.6642807522E+00    0.2713703903E-03
    0.4500000000E+07    0.3725559473E-06    0.6957747733E+00    0.3984283490E-03    0.6644058532E+00    0.2720568045E-03
    0.4700000000E+07    0.3432136270E-06    0.6957741714E+00    0.3813816139E-03    0.6645203453E+00    0.2727149889E-03
    0.4900000000E+07    0.3173543533E-06    0.6957735917E+00    0.3657237453E-03    0.6646255223E+00    0.2733472343E-03
    0.1000000000E+07    0.6886888474E-05    0.6957931688E+00    0.1771069107E-02    0.6551431669E+00    0.2502426849E-03
    0.3000000000E+07    0.8095863389E-06    0.6957802325E+00    0.5983569491E-03    0.6630634673E+00    0.2659956616E-03
    0.5000000000E+07    0.3055603414E-06    0.6957733097E+00    0.3583637766E-03    0.6646749656E+00    0.2736542708E-03
    0.7000000000E+07    0.1646015297E-06    0.6957685232E+00    0.2553048397E-03    0.6653677952E+00    0.2788188850E-03
    0.9000000000E+07    0.1057321630E-06    0.6957648439E+00    0.1980816027E-03    0.6657531281E+00    0.2827398482E-03
    0.1100000000E+08    0.7544789424E-07    0.6957618455E+00    0.1617092860E-03    0.6659984540E+00    0.2859102149E-03
    0.1300000000E+08    0.5771932148E-07    0.6957593099E+00    0.1365615747E-03    0.6661683298E+00    0.2885765644E-03
    0.1500000000E+08    0.4638167469E-07    0.6957571099E+00    0.1181442410E-03    0.6662929163E+00    0.2908803523E-03
    0.1700000000E+08    0.3864855312E-07    0.6957551647E+00    0.1040783100E-03    0.6663881915E+00    0.2929104267E-03
    0.1900000000E+08    0.3310850361E-07    0.6957534198E+00    0.9298704663E-04    0.6664634096E+00    0.2947263237E-03
    0.2100000000E+08    0.2898302354E-07    0.6957518367E+00    0.8401865658E-04    0.6665243006E+00    0.2963699268E-03
    0.2300000000E+08    0.2581334214E-07    0.6957503870E+00    0.7661796769E-04    0.6665746022E+00    0.2978718422E-03
    0.2500000000E+08    0.2331438694E-07    0.6957490492E+00    0.7040771055E-04    0.6666168560E+00    0.2992551273E-03
    0.2700000000E+08    0.2130114858E-07    0.6957478069E+00    0.6512257656E-04    0.6666528508E+00    0.3005375940E-03
