  Pressure (Pa) 22mC5-500 (mol/kg) 24mC5-500 (mol/kg) 2mC6-500 (mol/kg) 3mC6-500 (mol/kg) C7-500 (mol/kg)
    0.1000000000E+01    0.2359373458E-05    0.9949333144E-01    0.2444598381E-04    0.1503909362E-05    0.4213694502E-02
    0.3000000000E+01    0.5218621079E-05    0.2320785829E+00    0.5181997994E-04    0.3878367882E-05    0.4285013425E-02
    0.5000000000E+01    0.6842367417E-05    0.3164103779E+00    0.6606241307E-04    0.6069992209E-05    0.4329614187E-02
    0.7000000000E+01    0.7858026891E-05    0.3747769718E+00    0.7446648833E-04    0.8173080876E-05    0.4360699018E-02
    0.9000000000E+01    0.8540371213E-05    0.4175711356E+00    0.8001482891E-04    0.1021963331E-04    0.4383701772E-02
    0.1100000000E+02    0.9026246119E-05    0.4502919611E+00    0.8408765534E-04    0.1222571210E-04    0.4401454457E-02
    0.1300000000E+02    0.9390139524E-05    0.4761219254E+00    0.8737830768E-04    0.1420089853E-04    0.4415593248E-02
    0.1500000000E+02    0.9675353130E-05    0.4970305863E+00    0.9025577494E-04    0.1615151654E-04    0.4427132856E-02
    0.1700000000E+02    0.9908366510E-05    0.5143021699E+00    0.9292457705E-04    0.1808203085E-04    0.4436737294E-02
    0.1900000000E+02    0.1010603365E-04    0.5288098095E+00    0.9550118780E-04    0.1999574944E-04    0.4444859959E-02
    0.2100000000E+02    0.1027943364E-04    0.5411678553E+00    0.9805292738E-04    0.2189521400E-04    0.4451821362E-02
    0.2300000000E+02    0.1043604383E-04    0.5518211373E+00    0.1006187704E-03    0.2378243387E-04    0.4457854707E-02
    0.2500000000E+02    0.1058102120E-04    0.5610996643E+00    0.1032209388E-03    0.2565903430E-04    0.4463133868E-02
    0.2700000000E+02    0.1071798663E-04    0.5692534271E+00    0.1058715781E-03    0.2752635484E-04    0.4467791229E-02
    0.2900000000E+02    0.1084952003E-04    0.5764752654E+00    0.1085767080E-03    0.2938551716E-04    0.4471929431E-02
    0.3100000000E+02    0.1097748166E-04    0.5829163175E+00    0.1113386117E-03    0.3123747313E-04    0.4475629332E-02
    0.3300000000E+02    0.1110322558E-04    0.5886967147E+00    0.1141573061E-03    0.3308303993E-04    0.4478955533E-02
    0.3500000000E+02    0.1122774443E-04    0.5939131453E+00    0.1170314592E-03    0.3492292619E-04    0.4481960294E-02
    0.3700000000E+02    0.1135176941E-04    0.5986443070E+00    0.1199589666E-03    0.3675775188E-04    0.4484686371E-02
    0.3900000000E+02    0.1147584044E-04    0.6029549057E+00    0.1229373158E-03    0.3858806365E-04    0.4487169097E-02
    0.4100000000E+02    0.1160035615E-04    0.6068986324E+00    0.1259638164E-03    0.4041434690E-04    0.4489437940E-02
    0.4300000000E+02    0.1172560993E-04    0.6105204120E+00    0.1290357438E-03    0.4223703535E-04    0.4491517681E-02
    0.4500000000E+02    0.1185181620E-04    0.6138581214E+00    0.1321504276E-03    0.4405651878E-04    0.4493429320E-02
    0.4700000000E+02    0.1197912979E-04    0.6169439204E+00    0.1353053041E-03    0.4587314925E-04    0.4495190777E-02
    0.4900000000E+02    0.1210766039E-04    0.6198052906E+00    0.1384979452E-03    0.4768724628E-04    0.4496817440E-02
    0.1000000000E+02    0.8802234853E-05    0.4349544937E+00    0.8218195081E-04    0.1122703254E-04    0.4393112969E-02
    0.3000000000E+02    0.1091385279E-04    0.5797852557E+00    0.1099505218E-03    0.3031234205E-04    0.4473829803E-02
    0.5000000000E+02    0.1217240670E-04    0.6211593293E+00    0.1401077096E-03    0.4859343679E-04    0.4497584451E-02
    0.7000000000E+02    0.1353882968E-04    0.6407570085E+00    0.1738150431E-03    0.6664336026E-04    0.4508290111E-02
    0.9000000000E+02    0.1503080144E-04    0.6521885960E+00    0.2095630046E-03    0.8466181805E-04    0.4513710637E-02
    0.1100000000E+03    0.1662383155E-04    0.6596779116E+00    0.2466638827E-03    0.1027526052E-03    0.4516381505E-02
    0.1300000000E+03    0.1829858847E-04    0.6649641910E+00    0.2848006452E-03    0.1209807431E-03    0.4517395874E-02
    0.1500000000E+03    0.2004226835E-04    0.6688947632E+00    0.3238210139E-03    0.1393920047E-03    0.4517309124E-02
    0.1700000000E+03    0.2184658558E-04    0.6719318110E+00    0.3636520683E-03    0.1580213814E-03    0.4516435973E-02
    0.1900000000E+03    0.2370619202E-04    0.6743488723E+00    0.4042621500E-03    0.1768973357E-03    0.4514969199E-02
    0.2100000000E+03    0.2561766520E-04    0.6763181744E+00    0.4456425119E-03    0.1960441651E-03    0.4513033928E-02
    0.2300000000E+03    0.2757887728E-04    0.6779535622E+00    0.4877978833E-03    0.2154834197E-03    0.4510715054E-02
    0.2500000000E+03    0.2958859673E-04    0.6793333035E+00    0.5307413555E-03    0.2352348043E-03    0.4508072193E-02
    0.2700000000E+03    0.3164623156E-04    0.6805129793E+00    0.5744914912E-03    0.2553167814E-03    0.4505148351E-02
    0.2900000000E+03    0.3375166006E-04    0.6815331483E+00    0.6190706358E-03    0.2757469911E-03    0.4501975199E-02
    0.3100000000E+03    0.3590511679E-04    0.6824241008E+00    0.6645039087E-03    0.2965425544E-03    0.4498576426E-02
    0.3300000000E+03    0.3810711437E-04    0.6832089147E+00    0.7108185930E-03    0.3177203004E-03    0.4494969942E-02
    0.3500000000E+03    0.4035838913E-04    0.6839054817E+00    0.7580437661E-03    0.3392969412E-03    0.4491169367E-02
    0.3700000000E+03    0.4265986267E-04    0.6845278864E+00    0.8062100810E-03    0.3612892105E-03    0.4487185071E-02
    0.3900000000E+03    0.4501261471E-04    0.6850873678E+00    0.8553496430E-03    0.3837139779E-03    0.4483024903E-02
    0.4100000000E+03    0.4741786372E-04    0.6855930035E+00    0.9054959509E-03    0.4065883442E-03    0.4478694728E-02
    0.4300000000E+03    0.4987695323E-04    0.6860522054E+00    0.9566838798E-03    0.4299297243E-03    0.4474198817E-02
    0.4500000000E+03    0.5239134230E-04    0.6864710846E+00    0.1008949694E-02    0.4537559204E-03    0.4469540141E-02
    0.4700000000E+03    0.5496259906E-04    0.6868547254E+00    0.1062331081E-02    0.4780851891E-03    0.4464720593E-02
    0.4900000000E+03    0.5759239663E-04    0.6872073917E+00    0.1116867203E-02    0.5029363030E-03    0.4459741152E-02
    0.1000000000E+03    0.1581606748E-04    0.6562865712E+00    0.2279695470E-03    0.9369350890E-04    0.4515303140E-02
    0.3000000000E+03    0.3482235864E-04    0.6819931928E+00    0.6416788465E-03    0.2860980471E-03    0.4500302780E-02
    0.5000000000E+03    0.5892979920E-04    0.6873732576E+00    0.1144580945E-02    0.5155635740E-03    0.4457191563E-02
    0.7000000000E+03    0.8924882274E-04    0.6897026991E+00    0.1770503369E-02    0.8006812336E-03    0.4397510482E-02
    0.9000000000E+03    0.1282391755E-03    0.6910022775E+00    0.2572600722E-02    0.1166204042E-02    0.4318642408E-02
    0.1100000000E+04    0.1798829274E-03    0.6918309203E+00    0.3633862870E-02    0.1650306114E-02    0.4213663831E-02
    0.1300000000E+04    0.2507460475E-03    0.6924051130E+00    0.5090219954E-02    0.2315458349E-02    0.4070499992E-02
    0.1500000000E+04    0.3520453920E-03    0.6928263098E+00    0.7173786570E-02    0.3268466876E-02    0.3868638100E-02
    0.1700000000E+04    0.5033582670E-03    0.6931483718E+00    0.1029043300E-01    0.4696524338E-02    0.3573334883E-02
    0.1900000000E+04    0.7374659220E-03    0.6934025428E+00    0.1512258210E-01    0.6915688411E-02    0.3129866670E-02
    0.2100000000E+04    0.1095613208E-02    0.6936081914E+00    0.2253872060E-01    0.1033262868E-01    0.2480781398E-02
    0.2300000000E+04    0.1571850439E-02    0.6937779626E+00    0.3245307737E-01    0.1492467990E-01    0.1677905200E-02
    0.2500000000E+04    0.2029375320E-02    0.6939204613E+00    0.4207383360E-01    0.1942396433E-01    0.1004306260E-02
    0.2700000000E+04    0.2341915429E-02    0.6940417467E+00    0.4877376135E-01    0.2261455415E-01    0.6572978070E-03
    0.2900000000E+04    0.2539417726E-02    0.6941462082E+00    0.5313444514E-01    0.2474736045E-01    0.5314720338E-03
    0.3100000000E+04    0.2684594211E-02    0.6942371035E+00    0.5643603018E-01    0.2640411455E-01    0.4930430032E-03
    0.3300000000E+04    0.2808540949E-02    0.6943169010E+00    0.5931771602E-01    0.2787733416E-01    0.4826201320E-03
    0.3500000000E+04    0.2922421295E-02    0.6943875053E+00    0.6200930745E-01    0.2927238350E-01    0.4805888805E-03
    0.3700000000E+04    0.3029977857E-02    0.6944504093E+00    0.6458730646E-01    0.3062413771E-01    0.4810052929E-03
    0.3900000000E+04    0.3132534631E-02    0.6945067995E+00    0.6707805866E-01    0.3194431836E-01    0.4821045533E-03
    0.4100000000E+04    0.3230648726E-02    0.6945576311E+00    0.6949199013E-01    0.3323728609E-01    0.4833646840E-03
    0.4300000000E+04    0.3324629963E-02    0.6946036815E+00    0.7183442532E-01    0.3450505259E-01    0.4846327118E-03
    0.4500000000E+04    0.3414703095E-02    0.6946455897E+00    0.7410897603E-01    0.3574885634E-01    0.4858657122E-03
    0.4700000000E+04    0.3501058913E-02    0.6946838860E+00    0.7631861003E-01    0.3696966027E-01    0.4870536259E-03
    0.4900000000E+04    0.3583870755E-02    0.6947190141E+00    0.7846599443E-01    0.3816831117E-01    0.4881960735E-03
    0.1000000000E+04    0.1521474832E-03    0.6914578992E+00    0.3063958030E-02    0.1390272357E-02    0.4270023686E-02
    0.3000000000E+04    0.2615922029E-02    0.6941931819E+00    0.5486372093E-01    0.2561059903E-01    0.5064505985E-03
    0.5000000000E+04    0.3623998561E-02    0.6947355093E+00    0.7951712443E-01    0.3875957586E-01    0.4887509324E-03
    0.7000000000E+04    0.4275147431E-02    0.6949650931E+00    0.9780721863E-01    0.4959154754E-01    0.4980678429E-03
    0.9000000000E+04    0.4709050060E-02    0.6950909631E+00    0.1120140663E+00    0.5889274604E-01    0.5051218364E-03
    0.1100000000E+05    0.4997805528E-02    0.6951699641E+00    0.1233060485E+00    0.6704834049E-01    0.5108163958E-03
    0.1300000000E+05    0.5186704963E-02    0.6952238827E+00    0.1324476381E+00    0.7431855193E-01    0.5156007209E-03
    0.1500000000E+05    0.5305314170E-02    0.6952628473E+00    0.1399595853E+00    0.8088628321E-01    0.5197315231E-03
    0.1700000000E+05    0.5373549478E-02    0.6952921988E+00    0.1462085910E+00    0.8688435443E-01    0.5233696237E-03
    0.1900000000E+05    0.5405181227E-02    0.6953150166E+00    0.1514601679E+00    0.9241189132E-01    0.5266225839E-03
    0.2100000000E+05    0.5409940729E-02    0.6953331991E+00    0.1559111699E+00    0.9754461439E-01    0.5295659647E-03
    0.2300000000E+05    0.5394833265E-02    0.6953479789E+00    0.1597105534E+00    0.1023415355E+00    0.5322549195E-03
    0.2500000000E+05    0.5364981617E-02    0.6953601908E+00    0.1629730494E+00    0.1068494531E+00    0.5347309616E-03
    0.2700000000E+05    0.5324182489E-02    0.6953704196E+00    0.1657884148E+00    0.1111060514E+00    0.5370261358E-03
    0.2900000000E+05    0.5275282090E-02    0.6953790868E+00    0.1682278427E+00    0.1151420888E+00    0.5391657045E-03
    0.3100000000E+05    0.5220434860E-02    0.6953865037E+00    0.1703485000E+00    0.1189829743E+00    0.5411699429E-03
    0.3300000000E+05    0.5161284929E-02    0.6953929053E+00    0.1721967983E+00    0.1226499257E+00    0.5430553753E-03
    0.3500000000E+05    0.5099095450E-02    0.6953984719E+00    0.1738107936E+00    0.1261608336E+00    0.5448356501E-03
    0.3700000000E+05    0.5034842113E-02    0.6954033440E+00    0.1752219716E+00    0.1295309164E+00    0.5465221733E-03
    0.3900000000E+05    0.4969281644E-02    0.6954076330E+00    0.1764565968E+00    0.1327732233E+00    0.5481245756E-03
    0.4100000000E+05    0.4903002571E-02    0.6954114281E+00    0.1775367418E+00    0.1358990254E+00    0.5496510646E-03
    0.4300000000E+05    0.4836463251E-02    0.6954148015E+00    0.1784810843E+00    0.1389181231E+00    0.5511086930E-03
    0.4500000000E+05    0.4770020625E-02    0.6954178123E+00    0.1793055293E+00    0.1418390908E+00    0.5525035660E-03
    0.4700000000E+05    0.4703952165E-02    0.6954205093E+00    0.1800236993E+00    0.1446694726E+00    0.5538410050E-03
    0.4900000000E+05    0.4638472746E-02    0.6954229332E+00    0.1806473253E+00    0.1474159412E+00    0.5551256764E-03
    0.1000000000E+05    0.4868275121E-02    0.6951345504E+00    0.1179695096E+00    0.6309524263E-01    0.5081046811E-03
    0.3000000000E+05    0.5248488834E-02    0.6953829354E+00    0.1693248965E+00    0.1170855125E+00    0.5401836310E-03
    0.5000000000E+05    0.4606007242E-02    0.6954240535E+00    0.1809269113E+00    0.1487595873E+00    0.5557495293E-03
    0.7000000000E+05    0.4010976754E-02    0.6954380854E+00    0.1834196816E+00    0.1723734156E+00    0.5662415730E-03
    0.9000000000E+05    0.3526762373E-02    0.6954438723E+00    0.1826878498E+00    0.1916605522E+00    0.5742054171E-03
    0.1100000000E+06    0.3135306673E-02    0.6954462643E+00    0.1805899359E+00    0.2081723437E+00    0.5806439465E-03
    0.1300000000E+06    0.2814880956E-02    0.6954470188E+00    0.1778708456E+00    0.2227148855E+00    0.5860584680E-03
    0.1500000000E+06    0.2548592309E-02    0.6954469056E+00    0.1748738054E+00    0.2357671387E+00    0.5907364824E-03
    0.1700000000E+06    0.2324106809E-02    0.6954463055E+00    0.1717714747E+00    0.2476403568E+00    0.5948585328E-03
    0.1900000000E+06    0.2132442526E-02    0.6954454238E+00    0.1686556233E+00    0.2585501778E+00    0.5985455816E-03
    0.2100000000E+06    0.1966973881E-02    0.6954443777E+00    0.1655765094E+00    0.2686533312E+00    0.6018827168E-03
    0.2300000000E+06    0.1822730718E-02    0.6954432376E+00    0.1625618196E+00    0.2780680450E+00    0.6049321100E-03
    0.2500000000E+06    0.1695920527E-02    0.6954420470E+00    0.1596264321E+00    0.2868861837E+00    0.6077405965E-03
    0.2700000000E+06    0.1583602412E-02    0.6954408334E+00    0.1567777309E+00    0.2951808690E+00    0.6103443536E-03
    0.2900000000E+06    0.1483461882E-02    0.6954396146E+00    0.1540186258E+00    0.3030114777E+00    0.6127719184E-03
    0.3100000000E+06    0.1393652794E-02    0.6954384021E+00    0.1513493283E+00    0.3104270427E+00    0.6150462051E-03
    0.3300000000E+06    0.1312684575E-02    0.6954372036E+00    0.1487684253E+00    0.3174686382E+00    0.6171858966E-03
    0.3500000000E+06    0.1239340434E-02    0.6954360236E+00    0.1462735420E+00    0.3241710981E+00    0.6192064299E-03
    0.3700000000E+06    0.1172617126E-02    0.6954348654E+00    0.1438617576E+00    0.3305642817E+00    0.6211207098E-03
    0.3900000000E+06    0.1111679951E-02    0.6954337307E+00    0.1415298687E+00    0.3366740257E+00    0.6229396356E-03
    0.4100000000E+06    0.1055828684E-02    0.6954326204E+00    0.1392745572E+00    0.3425228720E+00    0.6246724983E-03
    0.4300000000E+06    0.1004471466E-02    0.6954315349E+00    0.1370924966E+00    0.3481306329E+00    0.6263272831E-03
    0.4500000000E+06    0.9571045613E-03    0.6954304743E+00    0.1349804193E+00    0.3535148368E+00    0.6279109041E-03
    0.4700000000E+06    0.9132965003E-03    0.6954294382E+00    0.1329351572E+00    0.3586910833E+00    0.6294293887E-03
    0.4900000000E+06    0.8726755391E-03    0.6954284262E+00    0.1309536660E+00    0.3636733298E+00    0.6308880232E-03
    0.1000000000E+06    0.3320894115E-02    0.6954453476E+00    0.1817491999E+00    0.2002024172E+00    0.5775770416E-03
    0.3000000000E+06    0.1437366319E-02    0.6954390070E+00    0.1526728106E+00    0.3067684097E+00    0.6139269678E-03
    0.5000000000E+06    0.8534578765E-03    0.6954279290E+00    0.1299859202E+00    0.3660956741E+00    0.6315963754E-03
    0.7000000000E+06    0.5770860249E-03    0.6954190821E+00    0.1133490111E+00    0.4068379688E+00    0.6435112531E-03
    0.9000000000E+06    0.4200465452E-03    0.6954118761E+00    0.1006086256E+00    0.4371967624E+00    0.6525567694E-03
    0.1100000000E+07    0.3209257921E-03    0.6954058192E+00    0.9050771356E-01    0.4609136045E+00    0.6598705621E-03
    0.1300000000E+07    0.2538600204E-03    0.6954005984E+00    0.8228491099E-01    0.4800450684E+00    0.6660215473E-03
    0.1500000000E+07    0.2061611274E-03    0.6953960103E+00    0.7545106086E-01    0.4958471124E+00    0.6713360877E-03
    0.1700000000E+07    0.1709283705E-03    0.6953919167E+00    0.6967609380E-01    0.5091417045E+00    0.6760191672E-03
    0.1900000000E+07    0.1441161053E-03    0.6953882202E+00    0.6472837346E-01    0.5204941778E+00    0.6802081413E-03
    0.2100000000E+07    0.1232124025E-03    0.6953848492E+00    0.6044009276E-01    0.5303083346E+00    0.6839996386E-03
    0.2300000000E+07    0.1065849876E-03    0.6953817501E+00    0.5668645568E-01    0.5388813757E+00    0.6874642685E-03
    0.2500000000E+07    0.9313311641E-04    0.6953788816E+00    0.5337258682E-01    0.5464374684E+00    0.6906552256E-03
    0.2700000000E+07    0.8209120985E-04    0.6953762109E+00    0.5042499038E-01    0.5531491940E+00    0.6936136018E-03
    0.2900000000E+07    0.7291268875E-04    0.6953737121E+00    0.4778580090E-01    0.5591517595E+00    0.6963718117E-03
    0.3100000000E+07    0.6519845862E-04    0.6953713638E+00    0.4540880830E-01    0.5645527022E+00    0.6989558842E-03
    0.3300000000E+07    0.5865136393E-04    0.6953691485E+00    0.4325664548E-01    0.5694386889E+00    0.7013870423E-03
    0.3500000000E+07    0.5304632089E-04    0.6953670517E+00    0.4129875768E-01    0.5738803863E+00    0.7036828224E-03
    0.3700000000E+07    0.4821022555E-04    0.6953650610E+00    0.3950990991E-01    0.5779360173E+00    0.7058578840E-03
    0.3900000000E+07    0.4400813094E-04    0.6953631660E+00    0.3786907231E-01    0.5816540024E+00    0.7079246094E-03
    0.4100000000E+07    0.4033354554E-04    0.6953613576E+00    0.3635857570E-01    0.5850749508E+00    0.7098935535E-03
    0.4300000000E+07    0.3710150172E-04    0.6953596280E+00    0.3496346365E-01    0.5882331831E+00    0.7117737880E-03
    0.4500000000E+07    0.3424352300E-04    0.6953579706E+00    0.3367098941E-01    0.5911579086E+00    0.7135731680E-03
    0.4700000000E+07    0.3170391653E-04    0.6953563794E+00    0.3247022120E-01    0.5938741470E+00    0.7152985411E-03
    0.4900000000E+07    0.2943700533E-04    0.6953548492E+00    0.3135172936E-01    0.5964034561E+00    0.7169559132E-03
    0.1000000000E+07    0.3653137372E-03    0.6954087268E+00    0.9528407494E-01    0.4497316705E+00    0.6563866647E-03
    0.3000000000E+07    0.6889308989E-04    0.6953725203E+00    0.4656704578E-01    0.5619215925E+00    0.6976841910E-03
    0.5000000000E+07    0.2839374970E-04    0.6953541055E+00    0.3082073850E-01    0.5976039477E+00    0.7177607788E-03
    0.7000000000E+07    0.1540803745E-04    0.6953415453E+00    0.2301071820E-01    0.6152428946E+00    0.7312991546E-03
    0.9000000000E+07    0.9654353647E-05    0.6953319582E+00    0.1834565637E-01    0.6257645667E+00    0.7415772710E-03
    0.1100000000E+08    0.6611276583E-05    0.6953241818E+00    0.1524559418E-01    0.6327516483E+00    0.7498877130E-03
    0.1300000000E+08    0.4809557618E-05    0.6953176278E+00    0.1303693900E-01    0.6377276699E+00    0.7568769005E-03
    0.1500000000E+08    0.3655670802E-05    0.6953119564E+00    0.1138402715E-01    0.6414507442E+00    0.7629156617E-03
    0.1700000000E+08    0.2872623662E-05    0.6953069531E+00    0.1010084678E-01    0.6443406068E+00    0.7682369111E-03
    0.1900000000E+08    0.2317045279E-05    0.6953024737E+00    0.9076017716E-02    0.6466484328E+00    0.7729967209E-03
    0.2100000000E+08    0.1908690237E-05    0.6952984162E+00    0.8238784330E-02    0.6485337151E+00    0.7773048870E-03
    0.2300000000E+08    0.1599805139E-05    0.6952947063E+00    0.7542047876E-02    0.6501025869E+00    0.7812416409E-03
    0.2500000000E+08    0.1360532658E-05    0.6952912876E+00    0.6953245956E-02    0.6514284075E+00    0.7848674263E-03
    0.2700000000E+08    0.1171428910E-05    0.6952881167E+00    0.6449148552E-02    0.6525635018E+00    0.7882289350E-03
