  Pressure (Pa) 22mC5-500 (mol/kg) 24mC5-500 (mol/kg) 2mC6-500 (mol/kg) 3mC6-500 (mol/kg) C7-500 (mol/kg)
    0.1000000000E+01    0.2231561168E-05    0.1266243855E+00    0.1721331033E-04    0.1469824918E-05    0.4220418289E-02
    0.3000000000E+01    0.4607261184E-05    0.2784859021E+00    0.3383900645E-04    0.3800757991E-05    0.4292019419E-02
    0.5000000000E+01    0.5798297761E-05    0.3663641040E+00    0.4139035962E-04    0.5953868864E-05    0.4333221585E-02
    0.7000000000E+01    0.6487362064E-05    0.4236606529E+00    0.4561806408E-04    0.8020320100E-05    0.4360444770E-02
    0.9000000000E+01    0.6930192281E-05    0.4639736951E+00    0.4847581276E-04    0.1003112074E-04    0.4379882536E-02
    0.1100000000E+02    0.7240630686E-05    0.4938800057E+00    0.5074358973E-04    0.1200185853E-04    0.4394511348E-02
    0.1300000000E+02    0.7475422873E-05    0.5169487491E+00    0.5276494101E-04    0.1394184154E-04    0.4405950410E-02
    0.1500000000E+02    0.7665213125E-05    0.5352843621E+00    0.5470047692E-04    0.1585721880E-04    0.4415159190E-02
    0.1700000000E+02    0.7827561395E-05    0.5502080248E+00    0.5662748882E-04    0.1775233469E-04    0.4422743673E-02
    0.1900000000E+02    0.7972994099E-05    0.5625910480E+00    0.5858303681E-04    0.1963041004E-04    0.4429106101E-02
    0.2100000000E+02    0.8108044369E-05    0.5730313337E+00    0.6058397080E-04    0.2149392088E-04    0.4434524356E-02
    0.2300000000E+02    0.8236876760E-05    0.5819528170E+00    0.6263675307E-04    0.2334482553E-04    0.4439196822E-02
    0.2500000000E+02    0.8362200027E-05    0.5896644490E+00    0.6474247921E-04    0.2518470850E-04    0.4443269079E-02
    0.2700000000E+02    0.8485801574E-05    0.5963967054E+00    0.6689952259E-04    0.2701487622E-04    0.4446850487E-02
    0.2900000000E+02    0.8608871425E-05    0.6023250159E+00    0.6910495457E-04    0.2883642281E-04    0.4450024863E-02
    0.3100000000E+02    0.8732204459E-05    0.6075852722E+00    0.7135531405E-04    0.3065027695E-04    0.4452857591E-02
    0.3300000000E+02    0.8856329862E-05    0.6122843725E+00    0.7364702241E-04    0.3245723599E-04    0.4455400458E-02
    0.3500000000E+02    0.8981595800E-05    0.6165075627E+00    0.7597660215E-04    0.3425799137E-04    0.4457695047E-02
    0.3700000000E+02    0.9108225837E-05    0.6203236545E+00    0.7834078544E-04    0.3605314801E-04    0.4459775158E-02
    0.3900000000E+02    0.9236357134E-05    0.6237888032E+00    0.8073656114E-04    0.3784323928E-04    0.4461668562E-02
    0.4100000000E+02    0.9366066679E-05    0.6269492901E+00    0.8316118742E-04    0.3962873868E-04    0.4463398300E-02
    0.4300000000E+02    0.9497389497E-05    0.6298436014E+00    0.8561218593E-04    0.4141006923E-04    0.4464983666E-02
    0.4500000000E+02    0.9630331434E-05    0.6325040025E+00    0.8808732641E-04    0.4318761098E-04    0.4466440941E-02
    0.4700000000E+02    0.9764878190E-05    0.6349577467E+00    0.9058460700E-04    0.4496170710E-04    0.4467783970E-02
    0.4900000000E+02    0.9901001753E-05    0.6372280117E+00    0.9310223320E-04    0.4673266895E-04    0.4469024607E-02
    0.1000000000E+02    0.7097570807E-05    0.4799584465E+00    0.4965586521E-04    0.1102081827E-04    0.4387676071E-02
    0.3000000000E+02    0.8670466905E-05    0.6050313886E+00    0.7022474254E-04    0.2974425886E-04    0.4451480423E-02
    0.5000000000E+02    0.9969643494E-05    0.6383006523E+00    0.9436816672E-04    0.4761706414E-04    0.4469609774E-02
    0.7000000000E+02    0.1141441857E-04    0.6537056894E+00    0.1204447517E-03    0.6519792531E-04    0.4477805325E-02
    0.9000000000E+02    0.1296698646E-04    0.6625892438E+00    0.1474781332E-03    0.8268072424E-04    0.4482007747E-02
    0.1100000000E+03    0.1459651519E-04    0.6683688143E+00    0.1751124632E-03    0.1001651321E-03    0.4484131281E-02
    0.1300000000E+03    0.1628493820E-04    0.6724291453E+00    0.2032054533E-03    0.1177125268E-03    0.4484999532E-02
    0.1500000000E+03    0.1802166347E-04    0.6754379450E+00    0.2316983726E-03    0.1353651447E-03    0.4485031922E-02
    0.1700000000E+03    0.1980031941E-04    0.6777568004E+00    0.2605691129E-03    0.1531543998E-03    0.4484467213E-02
    0.1900000000E+03    0.2161700329E-04    0.6795985686E+00    0.2898130307E-03    0.1711050646E-03    0.4483452527E-02
    0.2100000000E+03    0.2346932143E-04    0.6810967162E+00    0.3194343496E-03    0.1892375956E-03    0.4482084030E-02
    0.2300000000E+03    0.2535584178E-04    0.6823391749E+00    0.3494420157E-03    0.2075695249E-03    0.4480427499E-02
    0.2500000000E+03    0.2727576872E-04    0.6833862345E+00    0.3798475905E-03    0.2261163439E-03    0.4478529561E-02
    0.2700000000E+03    0.2922874263E-04    0.6842806127E+00    0.4106641385E-03    0.2448920904E-03    0.4476424224E-02
    0.2900000000E+03    0.3121471228E-04    0.6850534221E+00    0.4419056252E-03    0.2639097539E-03    0.4474136866E-02
    0.3100000000E+03    0.3323385130E-04    0.6857278604E+00    0.4735865893E-03    0.2831815659E-03    0.4471686777E-02
    0.3300000000E+03    0.3528650226E-04    0.6863215769E+00    0.5057219659E-03    0.3027192124E-03    0.4469088830E-02
    0.3500000000E+03    0.3737313840E-04    0.6868482375E+00    0.5383269960E-03    0.3225339943E-03    0.4466354625E-02
    0.3700000000E+03    0.3949433704E-04    0.6873185885E+00    0.5714171856E-03    0.3426369520E-03    0.4463493279E-02
    0.3900000000E+03    0.4165076091E-04    0.6877411965E+00    0.6050082944E-03    0.3630389628E-03    0.4460511995E-02
    0.4100000000E+03    0.4384314490E-04    0.6881229748E+00    0.6391163414E-03    0.3837508200E-03    0.4457416473E-02
    0.4300000000E+03    0.4607228656E-04    0.6884695634E+00    0.6737576212E-03    0.4047832982E-03    0.4454211216E-02
    0.4500000000E+03    0.4833903943E-04    0.6887856095E+00    0.7089487264E-03    0.4261472073E-03    0.4450899758E-02
    0.4700000000E+03    0.5064430824E-04    0.6890749767E+00    0.7447065736E-03    0.4478534395E-03    0.4447484839E-02
    0.4900000000E+03    0.5298904566E-04    0.6893409034E+00    0.7810484316E-03    0.4699130099E-03    0.4443968540E-02
    0.1000000000E+03    0.1377348777E-04    0.6657556339E+00    0.1612319162E-03    0.9141829838E-04    0.4483264121E-02
    0.3000000000E+03    0.3222011765E-04    0.6854017258E+00    0.4576902471E-03    0.2735131503E-03    0.4472931145E-02
    0.5000000000E+03    0.5417652535E-04    0.6894659481E+00    0.7994438648E-03    0.4810787817E-03    0.4442172870E-02
    0.7000000000E+03    0.8026921578E-04    0.6912203033E+00    0.1202616007E-02    0.7258252103E-03    0.4401082497E-02
    0.9000000000E+03    0.1117720773E-03    0.6921975189E+00    0.1688221912E-02    0.1020810872E-02    0.4349481342E-02
    0.1100000000E+04    0.1505235198E-03    0.6928199838E+00    0.2285156545E-02    0.1383763013E-02    0.4285089934E-02
    0.1300000000E+04    0.1992059278E-03    0.6932509856E+00    0.3035143413E-02    0.1840244160E-02    0.4203978979E-02
    0.1500000000E+04    0.2618429415E-03    0.6935669545E+00    0.4000626361E-02    0.2428532446E-02    0.4100052627E-02
    0.1700000000E+04    0.3446450945E-03    0.6938084317E+00    0.5278003177E-02    0.3207786897E-02    0.3963914457E-02
    0.1900000000E+04    0.4574313973E-03    0.6939989190E+00    0.7019870244E-02    0.4271803625E-02    0.3780954898E-02
    0.2100000000E+04    0.6158516971E-03    0.6941529779E+00    0.9469968556E-02    0.5770740626E-02    0.3528576470E-02
    0.2300000000E+04    0.8438966745E-03    0.6942801110E+00    0.1300334322E-01    0.7936496552E-02    0.3173918398E-02
    0.2500000000E+04    0.1172119605E-02    0.6943867827E+00    0.1810163847E-01    0.1106928019E-01    0.2680063317E-02
    0.2700000000E+04    0.1615274613E-02    0.6944775432E+00    0.2501065483E-01    0.1533013215E-01    0.2044877519E-02
    0.2900000000E+04    0.2117188578E-02    0.6945556881E+00    0.3288283303E-01    0.2021329505E-01    0.1379685276E-02
    0.3100000000E+04    0.2551801590E-02    0.6946236626E+00    0.3977147666E-01    0.2452954352E-01    0.8788683052E-03
    0.3300000000E+04    0.2854797012E-02    0.6946833191E+00    0.4466128603E-01    0.2764543625E-01    0.6103460544E-03
    0.3500000000E+04    0.3059210245E-02    0.6947360865E+00    0.4804483194E-01    0.2985147364E-01    0.4961646287E-03
    0.3700000000E+04    0.3212808866E-02    0.6947830846E+00    0.5065438405E-01    0.3159190758E-01    0.4531302822E-03
    0.3900000000E+04    0.3342852653E-02    0.6948252035E+00    0.5291051526E-01    0.3312353847E-01    0.4380440953E-03
    0.4100000000E+04    0.3461245799E-02    0.6948631593E+00    0.5499735206E-01    0.3455910447E-01    0.4332873306E-03
    0.4300000000E+04    0.3572771749E-02    0.6948975348E+00    0.5698875413E-01    0.3594378278E-01    0.4322623027E-03
    0.4500000000E+04    0.3679349780E-02    0.6949288093E+00    0.5891405276E-01    0.3729535896E-01    0.4325650238E-03
    0.4700000000E+04    0.3781797514E-02    0.6949573800E+00    0.6078540580E-01    0.3862102376E-01    0.4333254273E-03
    0.4900000000E+04    0.3880512144E-02    0.6949835795E+00    0.6260841415E-01    0.3992391834E-01    0.4342289722E-03
    0.1000000000E+04    0.1300984131E-03    0.6925398404E+00    0.1970539540E-02    0.1192422709E-02    0.4319088185E-02
    0.3000000000E+04    0.2349906433E-02    0.6945908193E+00    0.3655934607E-01    0.2250972560E-01    0.1099533844E-02
    0.5000000000E+04    0.3928545999E-02    0.6949958794E+00    0.6350279885E-01    0.4056735220E-01    0.4346954088E-03
    0.7000000000E+04    0.4731489703E-02    0.6951668431E+00    0.7932070781E-01    0.5245987298E-01    0.4429171534E-03
    0.9000000000E+04    0.5300260787E-02    0.6952603015E+00    0.9196339714E-01    0.6281699712E-01    0.4491775239E-03
    0.1100000000E+05    0.5704354299E-02    0.6953187859E+00    0.1022501622E+00    0.7198878101E-01    0.4542336246E-03
    0.1300000000E+05    0.5989903218E-02    0.6953585802E+00    0.1107427987E+00    0.8022168666E-01    0.4584827536E-03
    0.1500000000E+05    0.6188494756E-02    0.6953872470E+00    0.1178392956E+00    0.8769496081E-01    0.4621521972E-03
    0.1700000000E+05    0.6322314271E-02    0.6954087708E+00    0.1238292657E+00    0.9454245486E-01    0.4653844433E-03
    0.1900000000E+05    0.6407283326E-02    0.6954254465E+00    0.1289283436E+00    0.1008664025E+00    0.4682748400E-03
    0.2100000000E+05    0.6455040878E-02    0.6954386877E+00    0.1333002930E+00    0.1067464256E+00    0.4708903952E-03
    0.2300000000E+05    0.6474231533E-02    0.6954494115E+00    0.1370716513E+00    0.1122456002E+00    0.4732800340E-03
    0.2500000000E+05    0.6471364994E-02    0.6954582383E+00    0.1403416895E+00    0.1174146485E+00    0.4754805912E-03
    0.2700000000E+05    0.6451402476E-02    0.6954656022E+00    0.1431893446E+00    0.1222949041E+00    0.4775205058E-03
    0.2900000000E+05    0.6418164854E-02    0.6954718159E+00    0.1456781443E+00    0.1269204516E+00    0.4794222014E-03
    0.3100000000E+05    0.6374621815E-02    0.6954771104E+00    0.1478597705E+00    0.1313196990E+00    0.4812036775E-03
    0.3300000000E+05    0.6323099973E-02    0.6954816593E+00    0.1497766800E+00    0.1355165514E+00    0.4828796055E-03
    0.3500000000E+05    0.6265434801E-02    0.6954855962E+00    0.1514640613E+00    0.1395313014E+00    0.4844621048E-03
    0.3700000000E+05    0.6203082997E-02    0.6954890249E+00    0.1529513147E+00    0.1433813120E+00    0.4859613044E-03
    0.3900000000E+05    0.6137206552E-02    0.6954920277E+00    0.1542631861E+00    0.1470815483E+00    0.4873857576E-03
    0.4100000000E+05    0.6068736336E-02    0.6954946703E+00    0.1554206452E+00    0.1506449944E+00    0.4887427544E-03
    0.4300000000E+05    0.5998420640E-02    0.6954970058E+00    0.1564415728E+00    0.1540829854E+00    0.4900385592E-03
    0.4500000000E+05    0.5926862592E-02    0.6954990779E+00    0.1573413040E+00    0.1574054729E+00    0.4912785955E-03
    0.4700000000E+05    0.5854549209E-02    0.6955009223E+00    0.1581330607E+00    0.1606212399E+00    0.4924675903E-03
    0.4900000000E+05    0.5781874146E-02    0.6955025690E+00    0.1588282993E+00    0.1637380762E+00    0.4936096893E-03
    0.1000000000E+05    0.5519588454E-02    0.6952925908E+00    0.9736146838E-01    0.6753374553E-01    0.4518257250E-03
    0.3000000000E+05    0.6397523033E-02    0.6954745661E+00    0.1468045099E+00    0.1291467748E+00    0.4803269823E-03
    0.5000000000E+05    0.5745502963E-02    0.6955033261E+00    0.1591428922E+00    0.1652615938E+00    0.4941643124E-03
    0.7000000000E+05    0.5049589343E-02    0.6955124541E+00    0.1622168319E+00    0.1918843834E+00    0.5034924710E-03
    0.9000000000E+05    0.4455503139E-02    0.6955157368E+00    0.1618756812E+00    0.2134019948E+00    0.5105733170E-03
    0.1100000000E+06    0.3963571150E-02    0.6955166771E+00    0.1600448801E+00    0.2316553827E+00    0.5162981706E-03
    0.1300000000E+06    0.3555348057E-02    0.6955165257E+00    0.1575168526E+00    0.2476025492E+00    0.5211126322E-03
    0.1500000000E+06    0.3213288438E-02    0.6955158214E+00    0.1546640872E+00    0.2618120662E+00    0.5252722766E-03
    0.1700000000E+06    0.2923484741E-02    0.6955148260E+00    0.1516771765E+00    0.2746526934E+00    0.5289376071E-03
    0.1900000000E+06    0.2675333471E-02    0.6955136771E+00    0.1486590684E+00    0.2863793546E+00    0.5322161641E-03
    0.2100000000E+06    0.2460778619E-02    0.6955124513E+00    0.1456671188E+00    0.2971769369E+00    0.5351835966E-03
    0.2300000000E+06    0.2273651665E-02    0.6955111932E+00    0.1427335855E+00    0.3071846231E+00    0.5378951809E-03
    0.2500000000E+06    0.2109174609E-02    0.6955099291E+00    0.1398763168E+00    0.3165103500E+00    0.5403925583E-03
    0.2700000000E+06    0.1963600278E-02    0.6955086750E+00    0.1371046296E+00    0.3252398728E+00    0.5427078950E-03
    0.2900000000E+06    0.1833953888E-02    0.6955074402E+00    0.1344226831E+00    0.3334427027E+00    0.5448665643E-03
    0.3100000000E+06    0.1717846468E-02    0.6955062305E+00    0.1318314809E+00    0.3411761403E+00    0.5468889401E-03
    0.3300000000E+06    0.1613338846E-02    0.6955050491E+00    0.1293300929E+00    0.3484881025E+00    0.5487916344E-03
    0.3500000000E+06    0.1518841346E-02    0.6955038974E+00    0.1269164174E+00    0.3554191560E+00    0.5505883733E-03
    0.3700000000E+06    0.1433038920E-02    0.6955027760E+00    0.1245876632E+00    0.3620040135E+00    0.5522906311E-03
    0.3900000000E+06    0.1354834599E-02    0.6955016849E+00    0.1223406590E+00    0.3682726584E+00    0.5539080994E-03
    0.4100000000E+06    0.1283306295E-02    0.6955006235E+00    0.1201720531E+00    0.3742512034E+00    0.5554490393E-03
    0.4300000000E+06    0.1217673426E-02    0.6954995910E+00    0.1180784418E+00    0.3799625576E+00    0.5569205512E-03
    0.4500000000E+06    0.1157270894E-02    0.6954985865E+00    0.1160564520E+00    0.3854269515E+00    0.5583287831E-03
    0.4700000000E+06    0.1101528577E-02    0.6954976091E+00    0.1141027934E+00    0.3906623553E+00    0.5596790945E-03
    0.4900000000E+06    0.1049955035E-02    0.6954966576E+00    0.1122142899E+00    0.3956848168E+00    0.5609761858E-03
    0.1000000000E+06    0.4197860917E-02    0.6955163961E+00    0.1610825438E+00    0.2228642707E+00    0.5135711958E-03
    0.3000000000E+06    0.1774338227E-02    0.6955068320E+00    0.1331157624E+00    0.3373649077E+00    0.5458936741E-03
    0.5000000000E+06    0.1025596227E-02    0.6954961913E+00    0.1112935147E+00    0.3981207519E+00    0.5616060889E-03
    0.7000000000E+06    0.6788463691E-03    0.6954879845E+00    0.9563719849E-01    0.4384944282E+00    0.5722014589E-03
    0.9000000000E+06    0.4857949557E-03    0.6954813873E+00    0.8389036046E-01    0.4678225498E+00    0.5802452881E-03
    0.1100000000E+07    0.3660754842E-03    0.6954758804E+00    0.7474019526E-01    0.4902685913E+00    0.5867491908E-03
    0.1300000000E+07    0.2862879582E-03    0.6954711540E+00    0.6740314512E-01    0.5080700928E+00    0.5922190668E-03
    0.1500000000E+07    0.2302740980E-03    0.6954670125E+00    0.6138418056E-01    0.5225648634E+00    0.5969451306E-03
    0.1700000000E+07    0.1893628640E-03    0.6954633251E+00    0.5635477068E-01    0.5346115465E+00    0.6011096636E-03
    0.1900000000E+07    0.1585338587E-03    0.6954600006E+00    0.5208793934E-01    0.5447903371E+00    0.6048348087E-03
    0.2100000000E+07    0.1347055426E-03    0.6954569727E+00    0.4842161806E-01    0.5535090671E+00    0.6082064931E-03
    0.2300000000E+07    0.1158964528E-03    0.6954541919E+00    0.4523686781E-01    0.5610635859E+00    0.6112875065E-03
    0.2500000000E+07    0.1007831511E-03    0.6954516200E+00    0.4244435691E-01    0.5676741331E+00    0.6141251526E-03
    0.2700000000E+07    0.8845323167E-04    0.6954492271E+00    0.3997564779E-01    0.5735082596E+00    0.6167559724E-03
    0.2900000000E+07    0.7826051712E-04    0.6954469895E+00    0.3777740198E-01    0.5786958166E+00    0.6192087912E-03
    0.3100000000E+07    0.6973666658E-04    0.6954448878E+00    0.3580741944E-01    0.5833390651E+00    0.6215067551E-03
    0.3300000000E+07    0.6253533121E-04    0.6954429060E+00    0.3403186649E-01    0.5875196767E+00    0.6236687372E-03
    0.3500000000E+07    0.5639580738E-04    0.6954410309E+00    0.3242329487E-01    0.5913036936E+00    0.6257103317E-03
    0.3700000000E+07    0.5111875813E-04    0.6954392512E+00    0.3095919967E-01    0.5947451131E+00    0.6276445750E-03
    0.3900000000E+07    0.4654962027E-04    0.6954375576E+00    0.2962095209E-01    0.5978885250E+00    0.6294824781E-03
    0.4100000000E+07    0.4256703097E-04    0.6954359418E+00    0.2839299789E-01    0.6007710817E+00    0.6312334270E-03
    0.4300000000E+07    0.3907460707E-04    0.6954343969E+00    0.2726224721E-01    0.6034239916E+00    0.6329054891E-03
    0.4500000000E+07    0.3599500915E-04    0.6954329167E+00    0.2621760439E-01    0.6058736656E+00    0.6345056494E-03
    0.4700000000E+07    0.3326559126E-04    0.6954314960E+00    0.2524960168E-01    0.6081426069E+00    0.6360399974E-03
    0.4900000000E+07    0.3083516914E-04    0.6954301299E+00    0.2435011096E-01    0.6102501097E+00    0.6375138739E-03
    0.1000000000E+07    0.4194485809E-03    0.6954785204E+00    0.7904845479E-01    0.4797374492E+00    0.5836510784E-03
    0.3000000000E+07    0.7381399106E-04    0.6954459227E+00    0.3676616215E-01    0.5810799585E+00    0.6203758635E-03
    0.5000000000E+07    0.2971860963E-04    0.6954294660E+00    0.2392382648E-01    0.6112486122E+00    0.6382296293E-03
    0.7000000000E+07    0.1593649953E-04    0.6954182618E+00    0.1770889909E-01    0.6257870833E+00    0.6502691378E-03
    0.9000000000E+07    0.9912998233E-05    0.6954097169E+00    0.1404590928E-01    0.6343410722E+00    0.6594093708E-03
    0.1100000000E+08    0.6754542824E-05    0.6954027892E+00    0.1163219495E-01    0.6399727275E+00    0.6667997896E-03
    0.1300000000E+08    0.4895607275E-05    0.6953969524E+00    0.9922501797E-02    0.6439597725E+00    0.6730152398E-03
    0.1500000000E+08    0.3710275609E-05    0.6953919028E+00    0.8648433898E-02    0.6469300390E+00    0.6783854907E-03
    0.1700000000E+08    0.2908593417E-05    0.6953874488E+00    0.7662562892E-02    0.6492280038E+00    0.6831176685E-03
    0.1900000000E+08    0.2341316685E-05    0.6953834617E+00    0.6877197907E-02    0.6510584066E+00    0.6873505652E-03
    0.2100000000E+08    0.1925277640E-05    0.6953798505E+00    0.6236922201E-02    0.6525505634E+00    0.6911818204E-03
    0.2300000000E+08    0.1611158174E-05    0.6953765490E+00    0.5705002080E-02    0.6537901588E+00    0.6946827826E-03
    0.2500000000E+08    0.1368212268E-05    0.6953735068E+00    0.5256128823E-02    0.6548362101E+00    0.6979072035E-03
    0.2700000000E+08    0.1176466193E-05    0.6953706853E+00    0.4872299388E-02    0.6557306890E+00    0.7008966054E-03
