  Pressure (Pa) 22mC5-500 (mol/kg) 24mC5-500 (mol/kg) 2mC6-500 (mol/kg) 3mC6-500 (mol/kg) C7-500 (mol/kg)
    0.1000000000E+01    0.2231648378E-05    0.1266270670E+00    0.5738089287E-05    0.4410438916E-05    0.4220237490E-02
    0.3000000000E+01    0.4607718305E-05    0.2784973758E+00    0.1128145553E-04    0.1140909896E-04    0.4291614285E-02
    0.5000000000E+01    0.5799228427E-05    0.3663818919E+00    0.1380067622E-04    0.1787872140E-04    0.4332622899E-02
    0.7000000000E+01    0.6488865840E-05    0.4236821934E+00    0.1521263642E-04    0.2409242416E-04    0.4359666002E-02
    0.9000000000E+01    0.6932382063E-05    0.4639973063E+00    0.1616859469E-04    0.3014303445E-04    0.4378931987E-02
    0.1100000000E+02    0.7243627384E-05    0.4939046470E+00    0.1692855635E-04    0.3607718456E-04    0.4393394898E-02
    0.1300000000E+02    0.7479351075E-05    0.5169737794E+00    0.1760703649E-04    0.4192270484E-04    0.4404672539E-02
    0.1500000000E+02    0.7670198722E-05    0.5353093858E+00    0.1825756696E-04    0.4769797154E-04    0.4413723467E-02
    0.1700000000E+02    0.7833730383E-05    0.5502327974E+00    0.1890590505E-04    0.5341596265E-04    0.4421153024E-02
    0.1900000000E+02    0.7980472013E-05    0.5626154202E+00    0.1956439752E-04    0.5908629652E-04    0.4427362972E-02
    0.2100000000E+02    0.8116956044E-05    0.5730552165E+00    0.2023865484E-04    0.6471636558E-04    0.4432630828E-02
    0.2300000000E+02    0.8247346263E-05    0.5819761606E+00    0.2093082563E-04    0.7031201548E-04    0.4437154684E-02
    0.2500000000E+02    0.8374350665E-05    0.5896872288E+00    0.2164127031E-04    0.7587797575E-04    0.4441079883E-02
    0.2700000000E+02    0.8499755951E-05    0.5964189136E+00    0.2236944256E-04    0.8141814570E-04    0.4444515587E-02
    0.2900000000E+02    0.8624751508E-05    0.6023466555E+00    0.2311436269E-04    0.8693579130E-04    0.4447545454E-02
    0.3100000000E+02    0.8750131655E-05    0.6076063529E+00    0.2387487404E-04    0.9243368505E-04    0.4450234725E-02
    0.3300000000E+02    0.8876425093E-05    0.6123049086E+00    0.2464978129E-04    0.9791420792E-04    0.4452635070E-02
    0.3500000000E+02    0.9003979574E-05    0.6165275712E+00    0.2543792325E-04    0.1033794253E-03    0.4454787968E-02
    0.3700000000E+02    0.9133018312E-05    0.6203431536E+00    0.2623820897E-04    0.1088311450E-03    0.4456727128E-02
    0.3900000000E+02    0.9263678184E-05    0.6238078121E+00    0.2704963344E-04    0.1142709616E-03    0.4458480240E-02
    0.4100000000E+02    0.9396035944E-05    0.6269678281E+00    0.2787128167E-04    0.1197002915E-03    0.4460070278E-02
    0.4300000000E+02    0.9530126439E-05    0.6298616874E+00    0.2870232680E-04    0.1251204012E-03    0.4461516470E-02
    0.4500000000E+02    0.9665955378E-05    0.6325216551E+00    0.2954202488E-04    0.1305324292E-03    0.4462835041E-02
    0.4700000000E+02    0.9803508370E-05    0.6349749840E+00    0.3038970830E-04    0.1359374044E-03    0.4464039786E-02
    0.4900000000E+02    0.9942757349E-05    0.6372448509E+00    0.3124477879E-04    0.1413362614E-03    0.4465142512E-02
    0.1000000000E+02    0.7100148629E-05    0.4799826733E+00    0.1656388078E-04    0.3312263588E-04    0.4386641939E-02
    0.3000000000E+02    0.8687355400E-05    0.6050527472E+00    0.2349274435E-04    0.8968705017E-04    0.4448929162E-02
    0.5000000000E+02    0.1001300648E-04    0.6383172986E+00    0.3167491446E-04    0.1440336647E-03    0.4465658851E-02
    0.7000000000E+02    0.1149619887E-04    0.6537192076E+00    0.4056213462E-04    0.1978337597E-03    0.4472488934E-02
    0.9000000000E+02    0.1309924865E-04    0.6626006177E+00    0.4982968412E-04    0.2516736418E-03    0.4475331486E-02
    0.1100000000E+03    0.1479161490E-04    0.6683786387E+00    0.5936050535E-04    0.3058611843E-03    0.4476086091E-02
    0.1300000000E+03    0.1655562320E-04    0.6724377999E+00    0.6910922271E-04    0.3605919771E-03    0.4475567212E-02
    0.1500000000E+03    0.1838114639E-04    0.6754456855E+00    0.7905867405E-04    0.4160061082E-03    0.4474187795E-02
    0.1700000000E+03    0.2026233690E-04    0.6777638067E+00    0.8920420162E-04    0.4722127942E-03    0.4472181581E-02
    0.1900000000E+03    0.2219586842E-04    0.6796049721E+00    0.9954723362E-04    0.5293027596E-03    0.4469691529E-02
    0.2100000000E+03    0.2417997255E-04    0.6811026156E+00    0.1100924023E-03    0.5873551294E-03    0.4466810158E-02
    0.2300000000E+03    0.2621389001E-04    0.6823446465E+00    0.1208461558E-03    0.6464415738E-03    0.4463599926E-02
    0.2500000000E+03    0.2829754511E-04    0.6833913383E+00    0.1318160552E-03    0.7066289577E-03    0.4460104343E-02
    0.2700000000E+03    0.3043134599E-04    0.6842853967E+00    0.1430104073E-03    0.7679811239E-03    0.4456354415E-02
    0.2900000000E+03    0.3261605817E-04    0.6850579254E+00    0.1544380704E-03    0.8305601471E-03    0.4452372576E-02
    0.3100000000E+03    0.3485272274E-04    0.6857321154E+00    0.1661083538E-03    0.8944272534E-03    0.4448175186E-02
    0.3300000000E+03    0.3714260249E-04    0.6863256106E+00    0.1780309702E-03    0.9596435196E-03    0.4443774172E-02
    0.3500000000E+03    0.3948714607E-04    0.6868520726E+00    0.1902160177E-03    0.1026270426E-02    0.4439178140E-02
    0.3700000000E+03    0.4188796419E-04    0.6873222443E+00    0.2026739811E-03    0.1094370307E-02    0.4434393149E-02
    0.3900000000E+03    0.4434681401E-04    0.6877446897E+00    0.2154157431E-03    0.1164006733E-02    0.4429423260E-02
    0.4100000000E+03    0.4686558918E-04    0.6881263198E+00    0.2284526048E-03    0.1235244845E-02    0.4424270926E-02
    0.4300000000E+03    0.4944631413E-04    0.6884727728E+00    0.2417963089E-03    0.1308151653E-02    0.4418937287E-02
    0.4500000000E+03    0.5209114130E-04    0.6887886942E+00    0.2554590689E-03    0.1382796316E-02    0.4413422383E-02
    0.4700000000E+03    0.5480235069E-04    0.6890779465E+00    0.2694535994E-03    0.1459250401E-02    0.4407725312E-02
    0.4900000000E+03    0.5758235130E-04    0.6893437668E+00    0.2837931500E-03    0.1537588145E-02    0.4401844358E-02
    0.1000000000E+03    0.1393560168E-04    0.6657661749E+00    0.5456597911E-04    0.2787100041E-03    0.4475905183E-02
    0.3000000000E+03    0.3372782219E-04    0.6854061014E+00    0.1602422866E-03    0.8623288761E-03    0.4450299991E-02
    0.5000000000E+03    0.5899893705E-04    0.6894687612E+00    0.2910966033E-03    0.1577487378E-02    0.4398834186E-02
    0.7000000000E+03    0.9165232584E-04    0.6912223932E+00    0.4590738214E-03    0.2495435074E-02    0.4328020938E-02
    0.9000000000E+03    0.1352570337E-03    0.6921991888E+00    0.6829989160E-03    0.3720377044E-02    0.4232116159E-02
    0.1100000000E+04    0.1959058417E-03    0.6928213780E+00    0.9944431008E-03    0.5426361504E-02    0.4099151753E-02
    0.1300000000E+04    0.2844876726E-03    0.6932521844E+00    0.1449710500E-02    0.7924047716E-02    0.3907440062E-02
    0.1500000000E+04    0.4213394612E-03    0.6935680073E+00    0.2154105066E-02    0.1179568377E-01    0.3617420144E-02
    0.1700000000E+04    0.6442249185E-03    0.6938093711E+00    0.3303880934E-02    0.1813048481E-01    0.3159423308E-02
    0.1900000000E+04    0.1008781761E-02    0.6939997675E+00    0.5191003223E-02    0.2856413296E-01    0.2444804023E-02
    0.2100000000E+04    0.1514534453E-02    0.6941537520E+00    0.7825042097E-02    0.4321462181E-01    0.1530850768E-02
    0.2300000000E+04    0.1975083155E-02    0.6942808230E+00    0.1025373731E-01    0.5688562071E-01    0.8265954393E-03
    0.2500000000E+04    0.2258670395E-02    0.6943874420E+00    0.1178797390E-01    0.6572994619E-01    0.5322834675E-03
    0.2700000000E+04    0.2435923283E-02    0.6944781573E+00    0.1278212856E-01    0.7164736307E-01    0.4485601081E-03
    0.2900000000E+04    0.2574223085E-02    0.6945562628E+00    0.1358149044E-01    0.7652865859E-01    0.4285960316E-03
    0.3100000000E+04    0.2697707343E-02    0.6946242028E+00    0.1431036672E-01    0.8105813499E-01    0.4248650295E-03
    0.3300000000E+04    0.2813268927E-02    0.6946838287E+00    0.1500414362E-01    0.8543025055E-01    0.4250539585E-03
    0.3500000000E+04    0.2922890302E-02    0.6947365688E+00    0.1567274937E-01    0.8969844996E-01    0.4261412697E-03
    0.3700000000E+04    0.3027257173E-02    0.6947835425E+00    0.1631936992E-01    0.9387870426E-01    0.4273953551E-03
    0.3900000000E+04    0.3126712374E-02    0.6948256393E+00    0.1694541634E-01    0.9797714037E-01    0.4286421540E-03
    0.4100000000E+04    0.3221502130E-02    0.6948635750E+00    0.1755181320E-01    0.1019972408E+00    0.4298432986E-03
    0.4300000000E+04    0.3311839786E-02    0.6948979323E+00    0.1813933271E-01    0.1059417168E+00    0.4309932452E-03
    0.4500000000E+04    0.3397922676E-02    0.6949291900E+00    0.1870868271E-01    0.1098129998E+00    0.4320940855E-03
    0.4700000000E+04    0.3479936920E-02    0.6949577453E+00    0.1926053093E-01    0.1136133743E+00    0.4331493863E-03
    0.4900000000E+04    0.3558059081E-02    0.6949839307E+00    0.1979551264E-01    0.1173450169E+00    0.4341627184E-03
    0.1000000000E+04    0.1629218444E-03    0.6925413595E+00    0.8250455156E-03    0.4498155625E-02    0.4171324625E-02
    0.3000000000E+04    0.2637192925E-02    0.6945913762E+00    0.1395152607E-01    0.7881968012E-01    0.4258442782E-03
    0.5000000000E+04    0.3595713396E-02    0.6949962238E+00    0.2005686901E-01    0.1191857179E+00    0.4346546788E-03
    0.7000000000E+04    0.4181120256E-02    0.6951670919E+00    0.2453209041E-01    0.1528538464E+00    0.4429173041E-03
    0.9000000000E+04    0.4524873419E-02    0.6952604952E+00    0.2786529950E-01    0.1815544088E+00    0.4491776461E-03
    0.1100000000E+05    0.4708159627E-02    0.6953189434E+00    0.3036991547E-01    0.2064228243E+00    0.4542337252E-03
    0.1300000000E+05    0.4783517020E-02    0.6953587120E+00    0.3225940354E-01    0.2282610465E+00    0.4584828388E-03
    0.1500000000E+05    0.4785788271E-02    0.6953873595E+00    0.3368351693E-01    0.2476529508E+00    0.4621522707E-03
    0.1700000000E+05    0.4738544144E-02    0.6954088681E+00    0.3474997078E-01    0.2650347713E+00    0.4653845074E-03
    0.1900000000E+05    0.4657986913E-02    0.6954255317E+00    0.3553791322E-01    0.2807397763E+00    0.4682748966E-03
    0.2100000000E+05    0.4555395251E-02    0.6954387628E+00    0.3610657959E-01    0.2950275511E+00    0.4708904455E-03
    0.2300000000E+05    0.4438695949E-02    0.6954494781E+00    0.3650101434E-01    0.3081037511E+00    0.4732800790E-03
    0.2500000000E+05    0.4313497322E-02    0.6954582975E+00    0.3675595055E-01    0.3201337649E+00    0.4754806316E-03
    0.2700000000E+05    0.4183782146E-02    0.6954656551E+00    0.3689849938E-01    0.3312523792E+00    0.4775205422E-03
    0.2900000000E+05    0.4052380363E-02    0.6954718633E+00    0.3695005157E-01    0.3415707526E+00    0.4794222342E-03
    0.3100000000E+05    0.3921296449E-02    0.6954771527E+00    0.3692764593E-01    0.3511815392E+00    0.4812037072E-03
    0.3300000000E+05    0.3791939160E-02    0.6954816973E+00    0.3684496984E-01    0.3601627129E+00    0.4828796323E-03
    0.3500000000E+05    0.3665284679E-02    0.6954856302E+00    0.3671310128E-01    0.3685804653E+00    0.4844621291E-03
    0.3700000000E+05    0.3541993653E-02    0.6954890553E+00    0.3654106633E-01    0.3764914303E+00    0.4859613263E-03
    0.3900000000E+05    0.3422495922E-02    0.6954920547E+00    0.3633626300E-01    0.3839444135E+00    0.4873857774E-03
    0.4100000000E+05    0.3307052335E-02    0.6954946942E+00    0.3610478698E-01    0.3909817507E+00    0.4887427722E-03
    0.4300000000E+05    0.3195800151E-02    0.6954970270E+00    0.3585168436E-01    0.3976403877E+00    0.4900385751E-03
    0.4500000000E+05    0.3088786582E-02    0.6954990964E+00    0.3558114958E-01    0.4039527450E+00    0.4912786096E-03
    0.4700000000E+05    0.2985993673E-02    0.6955009384E+00    0.3529668174E-01    0.4099474181E+00    0.4924676028E-03
    0.4900000000E+05    0.2887356842E-02    0.6955025828E+00    0.3500120897E-01    0.4156497475E+00    0.4936097003E-03
    0.1000000000E+05    0.4632777103E-02    0.6952927647E+00    0.2920601477E-01    0.1944113334E+00    0.4518258355E-03
    0.3000000000E+05    0.3986698841E-02    0.6954746109E+00    0.3694716921E-01    0.3464594146E+00    0.4803270135E-03
    0.5000000000E+05    0.2839567504E-02    0.6955033389E+00    0.3485012960E-01    0.4183984296E+00    0.4941643227E-03
    0.7000000000E+05    0.2070520102E-02    0.6955124505E+00    0.3167235543E-01    0.4623873287E+00    0.5034924703E-03
    0.9000000000E+05    0.1564479451E-02    0.6955157225E+00    0.2867779921E-01    0.4925841004E+00    0.5105733089E-03
    0.1100000000E+06    0.1219885770E-02    0.6955166549E+00    0.2606951697E-01    0.5147708633E+00    0.5162981568E-03
    0.1300000000E+06    0.9763188163E-03    0.6955164971E+00    0.2383624878E-01    0.5318321824E+00    0.5211126139E-03
    0.1500000000E+06    0.7983734745E-03    0.6955157876E+00    0.2192430339E-01    0.5453926572E+00    0.5252722545E-03
    0.1700000000E+06    0.6646504379E-03    0.6955147877E+00    0.2027854477E-01    0.5564458719E+00    0.5289375816E-03
    0.1900000000E+06    0.5617229224E-03    0.6955136347E+00    0.1885171826E-01    0.5656371744E+00    0.5322161356E-03
    0.2100000000E+06    0.4808619630E-03    0.6955124054E+00    0.1760539845E-01    0.5734055205E+00    0.5351835654E-03
    0.2300000000E+06    0.4162091194E-03    0.6955111440E+00    0.1650882767E-01    0.5800606293E+00    0.5378951472E-03
    0.2500000000E+06    0.3637204281E-03    0.6955098769E+00    0.1553743116E-01    0.5858276723E+00    0.5403925223E-03
    0.2700000000E+06    0.3205344931E-03    0.6955086199E+00    0.1467149474E-01    0.5908744892E+00    0.5427078569E-03
    0.2900000000E+06    0.2845819764E-03    0.6955073825E+00    0.1389509894E-01    0.5953288610E+00    0.5448665241E-03
    0.3100000000E+06    0.2543371046E-03    0.6955061703E+00    0.1319529049E-01    0.5992898575E+00    0.5468888979E-03
    0.3300000000E+06    0.2286553242E-03    0.6955049865E+00    0.1256144633E-01    0.6028355145E+00    0.5487915904E-03
    0.3500000000E+06    0.2066646949E-03    0.6955038326E+00    0.1198478641E-01    0.6060281606E+00    0.5505883275E-03
    0.3700000000E+06    0.1876916648E-03    0.6955027091E+00    0.1145799934E-01    0.6089181971E+00    0.5522905836E-03
    0.3900000000E+06    0.1712093544E-03    0.6955016159E+00    0.1097495315E-01    0.6115468315E+00    0.5539080502E-03
    0.4100000000E+06    0.1568008882E-03    0.6955005525E+00    0.1053047023E-01    0.6139480897E+00    0.5554489886E-03
    0.4300000000E+06    0.1441329769E-03    0.6954995181E+00    0.1012015107E-01    0.6161503206E+00    0.5569204990E-03
    0.4500000000E+06    0.1329366077E-03    0.6954985118E+00    0.9740234921E-02    0.6181773355E+00    0.5583287294E-03
    0.4700000000E+06    0.1229927385E-03    0.6954975326E+00    0.9387489124E-02    0.6200492839E+00    0.5596790393E-03
    0.4900000000E+06    0.1141215707E-03    0.6954965793E+00    0.9059120316E-02    0.6217833331E+00    0.5609761293E-03
    0.1000000000E+06    0.1376538953E-02    0.6955163776E+00    0.2732416488E-01    0.5044574734E+00    0.5135711846E-03
    0.3000000000E+06    0.2688250766E-03    0.6955067730E+00    0.1353633352E-01    0.5973657325E+00    0.5458936329E-03
    0.5000000000E+06    0.1100407497E-03    0.6954961122E+00    0.8903306571E-02    0.6226033283E+00    0.5616060317E-03
    0.7000000000E+06    0.5937933770E-04    0.6954878905E+00    0.6618456767E-02    0.6344314054E+00    0.5722013895E-03
    0.9000000000E+06    0.3705359957E-04    0.6954812810E+00    0.5261327443E-02    0.6412975329E+00    0.5802452085E-03
    0.1100000000E+07    0.2529513193E-04    0.6954757635E+00    0.4363297863E-02    0.6457826919E+00    0.5867491022E-03
    0.1300000000E+07    0.1835564905E-04    0.6954710276E+00    0.3725532437E-02    0.6489420870E+00    0.5922189700E-03
    0.1500000000E+07    0.1392256999E-04    0.6954668774E+00    0.3249414556E-02    0.6512876366E+00    0.5969450264E-03
    0.1700000000E+07    0.1092033665E-04    0.6954631821E+00    0.2880514075E-02    0.6530977762E+00    0.6011095523E-03
    0.1900000000E+07    0.8793817731E-05    0.6954598501E+00    0.2586348139E-02    0.6545369488E+00    0.6048346909E-03
    0.2100000000E+07    0.7233035341E-05    0.6954568153E+00    0.2346339033E-02    0.6557085233E+00    0.6082063692E-03
    0.2300000000E+07    0.6053889928E-05    0.6954540278E+00    0.2146821169E-02    0.6566807368E+00    0.6112873767E-03
    0.2500000000E+07    0.5141469685E-05    0.6954514496E+00    0.1978365416E-02    0.6575004499E+00    0.6141250172E-03
    0.2700000000E+07    0.4421050090E-05    0.6954490507E+00    0.1834256498E-02    0.6582009082E+00    0.6167558316E-03
    0.2900000000E+07    0.3842341648E-05    0.6954468074E+00    0.1709582757E-02    0.6588063516E+00    0.6192086452E-03
    0.3100000000E+07    0.3370495828E-05    0.6954447001E+00    0.1600669096E-02    0.6593348696E+00    0.6215066042E-03
    0.3300000000E+07    0.2980748233E-05    0.6954427130E+00    0.1504711110E-02    0.6598002354E+00    0.6236685814E-03
    0.3500000000E+07    0.2655110416E-05    0.6954408327E+00    0.1419531815E-02    0.6602131206E+00    0.6257101712E-03
    0.3700000000E+07    0.2380261672E-05    0.6954390480E+00    0.1343415584E-02    0.6605819215E+00    0.6276444100E-03
    0.3900000000E+07    0.2146168027E-05    0.6954373496E+00    0.1274992159E-02    0.6609133347E+00    0.6294823086E-03
    0.4100000000E+07    0.1945155328E-05    0.6954357291E+00    0.1213153962E-02    0.6612127663E+00    0.6312332532E-03
    0.4300000000E+07    0.1771273485E-05    0.6954341796E+00    0.1156996069E-02    0.6614846286E+00    0.6329053111E-03
    0.4500000000E+07    0.1619851886E-05    0.6954326950E+00    0.1105771916E-02    0.6617325583E+00    0.6345054673E-03
    0.4700000000E+07    0.1487182995E-05    0.6954312699E+00    0.1058860135E-02    0.6619595794E+00    0.6360398113E-03
    0.4900000000E+07    0.1370293590E-05    0.6954298996E+00    0.1015739380E-02    0.6621682277E+00    0.6375136839E-03
    0.1000000000E+07    0.3033921423E-04    0.6954784086E+00    0.4770779388E-02    0.6437530064E+00    0.5836509942E-03
    0.3000000000E+07    0.3594798866E-05    0.6954457378E+00    0.1653348285E-02    0.6590792808E+00    0.6203757150E-03
    0.5000000000E+07    0.1316995616E-05    0.6954292337E+00    0.9954602160E-03    0.6622663445E+00    0.6382294373E-03
    0.7000000000E+07    0.6815499270E-06    0.6954179919E+00    0.7108052629E-03    0.6636433166E+00    0.6502689106E-03
    0.9000000000E+07    0.4184196310E-06    0.6954094152E+00    0.5521899276E-03    0.6644107516E+00    0.6594091133E-03
    0.1100000000E+08    0.2846078419E-06    0.6954024595E+00    0.4511610505E-03    0.6648998733E+00    0.6667995050E-03
    0.1300000000E+08    0.2073217081E-06    0.6953965974E+00    0.3812143651E-03    0.6652387694E+00    0.6730149304E-03
    0.1500000000E+08    0.1586266945E-06    0.6953915246E+00    0.3299380370E-03    0.6654874000E+00    0.6783851585E-03
    0.1700000000E+08    0.1259396140E-06    0.6953870490E+00    0.2907482048E-03    0.6656775707E+00    0.6831173149E-03
    0.1900000000E+08    0.1029134231E-06    0.6953830417E+00    0.2598288780E-03    0.6658277193E+00    0.6873501914E-03
    0.2100000000E+08    0.8606436709E-07    0.6953794115E+00    0.2348163053E-03    0.6659492698E+00    0.6911814275E-03
    0.2300000000E+08    0.7335049750E-07    0.6953760920E+00    0.2141684379E-03    0.6660496777E+00    0.6946823715E-03
    0.2500000000E+08    0.6351033043E-07    0.6953730327E+00    0.1968365801E-03    0.6661340148E+00    0.6979067751E-03
    0.2700000000E+08    0.5573021190E-07    0.6953701947E+00    0.1820827926E-03    0.6662058514E+00    0.7008961602E-03
