  Pressure (Pa) 22mC5-500 (mol/kg) 24mC5-500 (mol/kg) 2mC6-500 (mol/kg) 3mC6-500 (mol/kg) C7-500 (mol/kg)
    0.1000000000E+01    0.2496672399E-05    0.6964738286E-01    0.2603005139E-04    0.2256158376E-05    0.4216067110E-02
    0.3000000000E+01    0.5988371026E-05    0.1740644324E+00    0.6035515630E-04    0.5819610848E-05    0.4299312603E-02
    0.5000000000E+01    0.8288855681E-05    0.2486101297E+00    0.8151025438E-04    0.9110108399E-05    0.4357689794E-02
    0.7000000000E+01    0.9888901800E-05    0.3044999816E+00    0.9540215437E-04    0.1226897803E-04    0.4401634817E-02
    0.9000000000E+01    0.1104879971E-04    0.3479591617E+00    0.1050284374E-03    0.1534415701E-04    0.4436022118E-02
    0.1100000000E+02    0.1191847098E-04    0.3827202713E+00    0.1120409946E-03    0.1835970029E-04    0.4463710691E-02
    0.1300000000E+02    0.1258956574E-04    0.4111573893E+00    0.1174035824E-03    0.2132995266E-04    0.4486510585E-02
    0.1500000000E+02    0.1312077010E-04    0.4348526042E+00    0.1217034514E-03    0.2426437993E-04    0.4505628037E-02
    0.1700000000E+02    0.1355109046E-04    0.4549008610E+00    0.1253108602E-03    0.2716966378E-04    0.4521899332E-02
    0.1900000000E+02    0.1390726052E-04    0.4720840629E+00    0.1284656888E-03    0.3005075395E-04    0.4535923188E-02
    0.2100000000E+02    0.1420807891E-04    0.4869754862E+00    0.1313267594E-03    0.3291145328E-04    0.4548139868E-02
    0.2300000000E+02    0.1446705511E-04    0.5000050139E+00    0.1340010478E-03    0.3575476789E-04    0.4558880570E-02
    0.2500000000E+02    0.1469408015E-04    0.5115013327E+00    0.1365615658E-03    0.3858312927E-04    0.4568399364E-02
    0.2700000000E+02    0.1489651326E-04    0.5217200576E+00    0.1390586235E-03    0.4139854155E-04    0.4576894512E-02
    0.2900000000E+02    0.1507990711E-04    0.5308629693E+00    0.1415270946E-03    0.4420268305E-04    0.4584523062E-02
    0.3100000000E+02    0.1524850287E-04    0.5390914784E+00    0.1439912050E-03    0.4699697821E-04    0.4591411080E-02
    0.3300000000E+02    0.1540557491E-04    0.5465362414E+00    0.1464677466E-03    0.4978265015E-04    0.4597660971E-02
    0.3500000000E+02    0.1555367523E-04    0.5533041524E+00    0.1489682696E-03    0.5256075979E-04    0.4603356811E-02
    0.3700000000E+02    0.1569480934E-04    0.5594835104E+00    0.1515005988E-03    0.5533223559E-04    0.4608568293E-02
    0.3900000000E+02    0.1583056491E-04    0.5651478948E+00    0.1540698963E-03    0.5809789649E-04    0.4613353699E-02
    0.4100000000E+02    0.1596220687E-04    0.5703591096E+00    0.1566794134E-03    0.6085846999E-04    0.4617762157E-02
    0.4300000000E+02    0.1609074863E-04    0.5751694491E+00    0.1593310279E-03    0.6361460645E-04    0.4621835378E-02
    0.4500000000E+02    0.1621700607E-04    0.5796234586E+00    0.1620256318E-03    0.6636689060E-04    0.4625609021E-02
    0.4700000000E+02    0.1634163866E-04    0.5837593192E+00    0.1647634117E-03    0.6911585095E-04    0.4629113754E-02
    0.4900000000E+02    0.1646518133E-04    0.5876099447E+00    0.1675440543E-03    0.7186196747E-04    0.4632376110E-02
    0.1000000000E+02    0.1151319740E-04    0.3662551431E+00    0.1087897530E-03    0.1685833596E-04    0.4450572690E-02
    0.3000000000E+02    0.1516583070E-04    0.5350827298E+00    0.1427585008E-03    0.4560098077E-04    0.4588052753E-02
    0.5000000000E+02    0.1652668325E-04    0.5894373595E+00    0.1689502521E-03    0.7323409760E-04    0.4633923725E-02
    0.7000000000E+02    0.1777016795E-04    0.6162702863E+00    0.1990789915E-03    0.1006164253E-03    0.4656433484E-02
    0.9000000000E+02    0.1910744782E-04    0.6322616042E+00    0.2322555027E-03    0.1280494638E-03    0.4669210647E-02
    0.1100000000E+03    0.2055774967E-04    0.6428775559E+00    0.2676317014E-03    0.1556921151E-03    0.4676885009E-02
    0.1300000000E+03    0.2211232039E-04    0.6504383660E+00    0.3047099993E-03    0.1836459328E-03    0.4681487982E-02
    0.1500000000E+03    0.2376002741E-04    0.6560968799E+00    0.3432076265E-03    0.2119842200E-03    0.4684060397E-02
    0.1700000000E+03    0.2549176175E-04    0.6604907219E+00    0.3829635989E-03    0.2407646424E-03    0.4685194452E-02
    0.1900000000E+03    0.2730079063E-04    0.6640011944E+00    0.4238877004E-03    0.2700355653E-03    0.4685253507E-02
    0.2100000000E+03    0.2918235573E-04    0.6668703158E+00    0.4659326047E-03    0.2998395833E-03    0.4684473512E-02
    0.2300000000E+03    0.3113322130E-04    0.6692590968E+00    0.5090781623E-03    0.3302156448E-03    0.4683014521E-02
    0.2500000000E+03    0.3315130922E-04    0.6712788163E+00    0.5533222208E-03    0.3612004142E-03    0.4680988879E-02
    0.2700000000E+03    0.3523542737E-04    0.6730088461E+00    0.5986750838E-03    0.3928291907E-03    0.4678477586E-02
    0.2900000000E+03    0.3738507276E-04    0.6745073214E+00    0.6451560679E-03    0.4251365592E-03    0.4675540273E-02
    0.3100000000E+03    0.3960028936E-04    0.6758177983E+00    0.6927913173E-03    0.4581568709E-03    0.4672221533E-02
    0.3300000000E+03    0.4188156551E-04    0.6769735540E+00    0.7416123929E-03    0.4919246128E-03    0.4668555080E-02
    0.3500000000E+03    0.4422975950E-04    0.6780004503E+00    0.7916553550E-03    0.5264747030E-03    0.4664566560E-02
    0.3700000000E+03    0.4664604553E-04    0.6789188898E+00    0.8429601687E-03    0.5618427361E-03    0.4660275504E-02
    0.3900000000E+03    0.4913187452E-04    0.6797451842E+00    0.8955703266E-03    0.5980651940E-03    0.4655696712E-02
    0.4100000000E+03    0.5168894589E-04    0.6804925307E+00    0.9495326201E-03    0.6351796342E-03    0.4650841245E-02
    0.4300000000E+03    0.5431918755E-04    0.6811717216E+00    0.1004897018E-02    0.6732248614E-03    0.4645717165E-02
    0.4500000000E+03    0.5702474218E-04    0.6817916679E+00    0.1061716621E-02    0.7122410903E-03    0.4640330075E-02
    0.4700000000E+03    0.5980795834E-04    0.6823597923E+00    0.1120047676E-02    0.7522701029E-03    0.4634683532E-02
    0.4900000000E+03    0.6267138544E-04    0.6828823274E+00    0.1179949635E-02    0.7933554022E-03    0.4628779358E-02
    0.1000000000E+03    0.1981884891E-04    0.6380565758E+00    0.2497062535E-03    0.1418373603E-03    0.4673525160E-02
    0.3000000000E+03    0.3848446356E-04    0.6751837779E+00    0.6688275512E-03    0.4415554486E-03    0.4673926258E-02
    0.5000000000E+03    0.6413402920E-04    0.6831281788E+00    0.1210509181E-02    0.8143082631E-03    0.4625730814E-02
    0.7000000000E+03    0.9839597715E-04    0.6865872581E+00    0.1921784329E-02    0.1301329217E-02    0.4550635386E-02
    0.9000000000E+03    0.1454299090E-03    0.6885222214E+00    0.2892129822E-02    0.1965415927E-02    0.4443177610E-02
    0.1100000000E+04    0.2127825415E-03    0.6897579646E+00    0.4278639272E-02    0.2915076638E-02    0.4288078304E-02
    0.1300000000E+04    0.3144501756E-03    0.6906151620E+00    0.6371163205E-02    0.4350344419E-02    0.4056029178E-02
    0.1500000000E+04    0.4770711068E-03    0.6912444390E+00    0.9721987790E-02    0.6653232511E-02    0.3692795389E-02
    0.1700000000E+04    0.7476172090E-03    0.6917258879E+00    0.1531006138E-01    0.1050452023E-01    0.3110124361E-02
    0.1900000000E+04    0.1170627716E-02    0.6921060227E+00    0.2408578865E-01    0.1658003135E-01    0.2253572167E-02
    0.2100000000E+04    0.1656813622E-02    0.6924137042E+00    0.3426001598E-01    0.2368353376E-01    0.1378740640E-02
    0.2300000000E+04    0.2004489640E-02    0.6926677876E+00    0.4167197119E-01    0.2895012350E-01    0.8990626790E-03
    0.2500000000E+04    0.2209287035E-02    0.6928811120E+00    0.4618288901E-01    0.3225186281E-01    0.7437190492E-03
    0.2700000000E+04    0.2353531568E-02    0.6930627219E+00    0.4946965195E-01    0.3472932143E-01    0.7052065591E-03
    0.2900000000E+04    0.2476175504E-02    0.6932191722E+00    0.5233252190E-01    0.3693155970E-01    0.6977816816E-03
    0.3100000000E+04    0.2589014585E-02    0.6933553296E+00    0.5501402829E-01    0.3902520886E-01    0.6979194102E-03
    0.3300000000E+04    0.2695393243E-02    0.6934748827E+00    0.5758202041E-01    0.4105635967E-01    0.6997941818E-03
    0.3500000000E+04    0.2796386167E-02    0.6935806784E+00    0.6005726168E-01    0.4303848189E-01    0.7019948907E-03
    0.3700000000E+04    0.2892467730E-02    0.6936749486E+00    0.6244808578E-01    0.4497643903E-01    0.7041854459E-03
    0.3900000000E+04    0.2983944836E-02    0.6937594678E+00    0.6475942448E-01    0.4687277374E-01    0.7062915652E-03
    0.4100000000E+04    0.3071069341E-02    0.6938356647E+00    0.6699515796E-01    0.4872934895E-01    0.7083025085E-03
    0.4300000000E+04    0.3154068024E-02    0.6939047020E+00    0.6915873864E-01    0.5054778230E-01    0.7102223824E-03
    0.4500000000E+04    0.3233151204E-02    0.6939675361E+00    0.7125336580E-01    0.5232956538E-01    0.7120581561E-03
    0.4700000000E+04    0.3308515731E-02    0.6940249605E+00    0.7328204179E-01    0.5407609956E-01    0.7138167790E-03
    0.4900000000E+04    0.3380346432E-02    0.6940776390E+00    0.7524759601E-01    0.5578870950E-01    0.7155045638E-03
    0.1000000000E+04    0.1758963886E-03    0.6892014924E+00    0.3519481850E-02    0.2394973616E-02    0.4372989470E-02
    0.3000000000E+04    0.2533521819E-02    0.6932895340E+00    0.5368984282E-01    0.3798778800E-01    0.6974476773E-03
    0.5000000000E+04    0.3414991314E-02    0.6941023771E+00    0.7620754308E-01    0.5663268763E-01    0.7163236725E-03
    0.7000000000E+04    0.3959482507E-02    0.6944468133E+00    0.9266845734E-01    0.7200399224E-01    0.7300568557E-03
    0.9000000000E+04    0.4296132343E-02    0.6946357767E+00    0.1051033745E+00    0.8507732647E-01    0.7404379584E-03
    0.1100000000E+05    0.4498948512E-02    0.6947544436E+00    0.1147275320E+00    0.9645568290E-01    0.7488108431E-03
    0.1300000000E+05    0.4612960322E-02    0.6948354759E+00    0.1223173973E+00    0.1065386150E+00    0.7558412275E-03
    0.1500000000E+05    0.4666719402E-02    0.6948940633E+00    0.1283914446E+00    0.1156026264E+00    0.7619087661E-03
    0.1700000000E+05    0.4678940827E-02    0.6949382178E+00    0.1333085728E+00    0.1238459844E+00    0.7672509578E-03
    0.1900000000E+05    0.4662228922E-02    0.6949725601E+00    0.1373247810E+00    0.1314151247E+00    0.7720264809E-03
    0.2100000000E+05    0.4625263870E-02    0.6949999394E+00    0.1406273572E+00    0.1384209417E+00    0.7763467161E-03
    0.2300000000E+05    0.4574134448E-02    0.6950222062E+00    0.1433563267E+00    0.1449492343E+00    0.7802929110E-03
    0.2500000000E+05    0.4513176910E-02    0.6950406137E+00    0.1456183638E+00    0.1510676286E+00    0.7839261882E-03
    0.2700000000E+05    0.4445517825E-02    0.6950560400E+00    0.1474960800E+00    0.1568302991E+00    0.7872937095E-03
    0.2900000000E+05    0.4373433906E-02    0.6950691183E+00    0.1490543836E+00    0.1622812694E+00    0.7904326416E-03
    0.3100000000E+05    0.4298595589E-02    0.6950803164E+00    0.1503449321E+00    0.1674567715E+00    0.7933728047E-03
    0.3300000000E+05    0.4222235003E-02    0.6950899870E+00    0.1514093109E+00    0.1723869645E+00    0.7961384961E-03
    0.3500000000E+05    0.4145263732E-02    0.6950984012E+00    0.1522813433E+00    0.1770972100E+00    0.7987497800E-03
    0.3700000000E+05    0.4068356565E-02    0.6951057703E+00    0.1529887959E+00    0.1816090321E+00    0.8012234206E-03
    0.3900000000E+05    0.3992011868E-02    0.6951122616E+00    0.1535546559E+00    0.1859408511E+00    0.8035735705E-03
    0.4100000000E+05    0.3916595587E-02    0.6951180092E+00    0.1539981003E+00    0.1901085516E+00    0.8058122891E-03
    0.4300000000E+05    0.3842373676E-02    0.6951231217E+00    0.1543352397E+00    0.1941259271E+00    0.8079499373E-03
    0.4500000000E+05    0.3769536207E-02    0.6951276880E+00    0.1545796959E+00    0.1980050318E+00    0.8099954832E-03
    0.4700000000E+05    0.3698215461E-02    0.6951317814E+00    0.1547430546E+00    0.2017564620E+00    0.8119567424E-03
    0.4900000000E+05    0.3628499581E-02    0.6951354631E+00    0.1548352234E+00    0.2053895832E+00    0.8138405679E-03
    0.1000000000E+05    0.4410961801E-02    0.6947012411E+00    0.1102106510E+00    0.9094981335E-01    0.7448244639E-03
    0.3000000000E+05    0.4336273345E-02    0.6950749281E+00    0.1497303226E+00    0.1649014435E+00    0.7919259384E-03
    0.5000000000E+05    0.3594261554E-02    0.6951371659E+00    0.1548573205E+00    0.2071644143E+00    0.8147553596E-03
    0.7000000000E+05    0.2996428531E-02    0.6951585862E+00    0.1531054253E+00    0.2380571221E+00    0.8301389031E-03
    0.9000000000E+05    0.2541268720E-02    0.6951675458E+00    0.1493139791E+00    0.2628188491E+00    0.8418140055E-03
    0.1100000000E+06    0.2189794974E-02    0.6951713578E+00    0.1448924755E+00    0.2836318309E+00    0.8512522330E-03
    0.1300000000E+06    0.1912338937E-02    0.6951726766E+00    0.1403530253E+00    0.3016375326E+00    0.8591889562E-03
    0.1500000000E+06    0.1688728434E-02    0.6951726675E+00    0.1359021126E+00    0.3175193500E+00    0.8660458361E-03
    0.1700000000E+06    0.1505246072E-02    0.6951719085E+00    0.1316247650E+00    0.3317246519E+00    0.8720876328E-03
    0.1900000000E+06    0.1352363075E-02    0.6951707116E+00    0.1275529124E+00    0.3445654041E+00    0.8774917173E-03
    0.2100000000E+06    0.1223294543E-02    0.6951692560E+00    0.1236939494E+00    0.3562695947E+00    0.8823828486E-03
    0.2300000000E+06    0.1113093702E-02    0.6951676492E+00    0.1200437007E+00    0.3670099542E+00    0.8868521799E-03
    0.2500000000E+06    0.1018075784E-02    0.6951659583E+00    0.1165926571E+00    0.3769211266E+00    0.8909683758E-03
    0.2700000000E+06    0.9354431410E-03    0.6951642258E+00    0.1133290903E+00    0.3861105100E+00    0.8947844739E-03
    0.2900000000E+06    0.8630353805E-03    0.6951624794E+00    0.1102406404E+00    0.3946654059E+00    0.8983423091E-03
    0.3100000000E+06    0.7991589190E-03    0.6951607373E+00    0.1073151222E+00    0.4026579119E+00    0.9016754727E-03
    0.3300000000E+06    0.7424682016E-03    0.6951590113E+00    0.1045409222E+00    0.4101483733E+00    0.9048113526E-03
    0.3500000000E+06    0.6918812841E-03    0.6951573092E+00    0.1019071762E+00    0.4171878823E+00    0.9077725779E-03
    0.3700000000E+06    0.6465187593E-03    0.6951556360E+00    0.9940382849E-01    0.4238201304E+00    0.9105780649E-03
    0.3900000000E+06    0.6056588510E-03    0.6951539948E+00    0.9702162875E-01    0.4300828071E+00    0.9132437907E-03
    0.4100000000E+06    0.5687039059E-03    0.6951523874E+00    0.9475209581E-01    0.4360086750E+00    0.9157833742E-03
    0.4300000000E+06    0.5351550531E-03    0.6951508145E+00    0.9258746669E-01    0.4416264091E+00    0.9182085201E-03
    0.4500000000E+06    0.5045928039E-03    0.6951492764E+00    0.9052063954E-01    0.4469612601E+00    0.9205293633E-03
    0.4700000000E+06    0.4766620313E-03    0.6951477729E+00    0.8854511618E-01    0.4520355861E+00    0.9227547384E-03
    0.4900000000E+06    0.4510602209E-03    0.6951463035E+00    0.8665494684E-01    0.4568692822E+00    0.9248923940E-03
    0.1000000000E+06    0.2354684577E-02    0.6951698763E+00    0.1471391824E+00    0.2736328174E+00    0.8467565360E-03
    0.3000000000E+06    0.8301218664E-03    0.6951616070E+00    0.1087582570E+00    0.3987279437E+00    0.9000351370E-03
    0.5000000000E+06    0.4390502026E-03    0.6951455813E+00    0.8574014781E-01    0.4592015256E+00    0.9259304944E-03
    0.7000000000E+06    0.2742862384E-03    0.6951327067E+00    0.7081938876E-01    0.4966832535E+00    0.9433916759E-03
    0.9000000000E+06    0.1883007176E-03    0.6951221968E+00    0.6034391873E-01    0.5225008723E+00    0.9566475490E-03
    0.1100000000E+07    0.1374936100E-03    0.6951133525E+00    0.5257400760E-01    0.5414516852E+00    0.9673654898E-03
    0.1300000000E+07    0.1048908370E-03    0.6951057236E+00    0.4657684944E-01    0.5559837006E+00    0.9763793046E-03
    0.1500000000E+07    0.8269173733E-04    0.6950990160E+00    0.4180595901E-01    0.5674931831E+00    0.9841673022E-03
    0.1700000000E+07    0.6688257251E-04    0.6950930292E+00    0.3791928531E-01    0.5768396960E+00    0.9910298978E-03
    0.1900000000E+07    0.5521996499E-04    0.6950876214E+00    0.3469150744E-01    0.5845831666E+00    0.9971683910E-03
    0.2100000000E+07    0.4636772616E-04    0.6950826890E+00    0.3196802757E-01    0.5911047118E+00    0.1002724393E-02
    0.2300000000E+07    0.3948872432E-04    0.6950781536E+00    0.2963918280E-01    0.5966730620E+00    0.1007801384E-02
    0.2500000000E+07    0.3403638853E-04    0.6950739550E+00    0.2762499647E-01    0.6014832968E+00    0.1012477319E-02
    0.2700000000E+07    0.2964137136E-04    0.6950700455E+00    0.2586575498E-01    0.6056805364E+00    0.1016812419E-02
    0.2900000000E+07    0.2604670745E-04    0.6950663871E+00    0.2431596505E-01    0.6093750131E+00    0.1020854187E-02
    0.3100000000E+07    0.2306909073E-04    0.6950629489E+00    0.2294035434E-01    0.6126519835E+00    0.1024640768E-02
    0.3300000000E+07    0.2057488817E-04    0.6950597052E+00    0.2171115146E-01    0.6155784356E+00    0.1028203263E-02
    0.3500000000E+07    0.1846480502E-04    0.6950566346E+00    0.2060619148E-01    0.6182077404E+00    0.1031567372E-02
    0.3700000000E+07    0.1666380715E-04    0.6950537193E+00    0.1960756840E-01    0.6205829493E+00    0.1034754578E-02
    0.3900000000E+07    0.1511433542E-04    0.6950509439E+00    0.1870065876E-01    0.6227391757E+00    0.1037783026E-02
    0.4100000000E+07    0.1377163688E-04    0.6950482953E+00    0.1787340220E-01    0.6247053458E+00    0.1040668184E-02
    0.4300000000E+07    0.1260049006E-04    0.6950457621E+00    0.1711576339E-01    0.6265055046E+00    0.1043423346E-02
    0.4500000000E+07    0.1157286763E-04    0.6950433344E+00    0.1641932409E-01    0.6281598048E+00    0.1046060024E-02
    0.4700000000E+07    0.1066624186E-04    0.6950410036E+00    0.1577697005E-01    0.6296852640E+00    0.1048588251E-02
    0.4900000000E+07    0.9862338187E-05    0.6950387620E+00    0.1518264793E-01    0.6310963518E+00    0.1051016831E-02
    0.1000000000E+07    0.1598819293E-03    0.6951175992E+00    0.5619130932E-01    0.5326477187E+00    0.9622600557E-03
    0.3000000000E+07    0.2449007280E-04    0.6950646422E+00    0.2360827339E-01    0.6110611342E+00    0.1022777289E-02
    0.5000000000E+07    0.9494125805E-05    0.6950376725E+00    0.1490184948E-01    0.6317629467E+00    0.1052196214E-02
    0.7000000000E+07    0.5012773399E-05    0.6950192705E+00    0.1087023829E-01    0.6413273025E+00    0.1072034047E-02
    0.9000000000E+07    0.3097299816E-05    0.6950052217E+00    0.8547830795E-02    0.6468323031E+00    0.1087094386E-02
    0.1100000000E+08    0.2105920422E-05    0.6949938248E+00    0.7038909635E-02    0.6504077802E+00    0.1099271389E-02
    0.1300000000E+08    0.1527252408E-05    0.6949842186E+00    0.5980288072E-02    0.6529158852E+00    0.1109512306E-02
    0.1500000000E+08    0.1160290046E-05    0.6949759055E+00    0.5196851330E-02    0.6547719399E+00    0.1118360540E-02
    0.1700000000E+08    0.9130114770E-06    0.6949685711E+00    0.4593806945E-02    0.6562006433E+00    0.1126157392E-02
    0.1900000000E+08    0.7384595635E-06    0.6949620043E+00    0.4115385011E-02    0.6573341489E+00    0.1133131564E-02
    0.2100000000E+08    0.6106381934E-06    0.6949560560E+00    0.3726639448E-02    0.6582552473E+00    0.1139443942E-02
    0.2300000000E+08    0.5142103952E-06    0.6949506168E+00    0.3404562661E-02    0.6590184377E+00    0.1145212094E-02
    0.2500000000E+08    0.4396534294E-06    0.6949456046E+00    0.3133390862E-02    0.6596610569E+00    0.1150524589E-02
    0.2700000000E+08    0.3808010817E-06    0.6949409554E+00    0.2901962602E-02    0.6602095396E+00    0.1155449845E-02
