  Pressure (Pa) 22mC5-500 (mol/kg) 24mC5-500 (mol/kg) 2mC6-500 (mol/kg) 3mC6-500 (mol/kg) C7-500 (mol/kg)
    0.1000000000E+01    0.2116098367E-05    0.1513948565E+00    0.1080663942E-04    0.1441446649E-05    0.4226464691E-02
    0.3000000000E+01    0.4117176029E-05    0.3164528332E+00    0.1993014737E-04    0.3735717860E-05    0.4297849379E-02
    0.5000000000E+01    0.5020336881E-05    0.4046981832E+00    0.2366887771E-04    0.5856209385E-05    0.4336191659E-02
    0.7000000000E+01    0.5515189590E-05    0.4596294077E+00    0.2576385284E-04    0.7891499169E-05    0.4360540183E-02
    0.9000000000E+01    0.5828084887E-05    0.4971162013E+00    0.2729182418E-04    0.9871780356E-05    0.4377504961E-02
    0.1100000000E+02    0.6050923965E-05    0.5243296987E+00    0.2862833002E-04    0.1181225032E-04    0.4390070780E-02
    0.1300000000E+02    0.6226307833E-05    0.5449841029E+00    0.2991831590E-04    0.1372199315E-04    0.4399792310E-02
    0.1500000000E+02    0.6375845395E-05    0.5611957245E+00    0.3121990747E-04    0.1560701491E-04    0.4407562058E-02
    0.1700000000E+02    0.6511220761E-05    0.5742588322E+00    0.3255562307E-04    0.1747156204E-04    0.4413930373E-02
    0.1900000000E+02    0.6639048795E-05    0.5850094606E+00    0.3393263932E-04    0.1931878465E-04    0.4419255818E-02
    0.2100000000E+02    0.6763197881E-05    0.5940117175E+00    0.3535142344E-04    0.2115110578E-04    0.4423782455E-02
    0.2300000000E+02    0.6885978443E-05    0.6016600286E+00    0.3680959831E-04    0.2297044267E-04    0.4427682441E-02
    0.2500000000E+02    0.7008784653E-05    0.6082384758E+00    0.3830372400E-04    0.2477834731E-04    0.4431080872E-02
    0.2700000000E+02    0.7132456357E-05    0.6139568618E+00    0.3983012419E-04    0.2657609969E-04    0.4434070952E-02
    0.2900000000E+02    0.7257490660E-05    0.6189734978E+00    0.4138525991E-04    0.2836477216E-04    0.4436723632E-02
    0.3100000000E+02    0.7384169362E-05    0.6234100877E+00    0.4296588462E-04    0.3014527514E-04    0.4439093935E-02
    0.3300000000E+02    0.7512637612E-05    0.6273617306E+00    0.4456909347E-04    0.3191839041E-04    0.4441225231E-02
    0.3500000000E+02    0.7642953462E-05    0.6309038141E+00    0.4619232216E-04    0.3368479609E-04    0.4443152200E-02
    0.3700000000E+02    0.7775119605E-05    0.6340968699E+00    0.4783332346E-04    0.3544508545E-04    0.4444902929E-02
    0.3900000000E+02    0.7909103965E-05    0.6369900612E+00    0.4949013513E-04    0.3719978161E-04    0.4446500423E-02
    0.4100000000E+02    0.8044853185E-05    0.6396237320E+00    0.5116104624E-04    0.3894934900E-04    0.4447963722E-02
    0.4300000000E+02    0.8182301523E-05    0.6420312997E+00    0.5284456506E-04    0.4069420253E-04    0.4449308731E-02
    0.4500000000E+02    0.8321376723E-05    0.6442406808E+00    0.5453938991E-04    0.4243471491E-04    0.4450548848E-02
    0.4700000000E+02    0.8462003887E-05    0.6462753775E+00    0.5624438341E-04    0.4417122265E-04    0.4451695444E-02
    0.4900000000E+02    0.8604108008E-05    0.6481553173E+00    0.5795855007E-04    0.4590403099E-04    0.4452758243E-02
    0.1000000000E+02    0.5947404797E-05    0.5117237503E+00    0.2797194252E-04    0.1084632904E-04    0.4384219375E-02
    0.3000000000E+02    0.7320612876E-05    0.6212578241E+00    0.4217257585E-04    0.2925599329E-04    0.4437941137E-02
    0.5000000000E+02    0.8675690873E-05    0.6490426675E+00    0.5881879621E-04    0.4676913574E-04    0.4453260878E-02
    0.7000000000E+02    0.1016874665E-04    0.6617251674E+00    0.7634265344E-04    0.6393334082E-04    0.4460442212E-02
    0.9000000000E+02    0.1174670742E-04    0.6689868184E+00    0.9423782230E-04    0.8093827793E-04    0.4464348652E-02
    0.1100000000E+03    0.1338065834E-04    0.6736909271E+00    0.1123463940E-03    0.9788075800E-04    0.4466542904E-02
    0.1300000000E+03    0.1505549284E-04    0.6769861817E+00    0.1306142656E-03    0.1148196826E-03    0.4467699658E-02
    0.1500000000E+03    0.1676290726E-04    0.6794229697E+00    0.1490241547E-03    0.1317949078E-03    0.4468164444E-02
    0.1700000000E+03    0.1849813281E-04    0.6812980312E+00    0.1675734224E-03    0.1488354531E-03    0.4468135262E-02
    0.1900000000E+03    0.2025835784E-04    0.6827854792E+00    0.1862656399E-03    0.1659636344E-03    0.4467734996E-02
    0.2100000000E+03    0.2204191615E-04    0.6839942114E+00    0.2051070623E-03    0.1831973633E-03    0.4467044584E-02
    0.2300000000E+03    0.2384784424E-04    0.6849958288E+00    0.2241050569E-03    0.2005515254E-03    0.4466119843E-02
    0.2500000000E+03    0.2567562696E-04    0.6858393434E+00    0.2432673792E-03    0.2180388533E-03    0.4465000698E-02
    0.2700000000E+03    0.2752504531E-04    0.6865594348E+00    0.2626018364E-03    0.2356705077E-03    0.4463716557E-02
    0.2900000000E+03    0.2939608183E-04    0.6871813322E+00    0.2821161380E-03    0.2534564764E-03    0.4462289614E-02
    0.3100000000E+03    0.3128886008E-04    0.6877238277E+00    0.3018178371E-03    0.2714058586E-03    0.4460736955E-02
    0.3300000000E+03    0.3320360493E-04    0.6882012066E+00    0.3217143175E-03    0.2895270726E-03    0.4459071959E-02
    0.3500000000E+03    0.3514061586E-04    0.6886245217E+00    0.3418128032E-03    0.3078280107E-03    0.4457305243E-02
    0.3700000000E+03    0.3710024879E-04    0.6890024586E+00    0.3621203773E-03    0.3263161578E-03    0.4455445337E-02
    0.3900000000E+03    0.3908290345E-04    0.6893419373E+00    0.3826440059E-03    0.3449986830E-03    0.4453499153E-02
    0.4100000000E+03    0.4108901453E-04    0.6896485391E+00    0.4033905621E-03    0.3638825130E-03    0.4451472342E-02
    0.4300000000E+03    0.4311904544E-04    0.6899268152E+00    0.4243668502E-03    0.3829743897E-03    0.4449369547E-02
    0.4500000000E+03    0.4517348388E-04    0.6901805141E+00    0.4455796281E-03    0.4022809186E-03    0.4447194605E-02
    0.4700000000E+03    0.4725283868E-04    0.6904127510E+00    0.4670356279E-03    0.4218086074E-03    0.4444950688E-02
    0.4900000000E+03    0.4935763758E-04    0.6906261359E+00    0.4887415754E-03    0.4415638996E-03    0.4442640429E-02
    0.1000000000E+03    0.1255784444E-04    0.6715659819E+00    0.1032701082E-03    0.8941305547E-04    0.4465606420E-02
    0.3000000000E+03    0.3033974119E-04    0.6874615241E+00    0.2919430974E-03    0.2624102007E-03    0.4461528089E-02
    0.5000000000E+03    0.5041974828E-04    0.6907264612E+00    0.4996903839E-03    0.4515288998E-03    0.4441461117E-02
    0.7000000000E+03    0.7314070450E-04    0.6921330872E+00    0.7334696875E-03    0.6643586460E-03    0.4414745658E-02
    0.9000000000E+03    0.9914131430E-04    0.6929158048E+00    0.1000527531E-02    0.9076675674E-03    0.4382292396E-02
    0.1100000000E+04    0.1292423430E-03    0.6934140297E+00    0.1309555057E-02    0.1189456868E-02    0.4343678211E-02
    0.1300000000E+04    0.1645127006E-03    0.6937588191E+00    0.1671682480E-02    0.1519954521E-02    0.4297849359E-02
    0.1500000000E+04    0.2063758520E-03    0.6940114703E+00    0.2101659747E-02    0.1912718030E-02    0.4243191198E-02
    0.1700000000E+04    0.2567674655E-03    0.6942044799E+00    0.2619518395E-02    0.2386172213E-02    0.4177412179E-02
    0.1900000000E+04    0.3183727299E-03    0.6943566779E+00    0.3253047283E-02    0.2965898865E-02    0.4097300019E-02
    0.2100000000E+04    0.3949881808E-03    0.6944797276E+00    0.4041561757E-02    0.3688126921E-02    0.3998328916E-02
    0.2300000000E+04    0.4920732292E-03    0.6945812381E+00    0.5041656531E-02    0.4605070539E-02    0.3874065800E-02
    0.2500000000E+04    0.6175686903E-03    0.6946663842E+00    0.6335770318E-02    0.5792902199E-02    0.3715325060E-02
    0.2700000000E+04    0.7830039548E-03    0.6947388078E+00    0.8043844634E-02    0.7362673288E-02    0.3509130161E-02
    0.2900000000E+04    0.1004574802E-02    0.6948011460E+00    0.1033490319E-01    0.9471364465E-02    0.3238028306E-02
    0.3100000000E+04    0.1302625955E-02    0.6948553551E+00    0.1342253445E-01    0.1231848070E-01    0.2881883700E-02
    0.3300000000E+04    0.1694810732E-02    0.6949029169E+00    0.1749541160E-01    0.1608323256E-01    0.2427820445E-02
    0.3500000000E+04    0.2175477335E-02    0.6949449742E+00    0.2250470834E-01    0.2072939009E-01    0.1895557020E-02
    0.3700000000E+04    0.2689126644E-02    0.6949824226E+00    0.2788620376E-01    0.2574641477E-01    0.1363792869E-02
    0.3900000000E+04    0.3146479001E-02    0.6950159736E+00    0.3271842579E-01    0.3028781894E-01    0.9390806372E-03
    0.4100000000E+04    0.3494685660E-02    0.6950462000E+00    0.3644659849E-01    0.3383561894E-01    0.6695171392E-03
    0.4300000000E+04    0.3744067666E-02    0.6950735675E+00    0.3916741658E-01    0.3646988133E-01    0.5260479580E-03
    0.4500000000E+04    0.3929676579E-02    0.6950984591E+00    0.4123756270E-01    0.3851378724E-01    0.4574842084E-03
    0.4700000000E+04    0.4079973704E-02    0.6951211925E+00    0.4294924221E-01    0.4023445930E-01    0.4266398653E-03
    0.4900000000E+04    0.4211415744E-02    0.6951420332E+00    0.4447210912E-01    0.4178763626E-01    0.4133418387E-03
    0.1000000000E+04    0.1136193326E-03    0.6931898379E+00    0.1149168782E-02    0.1043176583E-02    0.4363808558E-02
    0.3000000000E+04    0.1142715703E-02    0.6948291648E+00    0.1176515079E-01    0.1078946588E-01    0.3071772302E-02
    0.5000000000E+04    0.4272865181E-02    0.6951518153E+00    0.4519164999E-01    0.4252801096E-01    0.4100027531E-03
    0.7000000000E+04    0.5278879183E-02    0.6952876031E+00    0.5756490114E-01    0.5578583496E-01    0.4100545732E-03
    0.9000000000E+04    0.6031882962E-02    0.6953616169E+00    0.6772647067E-01    0.6747839144E-01    0.4158408324E-03
    0.1100000000E+05    0.6601877784E-02    0.6954077945E+00    0.7623078275E-01    0.7797454370E-01    0.4205175237E-03
    0.1300000000E+05    0.7033148306E-02    0.6954391169E+00    0.8342301986E-01    0.8749283060E-01    0.4244484539E-03
    0.1500000000E+05    0.7357782757E-02    0.6954616076E+00    0.8955983682E-01    0.9619918152E-01    0.4278435038E-03
    0.1700000000E+05    0.7599475153E-02    0.6954784366E+00    0.9483591164E-01    0.1042220912E+00    0.4308343053E-03
    0.1900000000E+05    0.7776009183E-02    0.6954914287E+00    0.9940149430E-01    0.1116627816E+00    0.4335089689E-03
    0.2100000000E+05    0.7900924453E-02    0.6955017066E+00    0.1033743309E+00    0.1186022016E+00    0.4359294301E-03
    0.2300000000E+05    0.7984659681E-02    0.6955099979E+00    0.1068479550E+00    0.1251059609E+00    0.4381409189E-03
    0.2500000000E+05    0.8035352818E-02    0.6955167944E+00    0.1098975723E+00    0.1312278769E+00    0.4401774927E-03
    0.2700000000E+05    0.8059411089E-02    0.6955224401E+00    0.1125843137E+00    0.1370125728E+00    0.4420654496E-03
    0.2900000000E+05    0.8061923640E-02    0.6955271825E+00    0.1149583607E+00    0.1424974103E+00    0.4438255271E-03
    0.3100000000E+05    0.8046964558E-02    0.6955312040E+00    0.1170612759E+00    0.1477139492E+00    0.4454743726E-03
    0.3300000000E+05    0.8017818328E-02    0.6955346419E+00    0.1189277643E+00    0.1526890646E+00    0.4470255567E-03
    0.3500000000E+05    0.7977149549E-02    0.6955376013E+00    0.1205870218E+00    0.1574458121E+00    0.4484902898E-03
    0.3700000000E+05    0.7927132102E-02    0.6955401644E+00    0.1220637779E+00    0.1620041051E+00    0.4498779419E-03
    0.3900000000E+05    0.7869548426E-02    0.6955423957E+00    0.1233791113E+00    0.1663812518E+00    0.4511964259E-03
    0.4100000000E+05    0.7805866515E-02    0.6955443470E+00    0.1245510937E+00    0.1705923826E+00    0.4524524859E-03
    0.4300000000E+05    0.7737300149E-02    0.6955460600E+00    0.1255953029E+00    0.1746507960E+00    0.4536519177E-03
    0.4500000000E+05    0.7664856374E-02    0.6955475690E+00    0.1265252339E+00    0.1785682388E+00    0.4547997393E-03
    0.4700000000E+05    0.7589373191E-02    0.6955489020E+00    0.1273526324E+00    0.1823551353E+00    0.4559003242E-03
    0.4900000000E+05    0.7511549689E-02    0.6955500825E+00    0.1280877659E+00    0.1860207767E+00    0.4569575085E-03
    0.1000000000E+05    0.6336646110E-02    0.6953871290E+00    0.7216174094E-01    0.7286090235E-01    0.4182901956E-03
    0.3000000000E+05    0.8056406484E-02    0.6955292739E+00    0.1160413975E+00    0.1451374387E+00    0.4446629431E-03
    0.5000000000E+05    0.7471946862E-02    0.6955506218E+00    0.1284235934E+00    0.1878107596E+00    0.4574708983E-03
    0.7000000000E+05    0.6656407362E-02    0.6955568076E+00    0.1319907707E+00    0.2188691583E+00    0.4661057878E-03
    0.9000000000E+05    0.5905527284E-02    0.6955585873E+00    0.1321250824E+00    0.2436175805E+00    0.4726606162E-03
    0.1100000000E+06    0.5260763442E-02    0.6955586558E+00    0.1307050046E+00    0.2643335424E+00    0.4779602928E-03
    0.1300000000E+06    0.4714708146E-02    0.6955579599E+00    0.1285328792E+00    0.2822121177E+00    0.4824172496E-03
    0.1500000000E+06    0.4251594567E-02    0.6955569002E+00    0.1259961871E+00    0.2979645080E+00    0.4862680493E-03
    0.1700000000E+06    0.3856394660E-02    0.6955556667E+00    0.1232975241E+00    0.3120520614E+00    0.4896612600E-03
    0.1900000000E+06    0.3516607399E-02    0.6955543566E+00    0.1205484026E+00    0.3247933558E+00    0.4926964280E-03
    0.2100000000E+06    0.3222231740E-02    0.6955530222E+00    0.1178120829E+00    0.3364190211E+00    0.4954435799E-03
    0.2300000000E+06    0.2965343519E-02    0.6955516925E+00    0.1151248454E+00    0.3471022784E+00    0.4979538845E-03
    0.2500000000E+06    0.2739655091E-02    0.6955503836E+00    0.1125072638E+00    0.3569771121E+00    0.5002658894E-03
    0.2700000000E+06    0.2540147407E-02    0.6955491044E+00    0.1099704923E+00    0.3661496695E+00    0.5024093711E-03
    0.2900000000E+06    0.2362782712E-02    0.6955478594E+00    0.1075199179E+00    0.3747057294E+00    0.5044078181E-03
    0.3100000000E+06    0.2204285388E-02    0.6955466507E+00    0.1051573540E+00    0.3827157763E+00    0.5062800911E-03
    0.3300000000E+06    0.2061975791E-02    0.6955454789E+00    0.1028823924E+00    0.3902385540E+00    0.5080415683E-03
    0.3500000000E+06    0.1933644046E-02    0.6955443436E+00    0.1006932546E+00    0.3973236222E+00    0.5097049565E-03
    0.3700000000E+06    0.1817453660E-02    0.6955432437E+00    0.9858733654E-01    0.4040132367E+00    0.5112808777E-03
    0.3900000000E+06    0.1711867390E-02    0.6955421782E+00    0.9656156142E-01    0.4103437613E+00    0.5127783039E-03
    0.4100000000E+06    0.1615589758E-02    0.6955411455E+00    0.9461260920E-01    0.4163467458E+00    0.5142048829E-03
    0.4300000000E+06    0.1527522111E-02    0.6955401443E+00    0.9273706676E-01    0.4220497627E+00    0.5155671878E-03
    0.4500000000E+06    0.1446727211E-02    0.6955391731E+00    0.9093152533E-01    0.4274770650E+00    0.5168709100E-03
    0.4700000000E+06    0.1372401106E-02    0.6955382304E+00    0.8919264305E-01    0.4326501108E+00    0.5181210112E-03
    0.4900000000E+06    0.1303850616E-02    0.6955373147E+00    0.8751718399E-01    0.4375879852E+00    0.5193218429E-03
    0.1000000000E+06    0.5569938267E-02    0.6955587566E+00    0.1315451130E+00    0.2543893580E+00    0.4754358362E-03
    0.3000000000E+06    0.2281355428E-02    0.6955472505E+00    0.1063276199E+00    0.3787750917E+00    0.5053586944E-03
    0.5000000000E+06    0.1271550359E-02    0.6955368667E+00    0.8670226189E-01    0.4399741342E+00    0.5199049999E-03
    0.7000000000E+06    0.8182962592E-03    0.6955290400E+00    0.7305832898E-01    0.4786802277E+00    0.5297140985E-03
    0.9000000000E+06    0.5729387195E-03    0.6955228048E+00    0.6310547674E-01    0.5057868149E+00    0.5371610323E-03
    0.1100000000E+07    0.4243196943E-03    0.6955176253E+00    0.5553306221E-01    0.5259505121E+00    0.5431823257E-03
    0.1300000000E+07    0.3271969094E-03    0.6955131933E+00    0.4957911629E-01    0.5415806812E+00    0.5482463297E-03
    0.1500000000E+07    0.2601293958E-03    0.6955093178E+00    0.4477472097E-01    0.5540707263E+00    0.5526217198E-03
    0.1700000000E+07    0.2118274503E-03    0.6955058723E+00    0.4081611275E-01    0.5642894309E+00    0.5564772491E-03
    0.1900000000E+07    0.1758652809E-03    0.6955027695E+00    0.3749794505E-01    0.5728091947E+00    0.5599259961E-03
    0.2100000000E+07    0.1483586097E-03    0.6954999461E+00    0.3467641635E-01    0.5800235649E+00    0.5630475112E-03
    0.2300000000E+07    0.1268437782E-03    0.6954973548E+00    0.3224780871E-01    0.5862125207E+00    0.5658999244E-03
    0.2500000000E+07    0.1096953735E-03    0.6954949596E+00    0.3013542221E-01    0.5915809221E+00    0.5685270291E-03
    0.2700000000E+07    0.9580511936E-04    0.6954927324E+00    0.2828130931E-01    0.5962822437E+00    0.5709626547E-03
    0.2900000000E+07    0.8439591538E-04    0.6954906504E+00    0.2664087042E-01    0.6004338020E+00    0.5732334873E-03
    0.3100000000E+07    0.7490960320E-04    0.6954886957E+00    0.2517921766E-01    0.6041268495E+00    0.5753609557E-03
    0.3300000000E+07    0.6693679658E-04    0.6954868530E+00    0.2386866671E-01    0.6074334541E+00    0.5773625322E-03
    0.3500000000E+07    0.6017165103E-04    0.6954851100E+00    0.2268696809E-01    0.6104113022E+00    0.5792526540E-03
    0.3700000000E+07    0.5438192050E-04    0.6954834561E+00    0.2161603551E-01    0.6131071239E+00    0.5810433901E-03
    0.3900000000E+07    0.4938866202E-04    0.6954818825E+00    0.2064101541E-01    0.6155591810E+00    0.5827449344E-03
    0.4100000000E+07    0.4505218857E-04    0.6954803816E+00    0.1974959550E-01    0.6177991058E+00    0.5843659765E-03
    0.4300000000E+07    0.4126216250E-04    0.6954789467E+00    0.1893148350E-01    0.6198532792E+00    0.5859139851E-03
    0.4500000000E+07    0.3793048992E-04    0.6954775722E+00    0.1817800921E-01    0.6217438785E+00    0.5873954270E-03
    0.4700000000E+07    0.3498614556E-04    0.6954762530E+00    0.1748181709E-01    0.6234896837E+00    0.5888159398E-03
    0.4900000000E+07    0.3237135057E-04    0.6954749848E+00    0.1683662618E-01    0.6251067044E+00    0.5901804679E-03
    0.1000000000E+07    0.4901873437E-03    0.6955201060E+00    0.5907834755E-01    0.5165533245E+00    0.5403141011E-03
    0.3000000000E+07    0.7944084864E-04    0.6954896582E+00    0.2588957125E-01    0.6023327501E+00    0.5743139696E-03
    0.5000000000E+07    0.3117238153E-04    0.6954743686E+00    0.1653143979E-01    0.6258712897E+00    0.5908431208E-03
    0.7000000000E+07    0.1650694382E-04    0.6954639726E+00    0.1212442403E-01    0.6368925345E+00    0.6019894228E-03
    0.9000000000E+07    0.1019091728E-04    0.6954560490E+00    0.9564088461E-02    0.6432803248E+00    0.6104515634E-03
    0.1100000000E+08    0.6909012525E-05    0.6954496273E+00    0.7891966128E-02    0.6474470325E+00    0.6172937155E-03
    0.1300000000E+08    0.4989343344E-05    0.6954442181E+00    0.6714758117E-02    0.6503784488E+00    0.6230480729E-03
    0.1500000000E+08    0.3770787961E-05    0.6954395392E+00    0.5841375235E-02    0.6525523944E+00    0.6280199377E-03
    0.1700000000E+08    0.2949460370E-05    0.6954354127E+00    0.5167822421E-02    0.6542285153E+00    0.6324010685E-03
    0.1900000000E+08    0.2369855219E-05    0.6954317191E+00    0.4632671903E-02    0.6555600204E+00    0.6363199597E-03
    0.2100000000E+08    0.1945707987E-05    0.6954283740E+00    0.4197313856E-02    0.6566431368E+00    0.6398670067E-03
    0.2300000000E+08    0.1626050054E-05    0.6954253160E+00    0.3836266224E-02    0.6575413385E+00    0.6431082648E-03
    0.2500000000E+08    0.1379201203E-05    0.6954224983E+00    0.3532034868E-02    0.6582981845E+00    0.6460934975E-03
    0.2700000000E+08    0.1184632159E-05    0.6954198852E+00    0.3272212533E-02    0.6589445582E+00    0.6488611467E-03
