  Pressure (Pa) 22mC5-500 (mol/kg) 24mC5-500 (mol/kg) 2mC6-500 (mol/kg) 3mC6-500 (mol/kg) C7-500 (mol/kg)
    0.1000000000E+01    0.1863836278E-05    0.2142806235E+00    0.4756396598E-05    0.5030155056E-05    0.4178349599E-02
    0.3000000000E+01    0.3183635577E-05    0.3978484921E+00    0.7735135046E-05    0.1278393655E-04    0.4201870512E-02
    0.5000000000E+01    0.3682911874E-05    0.4801080215E+00    0.8926076407E-05    0.1989920753E-04    0.4210786583E-02
    0.7000000000E+01    0.3960532843E-05    0.5267880072E+00    0.9796200438E-05    0.2670889302E-04    0.4215550065E-02
    0.9000000000E+01    0.4160918053E-05    0.5568677274E+00    0.1061867263E-04    0.3332489068E-04    0.4218444298E-02
    0.1100000000E+02    0.4331526543E-05    0.5778654361E+00    0.1145636715E-04    0.3980307464E-04    0.4220324206E-02
    0.1300000000E+02    0.4490790671E-05    0.5933548483E+00    0.1232225708E-04    0.4617665074E-04    0.4221588467E-02
    0.1500000000E+02    0.4646594811E-05    0.6052521092E+00    0.1321604411E-04    0.5246747374E-04    0.4222449451E-02
    0.1700000000E+02    0.4802481455E-05    0.6146769612E+00    0.1413411781E-04    0.5869093782E-04    0.4223031143E-02
    0.1900000000E+02    0.4960049746E-05    0.6223275584E+00    0.1507247525E-04    0.6485842690E-04    0.4223410991E-02
    0.2100000000E+02    0.5119979511E-05    0.6286618095E+00    0.1602754667E-04    0.7097867382E-04    0.4223639966E-02
    0.2300000000E+02    0.5282501501E-05    0.6339925327E+00    0.1699636256E-04    0.7705857268E-04    0.4223753040E-02
    0.2500000000E+02    0.5447625206E-05    0.6385407031E+00    0.1797651736E-04    0.8310369311E-04    0.4223775035E-02
    0.2700000000E+02    0.5615253517E-05    0.6424668545E+00    0.1896608101E-04    0.8911862093E-04    0.4223724076E-02
    0.2900000000E+02    0.5785241879E-05    0.6458904215E+00    0.1996350820E-04    0.9510719257E-04    0.4223613716E-02
    0.3100000000E+02    0.5957429110E-05    0.6489021012E+00    0.2096755972E-04    0.1010726612E-03    0.4223454301E-02
    0.3300000000E+02    0.6131653371E-05    0.6515720056E+00    0.2197723868E-04    0.1070178179E-03    0.4223253870E-02
    0.3500000000E+02    0.6307760141E-05    0.6539551886E+00    0.2299173996E-04    0.1129450815E-03    0.4223018767E-02
    0.3700000000E+02    0.6485605898E-05    0.6560954824E+00    0.2401041075E-04    0.1188565674E-03    0.4222754066E-02
    0.3900000000E+02    0.6665059436E-05    0.6580282178E+00    0.2503271960E-04    0.1247541401E-03    0.4222463878E-02
    0.4100000000E+02    0.6846001954E-05    0.6597821905E+00    0.2605823240E-04    0.1306394545E-03    0.4222151567E-02
    0.4300000000E+02    0.7028326486E-05    0.6613811048E+00    0.2708659340E-04    0.1365139894E-03    0.4221819915E-02
    0.4500000000E+02    0.7211937038E-05    0.6628446515E+00    0.2811751036E-04    0.1423790734E-03    0.4221471241E-02
    0.4700000000E+02    0.7396747610E-05    0.6641893228E+00    0.2915074276E-04    0.1482359064E-03    0.4221107498E-02
    0.4900000000E+02    0.7582681207E-05    0.6654290363E+00    0.3018609236E-04    0.1540855776E-03    0.4220730335E-02
    0.1000000000E+02    0.4248425295E-05    0.5682237672E+00    0.1103428471E-04    0.3657878322E-04    0.4219479936E-02
    0.3000000000E+02    0.5871070856E-05    0.6474429576E+00    0.2046477325E-04    0.9809263068E-04    0.4223539592E-02
    0.5000000000E+02    0.7676047308E-05    0.6660133005E+00    0.3070450885E-04    0.1570080412E-03    0.4220537171E-02
    0.7000000000E+02    0.9589036555E-05    0.6743019446E+00    0.4115713863E-04    0.2152829785E-03    0.4216222462E-02
    0.9000000000E+02    0.1156820173E-04    0.6789963414E+00    0.5174566001E-04    0.2735996390E-03    0.4211395564E-02
    0.1100000000E+03    0.1359854282E-04    0.6820177461E+00    0.6246922501E-04    0.3323154604E-03    0.4206289279E-02
    0.1300000000E+03    0.1567448932E-04    0.6841251972E+00    0.7334149990E-04    0.3916575920E-03    0.4200993666E-02
    0.1500000000E+03    0.1779429105E-04    0.6856788876E+00    0.8437862315E-04    0.4517890797E-03    0.4195548874E-02
    0.1700000000E+03    0.1995794633E-04    0.6868717181E+00    0.9559647472E-04    0.5128374932E-03    0.4189973916E-02
    0.1900000000E+03    0.2216633637E-04    0.6878163167E+00    0.1070101472E-03    0.5749092849E-03    0.4184277628E-02
    0.2100000000E+03    0.2442082888E-04    0.6885828594E+00    0.1186339858E-03    0.6380977754E-03    0.4178463465E-02
    0.2300000000E+03    0.2672308427E-04    0.6892173485E+00    0.1304817628E-03    0.7024879526E-03    0.4172531807E-02
    0.2500000000E+03    0.2907495668E-04    0.6897511968E+00    0.1425668640E-03    0.7681595432E-03    0.4166481164E-02
    0.2700000000E+03    0.3147844245E-04    0.6902065859E+00    0.1549024549E-03    0.8351890816E-03    0.4160308840E-02
    0.2900000000E+03    0.3393565350E-04    0.6905996252E+00    0.1675016223E-03    0.9036513729E-03    0.4154011306E-02
    0.3100000000E+03    0.3644880454E-04    0.6909422967E+00    0.1803774931E-03    0.9736205687E-03    0.4147584427E-02
    0.3300000000E+03    0.3902020807E-04    0.6912436973E+00    0.1935433354E-03    0.1045170994E-02    0.4141023595E-02
    0.3500000000E+03    0.4165227420E-04    0.6915108575E+00    0.2070126464E-03    0.1118377804E-02    0.4134323813E-02
    0.3700000000E+03    0.4434751327E-04    0.6917492971E+00    0.2207992292E-03    0.1193317532E-02    0.4127479739E-02
    0.3900000000E+03    0.4710854043E-04    0.6919634097E+00    0.2349172633E-03    0.1270068551E-02    0.4120485717E-02
    0.4100000000E+03    0.4993808156E-04    0.6921567367E+00    0.2493813690E-03    0.1348711492E-02    0.4113335785E-02
    0.4300000000E+03    0.5283898014E-04    0.6923321636E+00    0.2642066688E-03    0.1429329624E-02    0.4106023684E-02
    0.4500000000E+03    0.5581420487E-04    0.6924920656E+00    0.2794088469E-03    0.1512009202E-02    0.4098542852E-02
    0.4700000000E+03    0.5886685804E-04    0.6926384156E+00    0.2950042073E-03    0.1596839818E-02    0.4090886417E-02
    0.4900000000E+03    0.6200018448E-04    0.6927728656E+00    0.3110097319E-03    0.1683914733E-02    0.4083047181E-02
    0.1000000000E+03    0.1257745166E-04    0.6806548087E+00    0.5708982854E-04    0.3028914594E-03    0.4208869982E-02
    0.3000000000E+03    0.3518509426E-04    0.6907766319E+00    0.1739041449E-03    0.9384429749E-03    0.4150814312E-02
    0.5000000000E+03    0.6359815553E-04    0.6928360725E+00    0.3191718126E-03    0.1728324034E-02    0.4079056672E-02
    0.7000000000E+03    0.1007344337E-03    0.6937219461E+00    0.5088325231E-03    0.2761144070E-02    0.3987568517E-02
    0.9000000000E+03    0.1513367918E-03    0.6942147884E+00    0.7674124705E-03    0.4171522188E-02    0.3865969039E-02
    0.1100000000E+04    0.2236305439E-03    0.6945285924E+00    0.1137270965E-02    0.6192192046E-02    0.3696679214E-02
    0.1300000000E+04    0.3327228925E-03    0.6947458755E+00    0.1696284942E-02    0.9251872112E-02    0.3448418123E-02
    0.1500000000E+04    0.5071171853E-03    0.6949052048E+00    0.2591804279E-02    0.1416417111E-01    0.3064888061E-02
    0.1700000000E+04    0.7957619790E-03    0.6950270183E+00    0.4078419370E-02    0.2234324586E-01    0.2458309168E-02
    0.1900000000E+04    0.1239097055E-02    0.6951231566E+00    0.6372717715E-02    0.3502566266E-01    0.1589637817E-02
    0.2100000000E+04    0.1733344756E-02    0.6952009529E+00    0.8953913176E-02    0.4942053889E-01    0.7391282660E-03
    0.2300000000E+04    0.2082061047E-02    0.6952651915E+00    0.1081014099E-01    0.5996124881E-01    0.2889304251E-03
    0.2500000000E+04    0.2292273738E-02    0.6953191264E+00    0.1196564725E-01    0.6671778773E-01    0.1436447975E-03
    0.2700000000E+04    0.2444636506E-02    0.6953650477E+00    0.1283049841E-01    0.7191819012E-01    0.1059848752E-03
    0.2900000000E+04    0.2576095371E-02    0.6954046141E+00    0.1359406316E-01    0.7659987517E-01    0.9698859542E-04
    0.3100000000E+04    0.2697806767E-02    0.6954390563E+00    0.1431355503E-01    0.8107671889E-01    0.9505448823E-04
    0.3300000000E+04    0.2812921515E-02    0.6954693065E+00    0.1500490103E-01    0.8543510580E-01    0.9482533277E-04
    0.3500000000E+04    0.2922437261E-02    0.6954960840E+00    0.1567287903E-01    0.8969972046E-01    0.9499916850E-04
    0.3700000000E+04    0.3026785745E-02    0.6955199525E+00    0.1631933905E-01    0.9387903419E-01    0.9526020953E-04
    0.3900000000E+04    0.3126244487E-02    0.6955413600E+00    0.1694534628E-01    0.9797722185E-01    0.9553219387E-04
    0.4100000000E+04    0.3221042908E-02    0.6955606672E+00    0.1755173548E-01    0.1019972561E+00    0.9579727795E-04
    0.4300000000E+04    0.3311390054E-02    0.6955781674E+00    0.1813925540E-01    0.1059417142E+00    0.9605188731E-04
    0.4500000000E+04    0.3397482187E-02    0.6955941020E+00    0.1870860776E-01    0.1098129922E+00    0.9629588368E-04
    0.4700000000E+04    0.3479505196E-02    0.6956086713E+00    0.1926045868E-01    0.1136133653E+00    0.9652989613E-04
    0.4900000000E+04    0.3557635621E-02    0.6956220426E+00    0.1979544302E-01    0.1173450073E+00    0.9675466798E-04
    0.1000000000E+04    0.1840470218E-03    0.6943873688E+00    0.9346965984E-03    0.5085028976E-02    0.3788811857E-02
    0.3000000000E+04    0.2637887343E-02    0.6954224117E+00    0.1395788171E-01    0.7885606447E-01    0.9563745270E-04
    0.5000000000E+04    0.3595293889E-02    0.6956283241E+00    0.2005680065E-01    0.1191857082E+00    0.9686381151E-04
    0.7000000000E+04    0.4180761500E-02    0.6957159916E+00    0.2453204010E-01    0.1528538351E+00    0.9869844658E-04
    0.9000000000E+04    0.4524554274E-02    0.6957643587E+00    0.2786525949E-01    0.1815543962E+00    0.1000900267E-03
    0.1100000000E+05    0.4707868968E-02    0.6957949182E+00    0.3036988215E-01    0.2064228105E+00    0.1012146321E-03
    0.1300000000E+05    0.4783248136E-02    0.6958159203E+00    0.3225937494E-01    0.2282610318E+00    0.1021601378E-03
    0.1500000000E+05    0.4785536744E-02    0.6958312071E+00    0.3368349183E-01    0.2476529351E+00    0.1029768903E-03
    0.1700000000E+05    0.4738306881E-02    0.6958428085E+00    0.3474994840E-01    0.2650347548E+00    0.1036964849E-03
    0.1900000000E+05    0.4657761647E-02    0.6958518970E+00    0.3553789300E-01    0.2807397589E+00    0.1043400796E-03
    0.2100000000E+05    0.4555180263E-02    0.6958591969E+00    0.3610656113E-01    0.2950275329E+00    0.1049225525E-03
    0.2300000000E+05    0.4438489898E-02    0.6958651794E+00    0.3650099735E-01    0.3081037322E+00    0.1054547712E-03
    0.2500000000E+05    0.4313299135E-02    0.6958701643E+00    0.3675593481E-01    0.3201337453E+00    0.1059449208E-03
    0.2700000000E+05    0.4183590952E-02    0.6958743761E+00    0.3689848471E-01    0.3312523589E+00    0.1063993225E-03
    0.2900000000E+05    0.4052195442E-02    0.6958779771E+00    0.3695003782E-01    0.3415707318E+00    0.1068229619E-03
    0.3100000000E+05    0.3921117197E-02    0.6958810871E+00    0.3692763299E-01    0.3511815178E+00    0.1072198416E-03
    0.3300000000E+05    0.3791765064E-02    0.6958837971E+00    0.3684495763E-01    0.3601626909E+00    0.1075932249E-03
    0.3500000000E+05    0.3665115301E-02    0.6958861768E+00    0.3671308971E-01    0.3685804427E+00    0.1079458077E-03
    0.3700000000E+05    0.3541828613E-02    0.6958882809E+00    0.3654105532E-01    0.3764914071E+00    0.1082798435E-03
    0.3900000000E+05    0.3422334890E-02    0.6958901525E+00    0.3633625251E-01    0.3839443897E+00    0.1085972356E-03
    0.4100000000E+05    0.3306895020E-02    0.6958918266E+00    0.3610477696E-01    0.3909817264E+00    0.1088996062E-03
    0.4300000000E+05    0.3195646296E-02    0.6958933313E+00    0.3585167477E-01    0.3976403629E+00    0.1091883495E-03
    0.4500000000E+05    0.3088635959E-02    0.6958946897E+00    0.3558114038E-01    0.4039527197E+00    0.1094646726E-03
    0.4700000000E+05    0.2985846078E-02    0.6958959211E+00    0.3529667290E-01    0.4099473923E+00    0.1097296278E-03
    0.4900000000E+05    0.2887212092E-02    0.6958970415E+00    0.3500120046E-01    0.4156497213E+00    0.1099841380E-03
    0.1000000000E+05    0.4632473244E-02    0.6957811937E+00    0.2920597843E-01    0.1944113202E+00    0.1006789845E-03
    0.3000000000E+05    0.3986516824E-02    0.6958795872E+00    0.3694715589E-01    0.3464593934E+00    0.1070245277E-03
    0.5000000000E+05    0.2839424113E-02    0.6958975643E+00    0.3485012124E-01    0.4183984031E+00    0.1101077343E-03
    0.7000000000E+05    0.2070397565E-02    0.6959045551E+00    0.3167234929E-01    0.4623872981E+00    0.1121866400E-03
    0.9000000000E+05    0.1564370487E-02    0.6959080395E+00    0.2867779433E-01    0.4925840661E+00    0.1137648561E-03
    0.1100000000E+06    0.1219786558E-02    0.6959100001E+00    0.2606951290E-01    0.5147708259E+00    0.1150409164E-03
    0.1300000000E+06    0.9762270526E-03    0.6959111781E+00    0.2383624529E-01    0.5318321422E+00    0.1161140944E-03
    0.1500000000E+06    0.7982876455E-03    0.6959119093E+00    0.2192430033E-01    0.5453926144E+00    0.1170413360E-03
    0.1700000000E+06    0.6645694843E-03    0.6959123663E+00    0.2027854203E-01    0.5564458266E+00    0.1178584066E-03
    0.1900000000E+06    0.5616460684E-03    0.6959126457E+00    0.1885171579E-01    0.5656371269E+00    0.1185892713E-03
    0.2100000000E+06    0.4807886204E-03    0.6959128058E+00    0.1760539620E-01    0.5734054708E+00    0.1192507891E-03
    0.2300000000E+06    0.4161388290E-03    0.6959128831E+00    0.1650882560E-01    0.5800605776E+00    0.1198552793E-03
    0.2500000000E+06    0.3636528236E-03    0.6959129016E+00    0.1553742924E-01    0.5858276187E+00    0.1204120226E-03
    0.2700000000E+06    0.3204692767E-03    0.6959128776E+00    0.1467149296E-01    0.5908744337E+00    0.1209281883E-03
    0.2900000000E+06    0.2845189017E-03    0.6959128225E+00    0.1389509727E-01    0.5953288038E+00    0.1214094316E-03
    0.3100000000E+06    0.2542759652E-03    0.6959127445E+00    0.1319528891E-01    0.5992897986E+00    0.1218602938E-03
    0.3300000000E+06    0.2285959451E-03    0.6959126494E+00    0.1256144484E-01    0.6028354539E+00    0.1222844773E-03
    0.3500000000E+06    0.2066069262E-03    0.6959125415E+00    0.1198478500E-01    0.6060280984E+00    0.1226850419E-03
    0.3700000000E+06    0.1876353769E-03    0.6959124242E+00    0.1145799800E-01    0.6089181333E+00    0.1230645450E-03
    0.3900000000E+06    0.1711544343E-03    0.6959123000E+00    0.1097495187E-01    0.6115467662E+00    0.1234251469E-03
    0.4100000000E+06    0.1567472366E-03    0.6959121706E+00    0.1053046901E-01    0.6139480231E+00    0.1237686891E-03
    0.4300000000E+06    0.1440805063E-03    0.6959120376E+00    0.1012014990E-01    0.6161502525E+00    0.1240967543E-03
    0.4500000000E+06    0.1328852400E-03    0.6959119022E+00    0.9740233800E-02    0.6181772660E+00    0.1244107129E-03
    0.4700000000E+06    0.1229424041E-03    0.6959117651E+00    0.9387488046E-02    0.6200492131E+00    0.1247117595E-03
    0.4900000000E+06    0.1140722070E-03    0.6959116272E+00    0.9059119278E-02    0.6217832610E+00    0.1250009421E-03
    0.1000000000E+06    0.1376435223E-02    0.6959091496E+00    0.2732416045E-01    0.5044574376E+00    0.1144330708E-03
    0.3000000000E+06    0.2687629932E-03    0.6959127860E+00    0.1353633189E-01    0.5973656744E+00    0.1216384119E-03
    0.5000000000E+06    0.1099918498E-03    0.6959115580E+00    0.8903305553E-02    0.6226032556E+00    0.1251413775E-03
    0.7000000000E+06    0.5933755263E-04    0.6959102136E+00    0.6618456018E-02    0.6344313210E+00    0.1275036248E-03
    0.9000000000E+06    0.3701644464E-04    0.6959090088E+00    0.5261326848E-02    0.6412974387E+00    0.1292970457E-03
    0.1100000000E+07    0.2526130290E-04    0.6959079479E+00    0.4363297368E-02    0.6457825889E+00    0.1307471553E-03
    0.1300000000E+07    0.1832436054E-04    0.6959070079E+00    0.3725532012E-02    0.6489419761E+00    0.1319667348E-03
    0.1500000000E+07    0.1389330546E-04    0.6959061663E+00    0.3249414183E-02    0.6512875185E+00    0.1330204836E-03
    0.1700000000E+07    0.1089273476E-04    0.6959054056E+00    0.2880513742E-02    0.6530976514E+00    0.1339490393E-03
    0.1900000000E+07    0.8767613910E-05    0.6959047118E+00    0.2586347838E-02    0.6545368177E+00    0.1347796327E-03
    0.2100000000E+07    0.7208028906E-05    0.6959040743E+00    0.2346338759E-02    0.6557083863E+00    0.1355314208E-03
    0.2300000000E+07    0.6029924333E-05    0.6959034845E+00    0.2146820917E-02    0.6566805942E+00    0.1362184022E-03
    0.2500000000E+07    0.5118419995E-05    0.6959029358E+00    0.1978365182E-02    0.6575003019E+00    0.1368511233E-03
    0.2700000000E+07    0.4398814684E-05    0.6959024229E+00    0.1834256280E-02    0.6582007551E+00    0.1374377308E-03
    0.2900000000E+07    0.3820836536E-05    0.6959019411E+00    0.1709582552E-02    0.6588061936E+00    0.1379846514E-03
    0.3100000000E+07    0.3349650634E-05    0.6959014870E+00    0.1600668903E-02    0.6593347069E+00    0.1384970454E-03
    0.3300000000E+07    0.2960503281E-05    0.6959010574E+00    0.1504710929E-02    0.6598000682E+00    0.1389791208E-03
    0.3500000000E+07    0.2635414581E-05    0.6959006498E+00    0.1419531643E-02    0.6602129490E+00    0.1394343543E-03
    0.3700000000E+07    0.2361070750E-05    0.6959002621E+00    0.1343415421E-02    0.6605817457E+00    0.1398656523E-03
    0.3900000000E+07    0.2127443487E-05    0.6958998922E+00    0.1274992004E-02    0.6609131547E+00    0.1402754700E-03
    0.4100000000E+07    0.1926863339E-05    0.6958995387E+00    0.1213153814E-02    0.6612125823E+00    0.1406659000E-03
    0.4300000000E+07    0.1753384149E-05    0.6958992000E+00    0.1156995926E-02    0.6614844407E+00    0.1410387408E-03
    0.4500000000E+07    0.1602338623E-05    0.6958988750E+00    0.1105771779E-02    0.6617323665E+00    0.1413955501E-03
    0.4700000000E+07    0.1470022049E-05    0.6958985626E+00    0.1058860003E-02    0.6619593839E+00    0.1417376853E-03
    0.4900000000E+07    0.1353463626E-05    0.6958982618E+00    0.1015739254E-02    0.6621680286E+00    0.1420663373E-03
    0.1000000000E+07    0.3030384439E-04    0.6959084618E+00    0.4770778847E-02    0.6437529077E+00    0.1300563977E-03
    0.3000000000E+07    0.3573631783E-05    0.6959017108E+00    0.1653348087E-02    0.6590791205E+00    0.1382448819E-03
    0.5000000000E+07    0.1300323804E-05    0.6958981155E+00    0.9954600919E-03    0.6622661436E+00    0.1422259402E-03
    0.7000000000E+07    0.6673039858E-06    0.6958956334E+00    0.7108051716E-03    0.6636430835E+00    0.1449106073E-03
    0.9000000000E+07    0.4057523568E-06    0.6958937272E+00    0.5521898551E-03    0.6644104911E+00    0.1469488132E-03
    0.1100000000E+08    0.2730745327E-06    0.6958921748E+00    0.4511609901E-03    0.6648995887E+00    0.1485968501E-03
    0.1300000000E+08    0.1966545775E-06    0.6958908626E+00    0.3812143132E-03    0.6652384631E+00    0.1499828917E-03
    0.1500000000E+08    0.1486496270E-06    0.6958897246E+00    0.3299379915E-03    0.6654870737E+00    0.1511804680E-03
    0.1700000000E+08    0.1165294127E-06    0.6958887187E+00    0.2907481643E-03    0.6656772258E+00    0.1522357632E-03
    0.1900000000E+08    0.9397988012E-07    0.6958878168E+00    0.2598288413E-03    0.6658273570E+00    0.1531797250E-03
    0.2100000000E+08    0.7753906041E-07    0.6958869987E+00    0.2348162718E-03    0.6659488912E+00    0.1540341250E-03
    0.2300000000E+08    0.6518005382E-07    0.6958862497E+00    0.2141684072E-03    0.6660492835E+00    0.1548148726E-03
    0.2500000000E+08    0.5565215335E-07    0.6958855588E+00    0.1968365516E-03    0.6661336058E+00    0.1555339537E-03
    0.2700000000E+08    0.4814965463E-07    0.6958849174E+00    0.1820827660E-03    0.6662054283E+00    0.1562006270E-03
