  Pressure (Pa) 22mC5-500 (mol/kg) 24mC5-500 (mol/kg) 2mC6-500 (mol/kg) 3mC6-500 (mol/kg) C7-500 (mol/kg)
    0.1000000000E+01    0.2014171397E-05    0.1741017702E+00    0.5116419380E-05    0.2162130215E-05    0.4223953562E-02
    0.3000000000E+01    0.3723266531E-05    0.3480971862E+00    0.8944639263E-05    0.5603321320E-05    0.4287231408E-02
    0.5000000000E+01    0.4431082248E-05    0.4350555430E+00    0.1041544262E-04    0.8783708555E-05    0.4319093524E-02
    0.7000000000E+01    0.4807551528E-05    0.4872181263E+00    0.1128387837E-04    0.1183617407E-04    0.4338660033E-02
    0.9000000000E+01    0.5048695919E-05    0.5219880227E+00    0.1198335975E-04    0.1480601428E-04    0.4352018329E-02
    0.1100000000E+02    0.5228061004E-05    0.5468211212E+00    0.1264627516E-04    0.1771602956E-04    0.4361779653E-02
    0.1300000000E+02    0.5377630773E-05    0.5654445333E+00    0.1331655986E-04    0.2057984924E-04    0.4369259008E-02
    0.1500000000E+02    0.5512716169E-05    0.5799285522E+00    0.1400819934E-04    0.2340648494E-04    0.4375193595E-02
    0.1700000000E+02    0.5641132720E-05    0.5915152093E+00    0.1472426635E-04    0.2620230838E-04    0.4380030096E-02
    0.1900000000E+02    0.5767038873E-05    0.6009948177E+00    0.1546381557E-04    0.2897204649E-04    0.4384055667E-02
    0.2100000000E+02    0.5892697259E-05    0.6088942150E+00    0.1622454872E-04    0.3171933529E-04    0.4387463726E-02
    0.2300000000E+02    0.6019342227E-05    0.6155781140E+00    0.1700387336E-04    0.3444705194E-04    0.4390389573E-02
    0.2500000000E+02    0.6147631555E-05    0.6213070111E+00    0.1779931508E-04    0.3715752554E-04    0.4392930858E-02
    0.2700000000E+02    0.6277892234E-05    0.6262719292E+00    0.1860866062E-04    0.3985267706E-04    0.4395159935E-02
    0.2900000000E+02    0.6410258988E-05    0.6306161305E+00    0.1942998852E-04    0.4253411590E-04    0.4397131631E-02
    0.3100000000E+02    0.6544754530E-05    0.6344491650E+00    0.2026165433E-04    0.4520320845E-04    0.4398888301E-02
    0.3300000000E+02    0.6681337071E-05    0.6378562360E+00    0.2110225995E-04    0.4786112810E-04    0.4400463226E-02
    0.3500000000E+02    0.6819928875E-05    0.6409046077E+00    0.2195061944E-04    0.5050889262E-04    0.4401882946E-02
    0.3700000000E+02    0.6960433590E-05    0.6436480903E+00    0.2280572682E-04    0.5314739249E-04    0.4403168903E-02
    0.3900000000E+02    0.7102746787E-05    0.6461302436E+00    0.2366672756E-04    0.5577741289E-04    0.4404338633E-02
    0.4100000000E+02    0.7246762342E-05    0.6483867066E+00    0.2453289421E-04    0.5839965093E-04    0.4405406620E-02
    0.4300000000E+02    0.7392376231E-05    0.6504469201E+00    0.2540360586E-04    0.6101472936E-04    0.4406384948E-02
    0.4500000000E+02    0.7539488710E-05    0.6523354175E+00    0.2627833107E-04    0.6362320763E-04    0.4407283786E-02
    0.4700000000E+02    0.7688005480E-05    0.6540728066E+00    0.2715661366E-04    0.6622559084E-04    0.4408111755E-02
    0.4900000000E+02    0.7837838217E-05    0.6556765245E+00    0.2803806094E-04    0.6882233715E-04    0.4408876222E-02
    0.1000000000E+02    0.5143539824E-05    0.5353599561E+00    0.1231556543E-04    0.1626750577E-04    0.4357247708E-02
    0.3000000000E+02    0.6477242165E-05    0.6325907342E+00    0.1984462194E-04    0.4387012809E-04    0.4398034583E-02
    0.5000000000E+02    0.7913222145E-05    0.6564329861E+00    0.2847986354E-04    0.7011872835E-04    0.4409236656E-02
    0.7000000000E+02    0.9473132536E-05    0.6672091995E+00    0.3742062843E-04    0.9583516170E-04    0.4414267261E-02
    0.9000000000E+02    0.1110254092E-04    0.6733495754E+00    0.4647784266E-04    0.1213040942E-03    0.4416807403E-02
    0.1100000000E+03    0.1277644604E-04    0.6773158002E+00    0.5560173841E-04    0.1466707696E-03    0.4418038441E-02
    0.1300000000E+03    0.1448276027E-04    0.6800887826E+00    0.6477959876E-04    0.1720234921E-03    0.4418471560E-02
    0.1500000000E+03    0.1621522903E-04    0.6821365120E+00    0.7401053253E-04    0.1974219483E-03    0.4418369327E-02
    0.1700000000E+03    0.1797047623E-04    0.6837105539E+00    0.8329774330E-04    0.2229095345E-03    0.4417882646E-02
    0.1900000000E+03    0.1974665855E-04    0.6849581909E+00    0.9264581564E-04    0.2485195641E-03    0.4417105414E-02
    0.2100000000E+03    0.2154280038E-04    0.6859713839E+00    0.1020596874E-03    0.2742787213E-03    0.4416099617E-02
    0.2300000000E+03    0.2335844208E-04    0.6868105166E+00    0.1115442525E-03    0.3002091314E-03    0.4414908078E-02
    0.2500000000E+03    0.2519344351E-04    0.6875168772E+00    0.1211042170E-03    0.3263296734E-03    0.4413561469E-02
    0.2700000000E+03    0.2704786929E-04    0.6881196534E+00    0.1307440591E-03    0.3526568519E-03    0.4412082403E-02
    0.2900000000E+03    0.2892191928E-04    0.6886400626E+00    0.1404680347E-03    0.3792053973E-03    0.4410487952E-02
    0.3100000000E+03    0.3081588519E-04    0.6890938987E+00    0.1502801979E-03    0.4059886925E-03    0.4408791261E-02
    0.3300000000E+03    0.3273012280E-04    0.6894931605E+00    0.1601844291E-03    0.4330190853E-03    0.4407002612E-02
    0.3500000000E+03    0.3466503384E-04    0.6898471272E+00    0.1701844613E-03    0.4603081204E-03    0.4405130162E-02
    0.3700000000E+03    0.3662105404E-04    0.6901630876E+00    0.1802839063E-03    0.4878667176E-03    0.4403180446E-02
    0.3900000000E+03    0.3859864505E-04    0.6904468464E+00    0.1904862773E-03    0.5157053098E-03    0.4401158753E-02
    0.4100000000E+03    0.4059828909E-04    0.6907030837E+00    0.2007950090E-03    0.5438339516E-03    0.4399069389E-02
    0.4300000000E+03    0.4262048527E-04    0.6909356148E+00    0.2112134755E-03    0.5722624071E-03    0.4396915882E-02
    0.4500000000E+03    0.4466574720E-04    0.6911475811E+00    0.2217450062E-03    0.6010002211E-03    0.4394701127E-02
    0.4700000000E+03    0.4673460138E-04    0.6913415924E+00    0.2323928988E-03    0.6300567775E-03    0.4392427506E-02
    0.4900000000E+03    0.4882758622E-04    0.6915198350E+00    0.2431604318E-03    0.6594413486E-03    0.4390096978E-02
    0.1000000000E+03    0.1193487655E-04    0.6755252923E+00    0.5103268200E-04    0.1339938113E-03    0.4417546146E-02
    0.3000000000E+03    0.2986639177E-04    0.6888744781E+00    0.1453628466E-03    0.3925669082E-03    0.4409651687E-02
    0.5000000000E+03    0.4988329900E-04    0.6916036312E+00    0.2485900854E-03    0.6742595169E-03    0.4388910888E-02
    0.7000000000E+03    0.7240581185E-04    0.6927780662E+00    0.3642737133E-03    0.9901046110E-03    0.4362453458E-02
    0.9000000000E+03    0.9805601749E-04    0.6934312178E+00    0.4958770971E-03    0.1349736385E-02    0.4330884728E-02
    0.1100000000E+04    0.1276089334E-03    0.6938468304E+00    0.6474823201E-03    0.1764407885E-02    0.4293747737E-02
    0.1300000000E+04    0.1620601038E-03    0.6941343834E+00    0.8242628528E-03    0.2248372015E-02    0.4250063521E-02
    0.1500000000E+04    0.2027221937E-03    0.6943450580E+00    0.1033014190E-02    0.2820361366E-02    0.4198376077E-02
    0.1700000000E+04    0.2513641875E-03    0.6945059788E+00    0.1282885812E-02    0.3505617606E-02    0.4136649034E-02
    0.1900000000E+04    0.3104184077E-03    0.6946328597E+00    0.1586460049E-02    0.4338883083E-02    0.4062057666E-02
    0.2100000000E+04    0.3832940932E-03    0.6947354316E+00    0.1961384323E-02    0.5368932704E-02    0.3970656871E-02
    0.2300000000E+04    0.4748551140E-03    0.6948200423E+00    0.2432860671E-02    0.6665498999E-02    0.3856878111E-02
    0.2500000000E+04    0.5921372948E-03    0.6948910081E+00    0.3037393693E-02    0.8329726509E-02    0.3712798723E-02
    0.2700000000E+04    0.7453628815E-03    0.6949513666E+00    0.3828116780E-02    0.1050909875E-01    0.3527178578E-02
    0.2900000000E+04    0.9491206184E-03    0.6950033169E+00    0.4881061574E-02    0.1341520604E-01    0.3284540940E-02
    0.3100000000E+04    0.1222791370E-02    0.6950484904E+00    0.6297691741E-02    0.1733164572E-01    0.2965578613E-02
    0.3300000000E+04    0.1586966050E-02    0.6950881227E+00    0.8186947974E-02    0.2256597647E-01    0.2552829668E-02
    0.3500000000E+04    0.2048774269E-02    0.6951231666E+00    0.1058994599E-01    0.2924329078E-01    0.2049090660E-02
    0.3700000000E+04    0.2573925301E-02    0.6951543689E+00    0.1333471091E-01    0.3690318863E-01    0.1507501427E-02
    0.3900000000E+04    0.3078465763E-02    0.6951823228E+00    0.1599012625E-01    0.4436334036E-01    0.1031074286E-02
    0.4100000000E+04    0.3484969521E-02    0.6952075056E+00    0.1815340478E-01    0.5050502987E-01    0.6993949940E-03
    0.4300000000E+04    0.3779865294E-02    0.6952303058E+00    0.1974904774E-01    0.5510554486E-01    0.5106465478E-03
    0.4500000000E+04    0.3994067859E-02    0.6952510426E+00    0.2093296994E-01    0.5858494491E-01    0.4167219681E-03
    0.4700000000E+04    0.4161389269E-02    0.6952699806E+00    0.2187830489E-01    0.6141685572E-01    0.3734073127E-03
    0.4900000000E+04    0.4303587787E-02    0.6952873415E+00    0.2269707408E-01    0.6390940553E-01    0.3543085993E-03
    0.1000000000E+04    0.1122885549E-03    0.6936598263E+00    0.5688872603E-03    0.1549387224E-02    0.4313062727E-02
    0.3000000000E+04    0.1075862390E-02    0.6950266658E+00    0.5536794664E-02    0.1522714858E-01    0.3135867788E-02
    0.5000000000E+04    0.4369129770E-02    0.6952954900E+00    0.2307894452E-01    0.6508344830E-01    0.3493829182E-03
    0.7000000000E+04    0.5425321919E-02    0.6954085854E+00    0.2955773379E-01    0.8586688532E-01    0.3452376032E-03
    0.9000000000E+04    0.6215131631E-02    0.6954702121E+00    0.3488846844E-01    0.1042706052E+00    0.3501045993E-03
    0.1100000000E+05    0.6810149552E-02    0.6955086505E+00    0.3935158446E-01    0.1208507301E+00    0.3540399533E-03
    0.1300000000E+05    0.7254980010E-02    0.6955347161E+00    0.4311517016E-01    0.1359115485E+00    0.3573481255E-03
    0.1500000000E+05    0.7582860019E-02    0.6955534268E+00    0.4630769038E-01    0.1496903085E+00    0.3602055337E-03
    0.1700000000E+05    0.7818916307E-02    0.6955674233E+00    0.4902890242E-01    0.1623749617E+00    0.3627228531E-03
    0.1900000000E+05    0.7982384866E-02    0.6955782253E+00    0.5135736323E-01    0.1741165038E+00    0.3649741812E-03
    0.2100000000E+05    0.8088156294E-02    0.6955867679E+00    0.5335571323E-01    0.1850377706E+00    0.3670116112E-03
    0.2300000000E+05    0.8147871129E-02    0.6955936570E+00    0.5507446511E-01    0.1952398247E+00    0.3688731899E-03
    0.2500000000E+05    0.8170708783E-02    0.6955993022E+00    0.5655476670E-01    0.2048066699E+00    0.3705875690E-03
    0.2700000000E+05    0.8163964062E-02    0.6956039898E+00    0.5783044643E-01    0.2138087831E+00    0.3721768736E-03
    0.2900000000E+05    0.8133474014E-02    0.6956079257E+00    0.5892954864E-01    0.2223057974E+00    0.3736585523E-03
    0.3100000000E+05    0.8083937741E-02    0.6956112620E+00    0.5987550071E-01    0.2303485655E+00    0.3750466127E-03
    0.3300000000E+05    0.8019158647E-02    0.6956141129E+00    0.6068801043E-01    0.2379807643E+00    0.3763524742E-03
    0.3500000000E+05    0.7942229748E-02    0.6956165659E+00    0.6138376337E-01    0.2452401564E+00    0.3775855705E-03
    0.3700000000E+05    0.7855676748E-02    0.6956186893E+00    0.6197697028E-01    0.2521595917E+00    0.3787537867E-03
    0.3900000000E+05    0.7761569417E-02    0.6956205369E+00    0.6247980041E-01    0.2587678087E+00    0.3798637822E-03
    0.4100000000E+05    0.7661608986E-02    0.6956221517E+00    0.6290272774E-01    0.2650900824E+00    0.3809212328E-03
    0.4300000000E+05    0.7557197211E-02    0.6956235686E+00    0.6325480949E-01    0.2711487513E+00    0.3819310163E-03
    0.4500000000E+05    0.7449491310E-02    0.6956248158E+00    0.6354391205E-01    0.2769636494E+00    0.3828973559E-03
    0.4700000000E+05    0.7339447944E-02    0.6956259169E+00    0.6377689536E-01    0.2825524626E+00    0.3838239329E-03
    0.4900000000E+05    0.7227858612E-02    0.6956268912E+00    0.6395976436E-01    0.2879310252E+00    0.3847139756E-03
    0.1000000000E+05    0.6533887861E-02    0.6954914497E+00    0.3721688589E-01    0.1127677708E+00    0.3521656310E-03
    0.3000000000E+05    0.8110830358E-02    0.6956096610E+00    0.5942035854E-01    0.2263810805E+00    0.3743635184E-03
    0.5000000000E+05    0.7171693559E-02    0.6956273360E+00    0.6403408001E-01    0.2905459661E+00    0.3851461997E-03
    0.7000000000E+05    0.6075660830E-02    0.6956324146E+00    0.6388063990E-01    0.3346072408E+00    0.3924160687E-03
    0.9000000000E+05    0.5136590228E-02    0.6956338403E+00    0.6209158783E-01    0.3677420903E+00    0.3979348336E-03
    0.1100000000E+06    0.4374346149E-02    0.6956338512E+00    0.5972646862E-01    0.3939956910E+00    0.4023969026E-03
    0.1300000000E+06    0.3760220445E-02    0.6956332326E+00    0.5720595552E-01    0.4155176000E+00    0.4061494795E-03
    0.1500000000E+06    0.3262686892E-02    0.6956323162E+00    0.5471033645E-01    0.4335916477E+00    0.4093917194E-03
    0.1700000000E+06    0.2855789052E-02    0.6956312589E+00    0.5231780644E-01    0.4490479710E+00    0.4122487006E-03
    0.1900000000E+06    0.2519562553E-02    0.6956301410E+00    0.5005981263E-01    0.4624549524E+00    0.4148042316E-03
    0.2100000000E+06    0.2238908829E-02    0.6956290053E+00    0.4794547086E-01    0.4742188936E+00    0.4171172687E-03
    0.2300000000E+06    0.2002404603E-02    0.6956278756E+00    0.4597309877E-01    0.4846401617E+00    0.4192308920E-03
    0.2500000000E+06    0.1801346159E-02    0.6956267649E+00    0.4413592607E-01    0.4939468761E+00    0.4211775561E-03
    0.2700000000E+06    0.1629037960E-02    0.6956256805E+00    0.4242500676E-01    0.5023161596E+00    0.4229823307E-03
    0.2900000000E+06    0.1480275500E-02    0.6956246258E+00    0.4083072328E-01    0.5098881055E+00    0.4246649918E-03
    0.3100000000E+06    0.1350970992E-02    0.6956236024E+00    0.3934355749E-01    0.5167752739E+00    0.4262414190E-03
    0.3300000000E+06    0.1237881373E-02    0.6956226108E+00    0.3795447104E-01    0.5230693347E+00    0.4277245600E-03
    0.3500000000E+06    0.1138409133E-02    0.6956216503E+00    0.3665507478E-01    0.5288458305E+00    0.4291251131E-03
    0.3700000000E+06    0.1050455113E-02    0.6956207202E+00    0.3543768447E-01    0.5341676628E+00    0.4304520218E-03
    0.3900000000E+06    0.9723086242E-03    0.6956198194E+00    0.3429531585E-01    0.5390876927E+00    0.4317128399E-03
    0.4100000000E+06    0.9025646180E-03    0.6956189466E+00    0.3322164905E-01    0.5436507110E+00    0.4329140067E-03
    0.4300000000E+06    0.8400606202E-03    0.6956181005E+00    0.3221097876E-01    0.5478949533E+00    0.4340610563E-03
    0.4500000000E+06    0.7838282764E-03    0.6956172799E+00    0.3125815954E-01    0.5518532801E+00    0.4351587809E-03
    0.4700000000E+06    0.7330557822E-03    0.6956164835E+00    0.3035855114E-01    0.5555541058E+00    0.4362113578E-03
    0.4900000000E+06    0.6870585065E-03    0.6956157102E+00    0.2950796665E-01    0.5590221389E+00    0.4372224509E-03
    0.1000000000E+06    0.4734876568E-02    0.6956339572E+00    0.6094647717E-01    0.3815670279E+00    0.4002714269E-03
    0.3000000000E+06    0.1413410861E-02    0.6956241101E+00    0.4007432953E-01    0.5134111311E+00    0.4254656158E-03
    0.5000000000E+06    0.6656656011E-03    0.6956153318E+00    0.2909986203E-01    0.5606757151E+00    0.4377134659E-03
    0.7000000000E+06    0.3855587236E-03    0.6956087249E+00    0.2276684887E-01    0.5855696665E+00    0.4459726987E-03
    0.9000000000E+06    0.2510911111E-03    0.6956034646E+00    0.1867413869E-01    0.6010037978E+00    0.4522430256E-03
    0.1100000000E+07    0.1763621020E-03    0.6955990962E+00    0.1581796481E-01    0.6115233292E+00    0.4573129790E-03
    0.1300000000E+07    0.1305982938E-03    0.6955953589E+00    0.1371362787E-01    0.6191569360E+00    0.4615769021E-03
    0.1500000000E+07    0.1005624382E-03    0.6955920912E+00    0.1209973655E-01    0.6249500177E+00    0.4652610160E-03
    0.1700000000E+07    0.7979718732E-04    0.6955891864E+00    0.1082321422E-01    0.6294968950E+00    0.4685074090E-03
    0.1900000000E+07    0.6484791483E-04    0.6955865706E+00    0.9788565385E-02    0.6331606766E+00    0.4714112920E-03
    0.2100000000E+07    0.5373075135E-04    0.6955841903E+00    0.8933168531E-02    0.6361758204E+00    0.4740396459E-03
    0.2300000000E+07    0.4524059229E-04    0.6955820059E+00    0.8214268974E-02    0.6387005095E+00    0.4764414159E-03
    0.2500000000E+07    0.3861116298E-04    0.6955799868E+00    0.7601688115E-02    0.6408453503E+00    0.4786534756E-03
    0.2700000000E+07    0.3333638383E-04    0.6955781093E+00    0.7073520903E-02    0.6426900150E+00    0.4807043094E-03
    0.2900000000E+07    0.2907114706E-04    0.6955763544E+00    0.6613485126E-02    0.6442933515E+00    0.4826163868E-03
    0.3100000000E+07    0.2557358207E-04    0.6955747066E+00    0.6209227662E-02    0.6456997709E+00    0.4844077509E-03
    0.3300000000E+07    0.2267010714E-04    0.6955731533E+00    0.5851207771E-02    0.6469434191E+00    0.4860931135E-03
    0.3500000000E+07    0.2023354133E-04    0.6955716840E+00    0.5531940506E-02    0.6480509811E+00    0.4876846304E-03
    0.3700000000E+07    0.1816898309E-04    0.6955702899E+00    0.5245471758E-02    0.6490436125E+00    0.4891924639E-03
    0.3900000000E+07    0.1640445890E-04    0.6955689635E+00    0.4987006238E-02    0.6499383016E+00    0.4906251973E-03
    0.4100000000E+07    0.1488458569E-04    0.6955676983E+00    0.4752638864E-02    0.6507488470E+00    0.4919901473E-03
    0.4300000000E+07    0.1356618633E-04    0.6955664887E+00    0.4539157505E-02    0.6514865727E+00    0.4932936023E-03
    0.4500000000E+07    0.1241519941E-04    0.6955653301E+00    0.4343895928E-02    0.6521608589E+00    0.4945410077E-03
    0.4700000000E+07    0.1140446449E-04    0.6955642180E+00    0.4164622641E-02    0.6527795417E+00    0.4957371101E-03
    0.4900000000E+07    0.1051211048E-04    0.6955631490E+00    0.3999455823E-02    0.6533492182E+00    0.4968860729E-03
    0.1000000000E+07    0.2088113734E-03    0.6956011883E+00    0.1712911300E-01    0.6067179924E+00    0.4548979204E-03
    0.3000000000E+07    0.2723855086E-04    0.6955755179E+00    0.6405036073E-02    0.6450188392E+00    0.4835261708E-03
    0.5000000000E+07    0.1010463868E-04    0.6955626295E+00    0.3921653367E-02    0.6536174612E+00    0.4974440415E-03
    0.7000000000E+07    0.5216197941E-05    0.6955538658E+00    0.2820932974E-02    0.6574058006E+00    0.5068295000E-03
    0.9000000000E+07    0.3174629782E-05    0.6955471857E+00    0.2200517828E-02    0.6595363961E+00    0.5139548571E-03
    0.1100000000E+08    0.2133081061E-05    0.6955417716E+00    0.1802669924E-02    0.6609013895E+00    0.5197161564E-03
    0.1300000000E+08    0.1531229475E-05    0.6955372107E+00    0.1525989305E-02    0.6618502987E+00    0.5245615119E-03
    0.1500000000E+08    0.1152482983E-05    0.6955332653E+00    0.1322515703E-02    0.6625480575E+00    0.5287479921E-03
    0.1700000000E+08    0.8988410886E-06    0.6955297855E+00    0.1166633533E-02    0.6630826337E+00    0.5324370609E-03
    0.1900000000E+08    0.7207335952E-06    0.6955266706E+00    0.1043421185E-02    0.6635052251E+00    0.5357369128E-03
    0.2100000000E+08    0.5909063967E-06    0.6955238495E+00    0.9436000022E-03    0.6638476490E+00    0.5387236626E-03
    0.2300000000E+08    0.4933701993E-06    0.6955212702E+00    0.8610983153E-03    0.6641307179E+00    0.5414529299E-03
    0.2500000000E+08    0.4182436127E-06    0.6955188937E+00    0.7917767271E-03    0.6643686174E+00    0.5439666169E-03
    0.2700000000E+08    0.3591537479E-06    0.6955166895E+00    0.7327164585E-03    0.6645713484E+00    0.5462970923E-03
