  Pressure (Pa) 22mC5-500 (mol/kg) 24mC5-500 (mol/kg) 2mC6-500 (mol/kg) 3mC6-500 (mol/kg) C7-500 (mol/kg)
    0.1000000000E+01    0.2496775103E-05    0.6964905928E-01    0.1301576117E-04    0.5265536381E-05    0.4215878199E-02
    0.3000000000E+01    0.5989000830E-05    0.1740742483E+00    0.3018216858E-04    0.1358732997E-04    0.4298893277E-02
    0.5000000000E+01    0.8290191160E-05    0.2486289627E+00    0.4076521077E-04    0.2127756505E-04    0.4357073888E-02
    0.7000000000E+01    0.9891035523E-05    0.3045266401E+00    0.4771780417E-04    0.2866556692E-04    0.4400836491E-02
    0.9000000000E+01    0.1105181187E-04    0.3479921092E+00    0.5253868331E-04    0.3586295704E-04    0.4435049448E-02
    0.1100000000E+02    0.1192244770E-04    0.3827581036E+00    0.5605383307E-04    0.4292571468E-04    0.4462569025E-02
    0.1300000000E+02    0.1259460223E-04    0.4111989403E+00    0.5874518130E-04    0.4988720667E-04    0.4485203802E-02
    0.1500000000E+02    0.1312696978E-04    0.4348969402E+00    0.6090639381E-04    0.5676944337E-04    0.4504159122E-02
    0.1700000000E+02    0.1355856318E-04    0.4549472448E+00    0.6272262859E-04    0.6358795739E-04    0.4520270678E-02
    0.1900000000E+02    0.1391612098E-04    0.4721319161E+00    0.6431384503E-04    0.7035425368E-04    0.4534136766E-02
    0.2100000000E+02    0.1421844540E-04    0.4870243552E+00    0.6575946680E-04    0.7707717102E-04    0.4546197336E-02
    0.2300000000E+02    0.1447904852E-04    0.5000545428E+00    0.6711298959E-04    0.8376369700E-04    0.4556783334E-02
    0.2500000000E+02    0.1470782326E-04    0.5115512423E+00    0.6841092421E-04    0.9041948456E-04    0.4566148633E-02
    0.2700000000E+02    0.1491213024E-04    0.5217701281E+00    0.6967842843E-04    0.9704919458E-04    0.4574491331E-02
    0.2900000000E+02    0.1509752317E-04    0.5309130279E+00    0.7093294085E-04    0.1036567318E-03    0.4581968336E-02
    0.3100000000E+02    0.1526824400E-04    0.5391413894E+00    0.7218657545E-04    0.1102454121E-03    0.4588705595E-02
    0.3300000000E+02    0.1542756770E-04    0.5465858983E+00    0.7344772895E-04    0.1168180846E-03    0.4594805409E-02
    0.3500000000E+02    0.1557804675E-04    0.5533534718E+00    0.7472217714E-04    0.1233772227E-03    0.4600351764E-02
    0.3700000000E+02    0.1572168707E-04    0.5595324276E+00    0.7601383332E-04    0.1299249927E-03    0.4605414272E-02
    0.3900000000E+02    0.1586007668E-04    0.5651963597E+00    0.7732527951E-04    0.1364633076E-03    0.4610051145E-02
    0.4100000000E+02    0.1599448082E-04    0.5704070842E+00    0.7865814262E-04    0.1429938687E-03    0.4614311444E-02
    0.4300000000E+02    0.1612591323E-04    0.5752169048E+00    0.8001336317E-04    0.1495181989E-03    0.4618236824E-02
    0.4500000000E+02    0.1625519006E-04    0.5796703746E+00    0.8139138899E-04    0.1560376693E-03    0.4621862891E-02
    0.4700000000E+02    0.1638297112E-04    0.5838056810E+00    0.8279231566E-04    0.1625535212E-03    0.4625220265E-02
    0.4900000000E+02    0.1650979162E-04    0.5876557427E+00    0.8421598894E-04    0.1690668839E-03    0.4628335434E-02
    0.1000000000E+02    0.1151668051E-04    0.3662906942E+00    0.5442363176E-04    0.3940872889E-04    0.4449514964E-02
    0.3000000000E+02    0.1518449351E-04    0.5351327296E+00    0.7155927079E-04    0.1069532412E-03    0.4585422556E-02
    0.5000000000E+02    0.1657298107E-04    0.5894828733E+00    0.8493625796E-04    0.1723229576E-03    0.4629809508E-02
    0.7000000000E+02    0.1785709864E-04    0.6163102620E+00    0.1004139396E-03    0.2375245433E-03    0.4650849137E-02
    0.9000000000E+02    0.1924844364E-04    0.6322968728E+00    0.1175520007E-03    0.3032763553E-03    0.4662141421E-02
    0.1100000000E+03    0.2076683873E-04    0.6429090049E+00    0.1359326252E-03    0.3699698291E-03    0.4668300084E-02
    0.1300000000E+03    0.2240425970E-04    0.6504667107E+00    0.1553146079E-03    0.4378666214E-03    0.4671345659E-02
    0.1500000000E+03    0.2415041320E-04    0.6561226709E+00    0.1755652574E-03    0.5071658312E-03    0.4672310605E-02
    0.1700000000E+03    0.2599712889E-04    0.6605143825E+00    0.1966137733E-03    0.5780331715E-03    0.4671780064E-02
    0.1900000000E+03    0.2793870829E-04    0.6640230537E+00    0.2184257057E-03    0.6506156945E-03    0.4670111042E-02
    0.2100000000E+03    0.2997152332E-04    0.6668906336E+00    0.2409890245E-03    0.7250500753E-03    0.4667533486E-02
    0.2300000000E+03    0.3209356736E-04    0.6692780810E+00    0.2643062958E-03    0.8014676887E-03    0.4664201593E-02
    0.2500000000E+03    0.3430409492E-04    0.6712966357E+00    0.2883901435E-03    0.8799979570E-03    0.4660221841E-02
    0.2700000000E+03    0.3660335622E-04    0.6730256393E+00    0.3132605428E-03    0.9607707073E-03    0.4655669262E-02
    0.2900000000E+03    0.3899240763E-04    0.6745232038E+00    0.3389431762E-03    0.1043917940E-02    0.4650597330E-02
    0.3100000000E+03    0.4147297800E-04    0.6758328666E+00    0.3654684288E-03    0.1129575234E-02    0.4645044229E-02
    0.3300000000E+03    0.4404737569E-04    0.6769878904E+00    0.3928707821E-03    0.1217882932E-02    0.4639036957E-02
    0.3500000000E+03    0.4671842483E-04    0.6780141250E+00    0.4211884671E-03    0.1308987189E-02    0.4632594087E-02
    0.3700000000E+03    0.4948942327E-04    0.6789319633E+00    0.4504632902E-03    0.1403040939E-02    0.4625727662E-02
    0.3900000000E+03    0.5236411664E-04    0.6797577091E+00    0.4807405811E-03    0.1500204829E-02    0.4618444535E-02
    0.4100000000E+03    0.5534668465E-04    0.6805045528E+00    0.5120692295E-03    0.1600648143E-02    0.4610747309E-02
    0.4300000000E+03    0.5844173726E-04    0.6811832813E+00    0.5445017906E-03    0.1704549739E-02    0.4602635024E-02
    0.4500000000E+03    0.6165431865E-04    0.6818028007E+00    0.5780946458E-03    0.1812099018E-02    0.4594103642E-02
    0.4700000000E+03    0.6498991793E-04    0.6823705298E+00    0.6129082122E-03    0.1923496940E-02    0.4585146399E-02
    0.4900000000E+03    0.6845448572E-04    0.6828926978E+00    0.6490071943E-03    0.2038957103E-02    0.4575754054E-02
    0.1000000000E+03    0.1999209506E-04    0.6380898337E+00    0.1266053523E-03    0.3364870604E-03    0.4665702695E-02
    0.3000000000E+03    0.4022112139E-04    0.6751992421E+00    0.3520984110E-03    0.1086424182E-02    0.4647879013E-02
    0.5000000000E+03    0.7023712382E-04    0.6831383752E+00    0.6675601802E-03    0.2098281011E-02    0.4570891196E-02
    0.7000000000E+03    0.1145810043E-03    0.6865949198E+00    0.1126459697E-02    0.3564249707E-02    0.4446661240E-02
    0.9000000000E+03    0.1840767825E-03    0.6885283840E+00    0.1842197187E-02    0.5851276518E-02    0.4249538741E-02
    0.1100000000E+04    0.3024351064E-03    0.6897631331E+00    0.3060317158E-02    0.9750106495E-02    0.3918783873E-02
    0.1300000000E+04    0.5223230770E-03    0.6906196211E+00    0.5327307663E-02    0.1702649228E-01    0.3325873858E-02
    0.1500000000E+04    0.9245637464E-03    0.6912483654E+00    0.9493100368E-02    0.3046281420E-01    0.2311983036E-02
    0.1700000000E+04    0.1416547816E-02    0.6917293991E+00    0.1464222507E-01    0.4724275775E-01    0.1239643829E-02
    0.1900000000E+04    0.1721596012E-02    0.6921092006E+00    0.1792058690E-01    0.5819522630E-01    0.7922909107E-03
    0.2100000000E+04    0.1891847182E-02    0.6924166086E+00    0.1983298437E-01    0.6484020517E-01    0.7010150114E-03
    0.2300000000E+04    0.2023102987E-02    0.6926704632E+00    0.2135911620E-01    0.7030041278E-01    0.6883982046E-03
    0.2500000000E+04    0.2141175939E-02    0.6928835934E+00    0.2276426193E-01    0.7542605573E-01    0.6890335160E-03
    0.2700000000E+04    0.2251275177E-02    0.6930650362E+00    0.2410119982E-01    0.8038438293E-01    0.6916542244E-03
    0.2900000000E+04    0.2354656191E-02    0.6932213412E+00    0.2538171365E-01    0.8521014647E-01    0.6944309679E-03
    0.3100000000E+04    0.2451850604E-02    0.6933573709E+00    0.2661011317E-01    0.8991398656E-01    0.6970836782E-03
    0.3300000000E+04    0.2543241724E-02    0.6934768110E+00    0.2778924306E-01    0.9450197783E-01    0.6995839356E-03
    0.3500000000E+04    0.2629167408E-02    0.6935825058E+00    0.2892155802E-01    0.9897913413E-01    0.7019421861E-03
    0.3700000000E+04    0.2709939716E-02    0.6936766855E+00    0.3000932381E-01    0.1033500543E+00    0.7041729473E-03
    0.3900000000E+04    0.2785849759E-02    0.6937611230E+00    0.3105466217E-01    0.1076190546E+00    0.7062894409E-03
    0.4100000000E+04    0.2857169788E-02    0.6938372457E+00    0.3205956696E-01    0.1117902078E+00    0.7083030664E-03
    0.4300000000E+04    0.2924154694E-02    0.6939062154E+00    0.3302591441E-01    0.1158673631E+00    0.7102236122E-03
    0.4500000000E+04    0.2987043293E-02    0.6939689876E+00    0.3395547167E-01    0.1198541624E+00    0.7120595273E-03
    0.4700000000E+04    0.3046059504E-02    0.6940263549E+00    0.3484990449E-01    0.1237540539E+00    0.7138181517E-03
    0.4900000000E+04    0.3101413418E-02    0.6940789809E+00    0.3571078426E-01    0.1275703054E+00    0.7155059024E-03
    0.1000000000E+04    0.2347967203E-03    0.6892071125E+00    0.2364115539E-02    0.7520755519E-02    0.4106821191E-02
    0.3000000000E+04    0.2404001236E-02    0.6932916371E+00    0.2600223594E-01    0.8757688674E-01    0.6957764011E-03
    0.5000000000E+04    0.3127779129E-02    0.6941036942E+00    0.3612910862E-01    0.1294480409E+00    0.7163249905E-03
    0.7000000000E+04    0.3504771567E-02    0.6944477768E+00    0.4305353353E-01    0.1632856993E+00    0.7300578409E-03
    0.9000000000E+04    0.3678956871E-02    0.6946365372E+00    0.4788856360E-01    0.1914655912E+00    0.7404387473E-03
    0.1100000000E+05    0.3731317317E-02    0.6947550716E+00    0.5130178389E-01    0.2154805113E+00    0.7488115022E-03
    0.1300000000E+05    0.3709489649E-02    0.6948360102E+00    0.5371518166E-01    0.2363197368E+00    0.7558417938E-03
    0.1500000000E+05    0.3642472297E-02    0.6948945275E+00    0.5540694419E-01    0.2546676042E+00    0.7619092624E-03
    0.1700000000E+05    0.3548382924E-02    0.6949386275E+00    0.5656686050E-01    0.2710145368E+00    0.7672513993E-03
    0.1900000000E+05    0.3438759804E-02    0.6949729262E+00    0.5732814721E-01    0.2857225493E+00    0.7720268781E-03
    0.2100000000E+05    0.3321047063E-02    0.6950002696E+00    0.5778657263E-01    0.2990656676E+00    0.7763470767E-03
    0.2300000000E+05    0.3200080788E-02    0.6950225064E+00    0.5801239392E-01    0.3112558363E+00    0.7802932407E-03
    0.2500000000E+05    0.3079003805E-02    0.6950408883E+00    0.5805805495E-01    0.3224600753E+00    0.7839264916E-03
    0.2700000000E+05    0.2959842756E-02    0.6950562926E+00    0.5796329230E-01    0.3328121704E+00    0.7872939901E-03
    0.2900000000E+05    0.2843879861E-02    0.6950693516E+00    0.5775860642E-01    0.3424208377E+00    0.7904329021E-03
    0.3100000000E+05    0.2731896699E-02    0.6950805328E+00    0.5746767324E-01    0.3513755544E+00    0.7933730474E-03
    0.3300000000E+05    0.2624336512E-02    0.6950901883E+00    0.5710905190E-01    0.3597508042E+00    0.7961387230E-03
    0.3500000000E+05    0.2521413642E-02    0.6950985890E+00    0.5669741523E-01    0.3676092235E+00    0.7987499927E-03
    0.3700000000E+05    0.2423188099E-02    0.6951059459E+00    0.5624444977E-01    0.3750039705E+00    0.8012236204E-03
    0.3900000000E+05    0.2329616789E-02    0.6951124262E+00    0.5575952348E-01    0.3819805339E+00    0.8035737586E-03
    0.4100000000E+05    0.2240588941E-02    0.6951181638E+00    0.5525018718E-01    0.3885781336E+00    0.8058124665E-03
    0.4300000000E+05    0.2155950690E-02    0.6951232671E+00    0.5472255553E-01    0.3948308164E+00    0.8079501048E-03
    0.4500000000E+05    0.2075522177E-02    0.6951278249E+00    0.5418159941E-01    0.4007683236E+00    0.8099956416E-03
    0.4700000000E+05    0.1999109422E-02    0.6951319104E+00    0.5363137249E-01    0.4064167855E+00    0.8119568923E-03
    0.4900000000E+05    0.1926512529E-02    0.6951355849E+00    0.5307518834E-01    0.4117992809E+00    0.8138407100E-03
    0.1000000000E+05    0.3716825164E-02    0.6947019291E+00    0.4974227034E-01    0.2039229447E+00    0.7448251819E-03
    0.3000000000E+05    0.2787356669E-02    0.6950751527E+00    0.5762265720E-01    0.3469749746E+00    0.7919261898E-03
    0.5000000000E+05    0.1891582373E-02    0.6951372842E+00    0.5279573036E-01    0.4143972828E+00    0.8147554980E-03
    0.7000000000E+05    0.1347996591E-02    0.6951586540E+00    0.4733696775E-01    0.4563415354E+00    0.8301389861E-03
    0.9000000000E+05    0.1005786192E-02    0.6951675829E+00    0.4254650626E-01    0.4856257149E+00    0.8418140540E-03
    0.1100000000E+06    0.7783316755E-03    0.6951713734E+00    0.3850654618E-01    0.5074550568E+00    0.8512522571E-03
    0.1300000000E+06    0.6199189591E-03    0.6951726761E+00    0.3510898361E-01    0.5244456770E+00    0.8591889615E-03
    0.1500000000E+06    0.5052967166E-03    0.6951726542E+00    0.3223237348E-01    0.5380875728E+00    0.8660458264E-03
    0.1700000000E+06    0.4197275449E-03    0.6951718845E+00    0.2977436513E-01    0.5493029164E+00    0.8720876104E-03
    0.1900000000E+06    0.3541730775E-03    0.6951706786E+00    0.2765415573E-01    0.5586975893E+00    0.8774916841E-03
    0.2100000000E+06    0.3028493186E-03    0.6951692151E+00    0.2580892153E-01    0.5666881209E+00    0.8823828058E-03
    0.2300000000E+06    0.2619182989E-03    0.6951676014E+00    0.2418976132E-01    0.5735712863E+00    0.8868521285E-03
    0.2500000000E+06    0.2287531235E-03    0.6951659042E+00    0.2275833376E-01    0.5795647639E+00    0.8909683167E-03
    0.2700000000E+06    0.2015070743E-03    0.6951641660E+00    0.2148429041E-01    0.5848321150E+00    0.8947844077E-03
    0.2900000000E+06    0.1788513413E-03    0.6951624143E+00    0.2034336589E-01    0.5894987714E+00    0.8983422363E-03
    0.3100000000E+06    0.1598100676E-03    0.6951606674E+00    0.1931596402E-01    0.5936626258E+00    0.9016753938E-03
    0.3300000000E+06    0.1436535629E-03    0.6951589368E+00    0.1838610758E-01    0.5974012514E+00    0.9048112680E-03
    0.3500000000E+06    0.1298273848E-03    0.6951572305E+00    0.1754065225E-01    0.6007769481E+00    0.9077724879E-03
    0.3700000000E+06    0.1179041565E-03    0.6951555534E+00    0.1676869303E-01    0.6038403473E+00    0.9105779698E-03
    0.3900000000E+06    0.1075501592E-03    0.6951539084E+00    0.1606111171E-01    0.6066330357E+00    0.9132436907E-03
    0.4100000000E+06    0.9850174020E-04    0.6951522973E+00    0.1541022843E-01    0.6091894986E+00    0.9157832696E-03
    0.4300000000E+06    0.9054837299E-04    0.6951507210E+00    0.1480953090E-01    0.6115385798E+00    0.9182084111E-03
    0.4500000000E+06    0.8352031090E-04    0.6951491796E+00    0.1425346207E-01    0.6137045946E+00    0.9205292500E-03
    0.4700000000E+06    0.7727946252E-04    0.6951476730E+00    0.1373725216E-01    0.6157081881E+00    0.9227546209E-03
    0.4900000000E+06    0.7171256345E-04    0.6951462005E+00    0.1325678472E-01    0.6175670047E+00    0.9248922725E-03
    0.1000000000E+06    0.8812226933E-03    0.6951699018E+00    0.4043833218E-01    0.4972721776E+00    0.8467565713E-03
    0.3000000000E+06    0.1689293051E-03    0.6951615394E+00    0.1981654772E-01    0.5916382919E+00    0.9000350611E-03
    0.5000000000E+06    0.6915193978E-04    0.6951454769E+00    0.1302881974E-01    0.6184469473E+00    0.9259303710E-03
    0.7000000000E+06    0.3736890392E-04    0.6951325772E+00    0.9686916125E-02    0.6312079913E+00    0.9433915190E-03
    0.9000000000E+06    0.2336033854E-04    0.6951220474E+00    0.7702144272E-02    0.6386747335E+00    0.9566473650E-03
    0.1100000000E+07    0.1597854767E-04    0.6951131863E+00    0.6388591447E-02    0.6435757075E+00    0.9673652824E-03
    0.1300000000E+07    0.1161937989E-04    0.6951055426E+00    0.5455547455E-02    0.6470390716E+00    0.9763790764E-03
    0.1500000000E+07    0.8832855961E-05    0.6950988216E+00    0.4758865069E-02    0.6496161384E+00    0.9841670551E-03
    0.1700000000E+07    0.6944470010E-05    0.6950928226E+00    0.4218982580E-02    0.6516083072E+00    0.9910296332E-03
    0.1900000000E+07    0.5605992387E-05    0.6950874035E+00    0.3788413716E-02    0.6531942595E+00    0.9971681101E-03
    0.2100000000E+07    0.4622918314E-05    0.6950824605E+00    0.3437071871E-02    0.6544866423E+00    0.1002724097E-02
    0.2300000000E+07    0.3879693636E-05    0.6950779151E+00    0.3144973687E-02    0.6555599901E+00    0.1007801073E-02
    0.2500000000E+07    0.3304169159E-05    0.6950737069E+00    0.2898328874E-02    0.6564655840E+00    0.1012476994E-02
    0.2700000000E+07    0.2849413463E-05    0.6950697884E+00    0.2687314906E-02    0.6572398623E+00    0.1016812081E-02
    0.2900000000E+07    0.2483832087E-05    0.6950661215E+00    0.2504746566E-02    0.6579094272E+00    0.1020853836E-02
    0.3100000000E+07    0.2185524693E-05    0.6950626749E+00    0.2345246984E-02    0.6584941533E+00    0.1024640404E-02
    0.3300000000E+07    0.1938923505E-05    0.6950594232E+00    0.2204712751E-02    0.6590091872E+00    0.1028202888E-02
    0.3500000000E+07    0.1732716902E-05    0.6950563450E+00    0.2079958200E-02    0.6594662742E+00    0.1031566985E-02
    0.3700000000E+07    0.1558525903E-05    0.6950534223E+00    0.1968472577E-02    0.6598746621E+00    0.1034754180E-02
    0.3900000000E+07    0.1410037009E-05    0.6950506396E+00    0.1868250406E-02    0.6602417313E+00    0.1037782617E-02
    0.4100000000E+07    0.1282420059E-05    0.6950479840E+00    0.1777670546E-02    0.6605734434E+00    0.1040667765E-02
    0.4300000000E+07    0.1171928864E-05    0.6950454440E+00    0.1695408393E-02    0.6608746663E+00    0.1043422916E-02
    0.4500000000E+07    0.1075621877E-05    0.6950430097E+00    0.1620371079E-02    0.6611494140E+00    0.1046059584E-02
    0.4700000000E+07    0.9911633579E-06    0.6950406724E+00    0.1551648956E-02    0.6614010260E+00    0.1048587802E-02
    0.4900000000E+07    0.9166795856E-06    0.6950384246E+00    0.1488478762E-02    0.6616323031E+00    0.1051016371E-02
    0.1000000000E+07    0.1914567273E-04    0.6951174411E+00    0.6984648001E-02    0.6413555597E+00    0.9622598597E-03
    0.3000000000E+07    0.2327361573E-05    0.6950643723E+00    0.2422394645E-02    0.6582113558E+00    0.1022776931E-02
    0.5000000000E+07    0.8826924720E-06    0.6950373320E+00    0.1458770050E-02    0.6617410702E+00    0.1052195750E-02
    0.7000000000E+07    0.4756403898E-06    0.6950188745E+00    0.1041717276E-02    0.6632680629E+00    0.1072033497E-02
    0.9000000000E+07    0.3051426888E-06    0.6950047787E+00    0.8092969952E-03    0.6641194729E+00    0.1087093763E-02
    0.1100000000E+08    0.2173237157E-06    0.6949933404E+00    0.6612472088E-03    0.6646621969E+00    0.1099270699E-02
    0.1300000000E+08    0.1658926316E-06    0.6949836968E+00    0.5587407075E-03    0.6650382457E+00    0.1109511556E-02
    0.1500000000E+08    0.1330039413E-06    0.6949753495E+00    0.4835928237E-03    0.6653141287E+00    0.1118359734E-02
    0.1700000000E+08    0.1105796857E-06    0.6949679834E+00    0.4261567412E-03    0.6655251352E+00    0.1126156535E-02
    0.1900000000E+08    0.9452403370E-07    0.6949613869E+00    0.3808408669E-03    0.6656917255E+00    0.1133130657E-02
    0.2100000000E+08    0.8257648425E-07    0.6949554105E+00    0.3441814307E-03    0.6658265783E+00    0.1139442989E-02
    0.2300000000E+08    0.7340441693E-07    0.6949499449E+00    0.3139186818E-03    0.6659379680E+00    0.1145211097E-02
    0.2500000000E+08    0.6617958950E-07    0.6949449073E+00    0.2885157960E-03    0.6660315237E+00    0.1150523550E-02
    0.2700000000E+08    0.6036443729E-07    0.6949402340E+00    0.2668913264E-03    0.6661112080E+00    0.1155448765E-02
