  Pressure (Pa) 22mC5-500 (mol/kg) 24mC5-500 (mol/kg) 2mC6-500 (mol/kg) 3mC6-500 (mol/kg) C7-500 (mol/kg)
    0.1000000000E+01    0.2116138630E-05    0.1513963653E+00    0.5403468380E-05    0.2883204801E-05    0.4226377652E-02
    0.3000000000E+01    0.4117377780E-05    0.3164585119E+00    0.9965885475E-05    0.7473645926E-05    0.4297653333E-02
    0.5000000000E+01    0.5020749912E-05    0.4047063338E+00    0.1183622741E-04    0.1171796472E-04    0.4335901312E-02
    0.7000000000E+01    0.5515868368E-05    0.4596387768E+00    0.1288501400E-04    0.1579319577E-04    0.4360162134E-02
    0.9000000000E+01    0.5829089503E-05    0.4971260900E+00    0.1365062890E-04    0.1975965889E-04    0.4377043360E-02
    0.1100000000E+02    0.6052316645E-05    0.5243397258E+00    0.1432084006E-04    0.2364770469E-04    0.4389528605E-02
    0.1300000000E+02    0.6228151185E-05    0.5449940596E+00    0.1496811574E-04    0.2747546925E-04    0.4399171847E-02
    0.1500000000E+02    0.6378201683E-05    0.5612054971E+00    0.1562151353E-04    0.3125494008E-04    0.4406865140E-02
    0.1700000000E+02    0.6514151636E-05    0.5742683606E+00    0.1629228759E-04    0.3499459048E-04    0.4413158510E-02
    0.1900000000E+02    0.6642615229E-05    0.5850187155E+00    0.1698402182E-04    0.3870070478E-04    0.4418410281E-02
    0.2100000000E+02    0.6767460182E-05    0.5940206878E+00    0.1769694592E-04    0.4237811583E-04    0.4422864332E-02
    0.2300000000E+02    0.6890996311E-05    0.6016687139E+00    0.1842986799E-04    0.4603064705E-04    0.4426692675E-02
    0.2500000000E+02    0.7014617235E-05    0.6082468817E+00    0.1918106518E-04    0.4966139297E-04    0.4430020286E-02
    0.2700000000E+02    0.7139162310E-05    0.6139649974E+00    0.1994869687E-04    0.5327290554E-04    0.4432940274E-02
    0.2900000000E+02    0.7265128210E-05    0.6189813741E+00    0.2073099139E-04    0.5686732255E-04    0.4435523507E-02
    0.3100000000E+02    0.7392796353E-05    0.6234177165E+00    0.2152632364E-04    0.6044645883E-04    0.4437824940E-02
    0.3300000000E+02    0.7522311553E-05    0.6273691238E+00    0.2233323958E-04    0.6401187282E-04    0.4439887885E-02
    0.3500000000E+02    0.7653731570E-05    0.6309109837E+00    0.2315045565E-04    0.6756491623E-04    0.4441746970E-02
    0.3700000000E+02    0.7787058838E-05    0.6341038273E+00    0.2397684703E-04    0.7110677175E-04    0.4443430238E-02
    0.3900000000E+02    0.7922261057E-05    0.6369968173E+00    0.2481143157E-04    0.7463848226E-04    0.4444960655E-02
    0.4100000000E+02    0.8059284675E-05    0.6396302973E+00    0.2565335287E-04    0.7816097376E-04    0.4446357227E-02
    0.4300000000E+02    0.8198063779E-05    0.6420376840E+00    0.2650186430E-04    0.8167507357E-04    0.4447635827E-02
    0.4500000000E+02    0.8338525964E-05    0.6442468933E+00    0.2735631435E-04    0.8518152500E-04    0.4448809825E-02
    0.4700000000E+02    0.8480596207E-05    0.6462814268E+00    0.2821613376E-04    0.8868099932E-04    0.4449890570E-02
    0.4900000000E+02    0.8624199394E-05    0.6481612116E+00    0.2908082430E-04    0.9217410554E-04    0.4450887760E-02
    0.1000000000E+02    0.5948595617E-05    0.5117337428E+00    0.1399162631E-04    0.2171216078E-04    0.4383717166E-02
    0.3000000000E+02    0.7328737938E-05    0.6212655751E+00    0.2112712276E-04    0.5865869802E-04    0.4436706509E-02
    0.5000000000E+02    0.8696552757E-05    0.6490484871E+00    0.2951485756E-04    0.9391844593E-04    0.4451357677E-02
    0.7000000000E+02    0.1020794341E-04    0.6617298094E+00    0.3836987050E-04    0.1285834224E-03    0.4457893315E-02
    0.9000000000E+02    0.1180981097E-04    0.6689906832E+00    0.4743891607E-04    0.1630328377E-03    0.4461163162E-02
    0.1100000000E+03    0.1347329129E-04    0.6736942422E+00    0.5664332952E-04    0.1974614668E-03    0.4462723033E-02
    0.1300000000E+03    0.1518337145E-04    0.6769890877E+00    0.6595655977E-04    0.2319890058E-03    0.4463243457E-02
    0.1500000000E+03    0.1693187018E-04    0.6794255592E+00    0.7537060844E-04    0.2666975643E-03    0.4463067142E-02
    0.1700000000E+03    0.1871416263E-04    0.6813003684E+00    0.8488490623E-04    0.3016479630E-03    0.4462390013E-02
    0.1900000000E+03    0.2052759858E-04    0.6827876105E+00    0.9450207721E-04    0.3368879314E-03    0.4461333326E-02
    0.2100000000E+03    0.2237068851E-04    0.6839961712E+00    0.1042261638E-03    0.3724566666E-03    0.4459976678E-02
    0.2300000000E+03    0.2424265924E-04    0.6849976436E+00    0.1140618342E-03    0.4083875643E-03    0.4458374737E-02
    0.2500000000E+03    0.2614319883E-04    0.6858410340E+00    0.1240140159E-03    0.4447099521E-03    0.4456566412E-02
    0.2700000000E+03    0.2807230380E-04    0.6865610177E+00    0.1340877251E-03    0.4814502408E-03    0.4454580185E-02
    0.2900000000E+03    0.3003018423E-04    0.6871828207E+00    0.1442879906E-03    0.5186327197E-03    0.4452437391E-02
    0.3100000000E+03    0.3201720319E-04    0.6877252330E+00    0.1546198240E-03    0.5562801236E-03    0.4450154302E-02
    0.3300000000E+03    0.3403383701E-04    0.6882025378E+00    0.1650882140E-03    0.5944140495E-03    0.4447743512E-02
    0.3500000000E+03    0.3608064877E-04    0.6886257865E+00    0.1756981309E-03    0.6330552692E-03    0.4445214877E-02
    0.3700000000E+03    0.3815827030E-04    0.6890036635E+00    0.1864545384E-03    0.6722239710E-03    0.4442576174E-02
    0.3900000000E+03    0.4026738984E-04    0.6893430880E+00    0.1973624061E-03    0.7119399492E-03    0.4439833575E-02
    0.4100000000E+03    0.4240874358E-04    0.6896496404E+00    0.2084267239E-03    0.7522227562E-03    0.4436991984E-02
    0.4300000000E+03    0.4458310975E-04    0.6899278713E+00    0.2196525158E-03    0.7930918273E-03    0.4434055300E-02
    0.4500000000E+03    0.4679130466E-04    0.6901815288E+00    0.2310448538E-03    0.8345665840E-03    0.4431026603E-02
    0.4700000000E+03    0.4903418002E-04    0.6904137275E+00    0.2426088701E-03    0.8766665227E-03    0.4427908301E-02
    0.4900000000E+03    0.5131262128E-04    0.6906270771E+00    0.2543497704E-03    0.9194112900E-03    0.4424702249E-02
    0.1000000000E+03    0.1263500480E-04    0.6715695501E+00    0.5202651211E-04    0.1802411067E-03    0.4462103765E-02
    0.3000000000E+03    0.3102002391E-04    0.6874629698E+00    0.1494371490E-03    0.5373969336E-03    0.4451312523E-02
    0.5000000000E+03    0.5246546479E-04    0.6907273857E+00    0.2602882015E-03    0.9410316817E-03    0.4423066766E-02
    0.7000000000E+03    0.7763415033E-04    0.6921337724E+00    0.3897074825E-03    0.1412376029E-02    0.4385896481E-02
    0.9000000000E+03    0.1076553151E-03    0.6929163514E+00    0.5438458652E-03    0.1974242125E-02    0.4339754661E-02
    0.1100000000E+04    0.1441017911E-03    0.6934144855E+00    0.7309267403E-03    0.2656872551E-02    0.4282865618E-02
    0.1300000000E+04    0.1892145425E-03    0.6937592107E+00    0.9625640146E-03    0.3502955280E-02    0.4212167406E-02
    0.1500000000E+04    0.2462819013E-03    0.6940118139E+00    0.1255767284E-02    0.4575053955E-02    0.4122972394E-02
    0.1700000000E+04    0.3202722473E-03    0.6942047862E+00    0.1636240513E-02    0.5967811789E-02    0.4008170040E-02
    0.1900000000E+04    0.4188984555E-03    0.6943569544E+00    0.2143927657E-02    0.7828504572E-02    0.3856848675E-02
    0.2100000000E+04    0.5543651945E-03    0.6944799798E+00    0.2842143461E-02    0.1039100016E-01    0.3652121733E-02
    0.2300000000E+04    0.7458903521E-03    0.6945814699E+00    0.3830852914E-02    0.1402552479E-01    0.3368346742E-02
    0.2500000000E+04    0.1021554097E-02    0.6946665987E+00    0.5256827194E-02    0.1927820546E-01    0.2970511530E-02
    0.2700000000E+04    0.1411400350E-02    0.6947390075E+00    0.7279194467E-02    0.2674863730E-01    0.2428177384E-02
    0.2900000000E+04    0.1911308192E-02    0.6948013328E+00    0.9883741557E-02    0.3641016870E-01    0.1770266621E-02
    0.3100000000E+04    0.2429124569E-02    0.6948555305E+00    0.1260114827E-01    0.4656083310E-01    0.1149115312E-02
    0.3300000000E+04    0.2839596324E-02    0.6949030823E+00    0.1478289640E-01    0.5480999051E-01    0.7336138155E-03
    0.3500000000E+04    0.3116630151E-02    0.6949451306E+00    0.1628655041E-01    0.6060649294E-01    0.5292384229E-03
    0.3700000000E+04    0.3308574150E-02    0.6949825710E+00    0.1735667402E-01    0.6483155223E-01    0.4460231957E-03
    0.3900000000E+04    0.3459079002E-02    0.6950161148E+00    0.1821712930E-01    0.6830300145E-01    0.4152686132E-03
    0.4100000000E+04    0.3590339612E-02    0.6950463346E+00    0.1898230926E-01    0.7144087204E-01    0.4046728245E-03
    0.4300000000E+04    0.3711698403E-02    0.6950736961E+00    0.1970044660E-01    0.7442263760E-01    0.4014765160E-03
    0.4500000000E+04    0.3826873209E-02    0.6950985822E+00    0.2039067502E-01    0.7731855698E-01    0.4009439130E-03
    0.4700000000E+04    0.3937357607E-02    0.6951213105E+00    0.2106057728E-01    0.8015616636E-01    0.4013531091E-03
    0.4900000000E+04    0.4043794017E-02    0.6951421466E+00    0.2171330422E-01    0.8294656252E-01    0.4020818280E-03
    0.1000000000E+04    0.1249545137E-03    0.6931903348E+00    0.6326410149E-03    0.2298155820E-02    0.4312813009E-02
    0.3000000000E+04    0.2176952748E-02    0.6948293457E+00    0.1127454175E-01    0.4159373527E-01    0.1441978380E-02
    0.5000000000E+04    0.4095599856E-02    0.6951519264E+00    0.2203371599E-01    0.8432568273E-01    0.4024888085E-03
    0.7000000000E+04    0.4962791020E-02    0.6952876828E+00    0.2772272045E-01    0.1099674831E+00    0.4100517685E-03
    0.9000000000E+04    0.5572632917E-02    0.6953616784E+00    0.3227895451E-01    0.1324769253E+00    0.4158408666E-03
    0.1100000000E+05    0.5995156379E-02    0.6954078441E+00    0.3596326581E-01    0.1524733527E+00    0.4205175531E-03
    0.1300000000E+05    0.6279495710E-02    0.6954391580E+00    0.3896450109E-01    0.1704161426E+00    0.4244484786E-03
    0.1500000000E+05    0.6460837999E-02    0.6954616422E+00    0.4142261433E-01    0.1866544194E+00    0.4278435248E-03
    0.1700000000E+05    0.6564805374E-02    0.6954784662E+00    0.4344331841E-01    0.2014586574E+00    0.4308343235E-03
    0.1900000000E+05    0.6610323790E-02    0.6954914542E+00    0.4510780489E-01    0.2150419685E+00    0.4335089847E-03
    0.2100000000E+05    0.6611546204E-02    0.6955017286E+00    0.4647935579E-01    0.2275748024E+00    0.4359294440E-03
    0.2300000000E+05    0.6579169086E-02    0.6955100171E+00    0.4760794219E-01    0.2391953223E+00    0.4381409311E-03
    0.2500000000E+05    0.6521350514E-02    0.6955168111E+00    0.4853348652E-01    0.2500168729E+00    0.4401775034E-03
    0.2700000000E+05    0.6444361098E-02    0.6955224547E+00    0.4928821816E-01    0.2601334515E+00    0.4420654590E-03
    0.2900000000E+05    0.6353052373E-02    0.6955271952E+00    0.4989840196E-01    0.2696237791E+00    0.4438255354E-03
    0.3100000000E+05    0.6251198374E-02    0.6955312150E+00    0.5038562491E-01    0.2785543746E+00    0.4454743800E-03
    0.3300000000E+05    0.6141747739E-02    0.6955346513E+00    0.5076776681E-01    0.2869819063E+00    0.4470255631E-03
    0.3500000000E+05    0.6027011824E-02    0.6955376094E+00    0.5105974134E-01    0.2949550128E+00    0.4484902954E-03
    0.3700000000E+05    0.5908806472E-02    0.6955401712E+00    0.5127406810E-01    0.3025157284E+00    0.4498779467E-03
    0.3900000000E+05    0.5788559815E-02    0.6955424013E+00    0.5142131879E-01    0.3097006101E+00    0.4511964300E-03
    0.4100000000E+05    0.5667394941E-02    0.6955443516E+00    0.5151046839E-01    0.3165416380E+00    0.4524524894E-03
    0.4300000000E+05    0.5546193748E-02    0.6955460636E+00    0.5154917408E-01    0.3230669400E+00    0.4536519206E-03
    0.4500000000E+05    0.5425646627E-02    0.6955475717E+00    0.5154399848E-01    0.3293013804E+00    0.4547997416E-03
    0.4700000000E+05    0.5306291342E-02    0.6955489039E+00    0.5150058973E-01    0.3352670415E+00    0.4559003260E-03
    0.4900000000E+05    0.5188543651E-02    0.6955500835E+00    0.5142382772E-01    0.3409836203E+00    0.4569575098E-03
    0.1000000000E+05    0.5803846452E-02    0.6953871840E+00    0.3421693498E-01    0.1427575070E+00    0.4182902280E-03
    0.3000000000E+05    0.6303242365E-02    0.6955292857E+00    0.5015618880E-01    0.2741552943E+00    0.4446629509E-03
    0.5000000000E+05    0.5130375288E-02    0.6955506224E+00    0.5137428402E-01    0.3437540892E+00    0.4574708993E-03
    0.7000000000E+05    0.4094757693E-02    0.6955568023E+00    0.4940762904E-01    0.3895383245E+00    0.4661057851E-03
    0.9000000000E+05    0.3306177896E-02    0.6955585781E+00    0.4666813781E-01    0.4227858738E+00    0.4726606110E-03
    0.1100000000E+06    0.2713247284E-02    0.6955586435E+00    0.4385343113E-01    0.4483518370E+00    0.4779602855E-03
    0.1300000000E+06    0.2261985760E-02    0.6955579452E+00    0.4118730537E-01    0.4687693777E+00    0.4824172408E-03
    0.1500000000E+06    0.1912577216E-02    0.6955568835E+00    0.3873563712E-01    0.4855248523E+00    0.4862680390E-03
    0.1700000000E+06    0.1637304277E-02    0.6955556481E+00    0.3650680544E-01    0.4995622448E+00    0.4896612485E-03
    0.1900000000E+06    0.1416928856E-02    0.6955543364E+00    0.3448809130E-01    0.5115163052E+00    0.4926964153E-03
    0.2100000000E+06    0.1237931381E-02    0.6955530006E+00    0.3265991426E-01    0.5218327115E+00    0.4954435662E-03
    0.2300000000E+06    0.1090649639E-02    0.6955516696E+00    0.3100157842E-01    0.5308352055E+00    0.4979538699E-03
    0.2500000000E+06    0.9680559344E-03    0.6955503594E+00    0.2949354191E-01    0.5387655079E+00    0.5002658738E-03
    0.2700000000E+06    0.8649515733E-03    0.6955490790E+00    0.2811820771E-01    0.5458082514E+00    0.5024093547E-03
    0.2900000000E+06    0.7774296080E-03    0.6955478329E+00    0.2686008026E-01    0.5521071943E+00    0.5044078009E-03
    0.3100000000E+06    0.7025107900E-03    0.6955466232E+00    0.2570565878E-01    0.5577761221E+00    0.5062800732E-03
    0.3300000000E+06    0.6378927378E-03    0.6955454504E+00    0.2464323394E-01    0.5629063888E+00    0.5080415497E-03
    0.3500000000E+06    0.5817742593E-03    0.6955443141E+00    0.2366266208E-01    0.5675722598E+00    0.5097049371E-03
    0.3700000000E+06    0.5327303706E-03    0.6955432134E+00    0.2275514911E-01    0.5718347797E+00    0.5112808577E-03
    0.3900000000E+06    0.4896220653E-03    0.6955421469E+00    0.2191305644E-01    0.5757446222E+00    0.5127782833E-03
    0.4100000000E+06    0.4515302720E-03    0.6955411135E+00    0.2112973208E-01    0.5793442265E+00    0.5142048616E-03
    0.4300000000E+06    0.4177068930E-03    0.6955401115E+00    0.2039936609E-01    0.5826694211E+00    0.5155671659E-03
    0.4500000000E+06    0.3875380742E-03    0.6955391394E+00    0.1971686807E-01    0.5857506738E+00    0.5168708876E-03
    0.4700000000E+06    0.3605163429E-03    0.6955381959E+00    0.1907776366E-01    0.5886140671E+00    0.5181209882E-03
    0.4900000000E+06    0.3362192554E-03    0.6955372796E+00    0.1847810725E-01    0.5912820657E+00    0.5193218193E-03
    0.1000000000E+06    0.2988945127E-02    0.6955587458E+00    0.4525051478E-01    0.4363371266E+00    0.4754358299E-03
    0.3000000000E+06    0.7385522138E-03    0.6955472235E+00    0.2627067744E-01    0.5550142460E+00    0.5053586768E-03
    0.5000000000E+06    0.3249795450E-03    0.6955368311E+00    0.1819196528E-01    0.5925489759E+00    0.5199049761E-03
    0.7000000000E+06    0.1816545495E-03    0.6955289980E+00    0.1387546209E-01    0.6112157844E+00    0.5297140698E-03
    0.9000000000E+06    0.1157354960E-03    0.6955227575E+00    0.1120173849E-01    0.6224075608E+00    0.5371609995E-03
    0.1100000000E+07    0.8009124274E-04    0.6955175734E+00    0.9385832786E-02    0.6298691080E+00    0.5431822893E-03
    0.1300000000E+07    0.5867542892E-04    0.6955131373E+00    0.8073063324E-02    0.6351996075E+00    0.5482462899E-03
    0.1500000000E+07    0.4481626766E-04    0.6955092579E+00    0.7080263624E-02    0.6391979396E+00    0.5526216770E-03
    0.1700000000E+07    0.3533791597E-04    0.6955058090E+00    0.6303424552E-02    0.6423079098E+00    0.5564772035E-03
    0.1900000000E+07    0.2857260133E-04    0.6955027029E+00    0.5679148895E-02    0.6447958642E+00    0.5599259478E-03
    0.2100000000E+07    0.2357647111E-04    0.6954998764E+00    0.5166611016E-02    0.6468313486E+00    0.5630474604E-03
    0.2300000000E+07    0.1978290899E-04    0.6954972822E+00    0.4738341242E-02    0.6485274275E+00    0.5658998713E-03
    0.2500000000E+07    0.1683512199E-04    0.6954948843E+00    0.4375181521E-02    0.6499623975E+00    0.5685269737E-03
    0.2700000000E+07    0.1449939045E-04    0.6954926544E+00    0.4063365320E-02    0.6511921972E+00    0.5709625971E-03
    0.2900000000E+07    0.1261744338E-04    0.6954905699E+00    0.3792747100E-02    0.6522578562E+00    0.5732334276E-03
    0.3100000000E+07    0.1107902121E-04    0.6954886127E+00    0.3555686107E-02    0.6531901510E+00    0.5753608939E-03
    0.3300000000E+07    0.9805408572E-05    0.6954867677E+00    0.3346318878E-02    0.6540126191E+00    0.5773624685E-03
    0.3500000000E+07    0.8739197149E-05    0.6954850224E+00    0.3160071244E-02    0.6547435692E+00    0.5792525883E-03
    0.3700000000E+07    0.7837723979E-05    0.6954833663E+00    0.2993322676E-02    0.6553974561E+00    0.5810433225E-03
    0.3900000000E+07    0.7068751170E-05    0.6954817906E+00    0.2843170245E-02    0.6559858443E+00    0.5827448650E-03
    0.4100000000E+07    0.6407553033E-05    0.6954802876E+00    0.2707259356E-02    0.6565180954E+00    0.5843659054E-03
    0.4300000000E+07    0.5834910100E-05    0.6954788507E+00    0.2583660203E-02    0.6570018691E+00    0.5859139123E-03
    0.4500000000E+07    0.5335701209E-05    0.6954774742E+00    0.2470776180E-02    0.6574434928E+00    0.5873953525E-03
    0.4700000000E+07    0.4897898240E-05    0.6954761532E+00    0.2367274993E-02    0.6578482391E+00    0.5888158636E-03
    0.4900000000E+07    0.4511837127E-05    0.6954748831E+00    0.2272036175E-02    0.6582205369E+00    0.5901803902E-03
    0.1000000000E+07    0.9547260523E-04    0.6955200564E+00    0.1021448040E-01    0.6264773558E+00    0.5403140664E-03
    0.3000000000E+07    0.1181080814E-04    0.6954895764E+00    0.3670423444E-02    0.6527390607E+00    0.5743139088E-03
    0.5000000000E+07    0.4335701221E-05    0.6954742659E+00    0.2227212780E-02    0.6583957117E+00    0.5908430423E-03
    0.7000000000E+07    0.2230672911E-05    0.6954638534E+00    0.1595746754E-02    0.6608609353E+00    0.6019893300E-03
    0.9000000000E+07    0.1356647230E-05    0.6954559157E+00    0.1242016707E-02    0.6622403255E+00    0.6104514581E-03
    0.1100000000E+08    0.9121392269E-06    0.6954494817E+00    0.1016009926E-02    0.6631214329E+00    0.6172935991E-03
    0.1300000000E+08    0.6557471304E-06    0.6954440613E+00    0.8592144032E-03    0.6637327796E+00    0.6230479464E-03
    0.1500000000E+08    0.4945668054E-06    0.6954393722E+00    0.7441036099E-03    0.6641817177E+00    0.6280198019E-03
    0.1700000000E+08    0.3866854148E-06    0.6954352362E+00    0.6560300888E-03    0.6645253272E+00    0.6324009240E-03
    0.1900000000E+08    0.3109466579E-06    0.6954315336E+00    0.5864846114E-03    0.6647967545E+00    0.6363198069E-03
    0.2100000000E+08    0.2557362471E-06    0.6954281802E+00    0.5301869617E-03    0.6650165636E+00    0.6398668462E-03
    0.2300000000E+08    0.2142480961E-06    0.6954251142E+00    0.4836876458E-03    0.6651981878E+00    0.6431080968E-03
    0.2500000000E+08    0.1822796475E-06    0.6954222890E+00    0.4446381134E-03    0.6653507734E+00    0.6460933224E-03
    0.2700000000E+08    0.1571222735E-06    0.6954196686E+00    0.4113841973E-03    0.6654807626E+00    0.6488609647E-03
