  Pressure (Pa) 22mC5-500 (mol/kg) 24mC5-500 (mol/kg) 2mC6-500 (mol/kg) 3mC6-500 (mol/kg) C7-500 (mol/kg)
    0.1000000000E+01    0.2483887375E-05    0.6964558195E-01    0.1289079204E-04    0.2095214349E-05    0.4254073932E-02
    0.3000000000E+01    0.5958937569E-05    0.1740524482E+00    0.2989272362E-04    0.5452869821E-05    0.4390578007E-02
    0.5000000000E+01    0.8244662941E-05    0.2485843424E+00    0.4032862278E-04    0.8562824725E-05    0.4488147822E-02
    0.7000000000E+01    0.9830780748E-05    0.3044594957E+00    0.4714113721E-04    0.1155150625E-04    0.4561970385E-02
    0.9000000000E+01    0.1097724788E-04    0.3479041797E+00    0.5182560926E-04    0.1446210374E-04    0.4619944050E-02
    0.1100000000E+02    0.1183381733E-04    0.3826514434E+00    0.5520625001E-04    0.1731638005E-04    0.4666778544E-02
    0.1300000000E+02    0.1249203541E-04    0.4110755315E+00    0.5776388491E-04    0.2012735279E-04    0.4705472123E-02
    0.1500000000E+02    0.1301051725E-04    0.4347585698E+00    0.5979143249E-04    0.2290363293E-04    0.4738027981E-02
    0.1700000000E+02    0.1342821760E-04    0.4547954813E+00    0.6147351676E-04    0.2565131079E-04    0.4765836946E-02
    0.1900000000E+02    0.1377183098E-04    0.4719681217E+00    0.6292970092E-04    0.2837490561E-04    0.4789895667E-02
    0.2100000000E+02    0.1406012539E-04    0.4868497094E+00    0.6423910620E-04    0.3107789431E-04    0.4810937517E-02
    0.2300000000E+02    0.1430658582E-04    0.4998700680E+00    0.6545499179E-04    0.3376302860E-04    0.4829514464E-02
    0.2500000000E+02    0.1452108336E-04    0.5113578268E+00    0.6661367976E-04    0.3643253638E-04    0.4846050119E-02
    0.2700000000E+02    0.1471096074E-04    0.5215685471E+00    0.6774017450E-04    0.3908825540E-04    0.4860875158E-02
    0.2900000000E+02    0.1488175678E-04    0.5307039603E+00    0.6885178789E-04    0.4173172561E-04    0.4874251601E-02
    0.3100000000E+02    0.1503770092E-04    0.5389254327E+00    0.6996052771E-04    0.4436425459E-04    0.4886389838E-02
    0.3300000000E+02    0.1518205751E-04    0.5463635803E+00    0.7107470041E-04    0.4698696549E-04    0.4897460820E-02
    0.3500000000E+02    0.1531736982E-04    0.5531252610E+00    0.7220000407E-04    0.4960083265E-04    0.4907604934E-02
    0.3700000000E+02    0.1544563581E-04    0.5592987415E+00    0.7334028429E-04    0.5220670874E-04    0.4916938584E-02
    0.3900000000E+02    0.1556843648E-04    0.5649575720E+00    0.7449806351E-04    0.5480534579E-04    0.4925559136E-02
    0.4100000000E+02    0.1568703085E-04    0.5701635302E+00    0.7567491556E-04    0.5739741165E-04    0.4933548681E-02
    0.4300000000E+02    0.1580242708E-04    0.5749688868E+00    0.7687173331E-04    0.5998350311E-04    0.4940976942E-02
    0.4500000000E+02    0.1591543631E-04    0.5794181662E+00    0.7808892139E-04    0.6256415644E-04    0.4947903531E-02
    0.4700000000E+02    0.1602671378E-04    0.5835495300E+00    0.7932653584E-04    0.6513985602E-04    0.4954379735E-02
    0.4900000000E+02    0.1613679054E-04    0.5873958750E+00    0.8058438604E-04    0.6771104137E-04    0.4960449933E-02
    0.1000000000E+02    0.1143506104E-04    0.3661931423E+00    0.5364314558E-04    0.1589533255E-04    0.4644536831E-02
    0.3000000000E+02    0.1496136195E-04    0.5349201473E+00    0.6940592588E-04    0.4304928370E-04    0.4880464004E-02
    0.5000000000E+02    0.1619151683E-04    0.5892212256E+00    0.8122079127E-04    0.6899506776E-04    0.4963345041E-02
    0.7000000000E+02    0.1729294937E-04    0.6160211124E+00    0.9488213691E-04    0.9451982044E-04    0.5007099934E-02
    0.9000000000E+02    0.1847432060E-04    0.6319897961E+00    0.1099230441E-03    0.1198974094E-03    0.5034548719E-02
    0.1100000000E+03    0.1975337331E-04    0.6425891195E+00    0.1259056831E-03    0.1452687072E-03    0.5053467188E-02
    0.1300000000E+03    0.2112020574E-04    0.6501370958E+00    0.1425701817E-03    0.1707204120E-03    0.5067279186E-02
    0.1500000000E+03    0.2256266030E-04    0.6557853363E+00    0.1597650227E-03    0.1963120904E-03    0.5077746412E-02
    0.1700000000E+03    0.2407064249E-04    0.6601707208E+00    0.1773998290E-03    0.2220879399E-03    0.5085876392E-02
    0.1900000000E+03    0.2563643391E-04    0.6636740746E+00    0.1954195210E-03    0.2480827076E-03    0.5092291282E-02
    0.2100000000E+03    0.2725426902E-04    0.6665370959E+00    0.2137901939E-03    0.2743249822E-03    0.5097398314E-02
    0.2300000000E+03    0.2891987023E-04    0.6689205717E+00    0.2324911448E-03    0.3008391679E-03    0.5101476519E-02
    0.2500000000E+03    0.3063007381E-04    0.6709356198E+00    0.2515102016E-03    0.3276467363E-03    0.5104724259E-02
    0.2700000000E+03    0.3238255145E-04    0.6726614928E+00    0.2708408872E-03    0.3547670591E-03    0.5107286871E-02
    0.2900000000E+03    0.3417560754E-04    0.6741562355E+00    0.2904806429E-03    0.3822179832E-03    0.5109273557E-02
    0.3100000000E+03    0.3600803183E-04    0.6754633345E+00    0.3104296835E-03    0.4100162409E-03    0.5110768131E-02
    0.3300000000E+03    0.3787899175E-04    0.6766160122E+00    0.3306902425E-03    0.4381777513E-03    0.5111836091E-02
    0.3500000000E+03    0.3978795310E-04    0.6776400867E+00    0.3512660633E-03    0.4667178472E-03    0.5112529423E-02
    0.3700000000E+03    0.4173462091E-04    0.6785559253E+00    0.3721620506E-03    0.4956514500E-03    0.5112889941E-02
    0.3900000000E+03    0.4371889508E-04    0.6793798111E+00    0.3933840283E-03    0.5249932070E-03    0.5112951668E-02
    0.4100000000E+03    0.4574083662E-04    0.6801249173E+00    0.4149385690E-03    0.5547576023E-03    0.5112742560E-02
    0.4300000000E+03    0.4780064191E-04    0.6808020164E+00    0.4368328739E-03    0.5849590471E-03    0.5112285790E-02
    0.4500000000E+03    0.4989862276E-04    0.6814200025E+00    0.4590746871E-03    0.6156119552E-03    0.5111600701E-02
    0.4700000000E+03    0.5203519110E-04    0.6819862844E+00    0.4816722354E-03    0.6467308075E-03    0.5110703544E-02
    0.4900000000E+03    0.5421084688E-04    0.6825070823E+00    0.5046341856E-03    0.6783302072E-03    0.5109608036E-02
    0.1000000000E+03    0.1910209088E-04    0.6377758727E+00    0.1178161803E-03    0.1325775868E-03    0.5044803985E-02
    0.3000000000E+03    0.3508695850E-04    0.6748309624E+00    0.3004164034E-03    0.3960726843E-03    0.5110077900E-02
    0.5000000000E+03    0.5531351054E-04    0.6827521013E+00    0.5162546329E-03    0.6943147215E-03    0.5108989607E-02
    0.7000000000E+03    0.7959898526E-04    0.6861981613E+00    0.7702477160E-03    0.1043019545E-02    0.5088238579E-02
    0.9000000000E+03    0.1088648308E-03    0.6881242716E+00    0.1073815952E-02    0.1459203657E-02    0.5053810127E-02
    0.1100000000E+04    0.1446045510E-03    0.6893533636E+00    0.1443115233E-02    0.1965502096E-02    0.5005946254E-02
    0.1300000000E+04    0.1890222945E-03    0.6902052541E+00    0.1901265073E-02    0.2593943240E-02    0.4942465236E-02
    0.1500000000E+04    0.2453919616E-03    0.6908301239E+00    0.2482303296E-02    0.3391577769E-02    0.4859091016E-02
    0.1700000000E+04    0.3186890217E-03    0.6913078075E+00    0.3237837142E-02    0.4429753796E-02    0.4748859201E-02
    0.1900000000E+04    0.4166661493E-03    0.6916846568E+00    0.4248285746E-02    0.5819769897E-02    0.4600787532E-02
    0.2100000000E+04    0.5516227987E-03    0.6919894244E+00    0.5641403793E-02    0.7738739725E-02    0.4397676442E-02
    0.2300000000E+04    0.7429401395E-03    0.6922408900E+00    0.7619022251E-02    0.1046721974E-01    0.4113294335E-02
    0.2500000000E+04    0.1018798312E-02    0.6924518380E+00    0.1047605298E-01    0.1441713487E-01    0.3711994486E-02
    0.2700000000E+04    0.1408489128E-02    0.6926312716E+00    0.1452342305E-01    0.2002866469E-01    0.3164090914E-02
    0.2900000000E+04    0.1904524779E-02    0.6927857147E+00    0.1969798250E-01    0.2723401432E-01    0.2503862560E-02
    0.3100000000E+04    0.2410730948E-02    0.6929200090E+00    0.2501813352E-01    0.3469555395E-01    0.1890908374E-02
    0.3300000000E+04    0.2805667160E-02    0.6930378239E+00    0.2922415195E-01    0.4066894907E-01    0.1489969329E-02
    0.3500000000E+04    0.3070233267E-02    0.6931419902E+00    0.3210321982E-01    0.4483992859E-01    0.1297087603E-02
    0.3700000000E+04    0.3253837707E-02    0.6932347268E+00    0.3415636092E-01    0.4788705240E-01    0.1220636475E-02
    0.3900000000E+04    0.3398396924E-02    0.6933177975E+00    0.3581399632E-01    0.5040063668E-01    0.1193930274E-02
    0.4100000000E+04    0.3524788095E-02    0.6933926218E+00    0.3729151475E-01    0.5267750211E-01    0.1186185423E-02
    0.4300000000E+04    0.3641736875E-02    0.6934603548E+00    0.3867906432E-01    0.5484209996E-01    0.1185333818E-02
    0.4500000000E+04    0.3752717429E-02    0.6935219462E+00    0.4001240441E-01    0.5694366405E-01    0.1186910100E-02
    0.4700000000E+04    0.3859136230E-02    0.6935781838E+00    0.4130580180E-01    0.5900159503E-01    0.1189294011E-02
    0.4900000000E+04    0.3961608545E-02    0.6936297268E+00    0.4256527968E-01    0.6102382102E-01    0.1191902639E-02
    0.1000000000E+04    0.1258075091E-03    0.6888000095E+00    0.1249003972E-02    0.1699360143E-02    0.5031646939E-02
    0.3000000000E+04    0.2165336698E-02    0.6928551282E+00    0.2243247326E-01    0.3106028124E-01    0.2178252087E-02
    0.5000000000E+04    0.4011468323E-02    0.6936539147E+00    0.4318325676E-01    0.6202273493E-01    0.1193219748E-02
    0.7000000000E+04    0.4845404674E-02    0.6939892237E+00    0.5413255138E-01    0.8053759909E-01    0.1216006475E-02
    0.9000000000E+04    0.5434186469E-02    0.6941713850E+00    0.6289409575E-01    0.9672701790E-01    0.1233286469E-02
    0.1100000000E+05    0.5847704658E-02    0.6942846125E+00    0.7000417376E-01    0.1110894407E+00    0.1247223473E-02
    0.1300000000E+05    0.6133561167E-02    0.6943611036E+00    0.7583971852E-01    0.1239840718E+00    0.1258925697E-02
    0.1500000000E+05    0.6325035931E-02    0.6944157878E+00    0.8067331270E-01    0.1356773739E+00    0.1269025142E-02
    0.1700000000E+05    0.6445897353E-02    0.6944565164E+00    0.8470669544E-01    0.1463716037E+00    0.1277917166E-02
    0.1900000000E+05    0.6513432661E-02    0.6944878037E+00    0.8809219296E-01    0.1562233669E+00    0.1285865911E-02
    0.2100000000E+05    0.6540413532E-02    0.6945124245E+00    0.9094684786E-01    0.1653560476E+00    0.1293056789E-02
    0.2300000000E+05    0.6536403985E-02    0.6945321756E+00    0.9336198426E-01    0.1738683576E+00    0.1299625046E-02
    0.2500000000E+05    0.6508650342E-02    0.6945482700E+00    0.9540983598E-01    0.1818403518E+00    0.1305672430E-02
    0.2700000000E+05    0.6462698874E-02    0.6945615548E+00    0.9714823510E-01    0.1893377496E+00    0.1311277446E-02
    0.2900000000E+05    0.6402832087E-02    0.6945726389E+00    0.9862399040E-01    0.1964150949E+00    0.1316501964E-02
    0.3100000000E+05    0.6332381785E-02    0.6945819707E+00    0.9987536233E-01    0.2031181063E+00    0.1321395620E-02
    0.3300000000E+05    0.6253956910E-02    0.6945898870E+00    0.1009339035E+00    0.2094854508E+00    0.1325998862E-02
    0.3500000000E+05    0.6169611500E-02    0.6945966459E+00    0.1018258457E+00    0.2155500995E+00    0.1330345087E-02
    0.3700000000E+05    0.6080969939E-02    0.6946024479E+00    0.1025731594E+00    0.2213403782E+00    0.1334462201E-02
    0.3900000000E+05    0.5989321356E-02    0.6946074511E+00    0.1031943699E+00    0.2268807899E+00    0.1338373763E-02
    0.4100000000E+05    0.5895691457E-02    0.6946117818E+00    0.1037051957E+00    0.2321926651E+00    0.1342099845E-02
    0.4300000000E+05    0.5800897663E-02    0.6946155419E+00    0.1041190498E+00    0.2372946815E+00    0.1345657695E-02
    0.4500000000E+05    0.5705591789E-02    0.6946188146E+00    0.1044474387E+00    0.2422032831E+00    0.1349062240E-02
    0.4700000000E+05    0.5610293306E-02    0.6946216682E+00    0.1047002820E+00    0.2469330203E+00    0.1352326490E-02
    0.4900000000E+05    0.5515415461E-02    0.6946241594E+00    0.1048861697E+00    0.2514968283E+00    0.1355461853E-02
    0.1000000000E+05    0.5659469610E-02    0.6942339952E+00    0.6662905842E-01    0.1041115528E+00    0.1240588006E-02
    0.3000000000E+05    0.6368752086E-02    0.6945775006E+00    0.9927561315E-01    0.1998108280E+00    0.1318987435E-02
    0.5000000000E+05    0.5468239539E-02    0.6946252842E+00    0.1049563786E+00    0.2537201669E+00    0.1356984391E-02
    0.7000000000E+05    0.4596236954E-02    0.6946369960E+00    0.1042258961E+00    0.2917247546E+00    0.1382587725E-02
    0.9000000000E+05    0.3889514475E-02    0.6946385991E+00    0.1014266411E+00    0.3211657727E+00    0.1402018539E-02
    0.1100000000E+06    0.3328852301E-02    0.6946364696E+00    0.9793195395E-01    0.3451694720E+00    0.1417726254E-02
    0.1300000000E+06    0.2881215261E-02    0.6946327952E+00    0.9426677750E-01    0.3653767052E+00    0.1430934875E-02
    0.1500000000E+06    0.2519302226E-02    0.6946284742E+00    0.9065101815E-01    0.3827661325E+00    0.1442346233E-02
    0.1700000000E+06    0.2222770698E-02    0.6946239172E+00    0.8717869391E-01    0.3979737627E+00    0.1452401004E-02
    0.1900000000E+06    0.1976735896E-02    0.6946193240E+00    0.8388719346E-01    0.4114390205E+00    0.1461394406E-02
    0.2100000000E+06    0.1770253566E-02    0.6946147952E+00    0.8078711762E-01    0.4234796902E+00    0.1469534087E-02
    0.2300000000E+06    0.1595179238E-02    0.6946103808E+00    0.7787615588E-01    0.4343338244E+00    0.1476971762E-02
    0.2500000000E+06    0.1445366291E-02    0.6946061044E+00    0.7514589305E-01    0.4441847961E+00    0.1483821713E-02
    0.2700000000E+06    0.1316110022E-02    0.6946019752E+00    0.7258526707E-01    0.4531770913E+00    0.1490172216E-02
    0.2900000000E+06    0.1203760730E-02    0.6945979946E+00    0.7018235710E-01    0.4614267039E+00    0.1496092897E-02
    0.3100000000E+06    0.1105451547E-02    0.6945941596E+00    0.6792530676E-01    0.4690282275E+00    0.1501639664E-02
    0.3300000000E+06    0.1018904435E-02    0.6945904647E+00    0.6580278676E-01    0.4760598425E+00    0.1506858100E-02
    0.3500000000E+06    0.9422900048E-03    0.6945869035E+00    0.6380420822E-01    0.4825869124E+00    0.1511785866E-02
    0.3700000000E+06    0.8741248240E-03    0.6945834692E+00    0.6191980034E-01    0.4886646369E+00    0.1516454446E-02
    0.3900000000E+06    0.8131952275E-03    0.6945801546E+00    0.6014061481E-01    0.4943400462E+00    0.1520890430E-02
    0.4100000000E+06    0.7585000823E-03    0.6945769531E+00    0.5845849214E-01    0.4996535251E+00    0.1525116485E-02
    0.4300000000E+06    0.7092073026E-03    0.6945738581E+00    0.5686600945E-01    0.5046399959E+00    0.1529152090E-02
    0.4500000000E+06    0.6646204561E-03    0.6945708633E+00    0.5535642082E-01    0.5093298482E+00    0.1533014113E-02
    0.4700000000E+06    0.6241528627E-03    0.6945679632E+00    0.5392359655E-01    0.5137496790E+00    0.1536717256E-02
    0.4900000000E+06    0.5873073184E-03    0.6945651522E+00    0.5256196444E-01    0.5179228867E+00    0.1540274417E-02
    0.1000000000E+06    0.3593061878E-02    0.6946378176E+00    0.9972280015E-01    0.3337234323E+00    0.1410244252E-02
    0.3000000000E+06    0.1153005444E-02    0.6945960592E+00    0.6903632328E-01    0.4653032535E+00    0.1498909961E-02
    0.5000000000E+06    0.5701078936E-03    0.6945637786E+00    0.5190624299E-01    0.5199235652E+00    0.1542001861E-02
    0.7000000000E+06    0.3404750523E-03    0.6945399478E+00    0.4151695119E-01    0.5509408591E+00    0.1571057562E-02
    0.9000000000E+06    0.2263887678E-03    0.6945211220E+00    0.3457065860E-01    0.5710875043E+00    0.1593114983E-02
    0.1100000000E+07    0.1614168230E-03    0.6945055549E+00    0.2960393764E-01    0.5852616963E+00    0.1610948989E-02
    0.1300000000E+07    0.1208961073E-03    0.6944922728E+00    0.2587772415E-01    0.5957871470E+00    0.1625947180E-02
    0.1500000000E+07    0.9392384091E-04    0.6944806810E+00    0.2297964081E-01    0.6039158420E+00    0.1638905535E-02
    0.1700000000E+07    0.7506618268E-04    0.6944703907E+00    0.2066168045E-01    0.6103841560E+00    0.1650323982E-02
    0.1900000000E+07    0.6136553378E-04    0.6944611338E+00    0.1876579535E-01    0.6156542057E+00    0.1660537506E-02
    0.2100000000E+07    0.5109925994E-04    0.6944527175E+00    0.1718652351E-01    0.6200309154E+00    0.1669781762E-02
    0.2300000000E+07    0.4320851547E-04    0.6944449988E+00    0.1585080862E-01    0.6237237230E+00    0.1678228945E-02
    0.2500000000E+07    0.3701325557E-04    0.6944378684E+00    0.1470644701E-01    0.6268812901E+00    0.1686008782E-02
    0.2700000000E+07    0.3206047795E-04    0.6944312410E+00    0.1371514660E-01    0.6296120784E+00    0.1693221480E-02
    0.2900000000E+07    0.2803896035E-04    0.6944250486E+00    0.1284818442E-01    0.6319970879E+00    0.1699946088E-02
    0.3100000000E+07    0.2472915376E-04    0.6944192364E+00    0.1208359471E-01    0.6340980362E+00    0.1706246079E-02
    0.3300000000E+07    0.2197258587E-04    0.6944137593E+00    0.1140429316E-01    0.6359627771E+00    0.1712173206E-02
    0.3500000000E+07    0.1965254988E-04    0.6944085797E+00    0.1079679298E-01    0.6376289871E+00    0.1717770234E-02
    0.3700000000E+07    0.1768155963E-04    0.6944036664E+00    0.1025030583E-01    0.6391267359E+00    0.1723072910E-02
    0.3900000000E+07    0.1599299078E-04    0.6943989925E+00    0.9756099442E-02    0.6404803134E+00    0.1728111427E-02
    0.4100000000E+07    0.1453538432E-04    0.6943945352E+00    0.9307030329E-02    0.6417095556E+00    0.1732911525E-02
    0.4300000000E+07    0.1326848563E-04    0.6943902749E+00    0.8897198408E-02    0.6428308202E+00    0.1737495325E-02
    0.4500000000E+07    0.1216043992E-04    0.6943861943E+00    0.8521687880E-02    0.6438577174E+00    0.1741881979E-02
    0.4700000000E+07    0.1118577372E-04    0.6943822787E+00    0.8176370323E-02    0.6448016631E+00    0.1746088187E-02
    0.4900000000E+07    0.1032392047E-04    0.6943785148E+00    0.7857753208E-02    0.6456723043E+00    0.1750128592E-02
    0.1000000000E+07    0.1897933889E-03    0.6945130039E+00    0.3189661147E-01    0.5787405335E+00    0.1602453896E-02
    0.3000000000E+07    0.2630616153E-04    0.6944220980E+00    0.1245425786E-01    0.6330798037E+00    0.1703145687E-02
    0.5000000000E+07    0.9929938705E-05    0.6943766860E+00    0.7707510237E-02    0.6460827492E+00    0.1752090715E-02
    0.7000000000E+07    0.5178574903E-05    0.6943458497E+00    0.5571036182E-02    0.6519127631E+00    0.1785094049E-02
    0.9000000000E+07    0.3177045747E-05    0.6943223620E+00    0.4357739259E-02    0.6552189819E+00    0.1810148532E-02
    0.1100000000E+08    0.2150146945E-05    0.6943033337E+00    0.3576198974E-02    0.6573474087E+00    0.1830405806E-02
    0.1300000000E+08    0.1554244672E-05    0.6942873099E+00    0.3031054032E-02    0.6588316816E+00    0.1847441947E-02
    0.1500000000E+08    0.1177936852E-05    0.6942734521E+00    0.2629291364E-02    0.6599254906E+00    0.1862161067E-02
    0.1700000000E+08    0.9251615546E-06    0.6942612321E+00    0.2321004772E-02    0.6607648304E+00    0.1875131021E-02
    0.1900000000E+08    0.7471696007E-06    0.6942502953E+00    0.2077024521E-02    0.6614291437E+00    0.1886732311E-02
    0.2100000000E+08    0.6170872646E-06    0.6942403918E+00    0.1879164886E-02    0.6619679398E+00    0.1897232614E-02
    0.2300000000E+08    0.5191133453E-06    0.6942313386E+00    0.1715501089E-02    0.6624136753E+00    0.1906827526E-02
    0.2500000000E+08    0.4434638846E-06    0.6942229978E+00    0.1577889663E-02    0.6627885114E+00    0.1915664401E-02
    0.2700000000E+08    0.3838180346E-06    0.6942152628E+00    0.1460580454E-02    0.6631080947E+00    0.1923857066E-02
