  Pressure (Pa) 22mC5-500 (mol/kg) 24mC5-500 (mol/kg) 2mC6-500 (mol/kg) 3mC6-500 (mol/kg) C7-500 (mol/kg)
    0.1000000000E+01    0.2144044503E-05    0.1513993230E+00    0.2492660423E-04    0.1676718199E-05    0.4180970706E-02
    0.3000000000E+01    0.4179721837E-05    0.3164749263E+00    0.4621058660E-04    0.4261255363E-05    0.4212152604E-02
    0.5000000000E+01    0.5112775704E-05    0.4047375604E+00    0.5527597721E-04    0.6632858029E-05    0.4226781129E-02
    0.7000000000E+01    0.5635450505E-05    0.4596835108E+00    0.6059822059E-04    0.8902503180E-05    0.4235613850E-02
    0.9000000000E+01    0.5974954341E-05    0.4971826335E+00    0.6461879106E-04    0.1110749336E-04    0.4241514784E-02
    0.1100000000E+02    0.6223608905E-05    0.5244065062E+00    0.6819179174E-04    0.1326645545E-04    0.4245702825E-02
    0.1300000000E+02    0.6424260779E-05    0.5450697317E+00    0.7164865659E-04    0.1539045943E-04    0.4248796809E-02
    0.1500000000E+02    0.6598677657E-05    0.5612889369E+00    0.7512358448E-04    0.1748679104E-04    0.4251146831E-02
    0.1700000000E+02    0.6758653559E-05    0.5743586329E+00    0.7866959950E-04    0.1956058218E-04    0.4252966651E-02
    0.1900000000E+02    0.6910883284E-05    0.5851150401E+00    0.8230456086E-04    0.2161562774E-04    0.4254394499E-02
    0.2100000000E+02    0.7059295577E-05    0.5941224098E+00    0.8603081135E-04    0.2365483880E-04    0.4255523900E-02
    0.2300000000E+02    0.7206247832E-05    0.6017752797E+00    0.8984400721E-04    0.2568051339E-04    0.4256420478E-02
    0.2500000000E+02    0.7353171667E-05    0.6083578198E+00    0.9373720989E-04    0.2769450795E-04    0.4257131698E-02
    0.2700000000E+02    0.7500937392E-05    0.6140799035E+00    0.9770279989E-04    0.2969835095E-04    0.4257692771E-02
    0.2900000000E+02    0.7650067328E-05    0.6190998991E+00    0.1017333548E-03    0.3169332100E-04    0.4258130390E-02
    0.3100000000E+02    0.7800864451E-05    0.6235395568E+00    0.1058220241E-03    0.3368050223E-04    0.4258465179E-02
    0.3300000000E+02    0.7953491930E-05    0.6274940142E+00    0.1099626588E-03    0.3566082469E-04    0.4258713329E-02
    0.3500000000E+02    0.8108023322E-05    0.6310386905E+00    0.1141498226E-03    0.3763509440E-04    0.4258887739E-02
    0.3700000000E+02    0.8264474797E-05    0.6342341442E+00    0.1183787492E-03    0.3960401611E-04    0.4258998818E-02
    0.3900000000E+02    0.8422826099E-05    0.6371295609E+00    0.1226452784E-03    0.4156821094E-04    0.4259055062E-02
    0.4100000000E+02    0.8583034322E-05    0.6397653038E+00    0.1269457860E-03    0.4352823021E-04    0.4259063474E-02
    0.4300000000E+02    0.8745043033E-05    0.6421748068E+00    0.1312771169E-03    0.4548456639E-04    0.4259029885E-02
    0.4500000000E+02    0.8908788325E-05    0.6443860001E+00    0.1356365228E-03    0.4743766193E-04    0.4258959186E-02
    0.4700000000E+02    0.9074202834E-05    0.6464223983E+00    0.1400216079E-03    0.4938791640E-04    0.4258855518E-02
    0.4900000000E+02    0.9241218392E-05    0.6483039396E+00    0.1444302806E-03    0.5133569242E-04    0.4258722403E-02
    0.1000000000E+02    0.6107263084E-05    0.5117955875E+00    0.6643369470E-04    0.1219191910E-04    0.4243775561E-02
    0.3000000000E+02    0.7725244714E-05    0.6213857932E+00    0.1037708264E-03    0.3268782387E-04    0.4258309538E-02
    0.5000000000E+02    0.9325305481E-05    0.6491920559E+00    0.1466428816E-03    0.5230875544E-04    0.4258645765E-02
    0.7000000000E+02    0.1107623588E-04    0.6618863546E+00    0.1917950546E-03    0.7170699822E-04    0.4256115050E-02
    0.9000000000E+02    0.1292935036E-04    0.6691557069E+00    0.2381839230E-03    0.9110944167E-04    0.4252454855E-02
    0.1100000000E+03    0.1485824283E-04    0.6738653566E+00    0.2855096940E-03    0.1106346487E-03    0.4248199016E-02
    0.1300000000E+03    0.1684963780E-04    0.6771648575E+00    0.3336915805E-03    0.1303576945E-03    0.4243566789E-02
    0.1500000000E+03    0.1889677078E-04    0.6796050457E+00    0.3827253989E-03    0.1503322319E-03    0.4238664094E-02
    0.1700000000E+03    0.2099628031E-04    0.6814829192E+00    0.4326371304E-03    0.1706000347E-03    0.4233547476E-02
    0.1900000000E+03    0.2314670814E-04    0.6829727508E+00    0.4834656392E-03    0.1911957824E-03    0.4228249024E-02
    0.2100000000E+03    0.2534773049E-04    0.6841835429E+00    0.5352556682E-03    0.2121497196E-03    0.4222787527E-02
    0.2300000000E+03    0.2759974103E-04    0.6851869684E+00    0.5880548710E-03    0.2334892525E-03    0.4217174001E-02
    0.2500000000E+03    0.2990361386E-04    0.6860320906E+00    0.6419125568E-03    0.2552399690E-03    0.4211414636E-02
    0.2700000000E+03    0.3226056342E-04    0.6867536266E+00    0.6968792059E-03    0.2774263242E-03    0.4205512476E-02
    0.2900000000E+03    0.3467205947E-04    0.6873768338E+00    0.7530063431E-03    0.3000721232E-03    0.4199468418E-02
    0.3100000000E+03    0.3713977442E-04    0.6879205261E+00    0.8103465831E-03    0.3232008746E-03    0.4193281830E-02
    0.3300000000E+03    0.3966555051E-04    0.6883990059E+00    0.8689537574E-03    0.3468360600E-03    0.4186950948E-02
    0.3500000000E+03    0.4225137959E-04    0.6888233395E+00    0.9288830805E-03    0.3710013478E-03    0.4180473132E-02
    0.3700000000E+03    0.4489939107E-04    0.6892022235E+00    0.9901913336E-03    0.3957207672E-03    0.4173845045E-02
    0.3900000000E+03    0.4761184540E-04    0.6895425869E+00    0.1052937058E-02    0.4210188571E-03    0.4167062762E-02
    0.4100000000E+03    0.5039113140E-04    0.6898500183E+00    0.1117180749E-02    0.4469207955E-03    0.4160121856E-02
    0.4300000000E+03    0.5323976633E-04    0.6901290753E+00    0.1182985061E-02    0.4734525175E-03    0.4153017444E-02
    0.4500000000E+03    0.5616039808E-04    0.6903835117E+00    0.1250415003E-02    0.5006408240E-03    0.4145744230E-02
    0.4700000000E+03    0.5915580887E-04    0.6906164469E+00    0.1319538149E-02    0.5285134855E-03    0.4138296519E-02
    0.4900000000E+03    0.6222892027E-04    0.6908304949E+00    0.1390424846E-02    0.5570993439E-03    0.4130668232E-02
    0.1000000000E+03    0.1388536057E-04    0.6717378428E+00    0.2617374490E-03    0.1008513401E-03    0.4250383788E-02
    0.3000000000E+03    0.3589877814E-04    0.6876576371E+00    0.7815214911E-03    0.3115746643E-03    0.4196393027E-02
    0.5000000000E+03    0.6379556630E-04    0.6909311395E+00    0.1426552322E-02    0.5716690523E-03    0.4126784369E-02
    0.7000000000E+03    0.1000596470E-03    0.6923429116E+00    0.2261833296E-02    0.9087285969E-03    0.4037805994E-02
    0.9000000000E+03    0.1489633672E-03    0.6931293029E+00    0.3387599482E-02    0.1363615299E-02    0.3920296613E-02
    0.1100000000E+04    0.2177924963E-03    0.6936303861E+00    0.4972995354E-02    0.2005199363E-02    0.3758709701E-02
    0.1300000000E+04    0.3195587726E-03    0.6939775169E+00    0.7319980450E-02    0.2956619073E-02    0.3526021450E-02
    0.1500000000E+04    0.4780646829E-03    0.6942321527E+00    0.1098220638E-01    0.4444270550E-02    0.3174900173E-02
    0.1700000000E+04    0.7338192719E-03    0.6944268856E+00    0.1690689716E-01    0.6857519796E-02    0.2631338928E-02
    0.1900000000E+04    0.1128087319E-02    0.6945806076E+00    0.2607806189E-01    0.1060845207E-01    0.1843148101E-02
    0.2100000000E+04    0.1604360482E-02    0.6947050240E+00    0.3723907030E-01    0.1520622431E-01    0.9870392409E-03
    0.2300000000E+04    0.1982317868E-02    0.6948077738E+00    0.4622868388E-01    0.1896239865E-01    0.4411102350E-03
    0.2500000000E+04    0.2215255631E-02    0.6948940541E+00    0.5192011819E-01    0.2140035249E-01    0.2311587738E-03
    0.2700000000E+04    0.2373668700E-02    0.6949675235E+00    0.5591604469E-01    0.2316099235E-01    0.1692456595E-03
    0.2900000000E+04    0.2503547308E-02    0.6950308322E+00    0.5927480931E-01    0.2467275082E-01    0.1527368622E-03
    0.3100000000E+04    0.2621203558E-02    0.6950859469E+00    0.6237293181E-01    0.2608856372E-01    0.1486820926E-03
    0.3300000000E+04    0.2731677261E-02    0.6951343576E+00    0.6532605774E-01    0.2745518633E-01    0.1479520247E-03
    0.3500000000E+04    0.2836597205E-02    0.6951772140E+00    0.6817054145E-01    0.2878695344E-01    0.1480984369E-03
    0.3700000000E+04    0.2936607224E-02    0.6952154174E+00    0.7091981569E-01    0.3008881069E-01    0.1484657985E-03
    0.3900000000E+04    0.3032061421E-02    0.6952496841E+00    0.7358062308E-01    0.3136297830E-01    0.1488780857E-03
    0.4100000000E+04    0.3123221084E-02    0.6952805906E+00    0.7615762953E-01    0.3261085211E-01    0.1492884884E-03
    0.4300000000E+04    0.3210311107E-02    0.6953086063E+00    0.7865474639E-01    0.3383354904E-01    0.1496852990E-03
    0.4500000000E+04    0.3293536770E-02    0.6953341172E+00    0.8107551969E-01    0.3503206653E-01    0.1500663566E-03
    0.4700000000E+04    0.3373089224E-02    0.6953574432E+00    0.8342325283E-01    0.3620733138E-01    0.1504320357E-03
    0.4900000000E+04    0.3449147687E-02    0.6953788525E+00    0.8570105173E-01    0.3736021642E-01    0.1507833114E-03
    0.1000000000E+04    0.1802536802E-03    0.6934048438E+00    0.4108148192E-02    0.1655082909E-02    0.3846348396E-02
    0.3000000000E+04    0.2563457137E-02    0.6950593114E+00    0.6084617825E-01    0.2538848463E-01    0.1499855869E-03
    0.5000000000E+04    0.3485919715E-02    0.6953889103E+00    0.8681464803E-01    0.3792852633E-01    0.1509538773E-03
    0.7000000000E+04    0.4073938108E-02    0.6955293109E+00    0.1060468900E+00    0.4829925671E-01    0.1538197153E-03
    0.9000000000E+04    0.4453948668E-02    0.6956068004E+00    0.1207956875E+00    0.5715222926E-01    0.1559920692E-03
    0.1100000000E+05    0.4698239362E-02    0.6956557759E+00    0.1323984310E+00    0.6488457956E-01    0.1577470034E-03
    0.1300000000E+05    0.4851092681E-02    0.6956894447E+00    0.1417120569E+00    0.7175973684E-01    0.1592220989E-03
    0.1500000000E+05    0.4940805652E-02    0.6957139583E+00    0.1493104948E+00    0.7796019981E-01    0.1604961106E-03
    0.1700000000E+05    0.4986088342E-02    0.6957325673E+00    0.1555922748E+00    0.8361696544E-01    0.1616184314E-03
    0.1900000000E+05    0.4999663655E-02    0.6957471497E+00    0.1608425792E+00    0.8882687917E-01    0.1626221235E-03
    0.2100000000E+05    0.4990387147E-02    0.6957588655E+00    0.1652707332E+00    0.9366334602E-01    0.1635304274E-03
    0.2300000000E+05    0.4964544072E-02    0.6957684698E+00    0.1690337633E+00    0.9818320428E-01    0.1643603151E-03
    0.2500000000E+05    0.4926669298E-02    0.6957764748E+00    0.1722517048E+00    0.1024312848E+00    0.1651245665E-03
    0.2700000000E+05    0.4880080373E-02    0.6957832404E+00    0.1750178408E+00    0.1064435227E+00    0.1658330495E-03
    0.2900000000E+05    0.4827232644E-02    0.6957890263E+00    0.1774057250E+00    0.1102491350E+00    0.1664935459E-03
    0.3100000000E+05    0.4769960967E-02    0.6957940251E+00    0.1794741078E+00    0.1138721779E+00    0.1671123024E-03
    0.3300000000E+05    0.4709647347E-02    0.6957983821E+00    0.1812704596E+00    0.1173326826E+00    0.1676944113E-03
    0.3500000000E+05    0.4647339185E-02    0.6958022093E+00    0.1828335367E+00    0.1206474982E+00    0.1682440792E-03
    0.3700000000E+05    0.4583833948E-02    0.6958055941E+00    0.1841952787E+00    0.1238309276E+00    0.1687648223E-03
    0.3900000000E+05    0.4519740604E-02    0.6958086062E+00    0.1853822323E+00    0.1268952127E+00    0.1692596098E-03
    0.4100000000E+05    0.4455524751E-02    0.6958113011E+00    0.1864166342E+00    0.1298509108E+00    0.1697309724E-03
    0.4300000000E+05    0.4391542136E-02    0.6958137241E+00    0.1873172430E+00    0.1327071898E+00    0.1701810849E-03
    0.4500000000E+05    0.4328063782E-02    0.6958159124E+00    0.1880999874E+00    0.1354720610E+00    0.1706118304E-03
    0.4700000000E+05    0.4265295013E-02    0.6958178967E+00    0.1887784746E+00    0.1381525664E+00    0.1710248501E-03
    0.4900000000E+05    0.4203389961E-02    0.6958197027E+00    0.1893643934E+00    0.1407549288E+00    0.1714215833E-03
    0.1000000000E+05    0.4589813414E-02    0.6956337788E+00    0.1269284075E+00    0.6113965654E-01    0.1569111945E-03
    0.3000000000E+05    0.4799054392E-02    0.6957916141E+00    0.1784766567E+00    0.1120821424E+00    0.1668077999E-03
    0.5000000000E+05    0.4172798297E-02    0.6958205457E+00    0.1896258484E+00    0.1420285579E+00    0.1716142451E-03
    0.7000000000E+05    0.3620773723E-02    0.6958318378E+00    0.1918417187E+00    0.1644658541E+00    0.1748547177E-03
    0.9000000000E+05    0.3179568437E-02    0.6958374915E+00    0.1909477579E+00    0.1828700330E+00    0.1773146216E-03
    0.1100000000E+06    0.2826146281E-02    0.6958406909E+00    0.1887529179E+00    0.1986821390E+00    0.1793035093E-03
    0.1300000000E+06    0.2538383309E-02    0.6958426276E+00    0.1859745000E+00    0.2126513301E+00    0.1809761502E-03
    0.1500000000E+06    0.2300007113E-02    0.6958438420E+00    0.1829402647E+00    0.2252232611E+00    0.1824213173E-03
    0.1700000000E+06    0.2099446801E-02    0.6958446121E+00    0.1798138716E+00    0.2366879085E+00    0.1836947632E-03
    0.1900000000E+06    0.1928407853E-02    0.6958450940E+00    0.1766816613E+00    0.2472464052E+00    0.1848338442E-03
    0.2100000000E+06    0.1780835692E-02    0.6958453815E+00    0.1735905223E+00    0.2570450911E+00    0.1858648392E-03
    0.2300000000E+06    0.1652222328E-02    0.6958455337E+00    0.1705660060E+00    0.2661944577E+00    0.1868069503E-03
    0.2500000000E+06    0.1539146958E-02    0.6958455896E+00    0.1676216208E+00    0.2747804271E+00    0.1876746434E-03
    0.2700000000E+06    0.1438968156E-02    0.6958455756E+00    0.1647638685E+00    0.2828714398E+00    0.1884790927E-03
    0.2900000000E+06    0.1349613975E-02    0.6958455102E+00    0.1619950942E+00    0.2905231079E+00    0.1892291129E-03
    0.3100000000E+06    0.1269436049E-02    0.6958454067E+00    0.1593151553E+00    0.2977813825E+00    0.1899317821E-03
    0.3300000000E+06    0.1197106252E-02    0.6958452745E+00    0.1567224260E+00    0.3046847779E+00    0.1905928711E-03
    0.3500000000E+06    0.1131542206E-02    0.6958451208E+00    0.1542144143E+00    0.3112659749E+00    0.1912171487E-03
    0.3700000000E+06    0.1071852678E-02    0.6958449511E+00    0.1517881476E+00    0.3175530018E+00    0.1918086011E-03
    0.3900000000E+06    0.1017296945E-02    0.6958447693E+00    0.1494404150E+00    0.3235701240E+00    0.1923705952E-03
    0.4100000000E+06    0.9672541440E-03    0.6958445786E+00    0.1471679207E+00    0.3293385233E+00    0.1929060011E-03
    0.4300000000E+06    0.9211998378E-03    0.6958443813E+00    0.1449673807E+00    0.3348768264E+00    0.1934172856E-03
    0.4500000000E+06    0.8786878959E-03    0.6958441795E+00    0.1428355824E+00    0.3402015219E+00    0.1939065846E-03
    0.4700000000E+06    0.8393363311E-03    0.6958439745E+00    0.1407694209E+00    0.3453272921E+00    0.1943757600E-03
    0.4900000000E+06    0.8028161157E-03    0.6958437675E+00    0.1387659197E+00    0.3502672808E+00    0.1948264450E-03
    0.1000000000E+06    0.2993406665E-02    0.6958393005E+00    0.1899545987E+00    0.1910434690E+00    0.1783561172E-03
    0.3000000000E+06    0.1308467506E-02    0.6958454626E+00    0.1606440959E+00    0.2941988592E+00    0.1895859791E-03
    0.5000000000E+06    0.7855271931E-03    0.6958436635E+00    0.1377867741E+00    0.3526713486E+00    0.1950453104E-03
    0.7000000000E+06    0.5358785230E-03    0.6958416251E+00    0.1208799345E+00    0.3933392861E+00    0.1987268059E-03
    0.9000000000E+06    0.3928512417E-03    0.6958397841E+00    0.1078255081E+00    0.4239497066E+00    0.2015217857E-03
    0.1100000000E+07    0.3019169642E-03    0.6958381573E+00    0.9740005526E-01    0.4480626786E+00    0.2037817190E-03
    0.1300000000E+07    0.2400000875E-03    0.6958367132E+00    0.8885916379E-01    0.4676502540E+00    0.2056823758E-03
    0.1500000000E+07    0.1957199044E-03    0.6958354191E+00    0.8172168606E-01    0.4839260921E+00    0.2073245898E-03
    0.1700000000E+07    0.1628540719E-03    0.6958342484E+00    0.7566090843E-01    0.4976903515E+00    0.2087716940E-03
    0.1900000000E+07    0.1377363415E-03    0.6958331803E+00    0.7044613573E-01    0.5094971747E+00    0.2100661273E-03
    0.2100000000E+07    0.1180796447E-03    0.6958321984E+00    0.6590926494E-01    0.5197449090E+00    0.2112377454E-03
    0.2300000000E+07    0.1023913322E-03    0.6958312900E+00    0.6192459567E-01    0.5287284733E+00    0.2123083648E-03
    0.2500000000E+07    0.8966074720E-04    0.6958304448E+00    0.5839607889E-01    0.5366715225E+00    0.2132944217E-03
    0.2700000000E+07    0.7918233906E-04    0.6958296544E+00    0.5524895899E-01    0.5437471049E+00    0.2142086126E-03
    0.2900000000E+07    0.7045064322E-04    0.6958289122E+00    0.5242412191E-01    0.5500914168E+00    0.2150609530E-03
    0.3100000000E+07    0.6309540392E-04    0.6958282125E+00    0.4987416983E-01    0.5558132420E+00    0.2158594856E-03
    0.3300000000E+07    0.5684011975E-04    0.6958275507E+00    0.4756063173E-01    0.5610005953E+00    0.2166107678E-03
    0.3500000000E+07    0.5147477412E-04    0.6958269228E+00    0.4545194095E-01    0.5657255030E+00    0.2173202183E-03
    0.3700000000E+07    0.4683743640E-04    0.6958263254E+00    0.4352194262E-01    0.5700475073E+00    0.2179923666E-03
    0.3900000000E+07    0.4280156821E-04    0.6958257556E+00    0.4174877473E-01    0.5740162807E+00    0.2186310389E-03
    0.4100000000E+07    0.3926709058E-04    0.6958252110E+00    0.4011401747E-01    0.5776736039E+00    0.2192394963E-03
    0.4300000000E+07    0.3615398553E-04    0.6958246894E+00    0.3860203811E-01    0.5810548832E+00    0.2198205422E-03
    0.4500000000E+07    0.3339763935E-04    0.6958241888E+00    0.3719948087E-01    0.5841903287E+00    0.2203766035E-03
    0.4700000000E+07    0.3094540425E-04    0.6958237076E+00    0.3589486524E-01    0.5871058784E+00    0.2209097962E-03
    0.4900000000E+07    0.2875402603E-04    0.6958232444E+00    0.3467826689E-01    0.5898239315E+00    0.2214219761E-03
    0.1000000000E+07    0.3427144031E-03    0.6958389457E+00    0.1023386599E+00    0.4366712805E+00    0.2027052040E-03
    0.3000000000E+07    0.6662007232E-04    0.6958285574E+00    0.5111737214E-01    0.5530242160E+00    0.2154665052E-03
    0.5000000000E+07    0.2774472064E-04    0.6958230191E+00    0.3410023433E-01    0.5911150756E+00    0.2216707054E-03
    0.7000000000E+07    0.1513263036E-04    0.6958191986E+00    0.2556293501E-01    0.6101666849E+00    0.2258545510E-03
    0.9000000000E+07    0.9508927720E-05    0.6958162671E+00    0.2043104303E-01    0.6216046871E+00    0.2290309268E-03
    0.1100000000E+08    0.6522775859E-05    0.6958138817E+00    0.1700694252E-01    0.6292315393E+00    0.2315992500E-03
    0.1300000000E+08    0.4749990787E-05    0.6958118671E+00    0.1456056481E-01    0.6346786634E+00    0.2337592719E-03
    0.1500000000E+08    0.3612441742E-05    0.6958101211E+00    0.1272596211E-01    0.6387627317E+00    0.2356255844E-03
    0.1700000000E+08    0.2839376050E-05    0.6958085791E+00    0.1129947674E-01    0.6419378620E+00    0.2372701625E-03
    0.1900000000E+08    0.2290282804E-05    0.6958071972E+00    0.1015876841E-01    0.6444766967E+00    0.2387412360E-03
    0.2100000000E+08    0.1886355548E-05    0.6958059446E+00    0.9225921495E-02    0.6465528064E+00    0.2400727346E-03
    0.2300000000E+08    0.1580619952E-05    0.6958047985E+00    0.8448964793E-02    0.6482819324E+00    0.2412894519E-03
    0.2500000000E+08    0.1343666282E-05    0.6958037419E+00    0.7791906482E-02    0.6497442122E+00    0.2424100670E-03
    0.2700000000E+08    0.1156320747E-05    0.6958027613E+00    0.7229033549E-02    0.6509968874E+00    0.2434490090E-03
