  Pressure (Pa) 22mC5-500 (mol/kg) 24mC5-500 (mol/kg) 2mC6-500 (mol/kg) 3mC6-500 (mol/kg) C7-500 (mol/kg)
    0.1000000000E+01    0.2486434433E-05    0.6964687033E-01    0.9686547405E-05    0.3544717306E-05    0.4244657496E-02
    0.3000000000E+01    0.5965055681E-05    0.1740603513E+00    0.2246331116E-04    0.9211019998E-05    0.4367651131E-02
    0.5000000000E+01    0.8254083877E-05    0.2486002033E+00    0.3031344386E-04    0.1445828154E-04    0.4455324064E-02
    0.7000000000E+01    0.9843390716E-05    0.3044829420E+00    0.3544527538E-04    0.1950185092E-04    0.4521595760E-02
    0.9000000000E+01    0.1099298900E-04    0.3479343923E+00    0.3898078283E-04    0.2441515731E-04    0.4573598118E-02
    0.1100000000E+02    0.1185266655E-04    0.3826875576E+00    0.4153838932E-04    0.2923515674E-04    0.4615574957E-02
    0.1300000000E+02    0.1251399415E-04    0.4111167605E+00    0.4347888608E-04    0.3398393413E-04    0.4650226128E-02
    0.1500000000E+02    0.1303560488E-04    0.4348042334E+00    0.4502208107E-04    0.3867608712E-04    0.4679354908E-02
    0.1700000000E+02    0.1345646687E-04    0.4548450034E+00    0.4630652767E-04    0.4332193366E-04    0.4704213109E-02
    0.1900000000E+02    0.1380328480E-04    0.4720210172E+00    0.4742196124E-04    0.4792912596E-04    0.4725697660E-02
    0.2100000000E+02    0.1409483454E-04    0.4869055702E+00    0.4842777016E-04    0.5250354870E-04    0.4744468498E-02
    0.2300000000E+02    0.1434460725E-04    0.4999285497E+00    0.4936393532E-04    0.5704985750E-04    0.4761022285E-02
    0.2500000000E+02    0.1456247889E-04    0.5114186376E+00    0.5025772685E-04    0.6157182062E-04    0.4775740162E-02
    0.2700000000E+02    0.1475579612E-04    0.5216314383E+00    0.5112792086E-04    0.6607254591E-04    0.4788919635E-02
    0.2900000000E+02    0.1493010100E-04    0.5307687192E+00    0.5198751971E-04    0.7055463715E-04    0.4800796427E-02
    0.3100000000E+02    0.1508962561E-04    0.5389918759E+00    0.5284554443E-04    0.7502030522E-04    0.4811559804E-02
    0.3300000000E+02    0.1523763652E-04    0.5464315494E+00    0.5370823754E-04    0.7947144910E-04    0.4821363538E-02
    0.3500000000E+02    0.1537667888E-04    0.5531946182E+00    0.5457988334E-04    0.8390971636E-04    0.4830333908E-02
    0.3700000000E+02    0.1550875227E-04    0.5593693662E+00    0.5546337526E-04    0.8833654909E-04    0.4838575610E-02
    0.3900000000E+02    0.1563543906E-04    0.5650293583E+00    0.5636061314E-04    0.9275321944E-04    0.4846176214E-02
    0.4100000000E+02    0.1575799949E-04    0.5702363849E+00    0.5727278444E-04    0.9716085750E-04    0.4853209546E-02
    0.4300000000E+02    0.1587744282E-04    0.5750427272E+00    0.5820056510E-04    0.1015604735E-03    0.4859738306E-02
    0.4500000000E+02    0.1599458113E-04    0.5794929187E+00    0.5914426427E-04    0.1059529757E-03    0.4865816099E-02
    0.4700000000E+02    0.1611007053E-04    0.5836251291E+00    0.6010392919E-04    0.1103391848E-03    0.4871489039E-02
    0.4900000000E+02    0.1622444284E-04    0.5874722619E+00    0.6107942162E-04    0.1147198461E-03    0.4876797028E-02
    0.1000000000E+02    0.1145235737E-04    0.3662264102E+00    0.4035498915E-04    0.2683520913E-04    0.4595644425E-02
    0.3000000000E+02    0.1501148730E-04    0.5349857696E+00    0.5241628466E-04    0.7278939887E-04    0.4806306956E-02
    0.5000000000E+02    0.1628134850E-04    0.5892979862E+00    0.6157302335E-04    0.1169083109E-03    0.4879325190E-02
    0.7000000000E+02    0.1743091043E-04    0.6161033607E+00    0.7218010934E-04    0.1605243949E-03    0.4917172091E-02
    0.9000000000E+02    0.1866938713E-04    0.6320753475E+00    0.8389096247E-04    0.2041043958E-03    0.4940359561E-02
    0.1100000000E+03    0.2001492948E-04    0.6426769169E+00    0.9638014886E-04    0.2478920340E-03    0.4955871263E-02
    0.1300000000E+03    0.2145802445E-04    0.6502265487E+00    0.1094556825E-03    0.2920407653E-03    0.4966779332E-02
    0.1500000000E+03    0.2298691395E-04    0.6558760800E+00    0.1230069733E-03    0.3366592230E-03    0.4974662698E-02
    0.1700000000E+03    0.2459192322E-04    0.6602625132E+00    0.1369694610E-03    0.3818309494E-03    0.4980423100E-02
    0.1900000000E+03    0.2626577754E-04    0.6637667456E+00    0.1513052523E-03    0.4276243164E-03    0.4984616400E-02
    0.2100000000E+03    0.2800318096E-04    0.6666305208E+00    0.1659925383E-03    0.4740980471E-03    0.4987605647E-02
    0.2300000000E+03    0.2980035259E-04    0.6690146558E+00    0.1810196235E-03    0.5213045309E-03    0.4989638919E-02
    0.2500000000E+03    0.3165465378E-04    0.6710302891E+00    0.1963814300E-03    0.5692919361E-03    0.4990891960E-02
    0.2700000000E+03    0.3356431076E-04    0.6727566879E+00    0.2120773795E-03    0.6181056251E-03    0.4991492979E-02
    0.2900000000E+03    0.3552821321E-04    0.6742519081E+00    0.2281100697E-03    0.6677891424E-03    0.4991537783E-02
    0.3100000000E+03    0.3754576827E-04    0.6755594443E+00    0.2444844267E-03    0.7183849312E-03    0.4991099403E-02
    0.3300000000E+03    0.3961679434E-04    0.6767125254E+00    0.2612071502E-03    0.7699348710E-03    0.4990234427E-02
    0.3500000000E+03    0.4174144342E-04    0.6777369743E+00    0.2782863441E-03    0.8224806944E-03    0.4988987296E-02
    0.3700000000E+03    0.4392014374E-04    0.6786531623E+00    0.2957312691E-03    0.8760643211E-03    0.4987393286E-02
    0.3900000000E+03    0.4615355724E-04    0.6794773757E+00    0.3135521756E-03    0.9307281321E-03    0.4985480637E-02
    0.4100000000E+03    0.4844254793E-04    0.6802227905E+00    0.3317601922E-03    0.9865152033E-03    0.4983272091E-02
    0.4300000000E+03    0.5078815834E-04    0.6809001811E+00    0.3503672521E-03    0.1043469509E-02    0.4980786026E-02
    0.4500000000E+03    0.5319159198E-04    0.6815184437E+00    0.3693860479E-03    0.1101636104E-02    0.4978037314E-02
    0.4700000000E+03    0.5565420047E-04    0.6820849884E+00    0.3888300058E-03    0.1161061292E-02    0.4975037965E-02
    0.4900000000E+03    0.5817747431E-04    0.6826060370E+00    0.4087132747E-03    0.1221792783E-02    0.4971797625E-02
    0.1000000000E+03    0.1932920497E-04    0.6378626419E+00    0.9005273367E-04    0.2259612773E-03    0.4948832317E-02
    0.3000000000E+03    0.3653030413E-04    0.6749268582E+00    0.2362541577E-03    0.6929703776E-03    0.4991375127E-02
    0.5000000000E+03    0.5946236285E-04    0.6828511770E+00    0.4188242700E-03    0.1252663722E-02    0.4970089548E-02
    0.7000000000E+03    0.8881870723E-04    0.6862992233E+00    0.6482152298E-03    0.1951903392E-02    0.4924346317E-02
    0.9000000000E+03    0.1270200420E-03    0.6882267964E+00    0.9445795279E-03    0.2854483963E-02    0.4855828535E-02
    0.1100000000E+04    0.1781965700E-03    0.6894570533E+00    0.1340437701E-02    0.4060600655E-02    0.4758744930E-02
    0.1300000000E+04    0.2493554723E-03    0.6903099151E+00    0.1890353795E-02    0.5737775720E-02    0.4620807837E-02
    0.1500000000E+04    0.3528202731E-03    0.6909356197E+00    0.2690130865E-02    0.8180325676E-02    0.4419742188E-02
    0.1700000000E+04    0.5108575640E-03    0.6914140365E+00    0.3913131259E-02    0.1192200558E-01    0.4116069464E-02
    0.1900000000E+04    0.7621297338E-03    0.6917915401E+00    0.5861629955E-02    0.1789745864E-01    0.3645100961E-02
    0.2100000000E+04    0.1155071332E-02    0.6920968989E+00    0.8919136803E-02    0.2730701626E-01    0.2940076871E-02
    0.2300000000E+04    0.1668969692E-02    0.6923489042E+00    0.1294236786E-01    0.3976334060E-01    0.2088094075E-02
    0.2500000000E+04    0.2124423962E-02    0.6925603487E+00    0.1655197530E-01    0.5107092140E-01    0.1445544318E-02
    0.2700000000E+04    0.2411210497E-02    0.6927402425E+00    0.1888039953E-01    0.5853055147E-01    0.1163369291E-02
    0.2900000000E+04    0.2592534326E-02    0.6928951143E+00    0.2040368397E-01    0.6356095228E-01    0.1076384960E-02
    0.3100000000E+04    0.2732178407E-02    0.6930298103E+00    0.2161242056E-01    0.6765548970E-01    0.1054737428E-02
    0.3300000000E+04    0.2855508014E-02    0.6931480029E+00    0.2270274757E-01    0.7141450704E-01    0.1051511880E-02
    0.3500000000E+04    0.2970514923E-02    0.6932525258E+00    0.2373640490E-01    0.7502697907E-01    0.1053154396E-02
    0.3700000000E+04    0.3079663806E-02    0.6933456003E+00    0.2473214395E-01    0.7854958677E-01    0.1055981400E-02
    0.3900000000E+04    0.3183806774E-02    0.6934289920E+00    0.2569613061E-01    0.8200013455E-01    0.1059011284E-02
    0.4100000000E+04    0.3283330301E-02    0.6935041221E+00    0.2663089994E-01    0.8538520724E-01    0.1061989566E-02
    0.4300000000E+04    0.3378481749E-02    0.6935721471E+00    0.2753791727E-01    0.8870811624E-01    0.1064856722E-02
    0.4500000000E+04    0.3469462135E-02    0.6936340180E+00    0.2841830816E-01    0.9197117267E-01    0.1067604966E-02
    0.4700000000E+04    0.3556452813E-02    0.6936905236E+00    0.2927306830E-01    0.9517634111E-01    0.1070239608E-02
    0.4900000000E+04    0.3639623447E-02    0.6937423239E+00    0.3010312532E-01    0.9832543072E-01    0.1072768667E-02
    0.1000000000E+04    0.1506364513E-03    0.6889031459E+00    0.1127341229E-02    0.3411214396E-02    0.4811449186E-02
    0.3000000000E+04    0.2665345950E-02    0.6929647318E+00    0.2103020961E-01    0.6567270779E-01    0.1061578120E-02
    0.5000000000E+04    0.3679826751E-02    0.6937666369E+00    0.3050916653E-01    0.9987948409E-01    0.1073996129E-02
    0.7000000000E+04    0.4318401727E-02    0.6941040490E+00    0.3752645460E-01    0.1283952021E+00    0.1094576349E-02
    0.9000000000E+04    0.4716251100E-02    0.6942878079E+00    0.4286145758E-01    0.1528611171E+00    0.1110133112E-02
    0.1100000000E+05    0.4951505189E-02    0.6944023278E+00    0.4696770995E-01    0.1742028381E+00    0.1122680322E-02
    0.1300000000E+05    0.5075108168E-02    0.6944799063E+00    0.5015460370E-01    0.1930730243E+00    0.1133215645E-02
    0.1500000000E+05    0.5121171340E-02    0.6945355304E+00    0.5263972997E-01    0.2099462353E+00    0.1142308043E-02
    0.1700000000E+05    0.5113039703E-02    0.6945770874E+00    0.5458010974E-01    0.2251766611E+00    0.1150313438E-02
    0.1900000000E+05    0.5066980653E-02    0.6946091159E+00    0.5609157701E-01    0.2390346586E+00    0.1157469627E-02
    0.2100000000E+05    0.4994498920E-02    0.6946344077E+00    0.5726122193E-01    0.2517306611E+00    0.1163943529E-02
    0.2300000000E+05    0.4903829488E-02    0.6946547722E+00    0.5815561598E-01    0.2634312863E+00    0.1169856901E-02
    0.2500000000E+05    0.4800923453E-02    0.6946714315E+00    0.5882638990E-01    0.2742704674E+00    0.1175301343E-02
    0.2700000000E+05    0.4690112639E-02    0.6946852401E+00    0.5931410271E-01    0.2843573199E+00    0.1180347532E-02
    0.2900000000E+05    0.4574565891E-02    0.6946968127E+00    0.5965097976E-01    0.2937818136E+00    0.1185051164E-02
    0.3100000000E+05    0.4456607415E-02    0.6947066021E+00    0.5986288544E-01    0.3026189367E+00    0.1189456929E-02
    0.3300000000E+05    0.4337942078E-02    0.6947149490E+00    0.5997076755E-01    0.3109318018E+00    0.1193601238E-02
    0.3500000000E+05    0.4219816887E-02    0.6947221145E+00    0.5999173040E-01    0.3187739977E+00    0.1197514160E-02
    0.3700000000E+05    0.4103138057E-02    0.6947283018E+00    0.5993984258E-01    0.3261913933E+00    0.1201220817E-02
    0.3900000000E+05    0.3988556735E-02    0.6947336712E+00    0.5982675245E-01    0.3332235391E+00    0.1204742418E-02
    0.4100000000E+05    0.3876532339E-02    0.6947383507E+00    0.5966216226E-01    0.3399047669E+00    0.1208097034E-02
    0.4300000000E+05    0.3767379740E-02    0.6947424440E+00    0.5945419712E-01    0.3462650637E+00    0.1211300192E-02
    0.4500000000E+05    0.3661304651E-02    0.6947460355E+00    0.5920969474E-01    0.3523307703E+00    0.1214365332E-02
    0.4700000000E+05    0.3558430342E-02    0.6947491948E+00    0.5893443506E-01    0.3581251473E+00    0.1217304166E-02
    0.4900000000E+05    0.3458817905E-02    0.6947519797E+00    0.5863332352E-01    0.3636688347E+00    0.1220126964E-02
    0.1000000000E+05    0.4850530121E-02    0.6943510947E+00    0.4504621015E-01    0.1638766599E+00    0.1116706534E-02
    0.3000000000E+05    0.4515769198E-02    0.6947019068E+00    0.5977114364E-01    0.2982696043E+00    0.1187288836E-02
    0.5000000000E+05    0.3410240862E-02    0.6947532471E+00    0.5847440402E-01    0.3663524978E+00    0.1221497721E-02
    0.7000000000E+05    0.2599644507E-02    0.6947673583E+00    0.5467916220E-01    0.4104364142E+00    0.1244548752E-02
    0.9000000000E+05    0.2033873664E-02    0.6947707832E+00    0.5065232762E-01    0.4421585440E+00    0.1262042685E-02
    0.1100000000E+06    0.1630927432E-02    0.6947701268E+00    0.4691318728E-01    0.4663936486E+00    0.1276184706E-02
    0.1300000000E+06    0.1335683674E-02    0.6947676913E+00    0.4356659221E-01    0.4856495962E+00    0.1288076778E-02
    0.1500000000E+06    0.1113481792E-02    0.6947644407E+00    0.4060253151E-01    0.5013847747E+00    0.1298350761E-02
    0.1700000000E+06    0.9422696865E-03    0.6947608268E+00    0.3798020158E-01    0.5145193846E+00    0.1307403393E-02
    0.1900000000E+06    0.8076349199E-03    0.6947570772E+00    0.3565415821E-01    0.5256689869E+00    0.1315500460E-02
    0.2100000000E+06    0.6998846430E-03    0.6947533119E+00    0.3358245724E-01    0.5352639084E+00    0.1322828910E-02
    0.2300000000E+06    0.6123225836E-03    0.6947495951E+00    0.3172873937E-01    0.5436155542E+00    0.1329525331E-02
    0.2500000000E+06    0.5402088646E-03    0.6947459612E+00    0.3006224787E-01    0.5509556455E+00    0.1335692614E-02
    0.2700000000E+06    0.4801147578E-03    0.6947424277E+00    0.2855719718E-01    0.5574606314E+00    0.1341410233E-02
    0.2900000000E+06    0.4295114821E-03    0.6947390024E+00    0.2719200782E-01    0.5632675090E+00    0.1346740874E-02
    0.3100000000E+06    0.3865014377E-03    0.6947356875E+00    0.2594858813E-01    0.5684844280E+00    0.1351734872E-02
    0.3300000000E+06    0.3496384017E-03    0.6947324821E+00    0.2481171596E-01    0.5731980053E+00    0.1356433265E-02
    0.3500000000E+06    0.3178046622E-03    0.6947293830E+00    0.2376852597E-01    0.5774784946E+00    0.1360869962E-02
    0.3700000000E+06    0.2901254243E-03    0.6947263865E+00    0.2280809136E-01    0.5813835189E+00    0.1365073306E-02
    0.3900000000E+06    0.2659081268E-03    0.6947234879E+00    0.2192108514E-01    0.5849608151E+00    0.1369067237E-02
    0.4100000000E+06    0.2445987249E-03    0.6947206826E+00    0.2109950614E-01    0.5882502870E+00    0.1372872163E-02
    0.4300000000E+06    0.2257497313E-03    0.6947179659E+00    0.2033645706E-01    0.5912855617E+00    0.1376505622E-02
    0.4500000000E+06    0.2089965387E-03    0.6947153333E+00    0.1962596423E-01    0.5940951865E+00    0.1379982799E-02
    0.4700000000E+06    0.1940396589E-03    0.6947127803E+00    0.1896283064E-01    0.5967035606E+00    0.1383316932E-02
    0.4900000000E+06    0.1806312492E-03    0.6947103028E+00    0.1834251549E-01    0.5991316664E+00    0.1386519632E-02
    0.1000000000E+06    0.1816083695E-02    0.6947707731E+00    0.4873580412E-01    0.4550213857E+00    0.1269448478E-02
    0.3000000000E+06    0.4071566140E-03    0.6947373312E+00    0.2655608890E-01    0.5659438640E+00    0.1349277200E-02
    0.5000000000E+06    0.1744417985E-03    0.6947090911E+00    0.1804715051E-01    0.6002838872E+00    0.1388074943E-02
    0.7000000000E+06    0.9630889094E-04    0.6946879836E+00    0.1363908088E-01    0.6172012799E+00    0.1414235450E-02
    0.9000000000E+06    0.6093546679E-04    0.6946712243E+00    0.1095085045E-01    0.6272884792E+00    0.1434095134E-02
    0.1100000000E+07    0.4198872033E-04    0.6946573275E+00    0.9142352981E-02    0.6339892187E+00    0.1450152293E-02
    0.1300000000E+07    0.3067692413E-04    0.6946454495E+00    0.7843310949E-02    0.6387638387E+00    0.1463656232E-02
    0.1500000000E+07    0.2338939460E-04    0.6946350706E+00    0.6865443647E-02    0.6423382766E+00    0.1475323602E-02
    0.1700000000E+07    0.1842202966E-04    0.6946258487E+00    0.6102974446E-02    0.6451143383E+00    0.1485604510E-02
    0.1900000000E+07    0.1488554732E-04    0.6946175472E+00    0.5491933346E-02    0.6473324790E+00    0.1494800558E-02
    0.2100000000E+07    0.1227909910E-04    0.6946099955E+00    0.4991373732E-02    0.6491454145E+00    0.1503123916E-02
    0.2300000000E+07    0.1030316425E-04    0.6946030666E+00    0.4573876185E-02    0.6506547965E+00    0.1510729622E-02
    0.2500000000E+07    0.8769722885E-05    0.6945966634E+00    0.4220392089E-02    0.6519309083E+00    0.1517734475E-02
    0.2700000000E+07    0.7555927470E-05    0.6945907101E+00    0.3917277779E-02    0.6530238975E+00    0.1524228696E-02
    0.2900000000E+07    0.6578766974E-05    0.6945851461E+00    0.3654505684E-02    0.6539705039E+00    0.1530283457E-02
    0.3100000000E+07    0.5780517607E-05    0.6945799224E+00    0.3424541526E-02    0.6547982592E+00    0.1535955907E-02
    0.3300000000E+07    0.5120034584E-05    0.6945749989E+00    0.3221615226E-02    0.6555282011E+00    0.1541292643E-02
    0.3500000000E+07    0.4567351240E-05    0.6945703421E+00    0.3041233419E-02    0.6561766811E+00    0.1546332167E-02
    0.3700000000E+07    0.4100224312E-05    0.6945659239E+00    0.2879845071E-02    0.6567566002E+00    0.1551106664E-02
    0.3900000000E+07    0.3701863395E-05    0.6945617204E+00    0.2734606917E-02    0.6572782731E+00    0.1555643322E-02
    0.4100000000E+07    0.3359402494E-05    0.6945577112E+00    0.2603215607E-02    0.6577500453E+00    0.1559965312E-02
    0.4300000000E+07    0.3062848927E-05    0.6945538787E+00    0.2483785442E-02    0.6581787416E+00    0.1564092553E-02
    0.4500000000E+07    0.2804346522E-05    0.6945502075E+00    0.2374757877E-02    0.6585699971E+00    0.1568042290E-02
    0.4700000000E+07    0.2577650138E-05    0.6945466843E+00    0.2274833568E-02    0.6589285056E+00    0.1571829557E-02
    0.4900000000E+07    0.2377744979E-05    0.6945432973E+00    0.2182920677E-02    0.6592582083E+00    0.1575467539E-02
    0.1000000000E+07    0.5014746993E-04    0.6946639809E+00    0.9965930079E-02    0.6309457729E+00    0.1442503578E-02
    0.3000000000E+07    0.6160163250E-05    0.6945824944E+00    0.3535817963E-02    0.6543977955E+00    0.1533164344E-02
    0.5000000000E+07    0.2286538002E-05    0.6945416516E+00    0.2139674065E-02    0.6594133196E+00    0.1577234236E-02
    0.7000000000E+07    0.1195818094E-05    0.6945138919E+00    0.1531199395E-02    0.6615947093E+00    0.1606950596E-02
    0.9000000000E+07    0.7416549561E-06    0.6944927372E+00    0.1190981459E-02    0.6628140346E+00    0.1629509934E-02
    0.1100000000E+08    0.5096906515E-06    0.6944755934E+00    0.9738452653E-03    0.6635924057E+00    0.1647749912E-02
    0.1300000000E+08    0.3751944419E-06    0.6944611531E+00    0.8233124827E-03    0.6641322351E+00    0.1663089598E-02
    0.1500000000E+08    0.2901407816E-06    0.6944486624E+00    0.7128560969E-03    0.6645285285E+00    0.1676343044E-02
    0.1700000000E+08    0.2328402918E-06    0.6944376462E+00    0.6283761446E-03    0.6648317707E+00    0.1688021538E-02
    0.1900000000E+08    0.1923287642E-06    0.6944277855E+00    0.5616881045E-03    0.6650712644E+00    0.1698467681E-02
    0.2100000000E+08    0.1625764614E-06    0.6944188554E+00    0.5077164084E-03    0.6652651826E+00    0.1707922488E-02
    0.2300000000E+08    0.1400427878E-06    0.6944106911E+00    0.4631468889E-03    0.6654253932E+00    0.1716562072E-02
    0.2500000000E+08    0.1225366875E-06    0.6944031686E+00    0.4257240330E-03    0.6655599745E+00    0.1724519113E-02
    0.2700000000E+08    0.1086426062E-06    0.6943961918E+00    0.3938597297E-03    0.6656746156E+00    0.1731896099E-02
