  Pressure (Pa) 22mC5-500 (mol/kg) 24mC5-500 (mol/kg) 2mC6-500 (mol/kg) 3mC6-500 (mol/kg) C7-500 (mol/kg)
    0.1000000000E+01    0.2256224033E-05    0.1266294732E+00    0.2050177082E-04    0.4192866501E-05    0.4181749064E-02
    0.3000000000E+01    0.4662587992E-05    0.2785110754E+00    0.4041857273E-04    0.1066053197E-04    0.4216381362E-02
    0.5000000000E+01    0.5880259334E-05    0.3664084707E+00    0.4968031694E-04    0.1660048087E-04    0.4234069586E-02
    0.7000000000E+01    0.6594227835E-05    0.4237208758E+00    0.5503571938E-04    0.2228974395E-04    0.4245262698E-02
    0.9000000000E+01    0.7060988345E-05    0.4640468377E+00    0.5877694927E-04    0.2782136347E-04    0.4252974488E-02
    0.1100000000E+02    0.7394756959E-05    0.4939637780E+00    0.6182026762E-04    0.3324176988E-04    0.4258572074E-02
    0.1300000000E+02    0.7652498052E-05    0.5170413927E+00    0.6457012287E-04    0.3857854221E-04    0.4262781648E-02
    0.1500000000E+02    0.7864997283E-05    0.5353845162E+00    0.6721623614E-04    0.4384982413E-04    0.4266027891E-02
    0.1700000000E+02    0.8049912288E-05    0.5503146209E+00    0.6985039360E-04    0.4906839148E-04    0.4268576720E-02
    0.1900000000E+02    0.8217840371E-05    0.5627032343E+00    0.7251700039E-04    0.5424368980E-04    0.4270603524E-02
    0.2100000000E+02    0.8375368097E-05    0.5731484210E+00    0.7523659473E-04    0.5938296402E-04    0.4272228853E-02
    0.2300000000E+02    0.8526701537E-05    0.5820742402E+00    0.7801739975E-04    0.6449193352E-04    0.4273538398E-02
    0.2500000000E+02    0.8674582524E-05    0.5897897389E+00    0.8086123879E-04    0.6957521928E-04    0.4274594797E-02
    0.2700000000E+02    0.8820825371E-05    0.5965254684E+00    0.8376665812E-04    0.7463662684E-04    0.4275444941E-02
    0.2900000000E+02    0.8966642395E-05    0.6024569184E+00    0.8673060937E-04    0.7967934083E-04    0.4276124646E-02
    0.3100000000E+02    0.9112847230E-05    0.6077200287E+00    0.8974936501E-04    0.8470606290E-04    0.4276661765E-02
    0.3300000000E+02    0.9259985062E-05    0.6124217371E+00    0.9281901534E-04    0.8971911218E-04    0.4277078288E-02
    0.3500000000E+02    0.9408417872E-05    0.6166473217E+00    0.9593573281E-04    0.9472049994E-04    0.4277391821E-02
    0.3700000000E+02    0.9558381285E-05    0.6204656209E+00    0.9909590580E-04    0.9971198639E-04    0.4277616630E-02
    0.3900000000E+02    0.9710023095E-05    0.6239328128E+00    0.1022961987E-03    0.1046951245E-03    0.4277764402E-02
    0.4100000000E+02    0.9863429749E-05    0.6270951975E+00    0.1055335710E-03    0.1096712941E-03    0.4277844804E-02
    0.4300000000E+02    0.1001864476E-04    0.6299912771E+00    0.1088052734E-03    0.1146417296E-03    0.4277865907E-02
    0.4500000000E+02    0.1017568163E-04    0.6326533311E+00    0.1121088327E-03    0.1196075414E-03    0.4277834501E-02
    0.4700000000E+02    0.1033453305E-04    0.6351086244E+00    0.1154420310E-03    0.1245697340E-03    0.4277756343E-02
    0.4900000000E+02    0.1049517740E-04    0.6373803451E+00    0.1188028826E-03    0.1295292204E-03    0.4277636347E-02
    0.1000000000E+02    0.7240090915E-05    0.4800371536E+00    0.6035339953E-04    0.3054345298E-04    0.4255982587E-02
    0.3000000000E+02    0.9039657139E-05    0.6051647512E+00    0.8823338065E-04    0.8219454792E-04    0.4276409537E-02
    0.5000000000E+02    0.1057616243E-04    0.6384536813E+00    0.1204931156E-03    0.1320082122E-03    0.4277562001E-02
    0.7000000000E+02    0.1228038280E-04    0.6538693799E+00    0.1554085864E-03    0.1816160369E-03    0.4274645752E-02
    0.9000000000E+02    0.1411888942E-04    0.6627598578E+00    0.1919153830E-03    0.2315967156E-03    0.4270092513E-02
    0.1100000000E+03    0.1606373255E-04    0.6685444055E+00    0.2296484255E-03    0.2822631943E-03    0.4264655853E-02
    0.1300000000E+03    0.1809925090E-04    0.6726085543E+00    0.2684839824E-03    0.3338231573E-03    0.4258645145E-02
    0.1500000000E+03    0.2021710402E-04    0.6756204170E+00    0.3083933796E-03    0.3864335701E-03    0.4252208782E-02
    0.1700000000E+03    0.2241315320E-04    0.6779418114E+00    0.3493905041E-03    0.4402242888E-03    0.4245424720E-02
    0.1900000000E+03    0.2468577810E-04    0.6797857372E+00    0.3915106042E-03    0.4953099491E-03    0.4238335864E-02
    0.2100000000E+03    0.2703495724E-04    0.6812857542E+00    0.4348009448E-03    0.5517966386E-03    0.4230965916E-02
    0.2300000000E+03    0.2946174810E-04    0.6825298581E+00    0.4793164454E-03    0.6097859735E-03    0.4223327228E-02
    0.2500000000E+03    0.3196798314E-04    0.6835783841E+00    0.5251175913E-03    0.6693777781E-03    0.4215424982E-02
    0.2700000000E+03    0.3455608767E-04    0.6844740830E+00    0.5722694561E-03    0.7306719632E-03    0.4207259565E-02
    0.2900000000E+03    0.3722896920E-04    0.6852480927E+00    0.6208413004E-03    0.7937699278E-03    0.4198827962E-02
    0.3100000000E+03    0.3998995066E-04    0.6859236303E+00    0.6709064858E-03    0.8587756675E-03    0.4190124620E-02
    0.3300000000E+03    0.4284273141E-04    0.6865183600E+00    0.7225425722E-03    0.9257967017E-03    0.4181141984E-02
    0.3500000000E+03    0.4579136671E-04    0.6870459598E+00    0.7758315303E-03    0.9949448881E-03    0.4171870830E-02
    0.3700000000E+03    0.4884025997E-04    0.6875171858E+00    0.8308600303E-03    0.1066337173E-02    0.4162300486E-02
    0.3900000000E+03    0.5199416413E-04    0.6879406126E+00    0.8877197901E-03    0.1140096308E-02    0.4152418956E-02
    0.4100000000E+03    0.5525819004E-04    0.6883231602E+00    0.9465079711E-03    0.1216351555E-02    0.4142212996E-02
    0.4300000000E+03    0.5863782040E-04    0.6886704740E+00    0.1007327618E-02    0.1295239400E-02    0.4131668144E-02
    0.4500000000E+03    0.6213892838E-04    0.6889872060E+00    0.1070288142E-02    0.1376904290E-02    0.4120768722E-02
    0.4700000000E+03    0.6576780051E-04    0.6892772237E+00    0.1135505848E-02    0.1461499396E-02    0.4109497812E-02
    0.4900000000E+03    0.6953116339E-04    0.6895437689E+00    0.1203104511E-02    0.1549187428E-02    0.4097837217E-02
    0.1000000000E+03    0.1507921967E-04    0.6659289176E+00    0.2106395778E-03    0.2568296524E-03    0.4267459745E-02
    0.3000000000E+03    0.3859822474E-04    0.6855969577E+00    0.6456824784E-03    0.8260276984E-03    0.4194510688E-02
    0.5000000000E+03    0.7146550870E-04    0.6896691118E+00    0.1237837575E-02    0.1594244959E-02    0.4091854738E-02
    0.7000000000E+03    0.1193232366E-03    0.6914282993E+00    0.2095900982E-02    0.2708096023E-02    0.3946015573E-02
    0.9000000000E+03    0.1938637993E-03    0.6924089954E+00    0.3431733060E-02    0.4445058043E-02    0.3725565184E-02
    0.1100000000E+04    0.3199047532E-03    0.6930341848E+00    0.5693422832E-02    0.7392488474E-02    0.3366075701E-02
    0.1300000000E+04    0.5498821419E-03    0.6934674285E+00    0.9831364630E-02    0.1280177560E-01    0.2741245823E-02
    0.1500000000E+04    0.9525977260E-03    0.6937853042E+00    0.1711380079E-01    0.2237016842E-01    0.1728497933E-02
    0.1700000000E+04    0.1421384785E-02    0.6940284418E+00    0.2568232524E-01    0.3374624316E-01    0.7200241569E-03
    0.1900000000E+04    0.1716273821E-02    0.6942204005E+00    0.3121053301E-01    0.4126293039E-01    0.2953902102E-03
    0.2100000000E+04    0.1887359457E-02    0.6943757813E+00    0.3454962673E-01    0.4596987258E-01    0.1995786406E-03
    0.2300000000E+04    0.2019971409E-02    0.6945041151E+00    0.3722224872E-01    0.4984236428E-01    0.1823905295E-03
    0.2500000000E+04    0.2139079223E-02    0.6946118870E+00    0.3967613529E-01    0.5346435163E-01    0.1799461867E-03
    0.2700000000E+04    0.2250199541E-02    0.6947036632E+00    0.4200903679E-01    0.5696211150E-01    0.1801259081E-03
    0.2900000000E+04    0.2354733050E-02    0.6947827516E+00    0.4424427260E-01    0.6036406061E-01    0.1807421659E-03
    0.3100000000E+04    0.2453254368E-02    0.6948516072E+00    0.4639027029E-01    0.6367905921E-01    0.1814025803E-03
    0.3300000000E+04    0.2546156677E-02    0.6949120903E+00    0.4845229737E-01    0.6691192845E-01    0.1820391683E-03
    0.3500000000E+04    0.2633778049E-02    0.6949656364E+00    0.5043476347E-01    0.7006650280E-01    0.1826428351E-03
    0.3700000000E+04    0.2716427629E-02    0.6950133706E+00    0.5234168972E-01    0.7314624530E-01    0.1832149054E-03
    0.3900000000E+04    0.2794392246E-02    0.6950561876E+00    0.5417681875E-01    0.7615438321E-01    0.1837582147E-03
    0.4100000000E+04    0.2867939060E-02    0.6950948073E+00    0.5594365228E-01    0.7909394732E-01    0.1842755125E-03
    0.4300000000E+04    0.2937317297E-02    0.6951298159E+00    0.5764547297E-01    0.8196779084E-01    0.1847692243E-03
    0.4500000000E+04    0.3002759693E-02    0.6951616952E+00    0.5928536163E-01    0.8477860327E-01    0.1852414603E-03
    0.4700000000E+04    0.3064483781E-02    0.6951908452E+00    0.6086621247E-01    0.8752892230E-01    0.1856940593E-03
    0.4900000000E+04    0.3122693054E-02    0.6952176005E+00    0.6239074689E-01    0.9022114455E-01    0.1861286326E-03
    0.1000000000E+04    0.2480272135E-03    0.6927527523E+00    0.4403117314E-02    0.5710055259E-02    0.3569311261E-02
    0.3000000000E+04    0.2404718761E-02    0.6948183306E+00    0.4532806588E-01    0.6203208972E-01    0.1810736729E-03
    0.5000000000E+04    0.3150539651E-02    0.6952301700E+00    0.6313270174E-01    0.9154618218E-01    0.1863396097E-03
    0.7000000000E+04    0.3563248058E-02    0.6954056506E+00    0.7556333442E-01    0.1154863484E+00    0.1898830248E-03
    0.9000000000E+04    0.3780627356E-02    0.6955025187E+00    0.8451920665E-01    0.1355668775E+00    0.1925677869E-03
    0.1100000000E+05    0.3878942925E-02    0.6955637511E+00    0.9111491035E-01    0.1528389321E+00    0.1947361142E-03
    0.1300000000E+05    0.3902783643E-02    0.6956058513E+00    0.9604495693E-01    0.1679865748E+00    0.1965583812E-03
    0.1500000000E+05    0.3879340993E-02    0.6956365076E+00    0.9976308067E-01    0.1814764475E+00    0.1981320556E-03
    0.1700000000E+05    0.3825751952E-02    0.6956597824E+00    0.1025773025E+00    0.1936393059E+00    0.1995182408E-03
    0.1900000000E+05    0.3753098620E-02    0.6956780230E+00    0.1047034554E+00    0.2047171527E+00    0.2007578257E-03
    0.2100000000E+05    0.3668691761E-02    0.6956926797E+00    0.1062968494E+00    0.2148918536E+00    0.2018795457E-03
    0.2300000000E+05    0.3577426583E-02    0.6957046962E+00    0.1074717983E+00    0.2243032366E+00    0.2029043818E-03
    0.2500000000E+05    0.3482614665E-02    0.6957147130E+00    0.1083140909E+00    0.2330609488E+00    0.2038481304E-03
    0.2700000000E+05    0.3386508989E-02    0.6957231797E+00    0.1088892036E+00    0.2412524602E+00    0.2047229872E-03
    0.2900000000E+05    0.3290643367E-02    0.6957304213E+00    0.1092478510E+00    0.2489486101E+00    0.2055385684E-03
    0.3100000000E+05    0.3196056495E-02    0.6957366785E+00    0.1094298273E+00    0.2562075406E+00    0.2063025932E-03
    0.3300000000E+05    0.3103442543E-02    0.6957421330E+00    0.1094667183E+00    0.2630775443E+00    0.2070213531E-03
    0.3500000000E+05    0.3013253962E-02    0.6957469247E+00    0.1093838522E+00    0.2695991623E+00    0.2077000457E-03
    0.3700000000E+05    0.2925772644E-02    0.6957511632E+00    0.1092017257E+00    0.2758067574E+00    0.2083430146E-03
    0.3900000000E+05    0.2841159737E-02    0.6957549353E+00    0.1089370621E+00    0.2817297099E+00    0.2089539280E-03
    0.4100000000E+05    0.2759490888E-02    0.6957583107E+00    0.1086036067E+00    0.2873933387E+00    0.2095359122E-03
    0.4300000000E+05    0.2680781379E-02    0.6957613459E+00    0.1082127329E+00    0.2928196212E+00    0.2100916537E-03
    0.4500000000E+05    0.2605004183E-02    0.6957640875E+00    0.1077739075E+00    0.2980277601E+00    0.2106234782E-03
    0.4700000000E+05    0.2532103005E-02    0.6957665738E+00    0.1072950536E+00    0.3030346357E+00    0.2111334131E-03
    0.4900000000E+05    0.2462001732E-02    0.6957688369E+00    0.1067828348E+00    0.3078551698E+00    0.2116232362E-03
    0.1000000000E+05    0.3841353164E-02    0.6955362478E+00    0.8806149392E-01    0.1445048141E+00    0.1937034756E-03
    0.3000000000E+05    0.3243140018E-02    0.6957336605E+00    0.1093587824E+00    0.2526295063E+00    0.2059266031E-03
    0.5000000000E+05    0.2427973589E-02    0.6957698935E+00    0.1065160079E+00    0.3101997601E+00    0.2118611031E-03
    0.7000000000E+05    0.1870502463E-02    0.6957840551E+00    0.1004131460E+00    0.3498727730E+00    0.2158617952E-03
    0.9000000000E+05    0.1486488973E-02    0.6957911571E+00    0.9407517994E-01    0.3800185442E+00    0.2188986887E-03
    0.1100000000E+06    0.1211838142E-02    0.6957951845E+00    0.8816338706E-01    0.4041453265E+00    0.2213540355E-03
    0.1300000000E+06    0.1008418744E-02    0.6957976288E+00    0.8280886474E-01    0.4240958514E+00    0.2234189380E-03
    0.1500000000E+06    0.8532815536E-03    0.6957991668E+00    0.7799823528E-01    0.4409726722E+00    0.2252030037E-03
    0.1700000000E+06    0.7320629792E-03    0.6958001470E+00    0.7367893181E-01    0.4554935643E+00    0.2267750679E-03
    0.1900000000E+06    0.6354106227E-03    0.6958007650E+00    0.6979181001E-01    0.4681541636E+00    0.2281812516E-03
    0.2100000000E+06    0.5570168834E-03    0.6958011384E+00    0.6628149036E-01    0.4793118927E+00    0.2294539988E-03
    0.2300000000E+06    0.4924960666E-03    0.6958013414E+00    0.6309919954E-01    0.4892332298E+00    0.2306170161E-03
    0.2500000000E+06    0.4387175344E-03    0.6958014229E+00    0.6020300022E-01    0.4981221615E+00    0.2316881627E-03
    0.2700000000E+06    0.3933950284E-03    0.6958014162E+00    0.5755715601E-01    0.5061382266E+00    0.2326812340E-03
    0.2900000000E+06    0.3548253933E-03    0.6958013444E+00    0.5513127882E-01    0.5134084473E+00    0.2336071121E-03
    0.3100000000E+06    0.3217174867E-03    0.6958012242E+00    0.5289949514E-01    0.5200354952E+00    0.2344745349E-03
    0.3300000000E+06    0.2930772449E-03    0.6958010677E+00    0.5083970890E-01    0.5261034431E+00    0.2352906272E-03
    0.3500000000E+06    0.2681287012E-03    0.6958008839E+00    0.4893297685E-01    0.5316819144E+00    0.2360612757E-03
    0.3700000000E+06    0.2462585975E-03    0.6958006794E+00    0.4716298936E-01    0.5368291420E+00    0.2367914018E-03
    0.3900000000E+06    0.2269768309E-03    0.6958004595E+00    0.4551564252E-01    0.5415942622E+00    0.2374851618E-03
    0.4100000000E+06    0.2098877403E-03    0.6958002280E+00    0.4397868637E-01    0.5460190638E+00    0.2381460991E-03
    0.4300000000E+06    0.1946689521E-03    0.6957999881E+00    0.4254143560E-01    0.5501393403E+00    0.2387772589E-03
    0.4500000000E+06    0.1810555823E-03    0.6957997420E+00    0.4119453119E-01    0.5539859481E+00    0.2393812779E-03
    0.4700000000E+06    0.1688282927E-03    0.6957994918E+00    0.3992974317E-01    0.5575856439E+00    0.2399604547E-03
    0.4900000000E+06    0.1578041593E-03    0.6957992388E+00    0.3873980699E-01    0.5609617553E+00    0.2405168054E-03
    0.1000000000E+06    0.1338338691E-02    0.6957934331E+00    0.9105223385E-01    0.3926953523E+00    0.2201844539E-03
    0.3000000000E+06    0.3376567509E-03    0.6958012896E+00    0.5399258697E-01    0.5167967323E+00    0.2340476523E-03
    0.5000000000E+06    0.1526942993E-03    0.6957991117E+00    0.3817086810E-01    0.5625724541E+00    0.2407869850E-03
    0.7000000000E+06    0.8684226384E-04    0.6957966097E+00    0.2949148150E-01    0.5868900465E+00    0.2453316134E-03
    0.9000000000E+06    0.5597519787E-04    0.6957943424E+00    0.2401353114E-01    0.6020247481E+00    0.2487818666E-03
    0.1100000000E+07    0.3905882884E-04    0.6957923358E+00    0.2024316303E-01    0.6123613829E+00    0.2515716258E-03
    0.1300000000E+07    0.2879385899E-04    0.6957905527E+00    0.1749048908E-01    0.6198714059E+00    0.2539178739E-03
    0.1500000000E+07    0.2210027660E-04    0.6957889538E+00    0.1539299244E-01    0.6255750931E+00    0.2559450863E-03
    0.1700000000E+07    0.1749495301E-04    0.6957875066E+00    0.1374197432E-01    0.6300540822E+00    0.2577314453E-03
    0.1900000000E+07    0.1419182270E-04    0.6957861857E+00    0.1240881409E-01    0.6336644028E+00    0.2593293399E-03
    0.2100000000E+07    0.1174266749E-04    0.6957849711E+00    0.1130993391E-01    0.6366362522E+00    0.2607756255E-03
    0.2300000000E+07    0.9876728051E-05    0.6957838470E+00    0.1038867493E-01    0.6391250934E+00    0.2620972338E-03
    0.2500000000E+07    0.8422610790E-05    0.6957828008E+00    0.9605271182E-02    0.6412397134E+00    0.2633144543E-03
    0.2700000000E+07    0.7267537648E-05    0.6957818223E+00    0.8930993025E-02    0.6430585195E+00    0.2644429602E-03
    0.2900000000E+07    0.6334840156E-05    0.6957809033E+00    0.8344568558E-02    0.6446394522E+00    0.2654951154E-03
    0.3100000000E+07    0.5570925886E-05    0.6957800368E+00    0.7829912314E-02    0.6460262538E+00    0.2664808477E-03
    0.3300000000E+07    0.4937420350E-05    0.6957792170E+00    0.7374636174E-02    0.6472525661E+00    0.2674082525E-03
    0.3500000000E+07    0.4406262251E-05    0.6957784390E+00    0.6969045310E-02    0.6483446860E+00    0.2682840183E-03
    0.3700000000E+07    0.3956548449E-05    0.6957776988E+00    0.6605444368E-02    0.6493234661E+00    0.2691137370E-03
    0.3900000000E+07    0.3572450032E-05    0.6957769928E+00    0.6277647555E-02    0.6502056536E+00    0.2699021314E-03
    0.4100000000E+07    0.3241803230E-05    0.6957763178E+00    0.5980625996E-02    0.6510048535E+00    0.2706532275E-03
    0.4300000000E+07    0.2955136510E-05    0.6957756712E+00    0.5710249499E-02    0.6517322318E+00    0.2713704857E-03
    0.4500000000E+07    0.2704986119E-05    0.6957750507E+00    0.5463094509E-02    0.6523970387E+00    0.2720569021E-03
    0.4700000000E+07    0.2485406324E-05    0.6957744541E+00    0.5236299275E-02    0.6530070025E+00    0.2727150887E-03
    0.4900000000E+07    0.2291613552E-05    0.6957738798E+00    0.5027453218E-02    0.6535686297E+00    0.2733473362E-03
    0.1000000000E+07    0.4638191679E-04    0.6957933085E+00    0.2196892359E-01    0.6076376571E+00    0.2502427300E-03
    0.3000000000E+07    0.5934471976E-05    0.6957804638E+00    0.8079116708E-02    0.6453548175E+00    0.2659957412E-03
    0.5000000000E+07    0.2203144224E-05    0.6957736004E+00    0.4929109748E-02    0.6538330748E+00    0.2736543737E-03
    0.7000000000E+07    0.1142746298E-05    0.6957688608E+00    0.3540116706E-02    0.6575670512E+00    0.2788190068E-03
    0.9000000000E+07    0.7002140742E-06    0.6957652213E+00    0.2759122579E-02    0.6596661887E+00    0.2827399863E-03
    0.1100000000E+08    0.4743205349E-06    0.6957622580E+00    0.2259017725E-02    0.6610105103E+00    0.2859103675E-03
    0.1300000000E+08    0.3436223050E-06    0.6957597541E+00    0.1911551741E-02    0.6619447298E+00    0.2885767303E-03
    0.1500000000E+08    0.2612286312E-06    0.6957575831E+00    0.1656193565E-02    0.6626314785E+00    0.2908805304E-03
    0.1700000000E+08    0.2059334863E-06    0.6957556648E+00    0.1460660714E-02    0.6631574769E+00    0.2929106163E-03
    0.1900000000E+08    0.1670115996E-06    0.6957539452E+00    0.1306168060E-02    0.6635731858E+00    0.2947265240E-03
    0.2100000000E+08    0.1385651437E-06    0.6957523858E+00    0.1181044062E-02    0.6639099583E+00    0.2963701374E-03
    0.2300000000E+08    0.1171327580E-06    0.6957509586E+00    0.1077656162E-02    0.6641882991E+00    0.2978720625E-03
    0.2500000000E+08    0.1005742206E-06    0.6957496424E+00    0.9908035559E-03    0.6644221814E+00    0.2992553570E-03
    0.2700000000E+08    0.8750834157E-07    0.6957484206E+00    0.9168206401E-03    0.6646214548E+00    0.3005378327E-03
