  Pressure (Pa) 22mC5-500 (mol/kg) 24mC5-500 (mol/kg) 2mC6-500 (mol/kg) 3mC6-500 (mol/kg) C7-500 (mol/kg)
    0.1000000000E+01    0.1940039956E-05    0.1949967665E+00    0.7422868679E-05    0.4001440340E-05    0.4188852744E-02
    0.3000000000E+01    0.3438907453E-05    0.3748939350E+00    0.1248345875E-04    0.1023400282E-04    0.4219901322E-02
    0.5000000000E+01    0.4029021265E-05    0.4597190258E+00    0.1445363926E-04    0.1596727118E-04    0.4233424172E-02
    0.7000000000E+01    0.4348455309E-05    0.5090858033E+00    0.1575983847E-04    0.2146022687E-04    0.4241175006E-02
    0.9000000000E+01    0.4565878015E-05    0.5413840671E+00    0.1692137140E-04    0.2680027851E-04    0.4246182246E-02
    0.1100000000E+02    0.4740347869E-05    0.5641612464E+00    0.1807704451E-04    0.3203117243E-04    0.4249653627E-02
    0.1300000000E+02    0.4896115208E-05    0.5810865676E+00    0.1926511989E-04    0.3717894920E-04    0.4252172944E-02
    0.1500000000E+02    0.5044168868E-05    0.5941584844E+00    0.2049337672E-04    0.4226076933E-04    0.4254058696E-02
    0.1700000000E+02    0.5189797798E-05    0.6045584657E+00    0.2176000455E-04    0.4728873275E-04    0.4255500101E-02
    0.1900000000E+02    0.5335625910E-05    0.6130297732E+00    0.2306048775E-04    0.5227179493E-04    0.4256616963E-02
    0.2100000000E+02    0.5482954276E-05    0.6200633862E+00    0.2438996356E-04    0.5721683074E-04    0.4257489003E-02
    0.2300000000E+02    0.5632399552E-05    0.6259966684E+00    0.2574399742E-04    0.6212927086E-04    0.4258171422E-02
    0.2500000000E+02    0.5784215020E-05    0.6310690878E+00    0.2711878351E-04    0.6701350491E-04    0.4258703720E-02
    0.2700000000E+02    0.5938459058E-05    0.6354553244E+00    0.2851113858E-04    0.7187314881E-04    0.4259114941E-02
    0.2900000000E+02    0.6095086418E-05    0.6392857924E+00    0.2991842889E-04    0.7671122867E-04    0.4259426946E-02
    0.3100000000E+02    0.6253998815E-05    0.6426598267E+00    0.3133848348E-04    0.8153031141E-04    0.4259656524E-02
    0.3300000000E+02    0.6415073337E-05    0.6456544205E+00    0.3276951296E-04    0.8633259981E-04    0.4259816788E-02
    0.3500000000E+02    0.6578178453E-05    0.6483301722E+00    0.3421003970E-04    0.9112000341E-04    0.4259918145E-02
    0.3700000000E+02    0.6743182946E-05    0.6507354286E+00    0.3565884006E-04    0.9589419229E-04    0.4259968962E-02
    0.3900000000E+02    0.6909960740E-05    0.6529092324E+00    0.3711489743E-04    0.1006566387E-03    0.4259976045E-02
    0.4100000000E+02    0.7078393343E-05    0.6548834571E+00    0.3857736429E-04    0.1054086495E-03    0.4259944997E-02
    0.4300000000E+02    0.7248370895E-05    0.6566843809E+00    0.4004553176E-04    0.1101513924E-03    0.4259880468E-02
    0.4500000000E+02    0.7419792411E-05    0.6583338627E+00    0.4151880502E-04    0.1148859166E-03    0.4259786356E-02
    0.4700000000E+02    0.7592565566E-05    0.6598502333E+00    0.4299668347E-04    0.1196131694E-03    0.4259665954E-02
    0.4900000000E+02    0.7766606238E-05    0.6612489801E+00    0.4447874475E-04    0.1243340109E-03    0.4259522063E-02
    0.1000000000E+02    0.4656511882E-05    0.5536787293E+00    0.1749640898E-04    0.2942746837E-04    0.4248064720E-02
    0.3000000000E+02    0.6174264324E-05    0.6410246084E+00    0.3062698055E-04    0.7912299940E-04    0.4259551146E-02
    0.5000000000E+02    0.7854077709E-05    0.6619084400E+00    0.4522123009E-04    0.1266922750E-03    0.4259442071E-02
    0.7000000000E+02    0.9654924383E-05    0.6712807652E+00    0.6022844904E-04    0.1736800579E-03    0.4257043702E-02
    0.9000000000E+02    0.1152866397E-04    0.6766029561E+00    0.7546286812E-04    0.2206240157E-03    0.4253735931E-02
    0.1100000000E+03    0.1345596056E-04    0.6800337851E+00    0.9089411393E-04    0.2678042606E-03    0.4249943048E-02
    0.1300000000E+03    0.1542857394E-04    0.6824292911E+00    0.1065277294E-03    0.3153971410E-03    0.4245840498E-02
    0.1500000000E+03    0.1744299441E-04    0.6841966436E+00    0.1223787599E-03    0.3635276835E-03    0.4241513781E-02
    0.1700000000E+03    0.1949796262E-04    0.6855542532E+00    0.1384645582E-03    0.4122923027E-03    0.4237008991E-02
    0.1900000000E+03    0.2159339012E-04    0.6866297934E+00    0.1548026541E-03    0.4617701976E-03    0.4232352593E-02
    0.2100000000E+03    0.2372984564E-04    0.6875028867E+00    0.1714101669E-03    0.5120296848E-03    0.4227560308E-02
    0.2300000000E+03    0.2590829325E-04    0.6882257663E+00    0.1883037223E-03    0.5631319989E-03    0.4222641539E-02
    0.2500000000E+03    0.2812995181E-04    0.6888341200E+00    0.2054995334E-03    0.6151337144E-03    0.4217601753E-02
    0.2700000000E+03    0.3039621665E-04    0.6893531607E+00    0.2230135276E-03    0.6680883697E-03    0.4212443840E-02
    0.2900000000E+03    0.3270861493E-04    0.6898012069E+00    0.2408614768E-03    0.7220476020E-03    0.4207168925E-02
    0.3100000000E+03    0.3506878007E-04    0.6901918883E+00    0.2590591180E-03    0.7770619748E-03    0.4201776879E-02
    0.3300000000E+03    0.3747843729E-04    0.6905355556E+00    0.2776222612E-03    0.8331816004E-03    0.4196266642E-02
    0.3500000000E+03    0.3993939605E-04    0.6908402110E+00    0.2965668849E-03    0.8904566265E-03    0.4190636445E-02
    0.3700000000E+03    0.4245354670E-04    0.6911121381E+00    0.3159092215E-03    0.9489376289E-03    0.4184883950E-02
    0.3900000000E+03    0.4502285989E-04    0.6913563399E+00    0.3356658340E-03    0.1008675937E-02    0.4179006353E-02
    0.4100000000E+03    0.4764938789E-04    0.6915768494E+00    0.3558536867E-03    0.1069723916E-02    0.4173000448E-02
    0.4300000000E+03    0.5033526718E-04    0.6917769535E+00    0.3764902115E-03    0.1132135214E-02    0.4166862680E-02
    0.4500000000E+03    0.5308272200E-04    0.6919593580E+00    0.3975933701E-03    0.1195964984E-02    0.4160589170E-02
    0.4700000000E+03    0.5589406866E-04    0.6921263107E+00    0.4191817142E-03    0.1261270101E-02    0.4154175742E-02
    0.4900000000E+03    0.5877172041E-04    0.6922796942E+00    0.4412744455E-03    0.1328109355E-02    0.4147617932E-02
    0.1000000000E+03    0.1248628899E-04    0.6784856396E+00    0.8315391540E-04    0.2441719843E-03    0.4251886073E-02
    0.3000000000E+03    0.3388262085E-04    0.6900030071E+00    0.2499156006E-03    0.7494197595E-03    0.4204487591E-02
    0.5000000000E+03    0.6023619268E-04    0.6923518039E+00    0.4525161488E-03    0.1362123227E-02    0.4144283413E-02
    0.7000000000E+03    0.9369478768E-04    0.6933625607E+00    0.7092309392E-03    0.2139442512E-02    0.4068680417E-02
    0.9000000000E+03    0.1376386276E-03    0.6939249287E+00    0.1046431727E-02    0.3161926669E-02    0.3971048766E-02
    0.1100000000E+04    0.1975861367E-03    0.6942829892E+00    0.1506820600E-02    0.4560006708E-02    0.3840444362E-02
    0.1300000000E+04    0.2830342900E-03    0.6945308930E+00    0.2163868085E-02    0.6558424187E-02    0.3658378696E-02
    0.1500000000E+04    0.4110141834E-03    0.6947126527E+00    0.3149556760E-02    0.9561762497E-02    0.3392707106E-02
    0.1700000000E+04    0.6120965696E-03    0.6948515944E+00    0.4701587475E-02    0.1430113984E-01    0.2988614235E-02
    0.1900000000E+04    0.9332292558E-03    0.6949612327E+00    0.7187767761E-02    0.2191616159E-01    0.2371260524E-02
    0.2100000000E+04    0.1397971270E-02    0.6950499380E+00    0.1080347886E-01    0.3304429846E-01    0.1537510243E-02
    0.2300000000E+04    0.1888969505E-02    0.6951231709E+00    0.1465871739E-01    0.4501546208E-01    0.7619438358E-03
    0.2500000000E+04    0.2235229932E-02    0.6951846459E+00    0.1742821253E-01    0.5376690948E-01    0.3452166038E-03
    0.2700000000E+04    0.2448429586E-02    0.6952369768E+00    0.1918598875E-01    0.5947705954E-01    0.1995931573E-03
    0.2900000000E+04    0.2602338888E-02    0.6952820568E+00    0.2049521325E-01    0.6384748546E-01    0.1578964312E-03
    0.3100000000E+04    0.2733658709E-02    0.6953212906E+00    0.2163833584E-01    0.6773860662E-01    0.1469008377E-03
    0.3300000000E+04    0.2854625784E-02    0.6953557421E+00    0.2270968205E-01    0.7143840416E-01    0.1442910623E-03
    0.3500000000E+04    0.2968994215E-02    0.6953862323E+00    0.2373793420E-01    0.7503385297E-01    0.1439215811E-03
    0.3700000000E+04    0.3077992634E-02    0.6954134044E+00    0.2473214850E-01    0.7855156541E-01    0.1441393187E-03
    0.3900000000E+04    0.3182121541E-02    0.6954377697E+00    0.2569571673E-01    0.8200069901E-01    0.1445009898E-03
    0.4100000000E+04    0.3281667898E-02    0.6954597397E+00    0.2663038308E-01    0.8538536049E-01    0.1448880216E-03
    0.4300000000E+04    0.3376850966E-02    0.6954796493E+00    0.2753738682E-01    0.8870814893E-01    0.1452693199E-03
    0.4500000000E+04    0.3467863912E-02    0.6954977738E+00    0.2841778874E-01    0.9197116957E-01    0.1456374298E-03
    0.4700000000E+04    0.3554885995E-02    0.6955143416E+00    0.2927256590E-01    0.9517632715E-01    0.1459912463E-03
    0.4900000000E+04    0.3638086409E-02    0.6955295437E+00    0.3010264065E-01    0.9832541328E-01    0.1463313070E-03
    0.1000000000E+04    0.1651422492E-03    0.6941218517E+00    0.1257595692E-02    0.3802915920E-02    0.3910792465E-02
    0.3000000000E+04    0.2669737090E-02    0.6953023313E+00    0.2107916490E-01    0.6582738747E-01    0.1505806516E-03
    0.5000000000E+04    0.3678303985E-02    0.6955366841E+00    0.3050869050E-01    0.9987946588E-01    0.1464964574E-03
    0.7000000000E+04    0.4317098710E-02    0.6956362326E+00    0.3752610388E-01    0.1283951802E+00    0.1492725101E-03
    0.9000000000E+04    0.4715091586E-02    0.6956910245E+00    0.4286117859E-01    0.1528610928E+00    0.1513778562E-03
    0.1100000000E+05    0.4950448957E-02    0.6957255587E+00    0.4696747759E-01    0.1742028116E+00    0.1530791418E-03
    0.1300000000E+05    0.5074130932E-02    0.6957492328E+00    0.5015440417E-01    0.1930729958E+00    0.1545094065E-03
    0.1500000000E+05    0.5120257095E-02    0.6957664200E+00    0.5263955485E-01    0.2099462050E+00    0.1557448571E-03
    0.1700000000E+05    0.5112177240E-02    0.6957794289E+00    0.5457995353E-01    0.2251766292E+00    0.1568333107E-03
    0.1900000000E+05    0.5066161755E-02    0.6957895924E+00    0.5609143587E-01    0.2390346251E+00    0.1578067856E-03
    0.2100000000E+05    0.4993717349E-02    0.6957977330E+00    0.5726109311E-01    0.2517306261E+00    0.1586877942E-03
    0.2300000000E+05    0.4903080375E-02    0.6958043854E+00    0.5815549743E-01    0.2634312499E+00    0.1594927800E-03
    0.2500000000E+05    0.4800202911E-02    0.6958099123E+00    0.5882628004E-01    0.2742704296E+00    0.1602341270E-03
    0.2700000000E+05    0.4689417504E-02    0.6958145681E+00    0.5931400031E-01    0.2843572808E+00    0.1609213987E-03
    0.2900000000E+05    0.4573893547E-02    0.6958185364E+00    0.5965088383E-01    0.2937817733E+00    0.1615621376E-03
    0.3100000000E+05    0.4455955670E-02    0.6958219530E+00    0.5986279517E-01    0.3026188953E+00    0.1621623990E-03
    0.3300000000E+05    0.4337309071E-02    0.6958249205E+00    0.5997068229E-01    0.3109317592E+00    0.1627271194E-03
    0.3500000000E+05    0.4219201025E-02    0.6958275177E+00    0.5999164960E-01    0.3187739540E+00    0.1632603773E-03
    0.3700000000E+05    0.4102537962E-02    0.6958298063E+00    0.5993976578E-01    0.3261913486E+00    0.1637655816E-03
    0.3900000000E+05    0.3987971205E-02    0.6958318352E+00    0.5982667926E-01    0.3332234933E+00    0.1642456114E-03
    0.4100000000E+05    0.3875960319E-02    0.6958336434E+00    0.5966209234E-01    0.3399047201E+00    0.1647029205E-03
    0.4300000000E+05    0.3766820297E-02    0.6958352627E+00    0.5945413017E-01    0.3462650159E+00    0.1651396179E-03
    0.4500000000E+05    0.3660756957E-02    0.6958367193E+00    0.5920963051E-01    0.3523307216E+00    0.1655575296E-03
    0.4700000000E+05    0.3557893654E-02    0.6958380346E+00    0.5893437334E-01    0.3581250976E+00    0.1659582472E-03
    0.4900000000E+05    0.3458291558E-02    0.6958392266E+00    0.5863326410E-01    0.3636687841E+00    0.1663431666E-03
    0.1000000000E+05    0.4849426022E-02    0.6957100598E+00    0.4504595670E-01    0.1638766344E+00    0.1522688369E-03
    0.3000000000E+05    0.4515107404E-02    0.6958203066E+00    0.5977105063E-01    0.2982695634E+00    0.1618669967E-03
    0.5000000000E+05    0.3409719457E-02    0.6958397812E+00    0.5847434569E-01    0.3663524468E+00    0.1665300925E-03
    0.7000000000E+05    0.2599198915E-02    0.6958470484E+00    0.5467911931E-01    0.4104363551E+00    0.1696741782E-03
    0.9000000000E+05    0.2033477425E-02    0.6958504822E+00    0.5065229353E-01    0.4421584780E+00    0.1720610014E-03
    0.1100000000E+06    0.1630566651E-02    0.6958522795E+00    0.4691315890E-01    0.4663935766E+00    0.1739908421E-03
    0.1300000000E+06    0.1335349980E-02    0.6958532528E+00    0.4356656785E-01    0.4856495187E+00    0.1756138466E-03
    0.1500000000E+06    0.1113169679E-02    0.6958537662E+00    0.4060251014E-01    0.5013846922E+00    0.1770161405E-03
    0.1700000000E+06    0.9419753032E-03    0.6958540044E+00    0.3798018251E-01    0.5145192975E+00    0.1782518159E-03
    0.1900000000E+06    0.8073554457E-03    0.6958540699E+00    0.3565414099E-01    0.5256688954E+00    0.1793571173E-03
    0.2100000000E+06    0.6996179382E-03    0.6958540229E+00    0.3358244152E-01    0.5352638128E+00    0.1803575420E-03
    0.2300000000E+06    0.6120669790E-03    0.6958539012E+00    0.3172872491E-01    0.5436154548E+00    0.1812717212E-03
    0.2500000000E+06    0.5399630281E-03    0.6958537288E+00    0.3006223447E-01    0.5509555423E+00    0.1821136909E-03
    0.2700000000E+06    0.4798776057E-03    0.6958535221E+00    0.2855718469E-01    0.5574605246E+00    0.1828942935E-03
    0.2900000000E+06    0.4292821189E-03    0.6958532919E+00    0.2719199612E-01    0.5632673988E+00    0.1836220819E-03
    0.3100000000E+06    0.3862791128E-03    0.6958530461E+00    0.2594857712E-01    0.5684843146E+00    0.1843039237E-03
    0.3300000000E+06    0.3494224787E-03    0.6958527900E+00    0.2481170556E-01    0.5731978887E+00    0.1849454188E-03
    0.3500000000E+06    0.3175945959E-03    0.6958525275E+00    0.2376851611E-01    0.5774783750E+00    0.1855511942E-03
    0.3700000000E+06    0.2899207433E-03    0.6958522616E+00    0.2280808199E-01    0.5813833963E+00    0.1861251178E-03
    0.3900000000E+06    0.2657084202E-03    0.6958519943E+00    0.2192107622E-01    0.5849606897E+00    0.1866704566E-03
    0.4100000000E+06    0.2444036318E-03    0.6958517272E+00    0.2109949762E-01    0.5882501588E+00    0.1871899957E-03
    0.4300000000E+06    0.2255589329E-03    0.6958514612E+00    0.2033644889E-01    0.5912854307E+00    0.1876861286E-03
    0.4500000000E+06    0.2088097515E-03    0.6958511974E+00    0.1962595640E-01    0.5940950529E+00    0.1881609278E-03
    0.4700000000E+06    0.1938566296E-03    0.6958509362E+00    0.1896282312E-01    0.5967034244E+00    0.1886162001E-03
    0.4900000000E+06    0.1804517501E-03    0.6958506781E+00    0.1834250825E-01    0.5991315277E+00    0.1890535300E-03
    0.1000000000E+06    0.1815706486E-02    0.6958515187E+00    0.4873577315E-01    0.4550213167E+00    0.1730715728E-03
    0.3000000000E+06    0.4069308560E-03    0.6958531706E+00    0.2655607755E-01    0.5659437522E+00    0.1839683703E-03
    0.5000000000E+06    0.1742639863E-03    0.6958505503E+00    0.1804714340E-01    0.6002837472E+00    0.1892659099E-03
    0.7000000000E+06    0.9615695366E-04    0.6958481935E+00    0.1363907565E-01    0.6172011175E+00    0.1928383208E-03
    0.9000000000E+06    0.6080036818E-04    0.6958461942E+00    0.1095084630E-01    0.6272882979E+00    0.1955504902E-03
    0.1100000000E+07    0.4186571705E-04    0.6958444786E+00    0.9142349523E-02    0.6339890206E+00    0.1977434686E-03
    0.1300000000E+07    0.3056315986E-04    0.6958429812E+00    0.7843307980E-02    0.6387636255E+00    0.1995878164E-03
    0.1500000000E+07    0.2328299081E-04    0.6958416541E+00    0.6865441042E-02    0.6423380495E+00    0.2011813788E-03
    0.1700000000E+07    0.1832167226E-04    0.6958404628E+00    0.6102972122E-02    0.6451140983E+00    0.2025856123E-03
    0.1900000000E+07    0.1479027411E-04    0.6958393820E+00    0.5491931247E-02    0.6473322269E+00    0.2038416982E-03
    0.2100000000E+07    0.1218818024E-04    0.6958383929E+00    0.4991371817E-02    0.6491451511E+00    0.2049786075E-03
    0.2300000000E+07    0.1021603044E-04    0.6958374809E+00    0.4573874423E-02    0.6506545223E+00    0.2060175105E-03
    0.2500000000E+07    0.8685919776E-05    0.6958366347E+00    0.4220390456E-02    0.6519306239E+00    0.2069743561E-03
    0.2700000000E+07    0.7475085496E-05    0.6958358453E+00    0.3917276257E-02    0.6530236032E+00    0.2078614649E-03
    0.2900000000E+07    0.6500580690E-05    0.6958351055E+00    0.3654504259E-02    0.6539702002E+00    0.2086885555E-03
    0.3100000000E+07    0.5704731077E-05    0.6958344091E+00    0.3424540184E-02    0.6547979464E+00    0.2094634324E-03
    0.3300000000E+07    0.5046430795E-05    0.6958337514E+00    0.3221613959E-02    0.6555278796E+00    0.2101924588E-03
    0.3500000000E+07    0.4495744267E-05    0.6958331281E+00    0.3041232219E-02    0.6561763511E+00    0.2108808926E-03
    0.3700000000E+07    0.4030453402E-05    0.6958325357E+00    0.2879843930E-02    0.6567562620E+00    0.2115331294E-03
    0.3900000000E+07    0.3633788426E-05    0.6958319713E+00    0.2734605830E-02    0.6572779270E+00    0.2121528818E-03
    0.4100000000E+07    0.3292900438E-05    0.6958314322E+00    0.2603214568E-02    0.6577496915E+00    0.2127433146E-03
    0.4300000000E+07    0.2997811058E-05    0.6958309163E+00    0.2483784447E-02    0.6581783803E+00    0.2133071478E-03
    0.4500000000E+07    0.2740676183E-05    0.6958304215E+00    0.2374756922E-02    0.6585696284E+00    0.2138467366E-03
    0.4700000000E+07    0.2515260939E-05    0.6958299462E+00    0.2274832651E-02    0.6589281298E+00    0.2143641343E-03
    0.4900000000E+07    0.2316559329E-05    0.6958294888E+00    0.2182919794E-02    0.6592578255E+00    0.2148611417E-03
    0.1000000000E+07    0.5001886317E-04    0.6958453055E+00    0.9965926306E-02    0.6309455830E+00    0.1966988472E-03
    0.3000000000E+07    0.6083206191E-05    0.6958347522E+00    0.3535816581E-02    0.6543974872E+00    0.2090820937E-03
    0.5000000000E+07    0.2225927443E-05    0.6958292664E+00    0.2139673198E-02    0.6594129334E+00    0.2151025027E-03
    0.7000000000E+07    0.1144028600E-05    0.6958255027E+00    0.1531198757E-02    0.6615942612E+00    0.2191624089E-03
    0.9000000000E+07    0.6956057368E-06    0.6958226211E+00    0.1190980952E-02    0.6628135340E+00    0.2222446903E-03
    0.1100000000E+08    0.4677646181E-06    0.6958202791E+00    0.9738448438E-03    0.6635918587E+00    0.2247369318E-03
    0.1300000000E+08    0.3364178488E-06    0.6958183023E+00    0.8233121210E-03    0.6641316462E+00    0.2268329672E-03
    0.1500000000E+08    0.2538732332E-06    0.6958165898E+00    0.7128557796E-03    0.6645279013E+00    0.2286439938E-03
    0.1700000000E+08    0.1986338228E-06    0.6958150775E+00    0.6283758615E-03    0.6648311078E+00    0.2302398544E-03
    0.1900000000E+08    0.1598553667E-06    0.6958137225E+00    0.5616878488E-03    0.6650705681E+00    0.2316673503E-03
    0.2100000000E+08    0.1315873458E-06    0.6958124942E+00    0.5077161751E-03    0.6652644549E+00    0.2329594058E-03
    0.2300000000E+08    0.1103438855E-06    0.6958113705E+00    0.4631466741E-03    0.6654246357E+00    0.2341400803E-03
    0.2500000000E+08    0.9397311656E-07    0.6958103343E+00    0.4257238341E-03    0.6655591885E+00    0.2352274993E-03
    0.2700000000E+08    0.8108839073E-07    0.6958093728E+00    0.3938595443E-03    0.6656738025E+00    0.2362356647E-03
