  Pressure (Pa) 22mC5-500 (mol/kg) 24mC5-500 (mol/kg) 2mC6-500 (mol/kg) 3mC6-500 (mol/kg) C7-500 (mol/kg)
    0.1000000000E+01    0.2014152459E-05    0.1741009519E+00    0.7674522768E-05    0.1441342282E-05    0.4223997104E-02
    0.3000000000E+01    0.3723174005E-05    0.3480944382E+00    0.1341638371E-04    0.3734995269E-05    0.4287329608E-02
    0.5000000000E+01    0.4430889874E-05    0.4350518444E+00    0.1562187588E-04    0.5854420312E-05    0.4319238994E-02
    0.7000000000E+01    0.4807229542E-05    0.4872140491E+00    0.1692356417E-04    0.7888236104E-05    0.4338849393E-02
    0.9000000000E+01    0.5048212645E-05    0.5219838450E+00    0.1797156770E-04    0.9866657119E-05    0.4352249436E-02
    0.1100000000E+02    0.5227384460E-05    0.5468169778E+00    0.1896447346E-04    0.1180489487E-04    0.4362050967E-02
    0.1300000000E+02    0.5376729261E-05    0.5654404893E+00    0.1996818967E-04    0.1371204381E-04    0.4369569345E-02
    0.1500000000E+02    0.5511558450E-05    0.5799246373E+00    0.2100369961E-04    0.1559411807E-04    0.4375542008E-02
    0.1700000000E+02    0.5639688031E-05    0.5915114352E+00    0.2207561672E-04    0.1745537055E-04    0.4380415804E-02
    0.1900000000E+02    0.5765276901E-05    0.6009911863E+00    0.2318252675E-04    0.1929895673E-04    0.4384478011E-02
    0.2100000000E+02    0.5890588091E-05    0.6088907233E+00    0.2432098543E-04    0.2112730413E-04    0.4387922142E-02
    0.2300000000E+02    0.6016856306E-05    0.6155747564E+00    0.2548710680E-04    0.2294233381E-04    0.4390883571E-02
    0.2500000000E+02    0.6144739634E-05    0.6213037808E+00    0.2667718157E-04    0.2474560106E-04    0.4393460008E-02
    0.2700000000E+02    0.6274565340E-05    0.6262688191E+00    0.2788789186E-04    0.2653838875E-04    0.4395723857E-02
    0.2900000000E+02    0.6406468389E-05    0.6306131334E+00    0.2911635722E-04    0.2832177172E-04    0.4397729985E-02
    0.3100000000E+02    0.6540471705E-05    0.6344462741E+00    0.3036011252E-04    0.3009666258E-04    0.4399520783E-02
    0.3300000000E+02    0.6676533686E-05    0.6378534447E+00    0.3161706193E-04    0.3186384508E-04    0.4401129561E-02
    0.3500000000E+02    0.6814576762E-05    0.6409019098E+00    0.3288542772E-04    0.3362399905E-04    0.4402582883E-02
    0.3700000000E+02    0.6954504728E-05    0.6436454802E+00    0.3416370198E-04    0.3537771929E-04    0.4403902218E-02
    0.3900000000E+02    0.7096213284E-05    0.6461277159E+00    0.3545060385E-04    0.3712553028E-04    0.4405105117E-02
    0.4100000000E+02    0.7239596424E-05    0.6483842565E+00    0.3674504295E-04    0.3886789768E-04    0.4406206084E-02
    0.4300000000E+02    0.7384550225E-05    0.6504445430E+00    0.3804608865E-04    0.4060523746E-04    0.4407217218E-02
    0.4500000000E+02    0.7530975037E-05    0.6523331092E+00    0.3935294443E-04    0.4233792329E-04    0.4408148701E-02
    0.4700000000E+02    0.7678776642E-05    0.6540705633E+00    0.4066492660E-04    0.4406629254E-04    0.4409009167E-02
    0.4900000000E+02    0.7827866788E-05    0.6556743427E+00    0.4198144662E-04    0.4579065122E-04    0.4409805994E-02
    0.1000000000E+02    0.5142963902E-05    0.5353557842E+00    0.1846917330E-04    0.1084013549E-04    0.4357499084E-02
    0.3000000000E+02    0.6473209005E-05    0.6325877911E+00    0.2973646267E-04    0.2921022698E-04    0.4398650037E-02
    0.5000000000E+02    0.7902869155E-05    0.6564308338E+00    0.4264124678E-04    0.4665141466E-04    0.4410182560E-02
    0.7000000000E+02    0.9453720259E-05    0.6672075040E+00    0.5598341775E-04    0.6371257924E-04    0.4415530686E-02
    0.9000000000E+02    0.1107136225E-04    0.6733481739E+00    0.6947957832E-04    0.8058371992E-04    0.4418382301E-02
    0.1100000000E+03    0.1273078895E-04    0.6773146038E+00    0.8305501811E-04    0.9736157204E-04    0.4419922186E-02
    0.1300000000E+03    0.1441988729E-04    0.6800877374E+00    0.9669045180E-04    0.1141047336E-03    0.4420663566E-02
    0.1500000000E+03    0.1613236395E-04    0.6821355830E+00    0.1103842335E-03    0.1308526068E-03    0.4420870370E-02
    0.1700000000E+03    0.1786479443E-04    0.6837097170E+00    0.1241407874E-03    0.1476336481E-03    0.4420694486E-02
    0.1900000000E+03    0.1961527945E-04    0.6849574289E+00    0.1379665520E-03    0.1644695241E-03    0.4420230566E-02
    0.2100000000E+03    0.2138278115E-04    0.6859706841E+00    0.1518684485E-03    0.1813774250E-03    0.4419541201E-02
    0.2300000000E+03    0.2316677219E-04    0.6868098693E+00    0.1658532913E-03    0.1983714525E-03    0.4418669717E-02
    0.2500000000E+03    0.2496703981E-04    0.6875162747E+00    0.1799275747E-03    0.2154634989E-03    0.4417647220E-02
    0.2700000000E+03    0.2678357148E-04    0.6881190897E+00    0.1940974176E-03    0.2326638318E-03    0.4416496706E-02
    0.2900000000E+03    0.2861648557E-04    0.6886395329E+00    0.2083685716E-03    0.2499814962E-03    0.4415235592E-02
    0.3100000000E+03    0.3046598815E-04    0.6890933989E+00    0.2227464546E-03    0.2674246002E-03    0.4413877340E-02
    0.3300000000E+03    0.3233234530E-04    0.6894926873E+00    0.2372361921E-03    0.2850005240E-03    0.4412432532E-02
    0.3500000000E+03    0.3421586506E-04    0.6898466778E+00    0.2518426584E-03    0.3027160753E-03    0.4410909603E-02
    0.3700000000E+03    0.3611688542E-04    0.6901626597E+00    0.2665705147E-03    0.3205776075E-03    0.4409315362E-02
    0.3900000000E+03    0.3803576634E-04    0.6904464379E+00    0.2814242437E-03    0.3385911119E-03    0.4407655359E-02
    0.4100000000E+03    0.3997288423E-04    0.6907026929E+00    0.2964081791E-03    0.3567622898E-03    0.4405934158E-02
    0.4300000000E+03    0.4192862834E-04    0.6909352401E+00    0.3115265323E-03    0.3750966100E-03    0.4404155536E-02
    0.4500000000E+03    0.4390339819E-04    0.6911472212E+00    0.3267834149E-03    0.3935993557E-03    0.4402322640E-02
    0.4700000000E+03    0.4589760198E-04    0.6913412461E+00    0.3421828584E-03    0.4122756630E-03    0.4400438102E-02
    0.4900000000E+03    0.4791165540E-04    0.6915195014E+00    0.3577288318E-03    0.4311305522E-03    0.4398504130E-02
    0.1000000000E+03    0.1189679889E-04    0.6755240018E+00    0.7625923866E-04    0.8898005222E-04    0.4419275648E-02
    0.3000000000E+03    0.2953914783E-04    0.6888739638E+00    0.2155438453E-03    0.2586868919E-03    0.4414567890E-02
    0.5000000000E+03    0.4892625751E-04    0.6916033035E+00    0.3655579942E-03    0.4406265088E-03    0.4397519199E-02
    0.7000000000E+03    0.7036774520E-04    0.6927778238E+00    0.5307848802E-03    0.6411062573E-03    0.4375540477E-02
    0.9000000000E+03    0.9432650797E-04    0.6934310246E+00    0.7151886302E-03    0.8650425713E-03    0.4349515907E-02
    0.1100000000E+04    0.1213518923E-03    0.6938466695E+00    0.9231468258E-03    0.1117800659E-02    0.4319342178E-02
    0.1300000000E+04    0.1521174952E-03    0.6941342453E+00    0.1159927941E-02    0.1405830376E-02    0.4284517394E-02
    0.1500000000E+04    0.1874712835E-03    0.6943449369E+00    0.1432126001E-02    0.1737208308E-02    0.4244247746E-02
    0.1700000000E+04    0.2285021201E-03    0.6945058709E+00    0.1748193031E-02    0.2122294384E-02    0.4197434699E-02
    0.1900000000E+04    0.2766320791E-03    0.6946327623E+00    0.2119163665E-02    0.2574624497E-02    0.4142604786E-02
    0.2100000000E+04    0.3337478812E-03    0.6947353429E+00    0.2559682026E-02    0.3112176452E-02    0.4077789340E-02
    0.2300000000E+04    0.4023907148E-03    0.6948199608E+00    0.3089484054E-02    0.3759199689E-02    0.4000343691E-02
    0.2500000000E+04    0.4860317814E-03    0.6948909328E+00    0.3735551554E-02    0.4548878528E-02    0.3906685502E-02
    0.2700000000E+04    0.5894691301E-03    0.6949512965E+00    0.4535220920E-02    0.5527184377E-02    0.3791927145E-02
    0.2900000000E+04    0.7193804498E-03    0.6950032514E+00    0.5540528678E-02    0.6758279034E-02    0.3649387713E-02
    0.3100000000E+04    0.8850241752E-03    0.6950484289E+00    0.6823759566E-02    0.8331457007E-02    0.3470033796E-02
    0.3300000000E+04    0.1098900997E-02    0.6950880647E+00    0.8482783864E-02    0.1036794546E-01    0.3242118177E-02
    0.3500000000E+04    0.1376628435E-02    0.6951231118E+00    0.1064045034E-01    0.1302060028E-01    0.2951900399E-02
    0.3700000000E+04    0.1733952531E-02    0.6951543169E+00    0.1342195890E-01    0.1644679815E-01    0.2587653930E-02
    0.3900000000E+04    0.2177076198E-02    0.6951822734E+00    0.1688032735E-01    0.2071754023E-01    0.2150504188E-02
    0.4100000000E+04    0.2685071856E-02    0.6952074586E+00    0.2085940293E-01    0.2564862875E-01    0.1671680251E-02
    0.4300000000E+04    0.3199615160E-02    0.6952302609E+00    0.2491131567E-01    0.3069584871E-01    0.1218137297E-02
    0.4500000000E+04    0.3650554014E-02    0.6952509996E+00    0.2849114964E-01    0.3518951451E-01    0.8597673500E-03
    0.4700000000E+04    0.4002287306E-02    0.6952699395E+00    0.3131719128E-01    0.3877724238E-01    0.6223926117E-03
    0.4900000000E+04    0.4263874481E-02    0.6952873020E+00    0.3345373973E-01    0.4153085833E-01    0.4851984217E-03
    0.1000000000E+04    0.1074172106E-03    0.6936596507E+00    0.8159198786E-03    0.9874473112E-03    0.4334971844E-02
    0.3000000000E+04    0.7970359533E-03    0.6950266023E+00    0.6141932459E-02    0.7495339772E-02    0.3564982795E-02
    0.5000000000E+04    0.4369504746E-02    0.6952954512E+00    0.3432925032E-01    0.4267417372E-01    0.4428734372E-03
    0.7000000000E+04    0.5594968421E-02    0.6954085578E+00    0.4517488118E-01    0.5765707306E-01    0.3453231802E-03
    0.9000000000E+04    0.6465891199E-02    0.6954701910E+00    0.5360259624E-01    0.7015793431E-01    0.3501046917E-03
    0.1100000000E+05    0.7146511965E-02    0.6955086337E+00    0.6077156041E-01    0.8147621611E-01    0.3540399451E-03
    0.1300000000E+05    0.7678713810E-02    0.6955347024E+00    0.6692156002E-01    0.9181023353E-01    0.3573481185E-03
    0.1500000000E+05    0.8093774560E-02    0.6955534154E+00    0.7223541294E-01    0.1013136500E+00    0.3602055278E-03
    0.1700000000E+05    0.8415477252E-02    0.6955674137E+00    0.7685532590E-01    0.1101081706E+00    0.3627228481E-03
    0.1900000000E+05    0.8662150891E-02    0.6955782172E+00    0.8089351063E-01    0.1182915603E+00    0.3649741769E-03
    0.2100000000E+05    0.8848090461E-02    0.6955867610E+00    0.8443964749E-01    0.1259433499E+00    0.3670116075E-03
    0.2300000000E+05    0.8984563671E-02    0.6955936512E+00    0.8756623492E-01    0.1331289732E+00    0.3688731868E-03
    0.2500000000E+05    0.9080536719E-02    0.6955992973E+00    0.9033248970E-01    0.1399028197E+00    0.3705875662E-03
    0.2700000000E+05    0.9143205425E-02    0.6956039856E+00    0.9278723503E-01    0.1463105199E+00    0.3721768713E-03
    0.2900000000E+05    0.9178389251E-02    0.6956079223E+00    0.9497106935E-01    0.1523906816E+00    0.3736585503E-03
    0.3100000000E+05    0.9190827251E-02    0.6956112592E+00    0.9691801587E-01    0.1581762243E+00    0.3750466111E-03
    0.3300000000E+05    0.9184402873E-02    0.6956141107E+00    0.9865679199E-01    0.1636954178E+00    0.3763524728E-03
    0.3500000000E+05    0.9162316500E-02    0.6956165642E+00    0.1002117966E+00    0.1689726989E+00    0.3775855694E-03
    0.3700000000E+05    0.9127219154E-02    0.6956186881E+00    0.1016038860E+00    0.1740293192E+00    0.3787537859E-03
    0.3900000000E+05    0.9081316992E-02    0.6956205361E+00    0.1028509884E+00    0.1788838645E+00    0.3798637816E-03
    0.4100000000E+05    0.9026453673E-02    0.6956221513E+00    0.1039685960E+00    0.1835526743E+00    0.3809212324E-03
    0.4300000000E+05    0.8964175740E-02    0.6956235685E+00    0.1049701610E+00    0.1880501838E+00    0.3819310161E-03
    0.4500000000E+05    0.8895784908E-02    0.6956248161E+00    0.1058674171E+00    0.1923892031E+00    0.3828973559E-03
    0.4700000000E+05    0.8822380138E-02    0.6956259175E+00    0.1066706426E+00    0.1965811494E+00    0.3838239330E-03
    0.4900000000E+05    0.8744891704E-02    0.6956268922E+00    0.1073888769E+00    0.2006362386E+00    0.3847139759E-03
    0.1000000000E+05    0.6827074960E-02    0.6954914310E+00    0.5732784057E-01    0.7595124471E-01    0.3521656257E-03
    0.3000000000E+05    0.9187190951E-02    0.6956096579E+00    0.9597224715E-01    0.1553184150E+00    0.3743635166E-03
    0.5000000000E+05    0.8704867633E-02    0.6956273371E+00    0.1077186529E+00    0.2026153660E+00    0.3851462001E-03
    0.7000000000E+05    0.7828129779E-02    0.6956324180E+00    0.1113669566E+00    0.2368164360E+00    0.3924160703E-03
    0.9000000000E+05    0.6972989966E-02    0.6956338453E+00    0.1117453794E+00    0.2638246496E+00    0.3979348360E-03
    0.1100000000E+06    0.6219077456E-02    0.6956338574E+00    0.1106076351E+00    0.2862261561E+00    0.4023969057E-03
    0.1300000000E+06    0.5571269112E-02    0.6956332398E+00    0.1087219876E+00    0.3053907450E+00    0.4061494832E-03
    0.1500000000E+06    0.5017184939E-02    0.6956323243E+00    0.1064662002E+00    0.3221373387E+00    0.4093917236E-03
    0.1700000000E+06    0.4541997959E-02    0.6956312677E+00    0.1040405218E+00    0.3369982634E+00    0.4122487053E-03
    0.1900000000E+06    0.4132307858E-02    0.6956301505E+00    0.1015564095E+00    0.3503413159E+00    0.4148042366E-03
    0.2100000000E+06    0.3776911466E-02    0.6956290154E+00    0.9907770777E-01    0.3624326385E+00    0.4171172741E-03
    0.2300000000E+06    0.3466685432E-02    0.6956278863E+00    0.9664137451E-01    0.3734718920E+00    0.4192308978E-03
    0.2500000000E+06    0.3194255005E-02    0.6956267762E+00    0.9426858457E-01    0.3836132481E+00    0.4211775621E-03
    0.2700000000E+06    0.2953655245E-02    0.6956256922E+00    0.9197098039E-01    0.3929785872E+00    0.4229823371E-03
    0.2900000000E+06    0.2740040939E-02    0.6956246380E+00    0.8975433207E-01    0.4016661600E+00    0.4246649985E-03
    0.3100000000E+06    0.2549453145E-02    0.6956236151E+00    0.8762075014E-01    0.4097564791E+00    0.4262414259E-03
    0.3300000000E+06    0.2378635794E-02    0.6956226239E+00    0.8557005778E-01    0.4173164488E+00    0.4277245672E-03
    0.3500000000E+06    0.2224892852E-02    0.6956216638E+00    0.8360065929E-01    0.4244023377E+00    0.4291251206E-03
    0.3700000000E+06    0.2085977163E-02    0.6956207341E+00    0.8171009837E-01    0.4310619665E+00    0.4304520295E-03
    0.3900000000E+06    0.1960003698E-02    0.6956198337E+00    0.7989542083E-01    0.4373363498E+00    0.4317128479E-03
    0.4100000000E+06    0.1845381528E-02    0.6956189612E+00    0.7815341199E-01    0.4432609506E+00    0.4329140149E-03
    0.4300000000E+06    0.1740760143E-02    0.6956181155E+00    0.7648075206E-01    0.4488666531E+00    0.4340610647E-03
    0.4500000000E+06    0.1644986844E-02    0.6956172953E+00    0.7487411753E-01    0.4541805276E+00    0.4351587895E-03
    0.4700000000E+06    0.1557072683E-02    0.6956164993E+00    0.7333024642E-01    0.4592264393E+00    0.4362113666E-03
    0.4900000000E+06    0.1476165079E-02    0.6956157262E+00    0.7184597929E-01    0.4640255387E+00    0.4372224599E-03
    0.1000000000E+06    0.6582349697E-02    0.6956339628E+00    0.1113048613E+00    0.2754979675E+00    0.4002714297E-03
    0.3000000000E+06    0.2642086857E-02    0.6956241226E+00    0.8867712730E-01    0.4057815152E+00    0.4254656226E-03
    0.5000000000E+06    0.1438104046E-02    0.6956153480E+00    0.7112524419E-01    0.4663385006E+00    0.4377134750E-03
    0.7000000000E+06    0.9091020021E-03    0.6956087440E+00    0.5918227064E-01    0.5032908431E+00    0.4459727097E-03
    0.9000000000E+06    0.6279698760E-03    0.6956034861E+00    0.5062954077E-01    0.5285201321E+00    0.4522430382E-03
    0.1100000000E+07    0.4602116420E-03    0.6955991197E+00    0.4421905905E-01    0.5469324748E+00    0.4573129929E-03
    0.1300000000E+07    0.3519092097E-03    0.6955953843E+00    0.3923971881E-01    0.5609938382E+00    0.4615769172E-03
    0.1500000000E+07    0.2778692219E-03    0.6955921183E+00    0.3526189296E-01    0.5720964622E+00    0.4652610323E-03
    0.1700000000E+07    0.2249916598E-03    0.6955892150E+00    0.3201173169E-01    0.5810911204E+00    0.4685074263E-03
    0.1900000000E+07    0.1859018640E-03    0.6955866007E+00    0.2930669151E-01    0.5885289057E+00    0.4714113104E-03
    0.2100000000E+07    0.1561846578E-03    0.6955842218E+00    0.2702049146E-01    0.5947832629E+00    0.4740396653E-03
    0.2300000000E+07    0.1330632081E-03    0.6955820387E+00    0.2506301761E-01    0.6001165697E+00    0.4764414361E-03
    0.2500000000E+07    0.1147190919E-03    0.6955800209E+00    0.2336825279E-01    0.6047187307E+00    0.4786534967E-03
    0.2700000000E+07    0.9992060809E-04    0.6955781446E+00    0.2188673276E-01    0.6087306649E+00    0.4807043313E-03
    0.2900000000E+07    0.8780919938E-04    0.6955763908E+00    0.2058066734E-01    0.6122591866E+00    0.4826164096E-03
    0.3100000000E+07    0.7777145923E-04    0.6955747441E+00    0.1942069014E-01    0.6153867577E+00    0.4844077745E-03
    0.3300000000E+07    0.6935962377E-04    0.6955731919E+00    0.1838363644E-01    0.6181780675E+00    0.4860931377E-03
    0.3500000000E+07    0.6224062207E-04    0.6955717236E+00    0.1745098896E-01    0.6206845832E+00    0.4876846554E-03
    0.3700000000E+07    0.5616252745E-04    0.6955703305E+00    0.1660776859E-01    0.6229477692E+00    0.4891924896E-03
    0.3900000000E+07    0.5093193018E-04    0.6955690050E+00    0.1584172825E-01    0.6250014073E+00    0.4906252237E-03
    0.4100000000E+07    0.4639834727E-04    0.6955677407E+00    0.1514275749E-01    0.6268732989E+00    0.4919901743E-03
    0.4300000000E+07    0.4244327350E-04    0.6955665321E+00    0.1450243621E-01    0.6285865340E+00    0.4932936300E-03
    0.4500000000E+07    0.3897235855E-04    0.6955653743E+00    0.1391369583E-01    0.6301604487E+00    0.4945410360E-03
    0.4700000000E+07    0.3590972983E-04    0.6955642632E+00    0.1337055865E-01    0.6316113593E+00    0.4957371391E-03
    0.4900000000E+07    0.3319381362E-04    0.6955631950E+00    0.1286793537E-01    0.6329531297E+00    0.4968861025E-03
    0.1000000000E+07    0.5342864496E-03    0.6956012108E+00    0.4720968174E-01    0.5383895006E+00    0.4548979336E-03
    0.3000000000E+07    0.8256228548E-04    0.6955755549E+00    0.1998399003E-01    0.6138686925E+00    0.4835261940E-03
    0.5000000000E+07    0.3194975718E-04    0.6955626759E+00    0.1263042910E-01    0.6335868606E+00    0.4974440714E-03
    0.7000000000E+07    0.1680635847E-04    0.6955539196E+00    0.9218192273E-02    0.6426715902E+00    0.5068295353E-03
    0.9000000000E+07    0.1033505189E-04    0.6955472459E+00    0.7250823805E-02    0.6478940846E+00    0.5139548971E-03
    0.1100000000E+08    0.6988389687E-05    0.6955418373E+00    0.5971942727E-02    0.6512838153E+00    0.5197162007E-03
    0.1300000000E+08    0.5037122577E-05    0.6955372815E+00    0.5074424650E-02    0.6536606780E+00    0.5245615600E-03
    0.1500000000E+08    0.3801388291E-05    0.6955333408E+00    0.4410064768E-02    0.6554191674E+00    0.5287480438E-03
    0.1700000000E+08    0.2969952763E-05    0.6955298653E+00    0.3898594380E-02    0.6567725464E+00    0.5324371159E-03
    0.1900000000E+08    0.2384030782E-05    0.6955267544E+00    0.3492770472E-02    0.6578461733E+00    0.5357369709E-03
    0.2100000000E+08    0.1955744347E-05    0.6955239370E+00    0.3162981583E-02    0.6587185498E+00    0.5387237237E-03
    0.2300000000E+08    0.1633268601E-05    0.6955213614E+00    0.2889727975E-02    0.6594413363E+00    0.5414529938E-03
    0.2500000000E+08    0.1384440436E-05    0.6955189882E+00    0.2659646913E-02    0.6600499164E+00    0.5439666835E-03
    0.2700000000E+08    0.1188444291E-05    0.6955167873E+00    0.2463275621E-02    0.6605693374E+00    0.5462971615E-03
