  Pressure (Pa) 22mC5-500 (mol/kg) 24mC5-500 (mol/kg) 2mC6-500 (mol/kg) 3mC6-500 (mol/kg) C7-500 (mol/kg)
    0.1000000000E+01    0.2508297306E-05    0.6964995980E-01    0.1969173355E-04    0.5604818111E-05    0.4195349746E-02
    0.3000000000E+01    0.6014939047E-05    0.1740802415E+00    0.4565085302E-04    0.1434691538E-04    0.4252567114E-02
    0.5000000000E+01    0.8328716746E-05    0.2486418597E+00    0.6170780580E-04    0.2240195650E-04    0.4291250103E-02
    0.7000000000E+01    0.9941349598E-05    0.3045468895E+00    0.7230734244E-04    0.3013142671E-04    0.4320073663E-02
    0.9000000000E+01    0.1111344021E-04    0.3480196103E+00    0.7970245623E-04    0.3765714788E-04    0.4342462893E-02
    0.1100000000E+02    0.1199507646E-04    0.3827925314E+00    0.8513453599E-04    0.4504001909E-04    0.4360366724E-02
    0.1300000000E+02    0.1267801356E-04    0.4112398870E+00    0.8932790686E-04    0.5231625739E-04    0.4375006214E-02
    0.1500000000E+02    0.1322100983E-04    0.4349439789E+00    0.9272401376E-04    0.5950971193E-04    0.4387191090E-02
    0.1700000000E+02    0.1366312372E-04    0.4549999599E+00    0.9560126179E-04    0.6663719007E-04    0.4397481163E-02
    0.1900000000E+02    0.1403112789E-04    0.4721899157E+00    0.9814008437E-04    0.7371112752E-04    0.4406276480E-02
    0.2100000000E+02    0.1434385090E-04    0.4870872761E+00    0.1004599959E-03    0.8074107005E-04    0.4413870825E-02
    0.2300000000E+02    0.1461482578E-04    0.5001220516E+00    0.1026415384E-03    0.8773455924E-04    0.4420484973E-02
    0.2500000000E+02    0.1485396242E-04    0.5116230342E+00    0.1047397188E-03    0.9469769334E-04    0.4426288143E-02
    0.2700000000E+02    0.1506863550E-04    0.5218459254E+00    0.1067924711E-03    0.1016354989E-03    0.4431412283E-02
    0.2900000000E+02    0.1526441050E-04    0.5309925773E+00    0.1088261182E-03    0.1085521862E-03    0.4435961842E-02
    0.3100000000E+02    0.1544553936E-04    0.5392244600E+00    0.1108589706E-03    0.1154513309E-03    0.4440020612E-02
    0.3300000000E+02    0.1561530569E-04    0.5466722793E+00    0.1129037431E-03    0.1223360054E-03    0.4443656619E-02
    0.3500000000E+02    0.1577626943E-04    0.5534429705E+00    0.1149692033E-03    0.1292088778E-03    0.4446925677E-02
    0.3700000000E+02    0.1593044309E-04    0.5596248674E+00    0.1170613121E-03    0.1360722860E-03    0.4449874032E-02
    0.3900000000E+02    0.1607942050E-04    0.5652915788E+00    0.1191840231E-03    0.1429282955E-03    0.4452540332E-02
    0.4100000000E+02    0.1622447211E-04    0.5705049338E+00    0.1213398484E-03    0.1497787444E-03    0.4454957139E-02
    0.4300000000E+02    0.1636661631E-04    0.5753172479E+00    0.1235302635E-03    0.1566252795E-03    0.4457152084E-02
    0.4500000000E+02    0.1650667350E-04    0.5797730849E+00    0.1257559988E-03    0.1634693850E-03    0.4459148775E-02
    0.4700000000E+02    0.1664530735E-04    0.5839106415E+00    0.1280172510E-03    0.1703124058E-03    0.4460967506E-02
    0.4900000000E+02    0.1678305661E-04    0.5877628454E+00    0.1303138381E-03    0.1771555667E-03    0.4462625822E-02
    0.1000000000E+02    0.1158384130E-04    0.3663217065E+00    0.8261000684E-04    0.4136379403E-04    0.4351886897E-02
    0.3000000000E+02    0.1535658104E-04    0.5352140672E+00    0.1098417402E-03    0.1120037489E-03    0.4438048002E-02
    0.5000000000E+02    0.1685173996E-04    0.5895910090E+00    0.1314752501E-03    0.1805775537E-03    0.4463399670E-02
    0.7000000000E+02    0.1825040866E-04    0.6164349327E+00    0.1563853063E-03    0.2492544038E-03    0.4473282127E-02
    0.9000000000E+02    0.1976661849E-04    0.6324328713E+00    0.1839457497E-03    0.3188211014E-03    0.4476686320E-02
    0.1100000000E+03    0.2142181104E-04    0.6430533257E+00    0.2135533559E-03    0.3897174832E-03    0.4476644076E-02
    0.1300000000E+03    0.2320933227E-04    0.6506174549E+00    0.2448666496E-03    0.4622477053E-03    0.4474473024E-02
    0.1500000000E+03    0.2512019391E-04    0.6562785570E+00    0.2777062165E-03    0.5366521671E-03    0.4470839530E-02
    0.1700000000E+03    0.2714754423E-04    0.6606745018E+00    0.3119858347E-03    0.6131387762E-03    0.4466115849E-02
    0.1900000000E+03    0.2928705881E-04    0.6641867362E+00    0.3476747402E-03    0.6918988345E-03    0.4460524501E-02
    0.2100000000E+03    0.3153656593E-04    0.6670573695E+00    0.3847771110E-03    0.7731161023E-03    0.4454204645E-02
    0.2300000000E+03    0.3389561797E-04    0.6694474724E+00    0.4233206280E-03    0.8569724898E-03    0.4447245652E-02
    0.2500000000E+03    0.3636514875E-04    0.6714683654E+00    0.4633499279E-03    0.9436519524E-03    0.4439705379E-02
    0.2700000000E+03    0.3894722480E-04    0.6731994498E+00    0.5049227949E-03    0.1033343381E-02    0.4431620713E-02
    0.2900000000E+03    0.4164487270E-04    0.6746988826E+00    0.5481079516E-03    0.1126242913E-02    0.4423013941E-02
    0.3100000000E+03    0.4446196316E-04    0.6760102364E+00    0.5929838221E-03    0.1222555916E-02    0.4413896738E-02
    0.3300000000E+03    0.4740313696E-04    0.6771668011E+00    0.6396379153E-03    0.1322498795E-02    0.4404272747E-02
    0.3500000000E+03    0.5047376207E-04    0.6781944483E+00    0.6881666217E-03    0.1426300716E-02    0.4394139275E-02
    0.3700000000E+03    0.5367991422E-04    0.6791135885E+00    0.7386753035E-03    0.1534205324E-02    0.4383488423E-02
    0.3900000000E+03    0.5702837611E-04    0.6799405401E+00    0.7912786031E-03    0.1646472508E-02    0.4372307839E-02
    0.4100000000E+03    0.6052665160E-04    0.6806885054E+00    0.8461009287E-03    0.1763380238E-02    0.4360581215E-02
    0.4300000000E+03    0.6418299280E-04    0.6813682810E+00    0.9032770904E-03    0.1885226531E-02    0.4348288598E-02
    0.4500000000E+03    0.6800643861E-04    0.6819887816E+00    0.9629530753E-03    0.2012331557E-02    0.4335406566E-02
    0.4700000000E+03    0.7200686394E-04    0.6825574332E+00    0.1025286956E-02    0.2145039935E-02    0.4321908304E-02
    0.4900000000E+03    0.7619503919E-04    0.6830804709E+00    0.1090449935E-02    0.2283723232E-02    0.4307763595E-02
    0.1000000000E+03    0.2057708855E-04    0.6382302840E+00    0.1985198915E-03    0.3540820380E-03    0.4476991565E-02
    0.3000000000E+03    0.4303821498E-04    0.6753757868E+00    0.5703292872E-03    0.1173959484E-02    0.4418518750E-02
    0.5000000000E+03    0.7836316066E-04    0.6833265650E+00    0.1124149715E-02    0.2355429630E-02    0.4300438433E-02
    0.7000000000E+03    0.1351936744E-03    0.6867896278E+00    0.2003251235E-02    0.4225021997E-02    0.4109332626E-02
    0.9000000000E+03    0.2353070420E-03    0.6887275245E+00    0.3546795851E-02    0.7511054014E-02    0.3780719280E-02
    0.1100000000E+04    0.4320278395E-03    0.6899656039E+00    0.6582787556E-02    0.1399230367E-01    0.3162836575E-02
    0.1300000000E+04    0.8187362082E-03    0.6908247493E+00    0.1257867620E-01    0.2685959785E-01    0.2040118063E-02
    0.1500000000E+04    0.1286202540E-02    0.6914557006E+00    0.1991511858E-01    0.4279198702E-01    0.9015443356E-03
    0.1700000000E+04    0.1549694997E-02    0.6919386198E+00    0.2418609463E-01    0.5235056422E-01    0.5212923206E-03
    0.1900000000E+04    0.1702625453E-02    0.6923200667E+00    0.2678424763E-01    0.5841054968E-01    0.4617650380E-03
    0.2100000000E+04    0.1827867650E-02    0.6926289338E+00    0.2898059576E-01    0.6367257720E-01    0.4558511132E-03
    0.2300000000E+04    0.1942175303E-02    0.6928840995E+00    0.3103220508E-01    0.6868371165E-01    0.4571022520E-03
    0.2500000000E+04    0.2048534839E-02    0.6930984198E+00    0.3298310621E-01    0.7353442527E-01    0.4591567354E-03
    0.2700000000E+04    0.2147807477E-02    0.6932809524E+00    0.3484437553E-01    0.7824433607E-01    0.4611808863E-03
    0.2900000000E+04    0.2240511507E-02    0.6934382627E+00    0.3662191048E-01    0.8282214619E-01    0.4630804526E-03
    0.3100000000E+04    0.2327084975E-02    0.6935752255E+00    0.3832053821E-01    0.8727454678E-01    0.4648582254E-03
    0.3300000000E+04    0.2407926692E-02    0.6936955362E+00    0.3994464673E-01    0.9160757057E-01    0.4665275330E-03
    0.3500000000E+04    0.2483404691E-02    0.6938020471E+00    0.4149830276E-01    0.9582682404E-01    0.4681009209E-03
    0.3700000000E+04    0.2553859643E-02    0.6938969949E+00    0.4298529096E-01    0.9993754905E-01    0.4695890521E-03
    0.3900000000E+04    0.2619607311E-02    0.6939821579E+00    0.4440913926E-01    0.1039446562E+00    0.4710009211E-03
    0.4100000000E+04    0.2680940680E-02    0.6940589680E+00    0.4577314014E-01    0.1078527514E+00    0.4723441637E-03
    0.4300000000E+04    0.2738131855E-02    0.6941285910E+00    0.4708036968E-01    0.1116661597E+00    0.4736253152E-03
    0.4500000000E+04    0.2791433789E-02    0.6941919856E+00    0.4833370479E-01    0.1153889464E+00    0.4748500126E-03
    0.4700000000E+04    0.2841081842E-02    0.6942499474E+00    0.4953583877E-01    0.1190249366E+00    0.4760231524E-03
    0.4900000000E+04    0.2887295192E-02    0.6943031422E+00    0.5068929551E-01    0.1225777330E+00    0.4771490151E-03
    0.1000000000E+04    0.3161808921E-03    0.6894080221E+00    0.4794019141E-02    0.1017084380E-01    0.3522596197E-02
    0.3000000000E+04    0.2284538860E-02    0.6935090335E+00    0.3748080530E-01    0.8506363447E-01    0.4639837485E-03
    0.5000000000E+04    0.2909178243E-02    0.6943281309E+00    0.5124851550E-01    0.1243240026E+00    0.4776954118E-03
    0.7000000000E+04    0.3209328221E-02    0.6946767852E+00    0.6038055404E-01    0.1556116345E+00    0.4868563552E-03
    0.9000000000E+04    0.3329925713E-02    0.6948689529E+00    0.6660842518E-01    0.1814691535E+00    0.4937813329E-03
    0.1100000000E+05    0.3347796027E-02    0.6949902121E+00    0.7091989346E-01    0.2034240422E+00    0.4993667350E-03
    0.1300000000E+05    0.3305981381E-02    0.6950734255E+00    0.7391564119E-01    0.2224548315E+00    0.5040566169E-03
    0.1500000000E+05    0.3229610920E-02    0.6951338981E+00    0.7597969711E-01    0.2392209335E+00    0.5081042235E-03
    0.1700000000E+05    0.3133807937E-02    0.6951797144E+00    0.7736763373E-01    0.2541852722E+00    0.5116679773E-03
    0.1900000000E+05    0.3027871148E-02    0.6952155436E+00    0.7825521281E-01    0.2676839874E+00    0.5148537247E-03
    0.2100000000E+05    0.2917594802E-02    0.6952442690E+00    0.7876665172E-01    0.2799681626E+00    0.5177357627E-03
    0.2300000000E+05    0.2806608060E-02    0.6952677660E+00    0.7899177755E-01    0.2912299113E+00    0.5203682880E-03
    0.2500000000E+05    0.2697174087E-02    0.6952873068E+00    0.7899682765E-01    0.3016192952E+00    0.5227920733E-03
    0.2700000000E+05    0.2590680123E-02    0.6953037839E+00    0.7883146747E-01    0.3112556498E+00    0.5250385783E-03
    0.2900000000E+05    0.2487945088E-02    0.6953178421E+00    0.7853347698E-01    0.3202353758E+00    0.5271325956E-03
    0.3100000000E+05    0.2389416441E-02    0.6953299583E+00    0.7813195570E-01    0.3286374318E+00    0.5290940175E-03
    0.3300000000E+05    0.2295298216E-02    0.6953404927E+00    0.7764956130E-01    0.3365272879E+00    0.5309390518E-03
    0.3500000000E+05    0.2205635413E-02    0.6953497227E+00    0.7710410264E-01    0.3439598278E+00    0.5326810830E-03
    0.3700000000E+05    0.2120370205E-02    0.6953578648E+00    0.7650969247E-01    0.3509815145E+00    0.5343312937E-03
    0.3900000000E+05    0.2039379655E-02    0.6953650907E+00    0.7587759411E-01    0.3576320317E+00    0.5358991251E-03
    0.4100000000E+05    0.1962501164E-02    0.6953715382E+00    0.7521685177E-01    0.3639455457E+00    0.5373926216E-03
    0.4300000000E+05    0.1889549668E-02    0.6953773190E+00    0.7453476555E-01    0.3699516870E+00    0.5388186947E-03
    0.4500000000E+05    0.1820329233E-02    0.6953825249E+00    0.7383725348E-01    0.3756763237E+00    0.5401833269E-03
    0.4700000000E+05    0.1754640834E-02    0.6953872317E+00    0.7312913015E-01    0.3811421767E+00    0.5414917318E-03
    0.4900000000E+05    0.1692287498E-02    0.6953915026E+00    0.7241432323E-01    0.3863693139E+00    0.5427484810E-03
    0.1000000000E+05    0.3348460302E-02    0.6949357747E+00    0.6895964957E-01    0.1928638158E+00    0.4967074863E-03
    0.3000000000E+05    0.2438137665E-02    0.6953241181E+00    0.7834411183E-01    0.3245042428E+00    0.5281287931E-03
    0.5000000000E+05    0.1662301334E-02    0.6953934916E+00    0.7205544083E-01    0.3888990102E+00    0.5433587632E-03
    0.7000000000E+05    0.1195856204E-02    0.6954197257E+00    0.6505047335E-01    0.4303990644E+00    0.5536216139E-03
    0.9000000000E+05    0.9008473608E-03    0.6954323407E+00    0.5887013580E-01    0.4602041367E+00    0.5614105391E-03
    0.1100000000E+06    0.7032095933E-03    0.6954391084E+00    0.5361303004E-01    0.4829335906E+00    0.5677072143E-03
    0.1300000000E+06    0.5643987049E-03    0.6954429131E+00    0.4915239822E-01    0.5009582575E+00    0.5730022070E-03
    0.1500000000E+06    0.4631454813E-03    0.6954450519E+00    0.4534394670E-01    0.5156575717E+00    0.5775768105E-03
    0.1700000000E+06    0.3869907940E-03    0.6954461854E+00    0.4206466408E-01    0.5279026688E+00    0.5816076494E-03
    0.1900000000E+06    0.3282510998E-03    0.6954466814E+00    0.3921636456E-01    0.5382765944E+00    0.5852130507E-03
    0.2100000000E+06    0.2819788142E-03    0.6954467580E+00    0.3672191299E-01    0.5471869743E+00    0.5884762433E-03
    0.2300000000E+06    0.2448701515E-03    0.6954465513E+00    0.3452068335E-01    0.5549286897E+00    0.5914580376E-03
    0.2500000000E+06    0.2146498237E-03    0.6954461497E+00    0.3256471147E-01    0.5617210243E+00    0.5942042414E-03
    0.2700000000E+06    0.1897088055E-03    0.6954456126E+00    0.3081571452E-01    0.5677308102E+00    0.5967502375E-03
    0.2900000000E+06    0.1688828203E-03    0.6954449807E+00    0.2924284649E-01    0.5730874426E+00    0.5991239351E-03
    0.3100000000E+06    0.1513123276E-03    0.6954442825E+00    0.2782101891E-01    0.5778929524E+00    0.6013477441E-03
    0.3300000000E+06    0.1363514302E-03    0.6954435387E+00    0.2652964136E-01    0.5822289557E+00    0.6034399357E-03
    0.3500000000E+06    0.1235070799E-03    0.6954427641E+00    0.2535167062E-01    0.5861615667E+00    0.6054156066E-03
    0.3700000000E+06    0.1123975759E-03    0.6954419696E+00    0.2427288676E-01    0.5897449437E+00    0.6072873767E-03
    0.3900000000E+06    0.1027236551E-03    0.6954411632E+00    0.2328133698E-01    0.5930238961E+00    0.6090659047E-03
    0.4100000000E+06    0.9424798714E-04    0.6954403510E+00    0.2236690453E-01    0.5960358328E+00    0.6107602764E-03
    0.4300000000E+06    0.8678038794E-04    0.6954395376E+00    0.2152097135E-01    0.5988122392E+00    0.6123783006E-03
    0.4500000000E+06    0.8016699919E-04    0.6954387263E+00    0.2073615200E-01    0.6013798121E+00    0.6139267384E-03
    0.4700000000E+06    0.7428226088E-04    0.6954379196E+00    0.2000608188E-01    0.6037613412E+00    0.6154114840E-03
    0.4900000000E+06    0.6902288180E-04    0.6954371195E+00    0.1932524748E-01    0.6059764028E+00    0.6168377067E-03
    0.1000000000E+06    0.7928185406E-03    0.6954362189E+00    0.5613271485E-01    0.4722731466E+00    0.5647079217E-03
    0.3000000000E+06    0.1597351856E-03    0.6954446384E+00    0.2851443254E-01    0.5755535739E+00    0.6002533496E-03
    0.5000000000E+06    0.6660036216E-04    0.6954367223E+00    0.1900176912E-01    0.6070268847E+00    0.6175303180E-03
    0.7000000000E+06    0.3632932087E-04    0.6954293139E+00    0.1422596592E-01    0.6224007189E+00    0.6291803529E-03
    0.9000000000E+06    0.2283985887E-04    0.6954229520E+00    0.1135882855E-01    0.6315203727E+00    0.6380247362E-03
    0.1100000000E+07    0.1568212689E-04    0.6954174605E+00    0.9448255558E-02    0.6375574204E+00    0.6451758707E-03
    0.1300000000E+07    0.1143498565E-04    0.6954126505E+00    0.8084677296E-02    0.6418483954E+00    0.6511900424E-03
    0.1500000000E+07    0.8710535776E-05    0.6954083777E+00    0.7062972806E-02    0.6450546937E+00    0.6563863643E-03
    0.1700000000E+07    0.6859261429E-05    0.6954045359E+00    0.6269107624E-02    0.6475411482E+00    0.6609652658E-03
    0.1900000000E+07    0.5544309345E-05    0.6954010463E+00    0.5634648197E-02    0.6495255038E+00    0.6650610496E-03
    0.2100000000E+07    0.4576858580E-05    0.6953978496E+00    0.5116050074E-02    0.6511457542E+00    0.6687681964E-03
    0.2300000000E+07    0.3844409728E-05    0.6953949000E+00    0.4684291310E-02    0.6524935879E+00    0.6721557456E-03
    0.2500000000E+07    0.3276554907E-05    0.6953921615E+00    0.4319287193E-02    0.6536323051E+00    0.6752757093E-03
    0.2700000000E+07    0.2827404681E-05    0.6953896055E+00    0.4006697700E-02    0.6546070129E+00    0.6781682654E-03
    0.2900000000E+07    0.2466014020E-05    0.6953872088E+00    0.3736011767E-02    0.6554507223E+00    0.6808651078E-03
    0.3100000000E+07    0.2170901646E-05    0.6953849524E+00    0.3499349985E-02    0.6561881467E+00    0.6833916865E-03
    0.3300000000E+07    0.1926778398E-05    0.6953828203E+00    0.3290689970E-02    0.6568381544E+00    0.6857687524E-03
    0.3500000000E+07    0.1722522784E-05    0.6953807994E+00    0.3105350032E-02    0.6574153997E+00    0.6880134519E-03
    0.3700000000E+07    0.1549888575E-05    0.6953788783E+00    0.2939635983E-02    0.6579314365E+00    0.6901401186E-03
    0.3900000000E+07    0.1402656863E-05    0.6953770474E+00    0.2790593970E-02    0.6583954973E+00    0.6921608592E-03
    0.4100000000E+07    0.1276066119E-05    0.6953752985E+00    0.2655833972E-02    0.6588150475E+00    0.6940859938E-03
    0.4300000000E+07    0.1166420770E-05    0.6953736244E+00    0.2533401482E-02    0.6591961893E+00    0.6959243925E-03
    0.4500000000E+07    0.1070817146E-05    0.6953720187E+00    0.2421682687E-02    0.6595439588E+00    0.6976837355E-03
    0.4700000000E+07    0.9869482358E-06    0.6953704759E+00    0.2319333383E-02    0.6598625491E+00    0.6993707180E-03
    0.4900000000E+07    0.9129623743E-06    0.6953689913E+00    0.2225224964E-02    0.6601554797E+00    0.7009912125E-03
    0.1000000000E+07    0.1875797452E-04    0.6954201103E+00    0.1031653172E-01    0.6348175601E+00    0.6417694579E-03
    0.3000000000E+07    0.2311245514E-05    0.6953860641E+00    0.3613840753E-02    0.6558314261E+00    0.6821482876E-03
    0.5000000000E+07    0.8791953357E-06    0.6953682693E+00    0.2180956928E-02    0.6602932707E+00    0.7017781693E-03
    0.7000000000E+07    0.4743883166E-06    0.6953560458E+00    0.1558897361E-02    0.6622296374E+00    0.7150153017E-03
    0.9000000000E+07    0.3045731912E-06    0.6953466825E+00    0.1211722632E-02    0.6633107596E+00    0.7250647138E-03
    0.1100000000E+08    0.2170273961E-06    0.6953390705E+00    0.9903857148E-03    0.6640003969E+00    0.7331902325E-03
    0.1300000000E+08    0.1657257002E-06    0.6953326449E+00    0.8370501534E-03    0.6644784344E+00    0.7400238951E-03
    0.1500000000E+08    0.1329056784E-06    0.6953270777E+00    0.7245942026E-03    0.6648292259E+00    0.7459282789E-03
    0.1700000000E+08    0.1105209700E-06    0.6953221614E+00    0.6386175322E-03    0.6650975655E+00    0.7511311162E-03
    0.1900000000E+08    0.9448953089E-07    0.6953177562E+00    0.5707679642E-03    0.6653094395E+00    0.7557850062E-03
    0.2100000000E+08    0.8255752154E-07    0.6953137632E+00    0.5158691387E-03    0.6654809575E+00    0.7599973020E-03
    0.2300000000E+08    0.7339580442E-07    0.6953101098E+00    0.4705427175E-03    0.6656226359E+00    0.7638464500E-03
    0.2500000000E+08    0.6617807661E-07    0.6953067414E+00    0.4324904230E-03    0.6657416312E+00    0.7673915488E-03
    0.2700000000E+08    0.6036791020E-07    0.6953036154E+00    0.4000945628E-03    0.6658429821E+00    0.7706782513E-03
