  Pressure (Pa) 22mC5-500 (mol/kg) 24mC5-500 (mol/kg) 2mC6-500 (mol/kg) 3mC6-500 (mol/kg) C7-500 (mol/kg)
    0.1000000000E+01    0.2240610070E-05    0.1266259237E+00    0.2312708280E-04    0.1545944999E-05    0.4202295051E-02
    0.3000000000E+01    0.4627723765E-05    0.2784941854E+00    0.4551605375E-04    0.3972271194E-05    0.4254843501E-02
    0.5000000000E+01    0.5828686745E-05    0.3663796152E+00    0.5577691354E-04    0.6208353957E-05    0.4284268089E-02
    0.7000000000E+01    0.6527020257E-05    0.4236826840E+00    0.6159364429E-04    0.8352522265E-05    0.4303526879E-02
    0.9000000000E+01    0.6978735161E-05    0.4640014086E+00    0.6557651860E-04    0.1043806538E-04    0.4317173087E-02
    0.1100000000E+02    0.7297809285E-05    0.4939126470E+00    0.6876814660E-04    0.1248167196E-04    0.4327365595E-02
    0.1300000000E+02    0.7541068269E-05    0.5169856793E+00    0.7162812849E-04    0.1449328780E-04    0.4335272520E-02
    0.1500000000E+02    0.7739208566E-05    0.5353250495E+00    0.7437160639E-04    0.1647947294E-04    0.4341584012E-02
    0.1700000000E+02    0.7909826432E-05    0.5502520268E+00    0.7710232349E-04    0.1844485621E-04    0.4346735122E-02
    0.1900000000E+02    0.8063474767E-05    0.5626379947E+00    0.7987019299E-04    0.2039286555E-04    0.4351014225E-02
    0.2100000000E+02    0.8206706738E-05    0.5730809140E+00    0.8269805833E-04    0.2232613383E-04    0.4354620320E-02
    0.2300000000E+02    0.8343702503E-05    0.5820047671E+00    0.8559482875E-04    0.2424674170E-04    0.4357695338E-02
    0.2500000000E+02    0.8477183255E-05    0.5897185435E+00    0.8856219831E-04    0.2615637160E-04    0.4360343345E-02
    0.2700000000E+02    0.8608946517E-05    0.5964527505E+00    0.9159818781E-04    0.2805640983E-04    0.4362642452E-02
    0.2900000000E+02    0.8740190680E-05    0.6023828437E+00    0.9469904930E-04    0.2994801689E-04    0.4364652488E-02
    0.3100000000E+02    0.8871717647E-05    0.6076447364E+00    0.9786029976E-04    0.3183217740E-04    0.4366420087E-02
    0.3300000000E+02    0.9004062579E-05    0.6123453447E+00    0.1010772798E-03    0.3370973648E-04    0.4367982161E-02
    0.3500000000E+02    0.9137578777E-05    0.6165699298E+00    0.1043454495E-03    0.3558142685E-04    0.4369368331E-02
    0.3700000000E+02    0.9272494265E-05    0.6203873161E+00    0.1076605355E-03    0.3744788943E-04    0.4370602657E-02
    0.3900000000E+02    0.9408950119E-05    0.6238536700E+00    0.1110185969E-03    0.3930968926E-04    0.4371704894E-02
    0.4100000000E+02    0.9547026782E-05    0.6270152823E+00    0.1144160433E-03    0.4116732799E-04    0.4372691423E-02
    0.4300000000E+02    0.9686762363E-05    0.6299106471E+00    0.1178496284E-03    0.4302125380E-04    0.4373575951E-02
    0.4500000000E+02    0.9828165468E-05    0.6325720370E+00    0.1213164309E-03    0.4487186941E-04    0.4374370037E-02
    0.4700000000E+02    0.9971224292E-05    0.6350267114E+00    0.1248138292E-03    0.4671953851E-04    0.4375083505E-02
    0.4900000000E+02    0.1011591309E-04    0.6372978535E+00    0.1283394736E-03    0.4856459117E-04    0.4375724760E-02
    0.1000000000E+02    0.7150456805E-05    0.4799887110E+00    0.6723434869E-04    0.1146438459E-04    0.4322612955E-02
    0.3000000000E+02    0.8805880278E-05    0.6050900517E+00    0.9627241738E-04    0.3089097223E-04    0.4365564090E-02
    0.5000000000E+02    0.1018885804E-04    0.6383709141E+00    0.1301122217E-03    0.4948623138E-04    0.4376020608E-02
    0.7000000000E+02    0.1172291234E-04    0.6537824542E+00    0.1666445876E-03    0.6784272102E-04    0.4379468181E-02
    0.9000000000E+02    0.1337170287E-04    0.6626702739E+00    0.2045958831E-03    0.8616664578E-04    0.4380107957E-02
    0.1100000000E+03    0.1510525558E-04    0.6684529136E+00    0.2435084632E-03    0.1045651204E-03    0.4379282992E-02
    0.1300000000E+03    0.1690614822E-04    0.6725155920E+00    0.2832054224E-03    0.1231052419E-03    0.4377566132E-02
    0.1500000000E+03    0.1876434448E-04    0.6755262657E+00    0.3236196103E-03    0.1418342586E-03    0.4375246218E-02
    0.1700000000E+03    0.2067399114E-04    0.6778466657E+00    0.3647320256E-03    0.1607883109E-03    0.4372485784E-02
    0.1900000000E+03    0.2263169146E-04    0.6796897386E+00    0.4065467464E-03    0.1799968197E-03    0.4369383606E-02
    0.2100000000E+03    0.2463555895E-04    0.6811890097E+00    0.4490797283E-03    0.1994849243E-03    0.4366003167E-02
    0.2300000000E+03    0.2668467827E-04    0.6824324513E+00    0.4923534381E-03    0.2192749451E-03    0.4362386996E-02
    0.2500000000E+03    0.2877878553E-04    0.6834803819E+00    0.5363941518E-03    0.2393873133E-03    0.4358564459E-02
    0.2700000000E+03    0.3091807187E-04    0.6843755403E+00    0.5812305494E-03    0.2598411932E-03    0.4354556275E-02
    0.2900000000E+03    0.3310305896E-04    0.6851490549E+00    0.6268929751E-03    0.2806549154E-03    0.4350377252E-02
    0.3100000000E+03    0.3533451824E-04    0.6858241359E+00    0.6734130529E-03    0.3018462898E-03    0.4346038032E-02
    0.3300000000E+03    0.3761341725E-04    0.6864184419E+00    0.7208234988E-03    0.3234328405E-03    0.4341546223E-02
    0.3500000000E+03    0.3994088368E-04    0.6869456465E+00    0.7691580456E-03    0.3454319864E-03    0.4336907172E-02
    0.3700000000E+03    0.4231818094E-04    0.6874165021E+00    0.8184514323E-03    0.3678611855E-03    0.4332124501E-02
    0.3900000000E+03    0.4474669167E-04    0.6878395805E+00    0.8687394336E-03    0.3907380530E-03    0.4327200477E-02
    0.4100000000E+03    0.4722790669E-04    0.6882217989E+00    0.9200589127E-03    0.4140804605E-03    0.4322136293E-02
    0.4300000000E+03    0.4976341779E-04    0.6885688009E+00    0.9724478896E-03    0.4379066231E-03    0.4316932257E-02
    0.4500000000E+03    0.5235491343E-04    0.6888852366E+00    0.1025945620E-02    0.4622351753E-03    0.4311587946E-02
    0.4700000000E+03    0.5500417643E-04    0.6891749721E+00    0.1080592680E-02    0.4870852419E-03    0.4306102315E-02
    0.4900000000E+03    0.5771308334E-04    0.6894412478E+00    0.1136431060E-02    0.5124765027E-03    0.4300473778E-02
    0.1000000000E+03    0.1422919775E-04    0.6658383109E+00    0.2239468045E-03    0.9535175423E-04    0.4379833066E-02
    0.3000000000E+03    0.3421292321E-04    0.6854976872E+00    0.6500437871E-03    0.2912022965E-03    0.4348227131E-02
    0.5000000000E+03    0.5909051542E-04    0.6895664605E+00    0.1164810527E-02    0.5253813981E-03    0.4297605292E-02
    0.7000000000E+03    0.9031391979E-04    0.6913235025E+00    0.1806677605E-02    0.8173311418E-03    0.4231997312E-02
    0.9000000000E+03    0.1305428144E-03    0.6923026155E+00    0.2632148812E-02    0.1193140578E-02    0.4147255244E-02
    0.1100000000E+04    0.1840303697E-03    0.6929265456E+00    0.3729462379E-02    0.1693314284E-02    0.4035491527E-02
    0.1300000000E+04    0.2578070451E-03    0.6933587414E+00    0.5243920500E-02    0.2384572393E-02    0.3883490762E-02
    0.1500000000E+04    0.3639355233E-03    0.6936757182E+00    0.7424940857E-02    0.3381623391E-02    0.3668975964E-02
    0.1700000000E+04    0.5234777928E-03    0.6939180679E+00    0.1070900575E-01    0.4885721550E-02    0.3354436912E-02
    0.1900000000E+04    0.7711142688E-03    0.6941093248E+00    0.1581819308E-01    0.7231353112E-02    0.2882314126E-02
    0.2100000000E+04    0.1146548873E-02    0.6942640723E+00    0.2359100953E-01    0.1081224028E-01    0.2200601871E-02
    0.2300000000E+04    0.1628462736E-02    0.6943918289E+00    0.3362676290E-01    0.1546209872E-01    0.1392842418E-02
    0.2500000000E+04    0.2066836310E-02    0.6944990703E+00    0.4285710837E-01    0.1978436820E-01    0.7616250790E-03
    0.2700000000E+04    0.2357651417E-02    0.6945903555E+00    0.4910945767E-01    0.2276985335E-01    0.4564989915E-03
    0.2900000000E+04    0.2544555674E-02    0.6946689868E+00    0.5325040165E-01    0.2480138120E-01    0.3493021608E-03
    0.3100000000E+04    0.2685955269E-02    0.6947374146E+00    0.5647313230E-01    0.2642160667E-01    0.3167245174E-03
    0.3300000000E+04    0.2808688316E-02    0.6947974958E+00    0.5932920776E-01    0.2788290066E-01    0.3076813880E-03
    0.3500000000E+04    0.2922193294E-02    0.6948506626E+00    0.6201269958E-01    0.2927415504E-01    0.3056667484E-03
    0.3700000000E+04    0.3029638514E-02    0.6948980379E+00    0.6458815033E-01    0.3062470429E-01    0.3057107163E-03
    0.3900000000E+04    0.3132166323E-02    0.6949405140E+00    0.6707810359E-01    0.3194450032E-01    0.3063394638E-03
    0.4100000000E+04    0.3230276978E-02    0.6949788091E+00    0.6949178900E-01    0.3323734430E-01    0.3071163205E-03
    0.4300000000E+04    0.3324262491E-02    0.6950135079E+00    0.7183415360E-01    0.3450507062E-01    0.3079124542E-03
    0.4500000000E+04    0.3414342028E-02    0.6950450910E+00    0.7410868944E-01    0.3574886119E-01    0.3086909354E-03
    0.4700000000E+04    0.3500704630E-02    0.6950739571E+00    0.7631832600E-01    0.3696966073E-01    0.3094423760E-03
    0.4900000000E+04    0.3583523107E-02    0.6951004397E+00    0.7846571811E-01    0.3816831015E-01    0.3101655818E-03
    0.1000000000E+04    0.1552745922E-03    0.6926457110E+00    0.3139492194E-02    0.1424316312E-02    0.4095419759E-02
    0.3000000000E+04    0.2618660473E-02    0.6947043485E+00    0.5492965562E-01    0.2564146897E-01    0.3281201627E-03
    0.5000000000E+04    0.3623654121E-02    0.6951128769E+00    0.7951685253E-01    0.3875957452E-01    0.3105169224E-03
    0.7000000000E+04    0.4274852716E-02    0.6952861342E+00    0.9780701779E-01    0.4959154548E-01    0.3164205009E-03
    0.9000000000E+04    0.4708787826E-02    0.6953813176E+00    0.1120139066E+00    0.5889274375E-01    0.3208936589E-03
    0.1100000000E+05    0.4997566664E-02    0.6954411891E+00    0.1233059154E+00    0.6704833800E-01    0.3245063540E-03
    0.1300000000E+05    0.5186483973E-02    0.6954821456E+00    0.1324475239E+00    0.7431854925E-01    0.3275424599E-03
    0.1500000000E+05    0.5305107429E-02    0.6955118141E+00    0.1399594850E+00    0.8088628036E-01    0.3301643737E-03
    0.1700000000E+05    0.5373354450E-02    0.6955342187E+00    0.1462085016E+00    0.8688435142E-01    0.3324739040E-03
    0.1900000000E+05    0.5404996054E-02    0.6955516812E+00    0.1514600871E+00    0.9241188816E-01    0.3345391777E-03
    0.2100000000E+05    0.5409763999E-02    0.6955656337E+00    0.1559110962E+00    0.9754461110E-01    0.3364080727E-03
    0.2300000000E+05    0.5394663875E-02    0.6955770069E+00    0.1597104855E+00    0.1023415321E+00    0.3381155466E-03
    0.2500000000E+05    0.5364818689E-02    0.6955864311E+00    0.1629729865E+00    0.1068494495E+00    0.3396879181E-03
    0.2700000000E+05    0.5324025307E-02    0.6955943486E+00    0.1657883562E+00    0.1111060478E+00    0.3411455073E-03
    0.2900000000E+05    0.5275130062E-02    0.6956010782E+00    0.1682277878E+00    0.1151420850E+00    0.3425043362E-03
    0.3100000000E+05    0.5220287490E-02    0.6956068557E+00    0.1703484483E+00    0.1189829704E+00    0.3437772657E-03
    0.3300000000E+05    0.5161141797E-02    0.6956118589E+00    0.1721967495E+00    0.1226499217E+00    0.3449747787E-03
    0.3500000000E+05    0.5098956195E-02    0.6956162246E+00    0.1738107473E+00    0.1261608295E+00    0.3461055347E-03
    0.3700000000E+05    0.5034706423E-02    0.6956200595E+00    0.1752219277E+00    0.1295309122E+00    0.3471767711E-03
    0.3900000000E+05    0.4969149247E-02    0.6956234480E+00    0.1764565549E+00    0.1327732190E+00    0.3481945994E-03
    0.4100000000E+05    0.4902873230E-02    0.6956264580E+00    0.1775367018E+00    0.1358990210E+00    0.3491642284E-03
    0.4300000000E+05    0.4836336754E-02    0.6956291443E+00    0.1784810460E+00    0.1389181186E+00    0.3500901341E-03
    0.4500000000E+05    0.4769896784E-02    0.6956315519E+00    0.1793054925E+00    0.1418390862E+00    0.3509761917E-03
    0.4700000000E+05    0.4703830813E-02    0.6956337181E+00    0.1800236640E+00    0.1446694679E+00    0.3518257788E-03
    0.4900000000E+05    0.4638353733E-02    0.6956356738E+00    0.1806472913E+00    0.1474159364E+00    0.3526418576E-03
    0.1000000000E+05    0.4868025426E-02    0.6954143340E+00    0.1179693645E+00    0.6309524023E-01    0.3227858553E-03
    0.3000000000E+05    0.5248339192E-02    0.6956040738E+00    0.1693248433E+00    0.1170855087E+00    0.3431508348E-03
    0.5000000000E+05    0.4605889345E-02    0.6956365810E+00    0.1809268779E+00    0.1487595825E+00    0.3530381598E-03
    0.7000000000E+05    0.4010876001E-02    0.6956482310E+00    0.1834196570E+00    0.1723734101E+00    0.3597035574E-03
    0.9000000000E+05    0.3526672778E-02    0.6956534267E+00    0.1826878303E+00    0.1916605460E+00    0.3647631770E-03
    0.1100000000E+06    0.3135225095E-02    0.6956559129E+00    0.1805899196E+00    0.2081723370E+00    0.3688538910E-03
    0.1300000000E+06    0.2814805502E-02    0.6956570612E+00    0.1778708317E+00    0.2227148782E+00    0.3722940946E-03
    0.1500000000E+06    0.2548521735E-02    0.6956574796E+00    0.1748737931E+00    0.2357671309E+00    0.3752664040E-03
    0.1700000000E+06    0.2324040244E-02    0.6956574733E+00    0.1717714638E+00    0.2476403486E+00    0.3778855047E-03
    0.1900000000E+06    0.2132379332E-02    0.6956572090E+00    0.1686556134E+00    0.2585501691E+00    0.3802282382E-03
    0.2100000000E+06    0.1966913574E-02    0.6956567839E+00    0.1655765004E+00    0.2686533222E+00    0.3823486587E-03
    0.2300000000E+06    0.1822672921E-02    0.6956562573E+00    0.1625618113E+00    0.2780680356E+00    0.3842862632E-03
    0.2500000000E+06    0.1695864938E-02    0.6956556669E+00    0.1596264244E+00    0.2868861740E+00    0.3860708063E-03
    0.2700000000E+06    0.1583548787E-02    0.6956550372E+00    0.1567777238E+00    0.2951808589E+00    0.3877252721E-03
    0.2900000000E+06    0.1483410018E-02    0.6956543848E+00    0.1540186191E+00    0.3030114673E+00    0.3892677908E-03
    0.3100000000E+06    0.1393602521E-02    0.6956537205E+00    0.1513493220E+00    0.3104270320E+00    0.3907129206E-03
    0.3300000000E+06    0.1312635749E-02    0.6956530522E+00    0.1487684193E+00    0.3174686273E+00    0.3920725315E-03
    0.3500000000E+06    0.1239292933E-02    0.6956523851E+00    0.1462735363E+00    0.3241710868E+00    0.3933564314E-03
    0.3700000000E+06    0.1172570843E-02    0.6956517228E+00    0.1438617522E+00    0.3305642701E+00    0.3945728193E-03
    0.3900000000E+06    0.1111634792E-02    0.6956510679E+00    0.1415298636E+00    0.3366740139E+00    0.3957286203E-03
    0.4100000000E+06    0.1055784568E-02    0.6956504220E+00    0.1392745523E+00    0.3425228599E+00    0.3968297373E-03
    0.4300000000E+06    0.1004428321E-02    0.6956497863E+00    0.1370924920E+00    0.3481306206E+00    0.3978812440E-03
    0.4500000000E+06    0.9570623235E-03    0.6956491616E+00    0.1349804149E+00    0.3535148242E+00    0.3988875334E-03
    0.4700000000E+06    0.9132551122E-03    0.6956485483E+00    0.1329351529E+00    0.3586910704E+00    0.3998524351E-03
    0.4900000000E+06    0.8726349492E-03    0.6956479466E+00    0.1309536618E+00    0.3636733167E+00    0.4007793079E-03
    0.1000000000E+06    0.3320808823E-02    0.6956548956E+00    0.1817491821E+00    0.2002024107E+00    0.3669053196E-03
    0.3000000000E+06    0.1437315270E-02    0.6956540536E+00    0.1526728041E+00    0.3067683992E+00    0.3900017328E-03
    0.5000000000E+06    0.8534176680E-03    0.6956476501E+00    0.1299859161E+00    0.3660956609E+00    0.4012294230E-03
    0.7000000000E+06    0.5770516668E-03    0.6956423002E+00    0.1133490081E+00    0.4068379535E+00    0.4088006764E-03
    0.9000000000E+06    0.4200159944E-03    0.6956378716E+00    0.1006086232E+00    0.4371967453E+00    0.4145486856E-03
    0.1100000000E+07    0.3208979762E-03    0.6956341181E+00    0.9050771158E-01    0.4609135859E+00    0.4191963092E-03
    0.1300000000E+07    0.2538342935E-03    0.6956308663E+00    0.8228490929E-01    0.4800450484E+00    0.4231050447E-03
    0.1500000000E+07    0.2061370648E-03    0.6956279987E+00    0.7545105937E-01    0.4958470910E+00    0.4264822698E-03
    0.1700000000E+07    0.1709056751E-03    0.6956254340E+00    0.6967609247E-01    0.5091416819E+00    0.4294582370E-03
    0.1900000000E+07    0.1440945595E-03    0.6956231136E+00    0.6472837226E-01    0.5204941541E+00    0.4321202261E-03
    0.2100000000E+07    0.1231918413E-03    0.6956209946E+00    0.6044009167E-01    0.5303083098E+00    0.4345296385E-03
    0.2300000000E+07    0.1065652823E-03    0.6956190442E+00    0.5668645468E-01    0.5388813499E+00    0.4367313419E-03
    0.2500000000E+07    0.9311416422E-04    0.6956172372E+00    0.5337258588E-01    0.5464374416E+00    0.4387591385E-03
    0.2700000000E+07    0.8207292723E-04    0.6956155535E+00    0.5042498951E-01    0.5531491663E+00    0.4406391398E-03
    0.2900000000E+07    0.7289500664E-04    0.6956139770E+00    0.4778580008E-01    0.5591517309E+00    0.4423919436E-03
    0.3100000000E+07    0.6518131914E-04    0.6956124947E+00    0.4540880753E-01    0.5645526727E+00    0.4440340898E-03
    0.3300000000E+07    0.5863471802E-04    0.6956110956E+00    0.4325664476E-01    0.5694386586E+00    0.4455790646E-03
    0.3500000000E+07    0.5303012651E-04    0.6956097708E+00    0.4129875699E-01    0.5738803552E+00    0.4470380114E-03
    0.3700000000E+07    0.4819444634E-04    0.6956085125E+00    0.3950990926E-01    0.5779359855E+00    0.4484202458E-03
    0.3900000000E+07    0.4399273523E-04    0.6956073142E+00    0.3786907168E-01    0.5816539698E+00    0.4497336360E-03
    0.4100000000E+07    0.4031850551E-04    0.6956061704E+00    0.3635857510E-01    0.5850749175E+00    0.4509848894E-03
    0.4300000000E+07    0.3708679277E-04    0.6956050762E+00    0.3496346308E-01    0.5882331490E+00    0.4521797705E-03
    0.4500000000E+07    0.3422912329E-04    0.6956040273E+00    0.3367098887E-01    0.5911578739E+00    0.4533232709E-03
    0.4700000000E+07    0.3168980652E-04    0.6956030201E+00    0.3247022067E-01    0.5938741117E+00    0.4544197421E-03
    0.4900000000E+07    0.2942316748E-04    0.6956020512E+00    0.3135172886E-01    0.5964034201E+00    0.4554730004E-03
    0.1000000000E+07    0.3652846543E-03    0.6956359229E+00    0.9528407278E-01    0.4497316526E+00    0.4169824264E-03
    0.3000000000E+07    0.6887568573E-04    0.6956132248E+00    0.4656704499E-01    0.5619215635E+00    0.4432259439E-03
    0.5000000000E+07    0.2838004189E-04    0.6956015803E+00    0.3082073800E-01    0.5976039114E+00    0.4559844923E-03
    0.7000000000E+07    0.1539632436E-04    0.6955936209E+00    0.2301071784E-01    0.6152428524E+00    0.4645881857E-03
    0.9000000000E+07    0.9643938628E-05    0.6955875395E+00    0.1834565608E-01    0.6257645196E+00    0.4711200446E-03
    0.1100000000E+08    0.6601793972E-05    0.6955826036E+00    0.1524559394E-01    0.6327515968E+00    0.4764014706E-03
    0.1300000000E+08    0.4800787224E-05    0.6955784419E+00    0.1303693880E-01    0.6377276145E+00    0.4808432491E-03
    0.1500000000E+08    0.3647467810E-05    0.6955748396E+00    0.1138402697E-01    0.6414506852E+00    0.4846810348E-03
    0.1700000000E+08    0.2864886773E-05    0.6955716609E+00    0.1010084662E-01    0.6443405444E+00    0.4880628416E-03
    0.1900000000E+08    0.2309700317E-05    0.6955688145E+00    0.9076017569E-02    0.6466483673E+00    0.4910878517E-03
    0.2100000000E+08    0.1901680944E-05    0.6955662359E+00    0.8238784196E-02    0.6485336466E+00    0.4938258396E-03
    0.2300000000E+08    0.1593087626E-05    0.6955638778E+00    0.7542047753E-02    0.6501025156E+00    0.4963277919E-03
    0.2500000000E+08    0.1354071901E-05    0.6955617046E+00    0.6953245842E-02    0.6514283335E+00    0.4986321205E-03
    0.2700000000E+08    0.1165196421E-05    0.6955596887E+00    0.6449148445E-02    0.6525634253E+00    0.5007684978E-03
