  Pressure (Pa) 22mC5-500 (mol/kg) 24mC5-500 (mol/kg) 2mC6-500 (mol/kg) 3mC6-500 (mol/kg) C7-500 (mol/kg)
    0.1000000000E+01    0.1963253029E-05    0.1949980794E+00    0.1518464952E-04    0.3592631044E-05    0.4167062176E-02
    0.3000000000E+01    0.3489559615E-05    0.3749006671E+00    0.2570648254E-04    0.9041474627E-05    0.4188785714E-02
    0.5000000000E+01    0.4103022992E-05    0.4597311403E+00    0.2998785564E-04    0.1402224371E-04    0.4196249596E-02
    0.7000000000E+01    0.4443988237E-05    0.5091024702E+00    0.3291485513E-04    0.1878048189E-04    0.4200082815E-02
    0.9000000000E+01    0.4681845467E-05    0.5414044996E+00    0.3553664419E-04    0.2339821637E-04    0.4202313772E-02
    0.1100000000E+02    0.4876002216E-05    0.5641848083E+00    0.3813591633E-04    0.2791627103E-04    0.4203681672E-02
    0.1300000000E+02    0.5050911233E-05    0.5811127600E+00    0.4079213617E-04    0.3235885114E-04    0.4204528232E-02
    0.1500000000E+02    0.5217691867E-05    0.5941869155E+00    0.4352275588E-04    0.3674185904E-04    0.4205034770E-02
    0.1700000000E+02    0.5381723388E-05    0.6045888246E+00    0.4632546436E-04    0.4107647976E-04    0.4205306870E-02
    0.1900000000E+02    0.5545695479E-05    0.6130618101E+00    0.4919218390E-04    0.4537097442E-04    0.4205410344E-02
    0.2100000000E+02    0.5710958979E-05    0.6200968979E+00    0.5211391056E-04    0.4963167364E-04    0.4205388409E-02
    0.2300000000E+02    0.5878169364E-05    0.6260314875E+00    0.5508233823E-04    0.5386357053E-04    0.4205270642E-02
    0.2500000000E+02    0.6047610941E-05    0.6311050748E+00    0.5809030533E-04    0.5807069566E-04    0.4205077982E-02
    0.2700000000E+02    0.6219367394E-05    0.6354923618E+00    0.6113181255E-04    0.6225636534E-04    0.4204825674E-02
    0.2900000000E+02    0.6393414463E-05    0.6393237805E+00    0.6420189717E-04    0.6642335215E-04    0.4204525084E-02
    0.3100000000E+02    0.6569671529E-05    0.6426986800E+00    0.6729647384E-04    0.7057400586E-04    0.4204184856E-02
    0.3300000000E+02    0.6748030734E-05    0.6456940651E+00    0.7041218253E-04    0.7471034140E-04    0.4203811686E-02
    0.3500000000E+02    0.6928373523E-05    0.6483705439E+00    0.7354625656E-04    0.7883410429E-04    0.4203410837E-02
    0.3700000000E+02    0.7110579961E-05    0.6507764712E+00    0.7669641283E-04    0.8294682036E-04    0.4202986503E-02
    0.3900000000E+02    0.7294533880E-05    0.6529508962E+00    0.7986076222E-04    0.8704983404E-04    0.4202542068E-02
    0.4100000000E+02    0.7480125547E-05    0.6549256983E+00    0.8303773726E-04    0.9114433841E-04    0.4202080289E-02
    0.4300000000E+02    0.7667252906E-05    0.6567271604E+00    0.8622603379E-04    0.9523139906E-04    0.4201603435E-02
    0.4500000000E+02    0.7855821964E-05    0.6583771455E+00    0.8942456408E-04    0.9931197323E-04    0.4201113392E-02
    0.4700000000E+02    0.8045746702E-05    0.6598939882E+00    0.9263241889E-04    0.1033869254E-03    0.4200611737E-02
    0.4900000000E+02    0.8236948715E-05    0.6612931787E+00    0.9584883686E-04    0.1074570401E-03    0.4200099799E-02
    0.1000000000E+02    0.4782401346E-05    0.5537007967E+00    0.3683181559E-04    0.2566793406E-04    0.4203078906E-02
    0.3000000000E+02    0.6481273088E-05    0.6410630391E+00    0.6574634935E-04    0.6850058772E-04    0.4204359467E-02
    0.5000000000E+02    0.8333006160E-05    0.6619528507E+00    0.9746005331E-04    0.1094905093E-03    0.4199840332E-02
    0.7000000000E+02    0.1030714355E-04    0.6713284311E+00    0.1300252461E-03    0.1500511424E-03    0.4194311715E-02
    0.9000000000E+02    0.1235915493E-04    0.6766527397E+00    0.1631231914E-03    0.1906739140E-03    0.4188404310E-02
    0.1100000000E+03    0.1447167645E-04    0.6800850923E+00    0.1967221660E-03    0.2316167821E-03    0.4182288897E-02
    0.1300000000E+03    0.1663782466E-04    0.6824817675E+00    0.2308533547E-03    0.2730444209E-03    0.4176025190E-02
    0.1500000000E+03    0.1885516695E-04    0.6842500579E+00    0.2655629031E-03    0.3150758105E-03    0.4169635824E-02
    0.1700000000E+03    0.2112338310E-04    0.6856084448E+00    0.3008995907E-03    0.3578047890E-03    0.4163128519E-02
    0.1900000000E+03    0.2344325601E-04    0.6866846452E+00    0.3369115931E-03    0.4013103510E-03    0.4156504208E-02
    0.2100000000E+03    0.2581619708E-04    0.6875583103E+00    0.3736458775E-03    0.4456623738E-03    0.4149760443E-02
    0.2300000000E+03    0.2824400824E-04    0.6882816929E+00    0.4111483852E-03    0.4909250634E-03    0.4142892958E-02
    0.2500000000E+03    0.3072875731E-04    0.6888904945E+00    0.4494644285E-03    0.5371591639E-03    0.4135896436E-02
    0.2700000000E+03    0.3327271111E-04    0.6894099386E+00    0.4886391115E-03    0.5844234530E-03    0.4128764896E-02
    0.2900000000E+03    0.3587829966E-04    0.6898583511E+00    0.5287177226E-03    0.6327758044E-03    0.4121491905E-02
    0.3100000000E+03    0.3854809792E-04    0.6902493676E+00    0.5697460848E-03    0.6822739787E-03    0.4114070673E-02
    0.3300000000E+03    0.4128481773E-04    0.6905933438E+00    0.6117708671E-03    0.7329762353E-03    0.4106494114E-02
    0.3500000000E+03    0.4409130620E-04    0.6908982853E+00    0.6548398649E-03    0.7849418289E-03    0.4098754859E-02
    0.3700000000E+03    0.4697054796E-04    0.6911704788E+00    0.6990022568E-03    0.8382314261E-03    0.4090845263E-02
    0.3900000000E+03    0.4992567028E-04    0.6914149298E+00    0.7443088438E-03    0.8929074698E-03    0.4082757393E-02
    0.4100000000E+03    0.5295995000E-04    0.6916356733E+00    0.7908122774E-03    0.9490345084E-03    0.4074483016E-02
    0.4300000000E+03    0.5607682207E-04    0.6918359978E+00    0.8385672816E-03    0.1006679504E-02    0.4066013576E-02
    0.4500000000E+03    0.5927988920E-04    0.6920186106E+00    0.8876308720E-03    0.1065912124E-02    0.4057340169E-02
    0.4700000000E+03    0.6257293264E-04    0.6921857609E+00    0.9380625760E-03    0.1126805033E-02    0.4048453523E-02
    0.4900000000E+03    0.6595992392E-04    0.6923393321E+00    0.9899246565E-03    0.1189434179E-02    0.4039343961E-02
    0.1000000000E+03    0.1340842944E-04    0.6785362404E+00    0.1798587185E-03    0.2110936167E-03    0.4185367562E-02
    0.3000000000E+03    0.3720500625E-04    0.6900603225E+00    0.5491102913E-03    0.6573780405E-03    0.4117800255E-02
    0.5000000000E+03    0.6768994625E-04    0.6924115323E+00    0.1016412350E-02    0.1221424544E-02    0.4034702447E-02
    0.7000000000E+03    0.1083915806E-03    0.6934237523E+00    0.1639431703E-02    0.1974525082E-02    0.3927378633E-02
    0.9000000000E+03    0.1652976540E-03    0.6939871704E+00    0.2510933344E-02    0.3029733965E-02    0.3781801293E-02
    0.1100000000E+04    0.2491694653E-03    0.6943460508E+00    0.3797017840E-02    0.4589690176E-02    0.3573715127E-02
    0.1300000000E+04    0.3803195944E-03    0.6945946281E+00    0.5811679171E-02    0.7038367007E-02    0.3259224925E-02
    0.1500000000E+04    0.5965563447E-03    0.6947769596E+00    0.9141711695E-02    0.1109629417E-01    0.2762050520E-02
    0.1700000000E+04    0.9506469492E-03    0.6949163986E+00    0.1461544365E-01    0.1779180105E-01    0.1994931349E-02
    0.1900000000E+04    0.1425830797E-02    0.6950264771E+00    0.2201056784E-01    0.2689708376E-01    0.1063798866E-02
    0.2100000000E+04    0.1834552274E-02    0.6951155775E+00    0.2845922249E-01    0.3494229435E-01    0.4123578151E-03
    0.2300000000E+04    0.2085202778E-02    0.6951891691E+00    0.3252051128E-01    0.4013607044E-01    0.1620857654E-03
    0.2500000000E+04    0.2251000681E-02    0.6952509724E+00    0.3529800066E-01    0.4379501015E-01    0.9320936876E-04
    0.2700000000E+04    0.2385984404E-02    0.6953036063E+00    0.3761896863E-01    0.4692172053E-01    0.7631987012E-04
    0.2900000000E+04    0.2508339544E-02    0.6953489676E+00    0.3976277545E-01    0.4985607782E-01    0.7241722438E-04
    0.3100000000E+04    0.2623235080E-02    0.6953884639E+00    0.4180825321E-01    0.5269346097E-01    0.7165994572E-04
    0.3300000000E+04    0.2732225697E-02    0.6954231616E+00    0.4377828866E-01    0.5546070001E-01    0.7165743571E-04
    0.3500000000E+04    0.2835914056E-02    0.6954538837E+00    0.4568102010E-01    0.5816652223E-01    0.7183042512E-04
    0.3700000000E+04    0.2934646105E-02    0.6954812749E+00    0.4752065237E-01    0.6081486401E-01    0.7203808050E-04
    0.3900000000E+04    0.3028690323E-02    0.6955058479E+00    0.4930025514E-01    0.6340832864E-01    0.7224640986E-04
    0.4100000000E+04    0.3118284520E-02    0.6955280154E+00    0.5102249285E-01    0.6594908879E-01    0.7244765807E-04
    0.4300000000E+04    0.3203648663E-02    0.6955481132E+00    0.5268982155E-01    0.6843912715E-01    0.7264051844E-04
    0.4500000000E+04    0.3284988889E-02    0.6955664176E+00    0.5430454717E-01    0.7088030462E-01    0.7282522836E-04
    0.4700000000E+04    0.3362499188E-02    0.6955831576E+00    0.5586884721E-01    0.7327438282E-01    0.7300234845E-04
    0.4900000000E+04    0.3436362421E-02    0.6955985249E+00    0.5738478229E-01    0.7562303440E-01    0.7317246271E-04
    0.1000000000E+04    0.2028970693E-03    0.6941845256E+00    0.3087240907E-02    0.3728407414E-02    0.3687705295E-02
    0.3000000000E+04    0.2566584973E-02    0.6953693755E+00    0.4079579164E-01    0.5128449788E-01    0.7186819903E-04
    0.5000000000E+04    0.3471980686E-02    0.6956057454E+00    0.5812522705E-01    0.7678082521E-01    0.7325506334E-04
    0.7000000000E+04    0.4029971470E-02    0.6957066351E+00    0.7081861813E-01    0.9789963241E-01    0.7464336530E-04
    0.9000000000E+04    0.4369832175E-02    0.6957624383E+00    0.8037053010E-01    0.1158823526E+00    0.7569624136E-04
    0.1100000000E+05    0.4567855823E-02    0.6957977869E+00    0.8770314536E-01    0.1315216051E+00    0.7654705017E-04
    0.1300000000E+05    0.4671318412E-02    0.6958221441E+00    0.9341669796E-01    0.1453521225E+00    0.7726232341E-04
    0.1500000000E+05    0.4710599914E-02    0.6958399204E+00    0.9791771258E-01    0.1577491617E+00    0.7788017145E-04
    0.1700000000E+05    0.4705805142E-02    0.6958534478E+00    0.1014907032E+00    0.1689847978E+00    0.7842450716E-04
    0.1900000000E+05    0.4670562052E-02    0.6958640746E+00    0.1043403511E+00    0.1792617834E+00    0.7891134260E-04
    0.2100000000E+05    0.4614291608E-02    0.6958726340E+00    0.1066173953E+00    0.1887347897E+00    0.7935193609E-04
    0.2300000000E+05    0.4543611882E-02    0.6958796690E+00    0.1084351082E+00    0.1975242154E+00    0.7975451093E-04
    0.2500000000E+05    0.4463232620E-02    0.6958855481E+00    0.1098801119E+00    0.2057254445E+00    0.8012526021E-04
    0.2700000000E+05    0.4376539898E-02    0.6958905302E+00    0.1110196725E+00    0.2134152214E+00    0.8046896665E-04
    0.2900000000E+05    0.4285986803E-02    0.6958948026E+00    0.1119067374E+00    0.2206561439E+00    0.8078940217E-04
    0.3100000000E+05    0.4193359640E-02    0.6958985040E+00    0.1125834879E+00    0.2274998981E+00    0.8108959500E-04
    0.3300000000E+05    0.4099962457E-02    0.6959017393E+00    0.1130838915E+00    0.2339896299E+00    0.8137201389E-04
    0.3500000000E+05    0.4006746914E-02    0.6959045895E+00    0.1134355665E+00    0.2401617126E+00    0.8163869842E-04
    0.3700000000E+05    0.3914404924E-02    0.6959071176E+00    0.1136611652E+00    0.2460470850E+00    0.8189135339E-04
    0.3900000000E+05    0.3823435545E-02    0.6959093740E+00    0.1137794137E+00    0.2516722782E+00    0.8213141859E-04
    0.4100000000E+05    0.3734193792E-02    0.6959113990E+00    0.1138059039E+00    0.2570602121E+00    0.8236012124E-04
    0.4300000000E+05    0.3646926606E-02    0.6959132253E+00    0.1137537028E+00    0.2622308222E+00    0.8257851600E-04
    0.4500000000E+05    0.3561799575E-02    0.6959148798E+00    0.1136338270E+00    0.2672015567E+00    0.8278751602E-04
    0.4700000000E+05    0.3478916947E-02    0.6959163850E+00    0.1134556154E+00    0.2719877749E+00    0.8298791727E-04
    0.4900000000E+05    0.3398336704E-02    0.6959177593E+00    0.1132270241E+00    0.2766030690E+00    0.8318041786E-04
    0.1000000000E+05    0.4483117166E-02    0.6957819003E+00    0.8427106350E-01    0.1239568750E+00    0.7614181845E-04
    0.3000000000E+05    0.4239841412E-02    0.6958967174E+00    0.1122691111E+00    0.2241247934E+00    0.8094186325E-04
    0.5000000000E+05    0.3358918318E-02    0.6959184024E+00    0.1130960036E+00    0.2788504499E+00    0.8327390066E-04
    0.7000000000E+05    0.2686628782E-02    0.6959271583E+00    0.1090532136E+00    0.3171647410E+00    0.8484628136E-04
    0.9000000000E+05    0.2195604415E-02    0.6959317216E+00    0.1039405678E+00    0.3467018610E+00    0.8603995360E-04
    0.1100000000E+06    0.1830089606E-02    0.6959344319E+00    0.9877220533E-01    0.3706644423E+00    0.8700508734E-04
    0.1300000000E+06    0.1551017249E-02    0.6959361729E+00    0.9386159186E-01    0.3907320432E+00    0.8781677085E-04
    0.1500000000E+06    0.1332903954E-02    0.6959373495E+00    0.8929926030E-01    0.4079093447E+00    0.8851807583E-04
    0.1700000000E+06    0.1158948972E-02    0.6959381721E+00    0.8509614566E-01    0.4228514952E+00    0.8913605378E-04
    0.1900000000E+06    0.1017787894E-02    0.6959387603E+00    0.8123395045E-01    0.4360124078E+00    0.8968883078E-04
    0.2100000000E+06    0.9015221790E-03    0.6959391864E+00    0.7768459903E-01    0.4477209520E+00    0.9018915811E-04
    0.2300000000E+06    0.8045218538E-03    0.6959394969E+00    0.7441811540E-01    0.4582237050E+00    0.9064635335E-04
    0.2500000000E+06    0.7226821203E-03    0.6959397227E+00    0.7140580401E-01    0.4677106122E+00    0.9106743597E-04
    0.2700000000E+06    0.6529495030E-03    0.6959398850E+00    0.6862142679E-01    0.4763312335E+00    0.9145782832E-04
    0.2900000000E+06    0.5930118235E-03    0.6959399990E+00    0.6604150624E-01    0.4842054796E+00    0.9182180771E-04
    0.3100000000E+06    0.5410903464E-03    0.6959400756E+00    0.6364525261E-01    0.4914309642E+00    0.9216280878E-04
    0.3300000000E+06    0.4957972764E-03    0.6959401228E+00    0.6141434091E-01    0.4980881882E+00    0.9248363203E-04
    0.3500000000E+06    0.4560360586E-03    0.6959401468E+00    0.5933264172E-01    0.5042442900E+00    0.9278659142E-04
    0.3700000000E+06    0.4209303323E-03    0.6959401523E+00    0.5738595235E-01    0.5099558156E+00    0.9307362139E-04
    0.3900000000E+06    0.3897724542E-03    0.6959401428E+00    0.5556174820E-01    0.5152708045E+00    0.9334635579E-04
    0.4100000000E+06    0.3619856327E-03    0.6959401213E+00    0.5384896133E-01    0.5202303856E+00    0.9360618740E-04
    0.4300000000E+06    0.3370956874E-03    0.6959400900E+00    0.5223778697E-01    0.5248700161E+00    0.9385431327E-04
    0.4500000000E+06    0.3147097211E-03    0.6959400506E+00    0.5071951642E-01    0.5292204551E+00    0.9409176989E-04
    0.4700000000E+06    0.2944998252E-03    0.6959400047E+00    0.4928639346E-01    0.5333085385E+00    0.9431946084E-04
    0.4900000000E+06    0.2761904973E-03    0.6959399534E+00    0.4793149120E-01    0.5371578009E+00    0.9453817861E-04
    0.1000000000E+06    0.1999985529E-02    0.6959332362E+00    0.1013356581E+00    0.3592532774E+00    0.8654535072E-04
    0.3000000000E+06    0.5661436235E-03    0.6959400414E+00    0.6482162106E-01    0.4878939343E+00    0.9199499261E-04
    0.5000000000E+06    0.2676743221E-03    0.6959399261E+00    0.4728140869E-01    0.5389994525E+00    0.9464439424E-04
    0.7000000000E+06    0.1559960310E-03    0.6959392587E+00    0.3717880305E-01    0.5672326696E+00    0.9643103590E-04
    0.9000000000E+06    0.1021145475E-03    0.6959385420E+00    0.3061815362E-01    0.5852371231E+00    0.9778745727E-04
    0.1100000000E+07    0.7201593088E-04    0.6959378637E+00    0.2601619932E-01    0.5977396388E+00    0.9888422216E-04
    0.1300000000E+07    0.5350151851E-04    0.6959372388E+00    0.2261053026E-01    0.6069335089E+00    0.9980663027E-04
    0.1500000000E+07    0.4130479007E-04    0.6959366655E+00    0.1998885375E-01    0.6139802987E+00    0.1006036156E-03
    0.1700000000E+07    0.3284633370E-04    0.6959361386E+00    0.1790874486E-01    0.6195539497E+00    0.1013059136E-03
    0.1900000000E+07    0.2674097100E-04    0.6959356522E+00    0.1621834419E-01    0.6240727554E+00    0.1019341198E-03
    0.2100000000E+07    0.2219053747E-04    0.6959352011E+00    0.1481768544E-01    0.6278102228E+00    0.1025027231E-03
    0.2300000000E+07    0.1870872362E-04    0.6959347808E+00    0.1363827881E-01    0.6309527820E+00    0.1030223111E-03
    0.2500000000E+07    0.1598548065E-04    0.6959343875E+00    0.1263162957E-01    0.6336319083E+00    0.1035008603E-03
    0.2700000000E+07    0.1381555532E-04    0.6959340180E+00    0.1176243987E-01    0.6359429901E+00    0.1039445323E-03
    0.2900000000E+07    0.1205868638E-04    0.6959336696E+00    0.1100440723E-01    0.6379569200E+00    0.1043581878E-03
    0.3100000000E+07    0.1061638656E-04    0.6959333401E+00    0.1033753175E-01    0.6397274849E+00    0.1047457299E-03
    0.3300000000E+07    0.9417856185E-05    0.6959330275E+00    0.9746335859E-02    0.6412962325E+00    0.1051103409E-03
    0.3500000000E+07    0.8411142647E-05    0.6959327301E+00    0.9218655050E-02    0.6426957656E+00    0.1054546505E-03
    0.3700000000E+07    0.7557426080E-05    0.6959324466E+00    0.8744796846E-02    0.6439520259E+00    0.1057808570E-03
    0.3900000000E+07    0.6827228694E-05    0.6959321756E+00    0.8316943533E-02    0.6450859127E+00    0.1060908172E-03
    0.4100000000E+07    0.6197841758E-05    0.6959319162E+00    0.7928720020E-02    0.6461144511E+00    0.1063861139E-03
    0.4300000000E+07    0.5651542892E-05    0.6959316672E+00    0.7574875929E-02    0.6470516497E+00    0.1066681073E-03
    0.4500000000E+07    0.5174337943E-05    0.6959314280E+00    0.7251048173E-02    0.6479091401E+00    0.1069379754E-03
    0.4700000000E+07    0.4755058172E-05    0.6959311977E+00    0.6953581229E-02    0.6486966607E+00    0.1071967451E-03
    0.4900000000E+07    0.4384702549E-05    0.6959309758E+00    0.6679389376E-02    0.6494224266E+00    0.1074453171E-03
    0.1000000000E+07    0.8510319666E-04    0.6959381965E+00    0.2813149782E-01    0.5920047290E+00    0.9836177973E-04
    0.3000000000E+07    0.1130316649E-04    0.6959335026E+00    0.1066063182E-01    0.6388697841E+00    0.1045550095E-03
    0.5000000000E+07    0.4215528972E-05    0.6959308677E+00    0.6550186342E-02    0.6497643741E+00    0.1075660308E-03
    0.7000000000E+07    0.2182588221E-05    0.6959290275E+00    0.4719220188E-02    0.6546075995E+00    0.1095965479E-03
    0.9000000000E+07    0.1331255671E-05    0.6959276068E+00    0.3684657964E-02    0.6573426378E+00    0.1111381240E-03
    0.1100000000E+08    0.8961751522E-06    0.6959264464E+00    0.3020251031E-02    0.6590988834E+00    0.1123846013E-03
    0.1300000000E+08    0.6444485435E-06    0.6959254637E+00    0.2557736844E-02    0.6603215203E+00    0.1134329220E-03
    0.1500000000E+08    0.4858768898E-06    0.6959246104E+00    0.2217358898E-02    0.6612214115E+00    0.1143386994E-03
    0.1700000000E+08    0.3795927804E-06    0.6959238554E+00    0.1956455177E-02    0.6619113041E+00    0.1151368643E-03
    0.1900000000E+08    0.3049035112E-06    0.6959231779E+00    0.1750146523E-02    0.6624569349E+00    0.1158508233E-03
    0.2100000000E+08    0.2504227083E-06    0.6959225631E+00    0.1582949140E-02    0.6628992118E+00    0.1164970434E-03
    0.2300000000E+08    0.2094657316E-06    0.6959220000E+00    0.1444723997E-02    0.6632649207E+00    0.1170875573E-03
    0.2500000000E+08    0.1778990751E-06    0.6959214803E+00    0.1328554905E-02    0.6635723337E+00    0.1176314304E-03
    0.2700000000E+08    0.1530555312E-06    0.6959209977E+00    0.1229562858E-02    0.6638343410E+00    0.1181356653E-03
