  Pressure (Pa) 22mC5-500 (mol/kg) 24mC5-500 (mol/kg) 2mC6-500 (mol/kg) 3mC6-500 (mol/kg) C7-500 (mol/kg)
    0.1000000000E+01    0.2231626574E-05    0.1266263966E+00    0.8607014228E-05    0.3675164866E-05    0.4220282696E-02
    0.3000000000E+01    0.4607603996E-05    0.2784945073E+00    0.1692151307E-04    0.9506159987E-05    0.4291715608E-02
    0.5000000000E+01    0.5798995649E-05    0.3663774447E+00    0.2069955487E-04    0.1489536648E-04    0.4332772663E-02
    0.7000000000E+01    0.6488489621E-05    0.4236768080E+00    0.2281647192E-04    0.2007045905E-04    0.4359860860E-02
    0.9000000000E+01    0.6931834075E-05    0.4639914032E+00    0.2424914154E-04    0.2510883480E-04    0.4379169882E-02
    0.1100000000E+02    0.7242877271E-05    0.4938984863E+00    0.2538756753E-04    0.3004938074E-04    0.4393674375E-02
    0.1300000000E+02    0.7478367540E-05    0.5169675215E+00    0.2640352245E-04    0.3491530787E-04    0.4404992496E-02
    0.1500000000E+02    0.7668950121E-05    0.5353031296E+00    0.2737730578E-04    0.3972194401E-04    0.4414083027E-02
    0.1700000000E+02    0.7832185025E-05    0.5502266040E+00    0.2834755571E-04    0.4448011515E-04    0.4421551471E-02
    0.1900000000E+02    0.7978598301E-05    0.5626093268E+00    0.2933279472E-04    0.4919784529E-04    0.4427799710E-02
    0.2100000000E+02    0.8114722537E-05    0.5730492455E+00    0.3034144066E-04    0.5388130179E-04    0.4433105352E-02
    0.2300000000E+02    0.8244721689E-05    0.5819703245E+00    0.3137671836E-04    0.5853536162E-04    0.4437666561E-02
    0.2500000000E+02    0.8371303926E-05    0.5896815336E+00    0.3243917009E-04    0.6316397063E-04    0.4441628739E-02
    0.2700000000E+02    0.8496256101E-05    0.5964133613E+00    0.3352797776E-04    0.6777038192E-04    0.4445101100E-02
    0.2900000000E+02    0.8620767743E-05    0.6023412454E+00    0.3464167297E-04    0.7235732011E-04    0.4448167339E-02
    0.3100000000E+02    0.8745633290E-05    0.6076010825E+00    0.3577852172E-04    0.7692709796E-04    0.4450892733E-02
    0.3300000000E+02    0.8871381545E-05    0.6122997744E+00    0.3693673178E-04    0.8148170146E-04    0.4453328981E-02
    0.3500000000E+02    0.8998360343E-05    0.6165225689E+00    0.3811456196E-04    0.8602285322E-04    0.4455517590E-02
    0.3700000000E+02    0.9126792967E-05    0.6203382787E+00    0.3931037634E-04    0.9055206066E-04    0.4457492290E-02
    0.3900000000E+02    0.9256816343E-05    0.6238030597E+00    0.4052266771E-04    0.9507065330E-04    0.4459280791E-02
    0.4100000000E+02    0.9388507267E-05    0.6269631935E+00    0.4175006385E-04    0.9957981195E-04    0.4460906085E-02
    0.4300000000E+02    0.9521900607E-05    0.6298571658E+00    0.4299132458E-04    0.1040805920E-03    0.4462387415E-02
    0.4500000000E+02    0.9657002089E-05    0.6325172418E+00    0.4424533402E-04    0.1085739422E-03    0.4463741021E-02
    0.4700000000E+02    0.9793797324E-05    0.6349706745E+00    0.4551109074E-04    0.1130607195E-03    0.4464980711E-02
    0.4900000000E+02    0.9932258239E-05    0.6372406410E+00    0.4678769721E-04    0.1175417022E-03    0.4466118302E-02
    0.1000000000E+02    0.7099503450E-05    0.4799766163E+00    0.2484134358E-04    0.2758964255E-04    0.4386900781E-02
    0.3000000000E+02    0.8683118164E-05    0.6050474074E+00    0.3520731543E-04    0.7464422312E-04    0.4449569137E-02
    0.5000000000E+02    0.1000210197E-04    0.6383131369E+00    0.4742981446E-04    0.1197802447E-03    0.4466652047E-02
    0.7000000000E+02    0.1147558711E-04    0.6537158280E+00    0.6068672573E-04    0.1643909756E-03    0.4473828238E-02
    0.9000000000E+02    0.1306583843E-04    0.6625977741E+00    0.7449053368E-04    0.2089635511E-03    0.4477016968E-02
    0.1100000000E+03    0.1474222019E-04    0.6683761825E+00    0.8866489818E-04    0.2537521724E-03    0.4478121550E-02
    0.1300000000E+03    0.1648693624E-04    0.6724356362E+00    0.1031408039E-03    0.2989168926E-03    0.4477958810E-02
    0.1500000000E+03    0.1828971764E-04    0.6754437503E+00    0.1178914058E-03    0.3445710684E-03    0.4476943405E-02
    0.1700000000E+03    0.2014455819E-04    0.6777620551E+00    0.1329084880E-03    0.3908019483E-03    0.4475310436E-02
    0.1900000000E+03    0.2204795749E-04    0.6796033712E+00    0.1481928467E-03    0.4376810179E-03    0.4473204014E-02
    0.2100000000E+03    0.2399795832E-04    0.6811011407E+00    0.1637499711E-03    0.4852697554E-03    0.4470717696E-02
    0.2300000000E+03    0.2599359789E-04    0.6823432786E+00    0.1795879621E-03    0.5336230861E-03    0.4467914902E-02
    0.2500000000E+03    0.2803458219E-04    0.6833900624E+00    0.1957164761E-03    0.5827915848E-03    0.4464840068E-02
    0.2700000000E+03    0.3012108573E-04    0.6842842007E+00    0.2121461707E-03    0.6328229505E-03    0.4461525107E-02
    0.2900000000E+03    0.3225362455E-04    0.6850567996E+00    0.2288884085E-03    0.6837630370E-03    0.4457993359E-02
    0.3100000000E+03    0.3443297366E-04    0.6857310517E+00    0.2459551011E-03    0.7356566010E-03    0.4454262096E-02
    0.3300000000E+03    0.3666011229E-04    0.6863246022E+00    0.2633586300E-03    0.7885478642E-03    0.4450344178E-02
    0.3500000000E+03    0.3893618711E-04    0.6868511138E+00    0.2811118131E-03    0.8424809503E-03    0.4446249169E-02
    0.3700000000E+03    0.4126248728E-04    0.6873213303E+00    0.2992278971E-03    0.8975002345E-03    0.4441984117E-02
    0.3900000000E+03    0.4364042768E-04    0.6877438164E+00    0.3177205661E-03    0.9536506338E-03    0.4437554109E-02
    0.4100000000E+03    0.4607153764E-04    0.6881254835E+00    0.3366039606E-03    0.1010977853E-02    0.4432962670E-02
    0.4300000000E+03    0.4855745374E-04    0.6884719704E+00    0.3558927032E-03    0.1069528600E-02    0.4428212058E-02
    0.4500000000E+03    0.5109991556E-04    0.6887879231E+00    0.3756019282E-03    0.1129350782E-02    0.4423303484E-02
    0.4700000000E+03    0.5370076348E-04    0.6890772040E+00    0.3957473155E-03    0.1190493682E-02    0.4418237279E-02
    0.4900000000E+03    0.5636193829E-04    0.6893430509E+00    0.4163451262E-03    0.1253008131E-02    0.4413013017E-02
    0.1000000000E+03    0.1389460456E-04    0.6657635396E+00    0.8153714197E-04    0.2313194020E-03    0.4477765010E-02
    0.3000000000E+03    0.3333739090E-04    0.6854050075E+00    0.2373804345E-03    0.7095878635E-03    0.4456151775E-02
    0.5000000000E+03    0.5771578241E-04    0.6894680579E+00    0.4268189404E-03    0.1284796034E-02    0.4410341301E-02
    0.7000000000E+03    0.8852558586E-04    0.6912218707E+00    0.6646247474E-03    0.2006714791E-02    0.4348037635E-02
    0.9000000000E+03    0.1285580447E-03    0.6921987713E+00    0.9730265474E-03    0.2943814810E-02    0.4265497628E-02
    0.1100000000E+04    0.1823652506E-03    0.6928210294E+00    0.1387459918E-02    0.4204640149E-02    0.4154465381E-02
    0.1300000000E+04    0.2576537657E-03    0.6932518847E+00    0.1967705673E-02    0.5972377127E-02    0.4000488337E-02
    0.1500000000E+04    0.3680451617E-03    0.6935677441E+00    0.2819489927E-02    0.8571527963E-02    0.3778338028E-02
    0.1700000000E+04    0.5381664887E-03    0.6938091362E+00    0.4134420032E-02    0.1259175219E-01    0.3443974956E-02
    0.1900000000E+04    0.8097210670E-03    0.6939995554E+00    0.6238612044E-02    0.1904168194E-01    0.2928089857E-02
    0.2100000000E+04    0.1227430944E-02    0.6941535585E+00    0.9487978528E-02    0.2904059136E-01    0.2175091658E-02
    0.2300000000E+04    0.1742744580E-02    0.6942806450E+00    0.1352458620E-01    0.4154633707E-01    0.1327820958E-02
    0.2500000000E+04    0.2165205433E-02    0.6943872772E+00    0.1688042359E-01    0.5208266639E-01    0.7528630105E-03
    0.2700000000E+04    0.2425072794E-02    0.6944780038E+00    0.1899994348E-01    0.5890188316E-01    0.5194824872E-03
    0.2900000000E+04    0.2595730078E-02    0.6945561192E+00    0.2043977946E-01    0.6367494556E-01    0.4490354599E-03
    0.3100000000E+04    0.2732088815E-02    0.6946240677E+00    0.2162247192E-01    0.6768868391E-01    0.4305897519E-03
    0.3300000000E+04    0.2854494419E-02    0.6946837013E+00    0.2270523747E-01    0.7142405822E-01    0.4266512417E-03
    0.3500000000E+04    0.2969263655E-02    0.6947364482E+00    0.2373674850E-01    0.7502972439E-01    0.4265885114E-03
    0.3700000000E+04    0.3078368551E-02    0.6947834280E+00    0.2473189088E-01    0.7855037417E-01    0.4275213205E-03
    0.3900000000E+04    0.3182520869E-02    0.6948255303E+00    0.2569572204E-01    0.8200035622E-01    0.4286778580E-03
    0.4100000000E+04    0.3282067433E-02    0.6948634711E+00    0.2663046094E-01    0.8538526434E-01    0.4298534681E-03
    0.4300000000E+04    0.3377244487E-02    0.6948978329E+00    0.2753748264E-01    0.8870812503E-01    0.4309961367E-03
    0.4500000000E+04    0.3468250013E-02    0.6949290948E+00    0.2841788693E-01    0.9197116706E-01    0.4320948866E-03
    0.4700000000E+04    0.3555264615E-02    0.6949576540E+00    0.2927266213E-01    0.9517633108E-01    0.4331495830E-03
    0.4900000000E+04    0.3638457843E-02    0.6949838429E+00    0.3010273386E-01    0.9832541922E-01    0.4341627397E-03
    0.1000000000E+04    0.1533555725E-03    0.6925409797E+00    0.1164007743E-02    0.3524630125E-02    0.4214262730E-02
    0.3000000000E+04    0.2666405299E-02    0.6945912370E+00    0.2104942771E-01    0.6573440195E-01    0.4366760243E-03
    0.5000000000E+04    0.3678671964E-02    0.6949961377E+00    0.3050878211E-01    0.9987947225E-01    0.4346546672E-03
    0.7000000000E+04    0.4317413423E-02    0.6951670297E+00    0.3752617140E-01    0.1283951881E+00    0.4429172655E-03
    0.9000000000E+04    0.4715371556E-02    0.6952604467E+00    0.4286123228E-01    0.1528611015E+00    0.4491776155E-03
    0.1100000000E+05    0.4950703941E-02    0.6953189041E+00    0.4696752230E-01    0.1742028212E+00    0.4542337000E-03
    0.1300000000E+05    0.5074366814E-02    0.6953586790E+00    0.5015444256E-01    0.1930730061E+00    0.4584828175E-03
    0.1500000000E+05    0.5120477753E-02    0.6953873314E+00    0.5263958854E-01    0.2099462159E+00    0.4621522523E-03
    0.1700000000E+05    0.5112385385E-02    0.6954088438E+00    0.5457998357E-01    0.2251766407E+00    0.4653844914E-03
    0.1900000000E+05    0.5066359375E-02    0.6954255104E+00    0.5609146302E-01    0.2390346372E+00    0.4682748824E-03
    0.2100000000E+05    0.4993905953E-02    0.6954387440E+00    0.5726111789E-01    0.2517306387E+00    0.4708904329E-03
    0.2300000000E+05    0.4903261140E-02    0.6954494614E+00    0.5815552023E-01    0.2634312630E+00    0.4732800678E-03
    0.2500000000E+05    0.4800376776E-02    0.6954582827E+00    0.5882630117E-01    0.2742704433E+00    0.4754806215E-03
    0.2700000000E+05    0.4689585235E-02    0.6954656418E+00    0.5931402000E-01    0.2843572949E+00    0.4775205331E-03
    0.2900000000E+05    0.4574055775E-02    0.6954718514E+00    0.5965090227E-01    0.2937817879E+00    0.4794222260E-03
    0.3100000000E+05    0.4456112925E-02    0.6954771421E+00    0.5986281253E-01    0.3026189102E+00    0.4812036997E-03
    0.3300000000E+05    0.4337461803E-02    0.6954816878E+00    0.5997069869E-01    0.3109317746E+00    0.4828796256E-03
    0.3500000000E+05    0.4219349618E-02    0.6954856217E+00    0.5999166514E-01    0.3187739698E+00    0.4844621230E-03
    0.3700000000E+05    0.4102682749E-02    0.6954890477E+00    0.5993978055E-01    0.3261913648E+00    0.4859613208E-03
    0.3900000000E+05    0.3988112476E-02    0.6954920480E+00    0.5982669333E-01    0.3332235098E+00    0.4873857724E-03
    0.4100000000E+05    0.3876098330E-02    0.6954946882E+00    0.5966210578E-01    0.3399047370E+00    0.4887427678E-03
    0.4300000000E+05    0.3766955272E-02    0.6954970217E+00    0.5945414304E-01    0.3462650331E+00    0.4900385712E-03
    0.4500000000E+05    0.3660889097E-02    0.6954990918E+00    0.5920964286E-01    0.3523307392E+00    0.4912786061E-03
    0.4700000000E+05    0.3558023137E-02    0.6955009344E+00    0.5893438521E-01    0.3581251156E+00    0.4924675997E-03
    0.4900000000E+05    0.3458418546E-02    0.6955025794E+00    0.5863327553E-01    0.3636688024E+00    0.4936096976E-03
    0.1000000000E+05    0.4849692583E-02    0.6952927212E+00    0.4504600547E-01    0.1638766436E+00    0.4518258079E-03
    0.3000000000E+05    0.4515267085E-02    0.6954745997E+00    0.5977106851E-01    0.2982695782E+00    0.4803270057E-03
    0.5000000000E+05    0.3409845252E-02    0.6955033357E+00    0.5847435690E-01    0.3663524652E+00    0.4941643201E-03
    0.7000000000E+05    0.2599306416E-02    0.6955124514E+00    0.5467912755E-01    0.4104363765E+00    0.5034924705E-03
    0.9000000000E+05    0.2033573018E-02    0.6955157261E+00    0.5065230009E-01    0.4421585019E+00    0.5105733109E-03
    0.1100000000E+06    0.1630653689E-02    0.6955166604E+00    0.4691316435E-01    0.4663936026E+00    0.5162981602E-03
    0.1300000000E+06    0.1335430483E-02    0.6955165043E+00    0.4356657253E-01    0.4856495467E+00    0.5211126185E-03
    0.1500000000E+06    0.1113244976E-02    0.6955157961E+00    0.4060251425E-01    0.5013847221E+00    0.5252722600E-03
    0.1700000000E+06    0.9420463231E-03    0.6955147973E+00    0.3798018618E-01    0.5145193290E+00    0.5289375880E-03
    0.1900000000E+06    0.8074228690E-03    0.6955136453E+00    0.3565414430E-01    0.5256689286E+00    0.5322161427E-03
    0.2100000000E+06    0.6996822811E-03    0.6955124169E+00    0.3358244454E-01    0.5352638474E+00    0.5351835732E-03
    0.2300000000E+06    0.6121286441E-03    0.6955111563E+00    0.3172872769E-01    0.5436154908E+00    0.5378951556E-03
    0.2500000000E+06    0.5400223369E-03    0.6955098900E+00    0.3006223705E-01    0.5509555797E+00    0.5403925313E-03
    0.2700000000E+06    0.4799348195E-03    0.6955086337E+00    0.2855718709E-01    0.5574605633E+00    0.5427078664E-03
    0.2900000000E+06    0.4293374537E-03    0.6955073969E+00    0.2719199837E-01    0.5632674387E+00    0.5448665341E-03
    0.3100000000E+06    0.3863327498E-03    0.6955061854E+00    0.2594857923E-01    0.5684843556E+00    0.5468889084E-03
    0.3300000000E+06    0.3494745714E-03    0.6955050022E+00    0.2481170756E-01    0.5731979310E+00    0.5487916014E-03
    0.3500000000E+06    0.3176452758E-03    0.6955038488E+00    0.2376851801E-01    0.5774784183E+00    0.5505883390E-03
    0.3700000000E+06    0.2899701241E-03    0.6955027258E+00    0.2280808379E-01    0.5813834407E+00    0.5522905955E-03
    0.3900000000E+06    0.2657566010E-03    0.6955016331E+00    0.2192107794E-01    0.5849607351E+00    0.5539080625E-03
    0.4100000000E+06    0.2444506998E-03    0.6955005702E+00    0.2109949926E-01    0.5882502052E+00    0.5554490012E-03
    0.4300000000E+06    0.2256049648E-03    0.6954995363E+00    0.2033645046E-01    0.5912854781E+00    0.5569205120E-03
    0.4500000000E+06    0.2088548158E-03    0.6954985305E+00    0.1962595791E-01    0.5940951013E+00    0.5583287428E-03
    0.4700000000E+06    0.1939007874E-03    0.6954975517E+00    0.1896282456E-01    0.5967034738E+00    0.5596790531E-03
    0.4900000000E+06    0.1804950563E-03    0.6954965989E+00    0.1834250964E-01    0.5991315780E+00    0.5609761434E-03
    0.1000000000E+06    0.1815797488E-02    0.6955163822E+00    0.4873577911E-01    0.4550213417E+00    0.5135711874E-03
    0.3000000000E+06    0.4069853212E-03    0.6955067878E+00    0.2655607973E-01    0.5659437927E+00    0.5458936432E-03
    0.5000000000E+06    0.1743068856E-03    0.6954961319E+00    0.1804714477E-01    0.6002837979E+00    0.5616060460E-03
    0.7000000000E+06    0.9619361117E-04    0.6954879140E+00    0.1363907665E-01    0.6172011763E+00    0.5722014068E-03
    0.9000000000E+06    0.6083296368E-04    0.6954813076E+00    0.1095084709E-01    0.6272883636E+00    0.5802452284E-03
    0.1100000000E+07    0.4189539476E-04    0.6954757927E+00    0.9142350188E-02    0.6339890924E+00    0.5867491243E-03
    0.1300000000E+07    0.3059060879E-04    0.6954710592E+00    0.7843308551E-02    0.6387637027E+00    0.5922189942E-03
    0.1500000000E+07    0.2330866412E-04    0.6954669112E+00    0.6865441543E-02    0.6423381318E+00    0.5969450524E-03
    0.1700000000E+07    0.1834588694E-04    0.6954632178E+00    0.6102972569E-02    0.6451141853E+00    0.6011095801E-03
    0.1900000000E+07    0.1481326227E-04    0.6954598878E+00    0.5491931651E-02    0.6473323183E+00    0.6048347204E-03
    0.2100000000E+07    0.1221011795E-04    0.6954568546E+00    0.4991372186E-02    0.6491452466E+00    0.6082064002E-03
    0.2300000000E+07    0.1023705503E-04    0.6954540688E+00    0.4573874762E-02    0.6506546217E+00    0.6112874092E-03
    0.2500000000E+07    0.8706140848E-05    0.6954514922E+00    0.4220390770E-02    0.6519307270E+00    0.6141250510E-03
    0.2700000000E+07    0.7494592203E-05    0.6954490948E+00    0.3917276549E-02    0.6530237099E+00    0.6167558668E-03
    0.2900000000E+07    0.6519446717E-05    0.6954468529E+00    0.3654504533E-02    0.6539703103E+00    0.6192086817E-03
    0.3100000000E+07    0.5723018164E-05    0.6954447470E+00    0.3424540442E-02    0.6547980598E+00    0.6215066419E-03
    0.3300000000E+07    0.5064191294E-05    0.6954427612E+00    0.3221614203E-02    0.6555279961E+00    0.6236686204E-03
    0.3500000000E+07    0.4513023032E-05    0.6954408822E+00    0.3041232449E-02    0.6561764707E+00    0.6257102113E-03
    0.3700000000E+07    0.4047289212E-05    0.6954390988E+00    0.2879844150E-02    0.6567563846E+00    0.6276444512E-03
    0.3900000000E+07    0.3650215084E-05    0.6954374016E+00    0.2734606039E-02    0.6572780524E+00    0.6294823510E-03
    0.4100000000E+07    0.3308947623E-05    0.6954357823E+00    0.2603214768E-02    0.6577498197E+00    0.6312332967E-03
    0.4300000000E+07    0.3013505000E-05    0.6954342340E+00    0.2483784638E-02    0.6581785112E+00    0.6329053556E-03
    0.4500000000E+07    0.2756040199E-05    0.6954327504E+00    0.2374757106E-02    0.6585697621E+00    0.6345055128E-03
    0.4700000000E+07    0.2530315871E-05    0.6954313264E+00    0.2274832827E-02    0.6589282660E+00    0.6360398578E-03
    0.4900000000E+07    0.2331323895E-05    0.6954299572E+00    0.2182919964E-02    0.6592579643E+00    0.6375137314E-03
    0.1000000000E+07    0.5004989263E-04    0.6954784366E+00    0.9965927031E-02    0.6309456518E+00    0.5836510152E-03
    0.3000000000E+07    0.6101775668E-05    0.6954457840E+00    0.3535816847E-02    0.6543975989E+00    0.6203757522E-03
    0.5000000000E+07    0.2240553264E-05    0.6954292918E+00    0.2139673365E-02    0.6594130734E+00    0.6382294853E-03
    0.7000000000E+07    0.1156526233E-05    0.6954180594E+00    0.1531198880E-02    0.6615944237E+00    0.6502689674E-03
    0.9000000000E+07    0.7067184256E-06    0.6954094906E+00    0.1190981050E-02    0.6628137155E+00    0.6594091777E-03
    0.1100000000E+08    0.4778824953E-06    0.6954025419E+00    0.9738449249E-03    0.6635920569E+00    0.6667995761E-03
    0.1300000000E+08    0.3457758404E-06    0.6953966861E+00    0.8233121906E-03    0.6641318597E+00    0.6730150078E-03
    0.1500000000E+08    0.2626258433E-06    0.6953916191E+00    0.7128558406E-03    0.6645281287E+00    0.6783852415E-03
    0.1700000000E+08    0.2068891303E-06    0.6953871490E+00    0.6283759160E-03    0.6648313481E+00    0.6831174033E-03
    0.1900000000E+08    0.1676925097E-06    0.6953831467E+00    0.5616878980E-03    0.6650708205E+00    0.6873502849E-03
    0.2100000000E+08    0.1390663503E-06    0.6953795213E+00    0.5077162200E-03    0.6652647187E+00    0.6911815257E-03
    0.2300000000E+08    0.1175115749E-06    0.6953762062E+00    0.4631467154E-03    0.6654249103E+00    0.6946824743E-03
    0.2500000000E+08    0.1008668601E-06    0.6953731512E+00    0.4257238723E-03    0.6655594735E+00    0.6979068822E-03
    0.2700000000E+08    0.8773858360E-07    0.6953703174E+00    0.3938595799E-03    0.6656740973E+00    0.7008962715E-03
