  Pressure (Pa) 22mC5-500 (mol/kg) 24mC5-500 (mol/kg) 2mC6-500 (mol/kg) 3mC6-500 (mol/kg) C7-500 (mol/kg)
    0.1000000000E+01    0.4226413290E-05    0.1513934292E+00    0.8083922380E-05    0.7086089682E-06    0.4234816303E-02
    0.3000000000E+01    0.8220909306E-05    0.3164462454E+00    0.1489879276E-04    0.1839847209E-05    0.4314823944E-02
    0.5000000000E+01    0.1002037365E-04    0.4046869744E+00    0.1767795266E-04    0.2885774690E-05    0.4358067762E-02
    0.7000000000E+01    0.1100351189E-04    0.4596145156E+00    0.1922527420E-04    0.3889595786E-05    0.4385615587E-02
    0.9000000000E+01    0.1162285238E-04    0.4970983776E+00    0.2034769659E-04    0.4866067279E-05    0.4404867508E-02
    0.1100000000E+02    0.1206211190E-04    0.5243095055E+00    0.2132657132E-04    0.5822626604E-05    0.4419172855E-02
    0.1300000000E+02    0.1240644297E-04    0.5449619609E+00    0.2227043519E-04    0.6763724062E-05    0.4430277933E-02
    0.1500000000E+02    0.1269903193E-04    0.5611719539E+00    0.2322277395E-04    0.7692304639E-05    0.4439185868E-02
    0.1700000000E+02    0.1296322568E-04    0.5742336807E+00    0.2420040329E-04    0.8610452131E-05    0.4446515493E-02
    0.1900000000E+02    0.1321223878E-04    0.5849831238E+00    0.2520865395E-04    0.9519713429E-05    0.4452670134E-02
    0.2100000000E+02    0.1345379685E-04    0.5939843520E+00    0.2624783824E-04    0.1042127911E-04    0.4457924406E-02
    0.2300000000E+02    0.1369251222E-04    0.6016317618E+00    0.2731614435E-04    0.1131609179E-04    0.4462472077E-02
    0.2500000000E+02    0.1393116663E-04    0.6082094125E+00    0.2841096980E-04    0.1220491484E-04    0.4466453982E-02
    0.2700000000E+02    0.1417143451E-04    0.6139270893E+00    0.2952953934E-04    0.1308837819E-04    0.4469975080E-02
    0.2900000000E+02    0.1441430579E-04    0.6189430897E+00    0.3066918416E-04    0.1396700977E-04    0.4473115292E-02
    0.3100000000E+02    0.1466034057E-04    0.6233791064E+00    0.3182745733E-04    0.1484125795E-04    0.4475936614E-02
    0.3300000000E+02    0.1490982622E-04    0.6273302296E+00    0.3300217011E-04    0.1571150789E-04    0.4478487925E-02
    0.3500000000E+02    0.1516287637E-04    0.6308718395E+00    0.3419139076E-04    0.1657809375E-04    0.4480808320E-02
    0.3700000000E+02    0.1541949428E-04    0.6340644619E+00    0.3539342653E-04    0.1744130798E-04    0.4482929467E-02
    0.3900000000E+02    0.1567961398E-04    0.6369572548E+00    0.3660679941E-04    0.1830140848E-04    0.4484877316E-02
    0.4100000000E+02    0.1594312716E-04    0.6395905580E+00    0.3783022065E-04    0.1915862425E-04    0.4486673349E-02
    0.4300000000E+02    0.1620990094E-04    0.6419977856E+00    0.3906256655E-04    0.2001315992E-04    0.4488335512E-02
    0.4500000000E+02    0.1647978955E-04    0.6442068507E+00    0.4030285648E-04    0.2086519930E-04    0.4489878929E-02
    0.4700000000E+02    0.1675264210E-04    0.6462412530E+00    0.4155023350E-04    0.2171490836E-04    0.4491316442E-02
    0.4900000000E+02    0.1702830756E-04    0.6481209179E+00    0.4280394744E-04    0.2256243766E-04    0.4492659030E-02
    0.1000000000E+02    0.1185828260E-04    0.5117046816E+00    0.2084603935E-04    0.5346511402E-05    0.4412505576E-02
    0.3000000000E+02    0.1453690477E-04    0.6212271222E+00    0.3124613515E-04    0.1440465639E-04    0.4474562497E-02
    0.5000000000E+02    0.1716714874E-04    0.6490081372E+00    0.4343297190E-04    0.2298542823E-04    0.4493297734E-02
    0.7000000000E+02    0.2005918136E-04    0.6616886814E+00    0.5622349455E-04    0.3135857685E-04    0.4502815487E-02
    0.9000000000E+02    0.2310620734E-04    0.6689491161E+00    0.6923561819E-04    0.3961755562E-04    0.4508614918E-02
    0.1100000000E+03    0.2624998992E-04    0.6736523783E+00    0.8234939407E-04    0.4780985878E-04    0.4512468820E-02
    0.1300000000E+03    0.2945996901E-04    0.6769469993E+00    0.9552292628E-04    0.5596413724E-04    0.4515145242E-02
    0.1500000000E+03    0.3271920095E-04    0.6793832886E+00    0.1087419629E-03    0.6409953236E-04    0.4517038979E-02
    0.1700000000E+03    0.3601780563E-04    0.6812579427E+00    0.1220032045E-03    0.7222974732E-04    0.4518377158E-02
    0.1900000000E+03    0.3934980444E-04    0.6827450484E+00    0.1353079578E-03    0.8036510082E-04    0.4519301346E-02
    0.2100000000E+03    0.4271149442E-04    0.6839534865E+00    0.1486594817E-03    0.8851367203E-04    0.4519905226E-02
    0.2300000000E+03    0.4610056144E-04    0.6849548469E+00    0.1620618049E-03    0.9668198748E-04    0.4520253747E-02
    0.2500000000E+03    0.4951557125E-04    0.6857981336E+00    0.1755191819E-03    0.1048754573E-03    0.4520393638E-02
    0.2700000000E+03    0.5295566474E-04    0.6865180205E+00    0.1890358396E-03    0.1130986650E-03    0.4520359548E-02
    0.2900000000E+03    0.5642036867E-04    0.6871397325E+00    0.2026158651E-03    0.1213555669E-03    0.4520177829E-02
    0.3100000000E+03    0.5990947453E-04    0.6876820586E+00    0.2162631612E-03    0.1296496345E-03    0.4519868944E-02
    0.3300000000E+03    0.6342295893E-04    0.6881592816E+00    0.2299814368E-03    0.1379839574E-03    0.4519449075E-02
    0.3500000000E+03    0.6696093011E-04    0.6885824522E+00    0.2437742123E-03    0.1463613209E-03    0.4518931219E-02
    0.3700000000E+03    0.7052359131E-04    0.6889602545E+00    0.2576448340E-03    0.1547842643E-03    0.4518325954E-02
    0.3900000000E+03    0.7411121531E-04    0.6892996073E+00    0.2715964903E-03    0.1632551266E-03    0.4517641993E-02
    0.4100000000E+03    0.7772412638E-04    0.6896060906E+00    0.2856322290E-03    0.1717760819E-03    0.4516886585E-02
    0.4300000000E+03    0.8136268748E-04    0.6898842551E+00    0.2997549738E-03    0.1803491679E-03    0.4516065817E-02
    0.4500000000E+03    0.8502729095E-04    0.6901378483E+00    0.3139675394E-03    0.1889763086E-03    0.4515184843E-02
    0.4700000000E+03    0.8871835184E-04    0.6903699848E+00    0.3282726456E-03    0.1976593330E-03    0.4514248057E-02
    0.4900000000E+03    0.9243630292E-04    0.6905832742E+00    0.3426729299E-03    0.2063999906E-03    0.4513259226E-02
    0.1000000000E+03    0.2466834697E-04    0.6715278226E+00    0.7578339031E-04    0.4371995778E-04    0.4510724352E-02
    0.3000000000E+03    0.5816187644E-04    0.6874198379E+00    0.2094308680E-03    0.1254977539E-03    0.4520038185E-02
    0.5000000000E+03    0.9430550149E-04    0.6906835534E+00    0.3499095683E-03    0.2107924599E-03    0.4512746329E-02
    0.7000000000E+03    0.1332161743E-03    0.6920894266E+00    0.5002393380E-03    0.3020538156E-03    0.4500350024E-02
    0.9000000000E+03    0.1753822806E-03    0.6928715929E+00    0.6628049958E-03    0.4007998562E-03    0.4484709171E-02
    0.1100000000E+04    0.2213586843E-03    0.6933693794E+00    0.8399225768E-03    0.5084592122E-03    0.4466329685E-02
    0.1300000000E+04    0.2717770061E-03    0.6937138032E+00    0.1034111595E-02    0.6265767770E-03    0.4445290268E-02
    0.1500000000E+04    0.3273731925E-03    0.6939661398E+00    0.1248260429E-02    0.7569221312E-03    0.4421466071E-02
    0.1700000000E+04    0.3890203216E-03    0.6941588725E+00    0.1485773626E-02    0.9015817584E-03    0.4394597638E-02
    0.1900000000E+04    0.4577684493E-03    0.6943108230E+00    0.1750734975E-02    0.1063059853E-02    0.4364309667E-02
    0.2100000000E+04    0.5348949016E-03    0.6944336486E+00    0.2048107041E-02    0.1244401329E-02    0.4330107525E-02
    0.2300000000E+04    0.6219693524E-03    0.6945349541E+00    0.2383986594E-02    0.1449349300E-02    0.4291360004E-02
    0.2500000000E+04    0.7209393542E-03    0.6946199112E+00    0.2765939150E-02    0.1682551446E-02    0.4247270281E-02
    0.2700000000E+04    0.8342438854E-03    0.6946921593E+00    0.3203442707E-02    0.1949834008E-02    0.4196834136E-02
    0.2900000000E+04    0.9649650150E-03    0.6947543336E+00    0.3708480660E-02    0.2258568287E-02    0.4138782807E-02
    0.3100000000E+04    0.1117030855E-02    0.6948083889E+00    0.4296336014E-02    0.2618162213E-02    0.4071506546E-02
    0.3300000000E+04    0.1295485980E-02    0.6948558058E+00    0.4986651263E-02    0.3040717433E-02    0.3992954284E-02
    0.3500000000E+04    0.1506846499E-02    0.6948977261E+00    0.5804823197E-02    0.3541895997E-02    0.3900505541E-02
    0.3700000000E+04    0.1759550702E-02    0.6949350445E+00    0.6783779243E-02    0.4142027767E-02    0.3790815427E-02
    0.3900000000E+04    0.2064489611E-02    0.6949684718E+00    0.7966081305E-02    0.4867429483E-02    0.3659647996E-02
    0.4100000000E+04    0.2435525068E-02    0.6949985802E+00    0.9406009084E-02    0.5751728031E-02    0.3501749928E-02
    0.4300000000E+04    0.2889715340E-02    0.6950258348E+00    0.1117055010E-01    0.6836537547E-02    0.3310899498E-02
    0.4500000000E+04    0.3446569702E-02    0.6950506183E+00    0.1333667560E-01    0.8169888403E-02    0.3080430025E-02
    0.4700000000E+04    0.4124971779E-02    0.6950732478E+00    0.1597961392E-01    0.9799154652E-02    0.2804782105E-02
    0.4900000000E+04    0.4935754699E-02    0.6950939887E+00    0.1914420910E-01    0.1175357016E-01    0.2482812849E-02
    0.1000000000E+04    0.1978568155E-03    0.6931453958E+00    0.7493942407E-03    0.4534229806E-03    0.4475850668E-02
    0.3000000000E+04    0.1038044435E-02    0.6947822743E+00    0.3990945229E-02    0.2431323604E-02    0.4106414282E-02
    0.5000000000E+04    0.5388880873E-02    0.6951037222E+00    0.2091581916E-01    0.1284949775E-01    0.2306573506E-02
    0.7000000000E+04    0.1185016036E-01    0.6952386892E+00    0.4689172642E-01    0.2935203384E-01    0.4834906646E-03
    0.9000000000E+04    0.1398029925E-01    0.6953120743E+00    0.5649290041E-01    0.3608357844E-01    0.4678874537E-03
    0.1100000000E+05    0.1568149808E-01    0.6953577403E+00    0.6465908756E-01    0.4210343350E-01    0.4730507120E-03
    0.1300000000E+05    0.1708757802E-01    0.6953886302E+00    0.7184042558E-01    0.4764991153E-01    0.4774718783E-03
    0.1500000000E+05    0.1825485111E-01    0.6954107455E+00    0.7820251302E-01    0.5279442331E-01    0.4812908019E-03
    0.1700000000E+05    0.1922673085E-01    0.6954272427E+00    0.8387491838E-01    0.5759345061E-01    0.4846550058E-03
    0.1900000000E+05    0.2003731399E-01    0.6954399371E+00    0.8896116566E-01    0.6209276467E-01    0.4876635985E-03
    0.2100000000E+05    0.2071369530E-01    0.6954499448E+00    0.9354497312E-01    0.6632989873E-01    0.4903862494E-03
    0.2300000000E+05    0.2127763214E-01    0.6954579887E+00    0.9769477756E-01    0.7033595781E-01    0.4928738358E-03
    0.2500000000E+05    0.2174676172E-01    0.6954645570E+00    0.1014670732E+00    0.7413696738E-01    0.4951646678E-03
    0.2700000000E+05    0.2213550426E-01    0.6954699907E+00    0.1049089119E+00    0.7775489313E-01    0.4972883270E-03
    0.2900000000E+05    0.2245574200E-01    0.6954745351E+00    0.1080598008E+00    0.8120842207E-01    0.4992681405E-03
    0.3100000000E+05    0.2271733579E-01    0.6954783708E+00    0.1109531592E+00    0.8451356811E-01    0.5011228341E-03
    0.3300000000E+05    0.2292852242E-01    0.6954816337E+00    0.1136174514E+00    0.8768414668E-01    0.5028676727E-03
    0.3500000000E+05    0.2309622350E-01    0.6954844277E+00    0.1160770744E+00    0.9073215045E-01    0.5045152667E-03
    0.3700000000E+05    0.2322628753E-01    0.6954868339E+00    0.1183530621E+00    0.9366804958E-01    0.5060761559E-03
    0.3900000000E+05    0.2332368157E-01    0.6954889160E+00    0.1204636470E+00    0.9650103374E-01    0.5075592411E-03
    0.4100000000E+05    0.2339264397E-01    0.6954907249E+00    0.1224247139E+00    0.9923920864E-01    0.5089721086E-03
    0.4300000000E+05    0.2343680708E-01    0.6954923020E+00    0.1242501672E+00    0.1018897570E+00    0.5103212778E-03
    0.4500000000E+05    0.2345929657E-01    0.6954936807E+00    0.1259522316E+00    0.1044590712E+00    0.5116123931E-03
    0.4700000000E+05    0.2346281226E-01    0.6954948887E+00    0.1275416995E+00    0.1069528631E+00    0.5128503744E-03
    0.4900000000E+05    0.2344969429E-01    0.6954959491E+00    0.1290281359E+00    0.1093762563E+00    0.5140395363E-03
    0.1000000000E+05    0.1487199304E-01    0.6953373188E+00    0.6071142662E-01    0.3915800981E-01    0.4705518835E-03
    0.3000000000E+05    0.2259332052E-01    0.6954765322E+00    0.1095367876E+00    0.8287863278E-01    0.5002101028E-03
    0.5000000000E+05    0.2343754426E-01    0.6954964299E+00    0.1297354131E+00    0.1105630126E+00    0.5146170169E-03
    0.7000000000E+05    0.2269588296E-01    0.6955016310E+00    0.1401112462E+00    0.1315121420E+00    0.5243298578E-03
    0.9000000000E+05    0.2153477797E-01    0.6955026600E+00    0.1459433739E+00    0.1487093071E+00    0.5317029498E-03
    0.1100000000E+06    0.2030024489E-01    0.6955021198E+00    0.1493090460E+00    0.1634783339E+00    0.5376641922E-03
    0.1300000000E+06    0.1910783626E-01    0.6955009110E+00    0.1511964664E+00    0.1765245401E+00    0.5426775087E-03
    0.1500000000E+06    0.1799537448E-01    0.6954994074E+00    0.1521371232E+00    0.1882707989E+00    0.5470089954E-03
    0.1700000000E+06    0.1697174822E-01    0.6954977822E+00    0.1524424965E+00    0.1989924189E+00    0.5508257687E-03
    0.1900000000E+06    0.1603470212E-01    0.6954961214E+00    0.1523070570E+00    0.2088798325E+00    0.5542398023E-03
    0.2100000000E+06    0.1517788666E-01    0.6954944693E+00    0.1518582424E+00    0.2180710021E+00    0.5573298651E-03
    0.2300000000E+06    0.1439378302E-01    0.6954928491E+00    0.1511828008E+00    0.2266695823E+00    0.5601535138E-03
    0.2500000000E+06    0.1367492517E-01    0.6954912725E+00    0.1503416116E+00    0.2347557679E+00    0.5627541083E-03
    0.2700000000E+06    0.1301438511E-01    0.6954897449E+00    0.1493784749E+00    0.2423931150E+00    0.5651651424E-03
    0.2900000000E+06    0.1240593161E-01    0.6954882682E+00    0.1483255546E+00    0.2496330149E+00    0.5674130368E-03
    0.3100000000E+06    0.1184404475E-01    0.6954868424E+00    0.1472068750E+00    0.2565177340E+00    0.5695190066E-03
    0.3300000000E+06    0.1132386980E-01    0.6954854661E+00    0.1460406360E+00    0.2630825433E+00    0.5715003501E-03
    0.3500000000E+06    0.1084114925E-01    0.6954841377E+00    0.1448407892E+00    0.2693572489E+00    0.5733713599E-03
    0.3700000000E+06    0.1039215073E-01    0.6954828549E+00    0.1436181341E+00    0.2753673164E+00    0.5751439844E-03
    0.3900000000E+06    0.9973598652E-02    0.6954816154E+00    0.1423810978E+00    0.2811347141E+00    0.5768283155E-03
    0.4100000000E+06    0.9582612815E-02    0.6954804170E+00    0.1411362976E+00    0.2866785562E+00    0.5784329555E-03
    0.4300000000E+06    0.9216654441E-02    0.6954792575E+00    0.1398889555E+00    0.2920156009E+00    0.5799652983E-03
    0.4500000000E+06    0.8873479648E-02    0.6954781347E+00    0.1386432063E+00    0.2971606415E+00    0.5814317457E-03
    0.4700000000E+06    0.8551099533E-02    0.6954770466E+00    0.1374023303E+00    0.3021268178E+00    0.5828378787E-03
    0.4900000000E+06    0.8247746090E-02    0.6954759914E+00    0.1361689309E+00    0.3069258660E+00    0.5841885921E-03
    0.1000000000E+06    0.2091668392E-01    0.6955025108E+00    0.1478576861E+00    0.1563442191E+00    0.5348246057E-03
    0.3000000000E+06    0.1211948561E-01    0.6954875490E+00    0.1477731820E+00    0.2531174239E+00    0.5684826015E-03
    0.5000000000E+06    0.8102705023E-02    0.6954754755E+00    0.1355556978E+00    0.3092660516E+00    0.5848445356E-03
    0.7000000000E+06    0.5896398211E-02    0.6954665071E+00    0.1239967080E+00    0.3493739746E+00    0.5958779337E-03
    0.9000000000E+06    0.4522811438E-02    0.6954594042E+00    0.1139738864E+00    0.3803175577E+00    0.6042543154E-03
    0.1100000000E+07    0.3597267567E-02    0.6954535226E+00    0.1053642184E+00    0.4052371944E+00    0.6110271085E-03
    0.1300000000E+07    0.2938631164E-02    0.6954484999E+00    0.9793348459E-01    0.4258810123E+00    0.6167231254E-03
    0.1500000000E+07    0.2450710921E-02    0.6954441138E+00    0.9146997838E-01    0.4433362691E+00    0.6216445785E-03
    0.1700000000E+07    0.2077881366E-02    0.6954402184E+00    0.8580186758E-01    0.4583294167E+00    0.6259812848E-03
    0.1900000000E+07    0.1785862615E-02    0.6954367130E+00    0.8079294205E-01    0.4713709346E+00    0.6298604371E-03
    0.2100000000E+07    0.1552458688E-02    0.6954335251E+00    0.7633532622E-01    0.4828332919E+00    0.6333715151E-03
    0.2300000000E+07    0.1362717003E-02    0.6954306008E+00    0.7234302093E-01    0.4929963420E+00    0.6365799044E-03
    0.2500000000E+07    0.1206231460E-02    0.6954278988E+00    0.6874684431E-01    0.5020753711E+00    0.6395348644E-03
    0.2700000000E+07    0.1075559996E-02    0.6954253872E+00    0.6549060566E-01    0.5102392508E+00    0.6422744472E-03
    0.2900000000E+07    0.9652554717E-03    0.6954230401E+00    0.6252823371E-01    0.5176226373E+00    0.6448286694E-03
    0.3100000000E+07    0.8712503652E-03    0.6954208368E+00    0.5982161503E-01    0.5243344235E+00    0.6472216345E-03
    0.3300000000E+07    0.7904538959E-03    0.6954187604E+00    0.5733895497E-01    0.5304637504E+00    0.6494729957E-03
    0.3500000000E+07    0.7204811043E-03    0.6954167966E+00    0.5505352358E-01    0.5360843766E+00    0.6515989919E-03
    0.3700000000E+07    0.6594663713E-03    0.6954149337E+00    0.5294268694E-01    0.5412579171E+00    0.6536131986E-03
    0.3900000000E+07    0.6059323898E-03    0.6954131614E+00    0.5098715166E-01    0.5460362824E+00    0.6555270820E-03
    0.4100000000E+07    0.5586963980E-03    0.6954114711E+00    0.4917037027E-01    0.5504635439E+00    0.6573504162E-03
    0.4300000000E+07    0.5168019668E-03    0.6954098555E+00    0.4747806913E-01    0.5545773793E+00    0.6590916021E-03
    0.4500000000E+07    0.4794686378E-03    0.6954083080E+00    0.4589787041E-01    0.5584102052E+00    0.6607579136E-03
    0.4700000000E+07    0.4460542379E-03    0.6954068229E+00    0.4441898708E-01    0.5619900741E+00    0.6623556918E-03
    0.4900000000E+07    0.4160263326E-03    0.6954053953E+00    0.4303197495E-01    0.5653413925E+00    0.6638904984E-03
    0.1000000000E+07    0.4018165201E-02    0.6954563378E+00    0.1095070318E+00    0.3934003239E+00    0.6078009109E-03
    0.3000000000E+07    0.9164278795E-03    0.6954219216E+00    0.6114507418E-01    0.5210565040E+00    0.6460439903E-03
    0.5000000000E+07    0.4021404474E-03    0.6954047017E+00    0.4237028576E-01    0.5669381202E+00    0.6646358431E-03
    0.7000000000E+07    0.2252121537E-03    0.6953930044E+00    0.3239126934E-01    0.5908690823E+00    0.6771730567E-03
    0.9000000000E+07    0.1437842807E-03    0.6953840931E+00    0.2620096487E-01    0.6055872098E+00    0.6866911317E-03
    0.1100000000E+08    0.9967418578E-04    0.6953768732E+00    0.2198730157E-01    0.6155568063E+00    0.6943870521E-03
    0.1300000000E+08    0.7312380285E-04    0.6953707929E+00    0.1893480262E-01    0.6227564881E+00    0.7008594295E-03
    0.1500000000E+08    0.5591434121E-04    0.6953655344E+00    0.1662221076E-01    0.6281992307E+00    0.7064516668E-03
    0.1700000000E+08    0.4412862214E-04    0.6953608973E+00    0.1480996660E-01    0.6324576938E+00    0.7113794530E-03
    0.1900000000E+08    0.3570662601E-04    0.6953567471E+00    0.1335179569E-01    0.6358800819E+00    0.7157873181E-03
    0.2100000000E+08    0.2948089773E-04    0.6953529890E+00    0.1215334072E-01    0.6386903135E+00    0.7197769382E-03
    0.2300000000E+08    0.2474969226E-04    0.6953495536E+00    0.1115101205E-01    0.6410389311E+00    0.7234226115E-03
    0.2500000000E+08    0.2107061736E-04    0.6953463885E+00    0.1030039669E-01    0.6430308782E+00    0.7267803118E-03
    0.2700000000E+08    0.1815358091E-04    0.6953434533E+00    0.9569539117E-02    0.6447415463E+00    0.7298932777E-03
