  Pressure (Pa) 22mC5-500 (mol/kg) 24mC5-500 (mol/kg) 2mC6-500 (mol/kg) 3mC6-500 (mol/kg) C7-500 (mol/kg)
    0.1000000000E+01    0.4718693160E-05    0.9949294088E-01    0.2444553741E-04    0.7518809942E-06    0.4213779990E-02
    0.3000000000E+01    0.1043690894E-04    0.2320765547E+00    0.5181711842E-04    0.1938665404E-05    0.4285204484E-02
    0.5000000000E+01    0.1368398456E-04    0.3164067633E+00    0.6605573969E-04    0.3033699171E-05    0.4329895761E-02
    0.7000000000E+01    0.1571477244E-04    0.3747720917E+00    0.7445477309E-04    0.4084160150E-05    0.4361064363E-02
    0.9000000000E+01    0.1707881933E-04    0.4175652874E+00    0.7999687770E-04    0.5106063515E-05    0.4384146759E-02
    0.1100000000E+02    0.1804981672E-04    0.4502853789E+00    0.8406228815E-04    0.6107450708E-05    0.4401976203E-02
    0.1300000000E+02    0.1877674018E-04    0.4761147866E+00    0.8734435542E-04    0.7093119643E-05    0.4416189584E-02
    0.1500000000E+02    0.1934619312E-04    0.4970230248E+00    0.9021207919E-04    0.8066237802E-05    0.4427802076E-02
    0.1700000000E+02    0.1981113493E-04    0.5142942870E+00    0.9286998979E-04    0.9029041859E-05    0.4437478010E-02
    0.1900000000E+02    0.2020527395E-04    0.5288016828E+00    0.9543457084E-04    0.9983189242E-05    0.4445671016E-02
    0.2100000000E+02    0.2055076886E-04    0.5411595446E+00    0.9797315158E-04    0.1092995361E-04    0.4452701784E-02
    0.2300000000E+02    0.2086257478E-04    0.5518126894E+00    0.1005247147E-03    0.1187034195E-04    0.4458803654E-02
    0.2500000000E+02    0.2115100620E-04    0.5610911159E+00    0.1031114894E-03    0.1280516879E-04    0.4464150616E-02
    0.2700000000E+02    0.2142330531E-04    0.5692448071E+00    0.1057456276E-03    0.1373510551E-04    0.4468875142E-02
    0.2900000000E+02    0.2168463233E-04    0.5764665971E+00    0.1084331544E-03    0.1466071426E-04    0.4473079952E-02
    0.3100000000E+02    0.2193870815E-04    0.5829076196E+00    0.1111763578E-03    0.1558247209E-04    0.4476845968E-02
    0.3300000000E+02    0.2218824124E-04    0.5886880021E+00    0.1139752587E-03    0.1650078850E-04    0.4480237845E-02
    0.3500000000E+02    0.2243521715E-04    0.5939044301E+00    0.1168285286E-03    0.1741601856E-04    0.4483307893E-02
    0.3700000000E+02    0.2268109851E-04    0.5986355991E+00    0.1197340657E-03    0.1832847285E-04    0.4486098909E-02
    0.3900000000E+02    0.2292696538E-04    0.6029462131E+00    0.1226893602E-03    0.1923842521E-04    0.4488646261E-02
    0.4100000000E+02    0.2317361520E-04    0.6068899617E+00    0.1256917234E-03    0.2014611869E-04    0.4490979451E-02
    0.4300000000E+02    0.2342163485E-04    0.6105117684E+00    0.1287384322E-03    0.2105177044E-04    0.4493123289E-02
    0.4500000000E+02    0.2367145327E-04    0.6138495093E+00    0.1318268171E-03    0.2195557554E-04    0.4495098801E-02
    0.4700000000E+02    0.2392338021E-04    0.6169353433E+00    0.1349543153E-03    0.2285771013E-04    0.4496923929E-02
    0.4900000000E+02    0.2417763506E-04    0.6197967513E+00    0.1381184990E-03    0.2375833401E-04    0.4498614084E-02
    0.1000000000E+02    0.1760218425E-04    0.4349482531E+00    0.8216043841E-04    0.5608971444E-05    0.4393596643E-02
    0.3000000000E+02    0.2181238755E-04    0.5797765706E+00    0.1097977549E-03    0.1512204754E-04    0.4475013439E-02
    0.5000000000E+02    0.2430568475E-04    0.6211508098E+00    0.1397136301E-03    0.2420812544E-04    0.4499412779E-02
    0.7000000000E+02    0.2700409164E-04    0.6407489399E+00    0.1730715298E-03    0.3315416385E-04    0.4510746577E-02
    0.9000000000E+02    0.2994286795E-04    0.6521809774E+00    0.2083608552E-03    0.4205973194E-04    0.4516791793E-02
    0.1100000000E+03    0.3307279370E-04    0.6596706956E+00    0.2448913672E-03    0.5097612716E-04    0.4520090611E-02
    0.1300000000E+03    0.3635487967E-04    0.6649573276E+00    0.2823426272E-03    0.5993506728E-04    0.4521740369E-02
    0.1500000000E+03    0.3976312885E-04    0.6688882083E+00    0.3205583160E-03    0.6895850496E-04    0.4522299385E-02
    0.1700000000E+03    0.4328052969E-04    0.6719255277E+00    0.3594609570E-03    0.7806288702E-04    0.4522084644E-02
    0.1900000000E+03    0.4689590076E-04    0.6743428295E+00    0.3990138827E-03    0.8726129387E-04    0.4521290787E-02
    0.2100000000E+03    0.5060187066E-04    0.6763123465E+00    0.4392029168E-03    0.9656462844E-04    0.4520044557E-02
    0.2300000000E+03    0.5439361740E-04    0.6779479275E+00    0.4800269540E-03    0.1059823281E-03    0.4518432308E-02
    0.2500000000E+03    0.5826807240E-04    0.6793278436E+00    0.5214928510E-03    0.1155228166E-03    0.4516515014E-02
    0.2700000000E+03    0.6222340675E-04    0.6805076786E+00    0.5636125318E-03    0.1251938045E-03    0.4514336981E-02
    0.2900000000E+03    0.6625869188E-04    0.6815279933E+00    0.6064012920E-03    0.1350024974E-03    0.4511931144E-02
    0.3100000000E+03    0.7037367041E-04    0.6824190797E+00    0.6498767772E-03    0.1449557446E-03    0.4509322443E-02
    0.3300000000E+03    0.7456859842E-04    0.6832040174E+00    0.6940583578E-03    0.1550601492E-03    0.4506530037E-02
    0.3500000000E+03    0.7884413472E-04    0.6839006990E+00    0.7389667410E-03    0.1653221511E-03    0.4503568809E-02
    0.3700000000E+03    0.8320126221E-04    0.6845232104E+00    0.7846237310E-03    0.1757480917E-03    0.4500450410E-02
    0.3900000000E+03    0.8764123123E-04    0.6850827915E+00    0.8310520833E-03    0.1863442653E-03    0.4497184002E-02
    0.4100000000E+03    0.9216551834E-04    0.6855885206E+00    0.8782754191E-03    0.1971169614E-03    0.4493776799E-02
    0.4300000000E+03    0.9677579628E-04    0.6860478101E+00    0.9263181809E-03    0.2080724993E-03    0.4490234463E-02
    0.4500000000E+03    0.1014739119E-03    0.6864667718E+00    0.9752056148E-03    0.2192172576E-03    0.4486561405E-02
    0.4700000000E+03    0.1062618703E-03    0.6868504904E+00    0.1024963772E-02    0.2305577007E-03    0.4482761009E-02
    0.4900000000E+03    0.1111418229E-03    0.6872032304E+00    0.1075619525E-02    0.2421004011E-03    0.4478835811E-02
    0.1000000000E+03    0.3148672241E-04    0.6562791604E+00    0.2264963768E-03    0.4651429122E-04    0.4518697564E-02
    0.3000000000E+03    0.6830621401E-04    0.6819881062E+00    0.6280520183E-03    0.1399606343E-03    0.4510650839E-02
    0.5000000000E+03    0.1136170074E-03    0.6873691316E+00    0.1101292626E-02    0.2479496865E-03    0.4476827004E-02
    0.7000000000E+03    0.1685892097E-03    0.6896991279E+00    0.1669235633E-02    0.3773018091E-03    0.4430247404E-02
    0.9000000000E+03    0.2363093976E-03    0.6909990791E+00    0.2366165380E-02    0.5360696424E-03    0.4370497278E-02
    0.1100000000E+04    0.3214745773E-03    0.6918279947E+00    0.3241393587E-02    0.7356138253E-03    0.4294325127E-02
    0.1300000000E+04    0.4312113515E-03    0.6924023986E+00    0.4368847347E-02    0.9929228527E-03    0.4196060748E-02
    0.1500000000E+04    0.5766225102E-03    0.6928237650E+00    0.5863406946E-02    0.1334406577E-02    0.4066667988E-02
    0.1700000000E+04    0.7754886683E-03    0.6931459674E+00    0.7909106558E-02    0.1802428278E-02    0.3891807086E-02
    0.1900000000E+04    0.1056738713E-02    0.6934002571E+00    0.1080588540E-01    0.2466173432E-02    0.3648748511E-02
    0.2100000000E+04    0.1466343616E-02    0.6936060078E+00    0.1503194244E-01    0.3436312225E-02    0.3303054010E-02
    0.2300000000E+04    0.2067270633E-02    0.6937758679E+00    0.2124692672E-01    0.4866557267E-02    0.2812326600E-02
    0.2500000000E+04    0.2901240321E-02    0.6939184452E+00    0.2990331071E-01    0.6865775029E-02    0.2163644736E-02
    0.2700000000E+04    0.3872526773E-02    0.6940398006E+00    0.4004493752E-01    0.9221558603E-02    0.1465596171E-02
    0.2900000000E+04    0.4723190046E-02    0.6941443251E+00    0.4902133496E-01    0.1132785679E-01    0.9357369322E-03
    0.3100000000E+04    0.5311153662E-02    0.6942352773E+00    0.5534108646E-01    0.1283657385E-01    0.6573221088E-03
    0.3300000000E+04    0.5703866091E-02    0.6943151267E+00    0.5967358784E-01    0.1389551341E-01    0.5433866906E-03
    0.3500000000E+04    0.5998926651E-02    0.6943857786E+00    0.6301562256E-01    0.1473129632E-01    0.5023611500E-03
    0.3700000000E+04    0.6249800062E-02    0.6944487263E+00    0.6591669313E-01    0.1546965114E-01    0.4887585971E-03
    0.3900000000E+04    0.6478865406E-02    0.6945051570E+00    0.6860730089E-01    0.1616344393E-01    0.4848750268E-03
    0.4100000000E+04    0.6694808716E-02    0.6945560263E+00    0.7117664492E-01    0.1683308718E-01    0.4843613133E-03
    0.4300000000E+04    0.6901044992E-02    0.6946021117E+00    0.7365932284E-01    0.1748640419E-01    0.4849938789E-03
    0.4500000000E+04    0.7099036214E-02    0.6946440526E+00    0.7606965660E-01    0.1812653173E-01    0.4859973835E-03
    0.4700000000E+04    0.7289521167E-02    0.6946823797E+00    0.7841446753E-01    0.1875487315E-01    0.4871016847E-03
    0.4900000000E+04    0.7472964047E-02    0.6947175366E+00    0.8069775275E-01    0.1937218317E-01    0.4882133949E-03
    0.1000000000E+04    0.2763367688E-03    0.6914548467E+00    0.2777597392E-02    0.6298495055E-03    0.4334755065E-02
    0.3000000000E+04    0.5048577735E-02    0.6941913279E+00    0.5250058239E-01    0.1215445367E-01    0.7687634432E-03
    0.5000000000E+04    0.7562157477E-02    0.6947340455E+00    0.8181724722E-01    0.1967686391E-01    0.4887611752E-03
    0.7000000000E+04    0.9045254612E-02    0.6949638416E+00    0.1015248769E+00    0.2528271385E-01    0.4980669806E-03
    0.9000000000E+04    0.1009014207E-01    0.6950898503E+00    0.1171891314E+00    0.3013347469E-01    0.5051210580E-03
    0.1100000000E+05    0.1083478220E-01    0.6951689512E+00    0.1299266498E+00    0.3441491379E-01    0.5108156794E-03
    0.1300000000E+05    0.1136746062E-01    0.6952229462E+00    0.1404770129E+00    0.3825359751E-01    0.5156000524E-03
    0.1500000000E+05    0.1174686537E-01    0.6952619718E+00    0.1493496393E+00    0.4173913933E-01    0.5197308931E-03
    0.1700000000E+05    0.1201324651E-01    0.6952913735E+00    0.1569069091E+00    0.4493702312E-01    0.5233690257E-03
    0.1900000000E+05    0.1219493895E-01    0.6953142336E+00    0.1634136869E+00    0.4789638638E-01    0.5266220130E-03
    0.2100000000E+05    0.1231233555E-01    0.6953324523E+00    0.1690680894E+00    0.5065494354E-01    0.5295654172E-03
    0.2300000000E+05    0.1238039352E-01    0.6953472636E+00    0.1740212905E+00    0.5324221102E-01    0.5322543924E-03
    0.2500000000E+05    0.1241026393E-01    0.6953595033E+00    0.1783906668E+00    0.5568168455E-01    0.5347304526E-03
    0.2700000000E+05    0.1241037895E-01    0.6953697568E+00    0.1822687564E+00    0.5799234814E-01    0.5370256430E-03
    0.2900000000E+05    0.1238719435E-01    0.6953784461E+00    0.1857295099E+00    0.6018974412E-01    0.5391652263E-03
    0.3100000000E+05    0.1234570665E-01    0.6953858832E+00    0.1888327420E+00    0.6228674757E-01    0.5411694779E-03
    0.3300000000E+05    0.1228982011E-01    0.6953923030E+00    0.1916273613E+00    0.6429413702E-01    0.5430549224E-03
    0.3500000000E+05    0.1222261119E-01    0.6953978862E+00    0.1941537519E+00    0.6622102197E-01    0.5448352083E-03
    0.3700000000E+05    0.1214652201E-01    0.6954027737E+00    0.1964455566E+00    0.6807516783E-01    0.5465217417E-03
    0.3900000000E+05    0.1206350372E-01    0.6954070770E+00    0.1985310296E+00    0.6986324620E-01    0.5481241535E-03
    0.4100000000E+05    0.1197512400E-01    0.6954108853E+00    0.2004340757E+00    0.7159103003E-01    0.5496506514E-03
    0.4300000000E+05    0.1188264852E-01    0.6954142710E+00    0.2021750578E+00    0.7326354749E-01    0.5511082880E-03
    0.4500000000E+05    0.1178710341E-01    0.6954172933E+00    0.2037714305E+00    0.7488520447E-01    0.5525031688E-03
    0.4700000000E+05    0.1168932341E-01    0.6954200010E+00    0.2052382421E+00    0.7645988310E-01    0.5538406151E-03
    0.4900000000E+05    0.1158998945E-01    0.6954224350E+00    0.2065885361E+00    0.7799102165E-01    0.5551252933E-03
    0.1000000000E+05    0.1049360489E-01    0.6951334912E+00    0.1238708108E+00    0.3233638371E-01    0.5081039359E-03
    0.3000000000E+05    0.1236847228E-01    0.6953823050E+00    0.1873225350E+00    0.6125007771E-01    0.5401831595E-03
    0.5000000000E+05    0.1153991786E-01    0.6954235602E+00    0.2072235978E+00    0.7874123279E-01    0.5557491495E-03
    0.7000000000E+05    0.1054781245E-01    0.6954376666E+00    0.2159204431E+00    0.9205225026E-01    0.5662412444E-03
    0.9000000000E+05    0.9661095297E-02    0.6954435022E+00    0.2201265570E+00    0.1031148175E+00    0.5742051225E-03
    0.1100000000E+06    0.8901259924E-02    0.6954459294E+00    0.2221186561E+00    0.1127372883E+00    0.5806436768E-03
    0.1300000000E+06    0.8251670165E-02    0.6954467110E+00    0.2228795589E+00    0.1213407289E+00    0.5860582177E-03
    0.1500000000E+06    0.7692334070E-02    0.6954466194E+00    0.2229006601E+00    0.1291752881E+00    0.5907362478E-03
    0.1700000000E+06    0.7206205936E-02    0.6954460373E+00    0.2224533184E+00    0.1364032337E+00    0.5948583112E-03
    0.1900000000E+06    0.6779762209E-02    0.6954451707E+00    0.2216985197E+00    0.1431366630E+00    0.5985453712E-03
    0.2100000000E+06    0.6402441647E-02    0.6954441377E+00    0.2207370671E+00    0.1494567604E+00    0.6018825160E-03
    0.2300000000E+06    0.6065980595E-02    0.6954430089E+00    0.2196347788E+00    0.1554245221E+00    0.6049319177E-03
    0.2500000000E+06    0.5763859804E-02    0.6954418284E+00    0.2184360801E+00    0.1610871419E+00    0.6077404117E-03
    0.2700000000E+06    0.5490882683E-02    0.6954406238E+00    0.2171717664E+00    0.1664820216E+00    0.6103441756E-03
    0.2900000000E+06    0.5242861978E-02    0.6954394131E+00    0.2158636511E+00    0.1716394002E+00    0.6127717465E-03
    0.3100000000E+06    0.5016388025E-02    0.6954382080E+00    0.2145274577E+00    0.1765841422E+00    0.6150460388E-03
    0.3300000000E+06    0.4808656551E-02    0.6954370161E+00    0.2131746807E+00    0.1813369897E+00    0.6171857354E-03
    0.3500000000E+06    0.4617339645E-02    0.6954358424E+00    0.2118138171E+00    0.1859154637E+00    0.6192062735E-03
    0.3700000000E+06    0.4440488126E-02    0.6954346899E+00    0.2104512009E+00    0.1903345268E+00    0.6211205578E-03
    0.3900000000E+06    0.4276456887E-02    0.6954335605E+00    0.2090915821E+00    0.1946070800E+00    0.6229394877E-03
    0.4100000000E+06    0.4123847220E-02    0.6954324551E+00    0.2077385346E+00    0.1987443424E+00    0.6246723542E-03
    0.4300000000E+06    0.3981461813E-02    0.6954313743E+00    0.2063947490E+00    0.2027561449E+00    0.6263271426E-03
    0.4500000000E+06    0.3848269301E-02    0.6954303180E+00    0.2050622462E+00    0.2066511612E+00    0.6279107670E-03
    0.4700000000E+06    0.3723376083E-02    0.6954292860E+00    0.2037425348E+00    0.2104370917E+00    0.6294292548E-03
    0.4900000000E+06    0.3606003733E-02    0.6954282778E+00    0.2024367285E+00    0.2141208110E+00    0.6308878923E-03
    0.1000000000E+06    0.9266118883E-02    0.6954449964E+00    0.2213212354E+00    0.1080742349E+00    0.5775767603E-03
    0.3000000000E+06    0.5127119423E-02    0.6954388093E+00    0.2151982634E+00    0.1741369698E+00    0.6139267988E-03
    0.5000000000E+06    0.3549921554E-02    0.6954277824E+00    0.2017893021E+00    0.2159262940E+00    0.6315962460E-03
    0.7000000000E+06    0.2695146346E-02    0.6954189645E+00    0.1896664978E+00    0.2478861741E+00    0.6435111467E-03
    0.9000000000E+06    0.2153642025E-02    0.6954117780E+00    0.1790546241E+00    0.2740420754E+00    0.6525566790E-03
    0.1100000000E+07    0.1778840682E-02    0.6954057357E+00    0.1697197467E+00    0.2962373864E+00    0.6598704838E-03
    0.1300000000E+07    0.1504074210E-02    0.6954005265E+00    0.1614322864E+00    0.3155090158E+00    0.6660214789E-03
    0.1500000000E+07    0.1294307841E-02    0.6953959480E+00    0.1540094314E+00    0.3325127213E+00    0.6713360274E-03
    0.1700000000E+07    0.1129244466E-02    0.6953918625E+00    0.1473093494E+00    0.3476960401E+00    0.6760191139E-03
    0.1900000000E+07    0.9962650438E-03    0.6953881730E+00    0.1412212490E+00    0.3613811952E+00    0.6802080942E-03
    0.2100000000E+07    0.8870922232E-03    0.6953848082E+00    0.1356573497E+00    0.3738095592E+00    0.6839995970E-03
    0.2300000000E+07    0.7960629122E-03    0.6953817147E+00    0.1305470449E+00    0.3851675348E+00    0.6874642319E-03
    0.2500000000E+07    0.7191684908E-03    0.6953788512E+00    0.1258327327E+00    0.3956025916E+00    0.6906551935E-03
    0.2700000000E+07    0.6534906389E-03    0.6953761851E+00    0.1214668177E+00    0.4052337058E+00    0.6936135738E-03
    0.2900000000E+07    0.5968540751E-03    0.6953736905E+00    0.1174095232E+00    0.4141584351E+00    0.6963717876E-03
    0.3100000000E+07    0.5476044413E-03    0.6953713461E+00    0.1136272712E+00    0.4224578732E+00    0.6989558637E-03
    0.3300000000E+07    0.5044615338E-03    0.6953691345E+00    0.1100914613E+00    0.4302002183E+00    0.7013870252E-03
    0.3500000000E+07    0.4664195764E-03    0.6953670411E+00    0.1067775376E+00    0.4374434035E+00    0.7036828084E-03
    0.3700000000E+07    0.4326777946E-03    0.6953650537E+00    0.1036642656E+00    0.4442370763E+00    0.7058578731E-03
    0.3900000000E+07    0.4025910465E-03    0.6953631617E+00    0.1007331638E+00    0.4506241146E+00    0.7079246013E-03
    0.4100000000E+07    0.3756340515E-03    0.6953613561E+00    0.9796805319E-01    0.4566418055E+00    0.7098935481E-03
    0.4300000000E+07    0.3513750334E-03    0.6953596294E+00    0.9535469462E-01    0.4623227751E+00    0.7117737852E-03
    0.4500000000E+07    0.3294560081E-03    0.6953579746E+00    0.9288049558E-01    0.4676957303E+00    0.7135731678E-03
    0.4700000000E+07    0.3095778396E-03    0.6953563859E+00    0.9053427006E-01    0.4727860569E+00    0.7152985433E-03
    0.4900000000E+07    0.2914887715E-03    0.6953548580E+00    0.8830604066E-01    0.4776163078E+00    0.7169559176E-03
    0.1000000000E+07    0.1950629656E-02    0.6954086365E+00    0.1742429698E+00    0.2855580003E+00    0.6563865807E-03
    0.3000000000E+07    0.5713933253E-03    0.6953725007E+00    0.1154859090E+00    0.4183817855E+00    0.6976841687E-03
    0.5000000000E+07    0.2830471998E-03    0.6953541155E+00    0.8723334604E-01    0.4799402781E+00    0.7177607844E-03
    0.7000000000E+07    0.1702925706E-03    0.6953415747E+00    0.7023000738E-01    0.5166723530E+00    0.7312991792E-03
    0.9000000000E+07    0.1140038515E-03    0.6953320025E+00    0.5880408954E-01    0.5412616931E+00    0.7415773106E-03
    0.1100000000E+08    0.8174361601E-04    0.6953242382E+00    0.5058049516E-01    0.5589216419E+00    0.7498877651E-03
    0.1300000000E+08    0.6150423377E-04    0.6953176947E+00    0.4437297555E-01    0.5722340725E+00    0.7568769636E-03
    0.1500000000E+08    0.4796197634E-04    0.6953120326E+00    0.3951922263E-01    0.5826336006E+00    0.7629157345E-03
    0.1700000000E+08    0.3845159011E-04    0.6953070376E+00    0.3561926353E-01    0.5909839476E+00    0.7682369929E-03
    0.1900000000E+08    0.3151550527E-04    0.6953025657E+00    0.3241690124E-01    0.5978371866E+00    0.7729968109E-03
    0.2100000000E+08    0.2630091526E-04    0.6952985152E+00    0.2974029511E-01    0.6035630410E+00    0.7773049846E-03
    0.2300000000E+08    0.2228143494E-04    0.6952948118E+00    0.2746982250E-01    0.6084185834E+00    0.7812417457E-03
    0.2500000000E+08    0.1911770798E-04    0.6952913993E+00    0.2551961816E-01    0.6125881714E+00    0.7848675379E-03
    0.2700000000E+08    0.1658290066E-04    0.6952882342E+00    0.2382643892E-01    0.6162074921E+00    0.7882290530E-03
