  Pressure (Pa) 22mC5-500 (mol/kg) 24mC5-500 (mol/kg) 2mC6-500 (mol/kg) 3mC6-500 (mol/kg) C7-500 (mol/kg)
    0.1000000000E+01    0.3408258936E-05    0.2487050950E+00    0.6449416865E-05    0.7998862661E-06    0.4186331147E-02
    0.3000000000E+01    0.5454284620E-05    0.4351203107E+00    0.9872571550E-05    0.2044024158E-05    0.4210748268E-02
    0.5000000000E+01    0.6174066549E-05    0.5118524486E+00    0.1131400078E-04    0.3186565578E-05    0.4220108478E-02
    0.7000000000E+01    0.6595508974E-05    0.5537000462E+00    0.1252503002E-04    0.4279463415E-05    0.4225233192E-02
    0.9000000000E+01    0.6928877455E-05    0.5800463455E+00    0.1374972527E-04    0.5340284130E-05    0.4228490788E-02
    0.1100000000E+02    0.7235407894E-05    0.5981584714E+00    0.1502370127E-04    0.6377833135E-05    0.4230747140E-02
    0.1300000000E+02    0.7536196053E-05    0.6113749433E+00    0.1634419192E-04    0.7397359332E-05    0.4232399222E-02
    0.1500000000E+02    0.7839021558E-05    0.6214443618E+00    0.1770209018E-04    0.8402326077E-05    0.4233656158E-02
    0.1700000000E+02    0.8146666675E-05    0.6293711817E+00    0.1908875303E-04    0.9395178168E-05    0.4234639188E-02
    0.1900000000E+02    0.8459903562E-05    0.6357735020E+00    0.2049722427E-04    0.1037772688E-04    0.4235423736E-02
    0.2100000000E+02    0.8778677452E-05    0.6410525309E+00    0.2192216108E-04    0.1135136391E-04    0.4236059344E-02
    0.2300000000E+02    0.9102606451E-05    0.6454800474E+00    0.2335951248E-04    0.1231718943E-04    0.4236579988E-02
    0.2500000000E+02    0.9431200463E-05    0.6492466983E+00    0.2480620865E-04    0.1327609325E-04    0.4237009805E-02
    0.2700000000E+02    0.9763957720E-05    0.6524901703E+00    0.2625991327E-04    0.1422880873E-04    0.4237366448E-02
    0.2900000000E+02    0.1010040582E-04    0.6553123859E+00    0.2771883750E-04    0.1517594982E-04    0.4237663153E-02
    0.3100000000E+02    0.1044011706E-04    0.6577904074E+00    0.2918160298E-04    0.1611803743E-04    0.4237910054E-02
    0.3300000000E+02    0.1078271184E-04    0.6599835808E+00    0.3064714128E-04    0.1705551861E-04    0.4238115053E-02
    0.3500000000E+02    0.1112785675E-04    0.6619383507E+00    0.3211461988E-04    0.1798878092E-04    0.4238284415E-02
    0.3700000000E+02    0.1147526048E-04    0.6636915848E+00    0.3358338729E-04    0.1891816321E-04    0.4238423170E-02
    0.3900000000E+02    0.1182466904E-04    0.6652729219E+00    0.3505293208E-04    0.1984396413E-04    0.4238535413E-02
    0.4100000000E+02    0.1217586108E-04    0.6667064605E+00    0.3652285199E-04    0.2076644868E-04    0.4238624514E-02
    0.4300000000E+02    0.1252864356E-04    0.6680119956E+00    0.3799283043E-04    0.2168585345E-04    0.4238693274E-02
    0.4500000000E+02    0.1288284789E-04    0.6692059386E+00    0.3946261856E-04    0.2260239089E-04    0.4238744042E-02
    0.4700000000E+02    0.1323832658E-04    0.6703020103E+00    0.4093202131E-04    0.2351625268E-04    0.4238778802E-02
    0.4900000000E+02    0.1359495035E-04    0.6713117705E+00    0.4240088661E-04    0.2442761262E-04    0.4238799249E-02
    0.1000000000E+02    0.7083701414E-05    0.5898699670E+00    0.1438041730E-04    0.5861584412E-05    0.4229713033E-02
    0.3000000000E+02    0.1026987839E-04    0.6565903618E+00    0.2844981314E-04    0.1564759582E-04    0.4237792290E-02
    0.5000000000E+02    0.1377365560E-04    0.6717874082E+00    0.4313507984E-04    0.2488240439E-04    0.4238804567E-02
    0.7000000000E+02    0.1738664060E-04    0.6785176829E+00    0.5777429450E-04    0.3387890457E-04    0.4238423478E-02
    0.9000000000E+02    0.2104257598E-04    0.6823151409E+00    0.7232610968E-04    0.4274473354E-04    0.4237489874E-02
    0.1100000000E+03    0.2472053405E-04    0.6847537868E+00    0.8681151526E-04    0.5153438431E-04    0.4236269465E-02
    0.1300000000E+03    0.2841341592E-04    0.6864522212E+00    0.1012563489E-03    0.6028064546E-04    0.4234875929E-02
    0.1500000000E+03    0.3211912405E-04    0.6877030304E+00    0.1156831131E-03    0.6900538333E-04    0.4233366955E-02
    0.1700000000E+03    0.3583756378E-04    0.6886625529E+00    0.1301103573E-03    0.7772423256E-04    0.4231775238E-02
    0.1900000000E+03    0.3956947880E-04    0.6894219162E+00    0.1445533217E-03    0.8644895716E-04    0.4230120795E-02
    0.2100000000E+03    0.4331595668E-04    0.6900378270E+00    0.1590246610E-03    0.9518876430E-04    0.4228416601E-02
    0.2300000000E+03    0.4707820696E-04    0.6905474201E+00    0.1735350362E-03    0.1039510915E-03    0.4226671434E-02
    0.2500000000E+03    0.5085745907E-04    0.6909760319E+00    0.1880935661E-03    0.1127421059E-03    0.4224891436E-02
    0.2700000000E+03    0.5465491586E-04    0.6913415408E+00    0.2027081646E-03    0.1215670351E-03    0.4223081020E-02
    0.2900000000E+03    0.5847173400E-04    0.6916569236E+00    0.2173857947E-03    0.1304303954E-03    0.4221243422E-02
    0.3100000000E+03    0.6230901749E-04    0.6919318274E+00    0.2321326602E-03    0.1393361538E-03    0.4219381051E-02
    0.3300000000E+03    0.6616781766E-04    0.6921735731E+00    0.2469543531E-03    0.1482878455E-03    0.4217495725E-02
    0.3500000000E+03    0.7004913618E-04    0.6923878168E+00    0.2618559677E-03    0.1572886622E-03    0.4215588827E-02
    0.3700000000E+03    0.7395392940E-04    0.6925789973E+00    0.2768421903E-03    0.1663415184E-03    0.4213661410E-02
    0.3900000000E+03    0.7788311305E-04    0.6927506472E+00    0.2919173701E-03    0.1754491037E-03    0.4211714281E-02
    0.4100000000E+03    0.8183756696E-04    0.6929056127E+00    0.3070855764E-03    0.1846139227E-03    0.4209748053E-02
    0.4300000000E+03    0.8581813945E-04    0.6930462126E+00    0.3223506450E-03    0.1938383274E-03    0.4207763190E-02
    0.4500000000E+03    0.8982565139E-04    0.6931743550E+00    0.3377162160E-03    0.2031245433E-03    0.4205760034E-02
    0.4700000000E+03    0.9386089991E-04    0.6932916246E+00    0.3531857652E-03    0.2124746905E-03    0.4203738830E-02
    0.4900000000E+03    0.9792466166E-04    0.6933993482E+00    0.3687626304E-03    0.2218908011E-03    0.4201699746E-02
    0.1000000000E+03    0.2287942079E-04    0.6836542589E+00    0.7957544905E-04    0.4714669483E-04    0.4236906505E-02
    0.3000000000E+03    0.6038775066E-04    0.6917989323E+00    0.2247502107E-03    0.1348777449E-03    0.4220315208E-02
    0.5000000000E+03    0.9996747286E-04    0.6934499870E+00    0.3765923172E-03    0.2266242072E-03    0.4200673534E-02
    0.7000000000E+03    0.1424998996E-03    0.6941594572E+00    0.5395646034E-03    0.3252072802E-03    0.4179210984E-02
    0.9000000000E+03    0.1887049690E-03    0.6945539268E+00    0.7166114256E-03    0.4324146075E-03    0.4155859789E-02
    0.1100000000E+04    0.2393019513E-03    0.6948049862E+00    0.9105577327E-03    0.5499617385E-03    0.4130374299E-02
    0.1300000000E+04    0.2950877847E-03    0.6949787619E+00    0.1124499073E-02    0.6797333123E-03    0.4102426095E-02
    0.1500000000E+04    0.3569891930E-03    0.6951061478E+00    0.1362023255E-02    0.8239179234E-03    0.4071612032E-02
    0.1700000000E+04    0.4261125045E-03    0.6952035109E+00    0.1627409665E-02    0.9851296244E-03    0.4037442888E-02
    0.1900000000E+04    0.5038011718E-03    0.6952803311E+00    0.1925854807E-02    0.1166545936E-02    0.3999322935E-02
    0.2100000000E+04    0.5917079252E-03    0.6953424785E+00    0.2263753532E-02    0.1372080400E-02    0.3956521471E-02
    0.2300000000E+04    0.6918886775E-03    0.6953937821E+00    0.2649064560E-02    0.1606607246E-02    0.3908134820E-02
    0.2500000000E+04    0.8069269373E-03    0.6954368457E+00    0.3091794864E-02    0.1876259550E-02    0.3853035999E-02
    0.2700000000E+04    0.9401000624E-03    0.6954735018E+00    0.3604647528E-02    0.2188828537E-02    0.3789808231E-02
    0.2900000000E+04    0.1095601817E-02    0.6955050774E+00    0.4203890164E-02    0.2554299656E-02    0.3716657587E-02
    0.3100000000E+04    0.1278838421E-02    0.6955325568E+00    0.4910512243E-02    0.2985568311E-02    0.3631299828E-02
    0.3300000000E+04    0.1496814809E-02    0.6955566858E+00    0.5751738989E-02    0.3499378513E-02    0.3530818430E-02
    0.3500000000E+04    0.1758616785E-02    0.6955780396E+00    0.6762928884E-02    0.4117503980E-02    0.3411498297E-02
    0.3700000000E+04    0.2075955506E-02    0.6955970689E+00    0.7989732818E-02    0.4868101821E-02    0.3268661032E-02
    0.3900000000E+04    0.2463633717E-02    0.6956141320E+00    0.9489982930E-02    0.5786920253E-02    0.3096579576E-02
    0.4100000000E+04    0.2939542049E-02    0.6956295172E+00    0.1133381034E-01    0.6917450299E-02    0.2888662820E-02
    0.4300000000E+04    0.3523290279E-02    0.6956434592E+00    0.1359853716E-01    0.8307911439E-02    0.2638309494E-02
    0.4500000000E+04    0.4231821659E-02    0.6956561508E+00    0.1635192327E-01    0.1000112378E-01    0.2341103926E-02
    0.4700000000E+04    0.5070005323E-02    0.6956677520E+00    0.1961587767E-01    0.1201235601E-01    0.1999024221E-02
    0.4900000000E+04    0.6016567191E-02    0.6956783967E+00    0.2331172264E-01    0.1429563146E-01    0.1626054534E-02
    0.1000000000E+04    0.2134071382E-03    0.6946920119E+00    0.8112878944E-03    0.4897836239E-03    0.4143402657E-02
    0.3000000000E+04    0.1183358123E-02    0.6955192779E+00    0.4542243761E-02    0.2760765671E-02    0.3675670201E-02
    0.5000000000E+04    0.6513786190E-02    0.6956833964E+00    0.2525802223E-01    0.1550098941E-01    0.1436530515E-02
    0.7000000000E+04    0.1188363954E-01    0.6957530935E+00    0.4702572021E-01    0.2943563851E-01    0.1165231091E-03
    0.9000000000E+04    0.1398001718E-01    0.6957914479E+00    0.5649357842E-01    0.3608403303E-01    0.1081399795E-03
    0.1100000000E+05    0.1568108013E-01    0.6958156177E+00    0.6465905965E-01    0.4210343453E-01    0.1093107591E-03
    0.1300000000E+05    0.1708719034E-01    0.6958321840E+00    0.7184039762E-01    0.4764990939E-01    0.1103312919E-03
    0.1500000000E+05    0.1825448846E-01    0.6958442090E+00    0.7820248845E-01    0.5279442101E-01    0.1112131121E-03
    0.1700000000E+05    0.1922638878E-01    0.6958533092E+00    0.8387489646E-01    0.5759344818E-01    0.1119900658E-03
    0.1900000000E+05    0.2003698922E-01    0.6958604176E+00    0.8896114587E-01    0.6209276212E-01    0.1126849822E-03
    0.2100000000E+05    0.2071338535E-01    0.6958661102E+00    0.9354495505E-01    0.6632989607E-01    0.1133139173E-03
    0.2300000000E+05    0.2127733508E-01    0.6958707613E+00    0.9769476094E-01    0.7033595504E-01    0.1138886004E-03
    0.2500000000E+05    0.2174647600E-01    0.6958746248E+00    0.1014670578E+00    0.7413696451E-01    0.1144178659E-03
    0.2700000000E+05    0.2213522862E-01    0.6958778786E+00    0.1049088976E+00    0.7775489016E-01    0.1149085370E-03
    0.2900000000E+05    0.2245547541E-01    0.6958806515E+00    0.1080597873E+00    0.8120841900E-01    0.1153659953E-03
    0.3100000000E+05    0.2271707737E-01    0.6958830384E+00    0.1109531465E+00    0.8451356496E-01    0.1157945617E-03
    0.3300000000E+05    0.2292827144E-01    0.6958851110E+00    0.1136174394E+00    0.8768414344E-01    0.1161977590E-03
    0.3500000000E+05    0.2309597932E-01    0.6958869247E+00    0.1160770631E+00    0.9073214712E-01    0.1165784976E-03
    0.3700000000E+05    0.2322604961E-01    0.6958885225E+00    0.1183530513E+00    0.9366804617E-01    0.1169392103E-03
    0.3900000000E+05    0.2332344943E-01    0.6958899386E+00    0.1204636367E+00    0.9650103024E-01    0.1172819520E-03
    0.4100000000E+05    0.2339241718E-01    0.6958912004E+00    0.1224247041E+00    0.9923920507E-01    0.1176084740E-03
    0.4300000000E+05    0.2343658528E-01    0.6958923302E+00    0.1242501578E+00    0.1018897534E+00    0.1179202817E-03
    0.4500000000E+05    0.2345907944E-01    0.6958933461E+00    0.1259522226E+00    0.1044590675E+00    0.1182186782E-03
    0.4700000000E+05    0.2346259949E-01    0.6958942632E+00    0.1275416909E+00    0.1069528594E+00    0.1185047998E-03
    0.4900000000E+05    0.2344948562E-01    0.6958950942E+00    0.1290281275E+00    0.1093762524E+00    0.1187796427E-03
    0.1000000000E+05    0.1487156878E-01    0.6958047708E+00    0.6071144749E-01    0.3915804415E-01    0.1087354276E-03
    0.3000000000E+05    0.2259305811E-01    0.6958818882E+00    0.1095367745E+00    0.8287862967E-01    0.1155836536E-03
    0.5000000000E+05    0.2343733755E-01    0.6958954807E+00    0.1297354050E+00    0.1105630087E+00    0.1189131134E-03
    0.7000000000E+05    0.2269570632E-01    0.6959005385E+00    0.1401112402E+00    0.1315121375E+00    0.1211581329E-03
    0.9000000000E+05    0.2153462089E-01    0.6959029190E+00    0.1459433692E+00    0.1487093021E+00    0.1228624801E-03
    0.1100000000E+06    0.2030010187E-01    0.6959041580E+00    0.1493090420E+00    0.1634783284E+00    0.1242405342E-03
    0.1300000000E+06    0.1910770398E-01    0.6959048229E+00    0.1511964630E+00    0.1765245341E+00    0.1253994959E-03
    0.1500000000E+06    0.1799525075E-01    0.6959051679E+00    0.1521371202E+00    0.1882707926E+00    0.1264008591E-03
    0.1700000000E+06    0.1697163153E-01    0.6959053220E+00    0.1524424938E+00    0.1989924122E+00    0.1272832466E-03
    0.1900000000E+06    0.1603459133E-01    0.6959053563E+00    0.1523070546E+00    0.2088798255E+00    0.1280725384E-03
    0.2100000000E+06    0.1517778093E-01    0.6959053131E+00    0.1518582402E+00    0.2180709948E+00    0.1287869406E-03
    0.2300000000E+06    0.1439368170E-01    0.6959052183E+00    0.1511827988E+00    0.2266695747E+00    0.1294397568E-03
    0.2500000000E+06    0.1367482772E-01    0.6959050888E+00    0.1503416098E+00    0.2347557600E+00    0.1300410096E-03
    0.2700000000E+06    0.1301429110E-01    0.6959049359E+00    0.1493784731E+00    0.2423931069E+00    0.1305984411E-03
    0.2900000000E+06    0.1240584069E-01    0.6959047671E+00    0.1483255530E+00    0.2496330065E+00    0.1311181586E-03
    0.3100000000E+06    0.1184395661E-01    0.6959045879E+00    0.1472068734E+00    0.2565177253E+00    0.1316050662E-03
    0.3300000000E+06    0.1132378420E-01    0.6959044018E+00    0.1460406345E+00    0.2630825344E+00    0.1320631627E-03
    0.3500000000E+06    0.1084106598E-01    0.6959042118E+00    0.1448407878E+00    0.2693572398E+00    0.1324957519E-03
    0.3700000000E+06    0.1039206959E-01    0.6959040196E+00    0.1436181328E+00    0.2753673070E+00    0.1329055960E-03
    0.3900000000E+06    0.9973519485E-02    0.6959038267E+00    0.1423810966E+00    0.2811347045E+00    0.1332950278E-03
    0.4100000000E+06    0.9582535476E-02    0.6959036342E+00    0.1411362964E+00    0.2866785464E+00    0.1336660361E-03
    0.4300000000E+06    0.9216578804E-02    0.6959034428E+00    0.1398889544E+00    0.2920155909E+00    0.1340203301E-03
    0.4500000000E+06    0.8873405601E-02    0.6959032531E+00    0.1386432052E+00    0.2971606313E+00    0.1343593898E-03
    0.4700000000E+06    0.8551026976E-02    0.6959030654E+00    0.1374023292E+00    0.3021268074E+00    0.1346845052E-03
    0.4900000000E+06    0.8247674932E-02    0.6959028802E+00    0.1361689299E+00    0.3069258554E+00    0.1349968081E-03
    0.1000000000E+06    0.2091653439E-01    0.6959036346E+00    0.1478576818E+00    0.1563442139E+00    0.1235841033E-03
    0.3000000000E+06    0.1211939612E-01    0.6959046785E+00    0.1477731804E+00    0.2531174154E+00    0.1313654453E-03
    0.5000000000E+06    0.8102634534E-02    0.6959027885E+00    0.1355556968E+00    0.3092660409E+00    0.1351484713E-03
    0.7000000000E+06    0.5896337978E-02    0.6959011012E+00    0.1239967073E+00    0.3493739622E+00    0.1376995829E-03
    0.9000000000E+06    0.4522757879E-02    0.6958996734E+00    0.1139738858E+00    0.3803175438E+00    0.1396363907E-03
    0.1100000000E+07    0.3597218803E-02    0.6958984498E+00    0.1053642179E+00    0.4052371793E+00    0.1412024392E-03
    0.1300000000E+07    0.2938586061E-02    0.6958973827E+00    0.9793348417E-01    0.4258809960E+00    0.1425195264E-03
    0.1500000000E+07    0.2450668736E-02    0.6958964376E+00    0.9146997801E-01    0.4433362517E+00    0.1436575245E-03
    0.1700000000E+07    0.2077841578E-02    0.6958955895E+00    0.8580186725E-01    0.4583293984E+00    0.1446603199E-03
    0.1900000000E+07    0.1785824843E-02    0.6958948205E+00    0.8079294176E-01    0.4713709154E+00    0.1455573208E-03
    0.2100000000E+07    0.1552422641E-02    0.6958941169E+00    0.7633532596E-01    0.4828332717E+00    0.1463692158E-03
    0.2300000000E+07    0.1362682457E-02    0.6958934684E+00    0.7234302068E-01    0.4929963211E+00    0.1471111226E-03
    0.2500000000E+07    0.1206198234E-02    0.6958928668E+00    0.6874684409E-01    0.5020753493E+00    0.1477944309E-03
    0.2700000000E+07    0.1075527944E-02    0.6958923057E+00    0.6549060545E-01    0.5102392283E+00    0.1484279387E-03
    0.2900000000E+07    0.9652244724E-03    0.6958917799E+00    0.6252823351E-01    0.5176226141E+00    0.1490185864E-03
    0.3100000000E+07    0.8712203171E-03    0.6958912851E+00    0.5982161484E-01    0.5243343996E+00    0.1495719472E-03
    0.3300000000E+07    0.7904247131E-03    0.6958908178E+00    0.5733895479E-01    0.5304637258E+00    0.1500925653E-03
    0.3500000000E+07    0.7204527131E-03    0.6958903751E+00    0.5505352341E-01    0.5360843514E+00    0.1505841953E-03
    0.3700000000E+07    0.6594387079E-03    0.6958899544E+00    0.5294268678E-01    0.5412578913E+00    0.1510499764E-03
    0.3900000000E+07    0.6059053986E-03    0.6958895536E+00    0.5098715150E-01    0.5460362559E+00    0.1514925596E-03
    0.4100000000E+07    0.5586700303E-03    0.6958891709E+00    0.4917037012E-01    0.5504635168E+00    0.1519142049E-03
    0.4300000000E+07    0.5167761796E-03    0.6958888046E+00    0.4747806899E-01    0.5545773517E+00    0.1523168550E-03
    0.4500000000E+07    0.4794433927E-03    0.6958884535E+00    0.4589787028E-01    0.5584101770E+00    0.1527021916E-03
    0.4700000000E+07    0.4460295007E-03    0.6958881161E+00    0.4441898695E-01    0.5619900453E+00    0.1530716810E-03
    0.4900000000E+07    0.4160020724E-03    0.6958877916E+00    0.4303197482E-01    0.5653413632E+00    0.1534266092E-03
    0.1000000000E+07    0.4018114216E-02    0.6958990394E+00    0.1095070313E+00    0.3934003093E+00    0.1404564543E-03
    0.3000000000E+07    0.9163973675E-03    0.6958915288E+00    0.6114507398E-01    0.5210564804E+00    0.1492996227E-03
    0.5000000000E+07    0.4021164152E-03    0.6958876338E+00    0.4237028564E-01    0.5669380907E+00    0.1535989726E-03
    0.7000000000E+07    0.2251916184E-03    0.6958849645E+00    0.3239126925E-01    0.5908690480E+00    0.1564982821E-03
    0.9000000000E+07    0.1437660211E-03    0.6958829226E+00    0.2620096480E-01    0.6055871714E+00    0.1586994447E-03
    0.1100000000E+08    0.9965756076E-04    0.6958812642E+00    0.2198730151E-01    0.6155567644E+00    0.1604792437E-03
    0.1300000000E+08    0.7310842641E-04    0.6958798653E+00    0.1893480257E-01    0.6227564430E+00    0.1619761007E-03
    0.1500000000E+08    0.5589995949E-04    0.6958786540E+00    0.1662221071E-01    0.6281991827E+00    0.1632694243E-03
    0.1700000000E+08    0.4411505755E-04    0.6958775850E+00    0.1480996656E-01    0.6324576431E+00    0.1644090913E-03
    0.1900000000E+08    0.3569374852E-04    0.6958766275E+00    0.1335179566E-01    0.6358800286E+00    0.1654285236E-03
    0.2100000000E+08    0.2946860871E-04    0.6958757600E+00    0.1215334069E-01    0.6386902578E+00    0.1663512337E-03
    0.2300000000E+08    0.2473791477E-04    0.6958749666E+00    0.1115101202E-01    0.6410388731E+00    0.1671944028E-03
    0.2500000000E+08    0.2105928999E-04    0.6958742354E+00    0.1030039666E-01    0.6430308181E+00    0.1679709751E-03
    0.2700000000E+08    0.1814265373E-04    0.6958735570E+00    0.9569539091E-02    0.6447414840E+00    0.1686909495E-03
