  Pressure (Pa) 22mC5-500 (mol/kg) 24mC5-500 (mol/kg) 2mC6-500 (mol/kg) 3mC6-500 (mol/kg) C7-500 (mol/kg)
    0.1000000000E+01    0.5299624547E-05    0.3665872833E-01    0.1042936939E-04    0.6018287056E-05    0.4218548270E-02
    0.3000000000E+01    0.1400445437E-04    0.9947661438E-01    0.2695169879E-04    0.1553211259E-04    0.4317390282E-02
    0.5000000000E+01    0.2088611425E-04    0.1513455188E+00    0.3953382504E-04    0.2432651427E-04    0.4397487759E-02
    0.7000000000E+01    0.2643153663E-04    0.1948987998E+00    0.4932308855E-04    0.3277763246E-04    0.4464801295E-02
    0.9000000000E+01    0.3096932325E-04    0.2319879945E+00    0.5707114140E-04    0.4101291604E-04    0.4522292664E-02
    0.1100000000E+02    0.3473146993E-04    0.2639529187E+00    0.6329717243E-04    0.4909626938E-04    0.4572009394E-02
    0.1300000000E+02    0.3788639321E-04    0.2917870286E+00    0.6837030328E-04    0.5706577849E-04    0.4615452116E-02
    0.1500000000E+02    0.4055908278E-04    0.3162425509E+00    0.7255876923E-04    0.6494656504E-04    0.4653753171E-02
    0.1700000000E+02    0.4284403965E-04    0.3378995128E+00    0.7606104283E-04    0.7275635691E-04    0.4687785122E-02
    0.1900000000E+02    0.4481386972E-04    0.3572123507E+00    0.7902625577E-04    0.8050828537E-04    0.4718231955E-02
    0.2100000000E+02    0.4652514733E-04    0.3745421571E+00    0.8156797192E-04    0.8821243931E-04    0.4745637759E-02
    0.2300000000E+02    0.4802250782E-04    0.3901794780E+00    0.8377368947E-04    0.9587679547E-04    0.4770440932E-02
    0.2500000000E+02    0.4934156089E-04    0.4043607388E+00    0.8571152533E-04    0.1035078080E-03    0.4792998768E-02
    0.2700000000E+02    0.5051100082E-04    0.4172802859E+00    0.8743499831E-04    0.1111107995E-03    0.4813605457E-02
    0.2900000000E+02    0.5155415911E-04    0.4290993498E+00    0.8898650401E-04    0.1186902301E-03    0.4832505483E-02
    0.3100000000E+02    0.5249016268E-04    0.4399528101E+00    0.9039987390E-04    0.1262498885E-03    0.4849903733E-02
    0.3300000000E+02    0.5333480914E-04    0.4499543686E+00    0.9170228318E-04    0.1337930312E-03    0.4865973234E-02
    0.3500000000E+02    0.5410123571E-04    0.4592005483E+00    0.9291568909E-04    0.1413224864E-03    0.4880861137E-02
    0.3700000000E+02    0.5480043594E-04    0.4677738201E+00    0.9405792633E-04    0.1488407323E-03    0.4894693398E-02
    0.3900000000E+02    0.5544166284E-04    0.4757450701E+00    0.9514354912E-04    0.1563499583E-03    0.4907578478E-02
    0.4100000000E+02    0.5603274609E-04    0.4831755652E+00    0.9618448416E-04    0.1638521128E-03    0.4919610292E-02
    0.4300000000E+02    0.5658034373E-04    0.4901185308E+00    0.9719054082E-04    0.1713489409E-03    0.4930870579E-02
    0.4500000000E+02    0.5709014356E-04    0.4966204286E+00    0.9816981291E-04    0.1788420148E-03    0.4941430818E-02
    0.4700000000E+02    0.5756702521E-04    0.5027219981E+00    0.9912899704E-04    0.1863327590E-03    0.4951353802E-02
    0.4900000000E+02    0.5801519163E-04    0.5084591108E+00    0.1000736466E-03    0.1938224702E-03    0.4960694922E-02
    0.1000000000E+02    0.3293561633E-04    0.2485422340E+00    0.6034851156E-04    0.4507080334E-04    0.4548018811E-02
    0.3000000000E+02    0.5203449855E-04    0.4346392294E+00    0.8970862027E-04    0.1224723161E-03    0.4841380847E-02
    0.5000000000E+02    0.5822966185E-04    0.5112010510E+00    0.1005419947E-03    0.1975673131E-03    0.4965162834E-02
    0.7000000000E+02    0.6167419391E-04    0.5529485687E+00    0.1099216329E-03    0.2726527374E-03    0.5033354315E-02
    0.9000000000E+02    0.6443051878E-04    0.5792297117E+00    0.1201519495E-03    0.3485583252E-03    0.5076065956E-02
    0.1100000000E+03    0.6709381614E-04    0.5972961056E+00    0.1315318228E-03    0.4257428737E-03    0.5104797205E-02
    0.1300000000E+03    0.6986724946E-04    0.6104786503E+00    0.1440083827E-03    0.5045188787E-03    0.5124924039E-02
    0.1500000000E+03    0.7282559915E-04    0.6205218179E+00    0.1574818123E-03    0.5851291317E-03    0.5139308640E-02
    0.1700000000E+03    0.7599651067E-04    0.6284276491E+00    0.1718668445E-03    0.6677800044E-03    0.5149619991E-02
    0.1900000000E+03    0.7938942660E-04    0.6348127419E+00    0.1871018066E-03    0.7526583072E-03    0.5156898872E-02
    0.2100000000E+03    0.8300691790E-04    0.6400773249E+00    0.2031461852E-03    0.8399408391E-03    0.5161828425E-02
    0.2300000000E+03    0.8684939883E-04    0.6444925116E+00    0.2199764492E-03    0.9298003079E-03    0.5164875307E-02
    0.2500000000E+03    0.9091715163E-04    0.6482484808E+00    0.2375823836E-03    0.1022409304E-02    0.5166368453E-02
    0.2700000000E+03    0.9521119649E-04    0.6514825812E+00    0.2559642938E-03    0.1117943171E-02    0.5166545486E-02
    0.2900000000E+03    0.9973365014E-04    0.6542964846E+00    0.2751309767E-03    0.1216582224E-02    0.5165581320E-02
    0.3100000000E+03    0.1044878566E-03    0.6567670638E+00    0.2950982842E-03    0.1318513592E-02    0.5163606460E-02
    0.3300000000E+03    0.1094784193E-03    0.6589535187E+00    0.3158881258E-03    0.1423932822E-02    0.5160719095E-02
    0.3500000000E+03    0.1147111961E-03    0.6609021792E+00    0.3375277919E-03    0.1533045368E-02    0.5156993292E-02
    0.3700000000E+03    0.1201932845E-03    0.6626498223E+00    0.3600495163E-03    0.1646068020E-02    0.5152484702E-02
    0.3900000000E+03    0.1259330116E-03    0.6642260133E+00    0.3834902161E-03    0.1763230330E-02    0.5147234583E-02
    0.4100000000E+03    0.1319399344E-03    0.6656547912E+00    0.4078913711E-03    0.1884776071E-02    0.5141272706E-02
    0.4300000000E+03    0.1382248534E-03    0.6669559018E+00    0.4332990110E-03    0.2010964755E-02    0.5134619464E-02
    0.4500000000E+03    0.1447998397E-03    0.6681457156E+00    0.4597637937E-03    0.2142073246E-02    0.5127287424E-02
    0.4700000000E+03    0.1516782767E-03    0.6692379192E+00    0.4873411600E-03    0.2278397475E-02    0.5119282475E-02
    0.4900000000E+03    0.1588749168E-03    0.6702440436E+00    0.5160915570E-03    0.2420254303E-02    0.5110604670E-02
    0.1000000000E+03    0.6575646892E-04    0.5890286294E+00    0.1256989093E-03    0.3869689897E-03    0.5091759672E-02
    0.3000000000E+03    0.1020815261E-03    0.6555706406E+00    0.2850133157E-03    0.1267124362E-02    0.5164713444E-02
    0.5000000000E+03    0.1625975644E-03    0.6707179426E+00    0.5309269701E-03    0.2493362674E-02    0.5106012025E-02
    0.7000000000E+03    0.2587596930E-03    0.6774212130E+00    0.9092006198E-03    0.4347060994E-02    0.4974906851E-02
    0.9000000000E+03    0.4202608024E-03    0.6812003445E+00    0.1536756290E-02    0.7411045716E-02    0.4739489178E-02
    0.1100000000E+04    0.7181139796E-03    0.6836251234E+00    0.2689844991E-02    0.1304416794E-01    0.4305425975E-02
    0.1300000000E+04    0.1309023013E-02    0.6853123822E+00    0.4980371905E-02    0.2426959190E-01    0.3478954290E-02
    0.1500000000E+04    0.2278181938E-02    0.6865538120E+00    0.8762624956E-02    0.4294070013E-01    0.2254144475E-02
    0.1700000000E+04    0.3061651038E-02    0.6875052381E+00    0.1187943777E-01    0.5861098058E-01    0.1500105013E-02
    0.1900000000E+04    0.3461360457E-02    0.6882574683E+00    0.1353965407E-01    0.6728837343E-01    0.1330965769E-02
    0.2100000000E+04    0.3736724101E-02    0.6888669959E+00    0.1473258893E-01    0.7375127971E-01    0.1311348012E-02
    0.2300000000E+04    0.3977524790E-02    0.6893708070E+00    0.1580404143E-01    0.7968689267E-01    0.1314635452E-02
    0.2500000000E+04    0.4200386445E-02    0.6897941296E+00    0.1681755866E-01    0.8540357099E-01    0.1320722159E-02
    0.2700000000E+04    0.4408695149E-02    0.6901547613E+00    0.1778526306E-01    0.9095669114E-01    0.1326778328E-02
    0.2900000000E+04    0.4603700511E-02    0.6904656166E+00    0.1871098968E-01    0.9636084888E-01    0.1332458803E-02
    0.3100000000E+04    0.4786270714E-02    0.6907362935E+00    0.1959715248E-01    0.1016238660E+00    0.1337763792E-02
    0.3300000000E+04    0.4957167948E-02    0.6909740737E+00    0.2044582464E-01    0.1067521571E+00    0.1342734246E-02
    0.3500000000E+04    0.5117094838E-02    0.6911845813E+00    0.2125891678E-01    0.1117516020E+00    0.1347409762E-02
    0.3700000000E+04    0.5266705049E-02    0.6913722290E+00    0.2203821352E-01    0.1166277073E+00    0.1351824026E-02
    0.3900000000E+04    0.5406608015E-02    0.6915405272E+00    0.2278538690E-01    0.1213856538E+00    0.1356005351E-02
    0.4100000000E+04    0.5537372485E-02    0.6916923037E+00    0.2350200547E-01    0.1260303237E+00    0.1359977676E-02
    0.4300000000E+04    0.5659529643E-02    0.6918298614E+00    0.2418954205E-01    0.1305663218E+00    0.1363761410E-02
    0.4500000000E+04    0.5773575944E-02    0.6919550951E+00    0.2484938081E-01    0.1349979962E+00    0.1367374095E-02
    0.4700000000E+04    0.5879975713E-02    0.6920695776E+00    0.2548282368E-01    0.1393294550E+00    0.1370830914E-02
    0.4900000000E+04    0.5979163528E-02    0.6921746255E+00    0.2609109621E-01    0.1435645838E+00    0.1374145103E-02
    0.1000000000E+04    0.5448632304E-03    0.6825321120E+00    0.2019293536E-02    0.9767134518E-02    0.4556878275E-02
    0.3000000000E+04    0.4696490756E-02    0.6906054770E+00    0.1915888238E-01    0.9900958277E-01    0.1335155786E-02
    0.5000000000E+04    0.6026181163E-02    0.6922239654E+00    0.2638615706E-01    0.1456471814E+00    0.1375752394E-02
    0.7000000000E+04    0.6674019011E-02    0.6929116108E+00    0.3121351791E-01    0.1830385698E+00    0.1402604434E-02
    0.9000000000E+04    0.6933998288E-02    0.6932895075E+00    0.3449990248E-01    0.2139809237E+00    0.1422805258E-02
    0.1100000000E+05    0.6967777056E-02    0.6935271451E+00    0.3675194027E-01    0.2402064065E+00    0.1439052576E-02
    0.1300000000E+05    0.6868457202E-02    0.6936896117E+00    0.3828562086E-01    0.2628507353E+00    0.1452669717E-02
    0.1500000000E+05    0.6691551274E-02    0.6938072084E+00    0.3930697870E-01    0.2826935541E+00    0.1464406665E-02
    0.1700000000E+05    0.6471009327E-02    0.6938959306E+00    0.3995527159E-01    0.3002906137E+00    0.1474730552E-02
    0.1900000000E+05    0.6227957376E-02    0.6939650094E+00    0.4032744491E-01    0.3160506948E+00    0.1483952478E-02
    0.2100000000E+05    0.5975670113E-02    0.6940201399E+00    0.4049266587E-01    0.3302825404E+00    0.1492290281E-02
    0.2300000000E+05    0.5722502771E-02    0.6940650231E+00    0.4050131066E-01    0.3432246598E+00    0.1499902554E-02
    0.2500000000E+05    0.5473671630E-02    0.6941021664E+00    0.4039071450E-01    0.3550649195E+00    0.1506908417E-02
    0.2700000000E+05    0.5232362459E-02    0.6941333278E+00    0.4018896045E-01    0.3659538101E+00    0.1513399663E-02
    0.2900000000E+05    0.5000435097E-02    0.6941597753E+00    0.3991744068E-01    0.3760136692E+00    0.1519448553E-02
    0.3100000000E+05    0.4778879149E-02    0.6941824459E+00    0.3959262716E-01    0.3853452437E+00    0.1525113010E-02
    0.3300000000E+05    0.4568112974E-02    0.6942020468E+00    0.3922732029E-01    0.3940324559E+00    0.1530440189E-02
    0.3500000000E+05    0.4368182116E-02    0.6942191211E+00    0.3883154493E-01    0.4021459284E+00    0.1535469004E-02
    0.3700000000E+05    0.4178892177E-02    0.6942340930E+00    0.3841320360E-01    0.4097456354E+00    0.1540231950E-02
    0.3900000000E+05    0.3999898320E-02    0.6942472982E+00    0.3797855933E-01    0.4168829273E+00    0.1544756442E-02
    0.4100000000E+05    0.3830765777E-02    0.6942590056E+00    0.3753259715E-01    0.4236020960E+00    0.1549065831E-02
    0.4300000000E+05    0.3671010730E-02    0.6942694332E+00    0.3707929778E-01    0.4299416021E+00    0.1553180168E-02
    0.4500000000E+05    0.3520127845E-02    0.6942787597E+00    0.3662184701E-01    0.4359350467E+00    0.1557116805E-02
    0.4700000000E+05    0.3377608637E-02    0.6942871325E+00    0.3616279736E-01    0.4416119490E+00    0.1560890857E-02
    0.4900000000E+05    0.3242953518E-02    0.6942946744E+00    0.3570419405E-01    0.4469983752E+00    0.1564515571E-02
    0.1000000000E+05    0.6972200557E-02    0.6934205673E+00    0.3573219341E-01    0.2276018462E+00    0.1431321585E-02
    0.3000000000E+05    0.4888323874E-02    0.6941715340E+00    0.3976082147E-01    0.3807648989E+00    0.1522325670E-02
    0.5000000000E+05    0.3178423266E-02    0.6942981667E+00    0.3547558493E-01    0.4495899891E+00    0.1566275632E-02
    0.7000000000E+05    0.2196374852E-02    0.6943424566E+00    0.3118019363E-01    0.4906216914E+00    0.1595864036E-02
    0.9000000000E+05    0.1601022850E-02    0.6943614611E+00    0.2759208666E-01    0.5182667637E+00    0.1618309993E-02
    0.1100000000E+06    0.1216526779E-02    0.6943699509E+00    0.2466236577E-01    0.5382784189E+00    0.1636450840E-02
    0.1300000000E+06    0.9548017832E-03    0.6943733081E+00    0.2225757376E-01    0.5534802300E+00    0.1651703139E-02
    0.1500000000E+06    0.7689412209E-03    0.6943739052E+00    0.2026048551E-01    0.5654399874E+00    0.1664878677E-02
    0.1700000000E+06    0.6323434839E-03    0.6943729245E+00    0.1858095325E-01    0.5751043794E+00    0.1676486974E-02
    0.1900000000E+06    0.5290744758E-03    0.6943710076E+00    0.1715151206E-01    0.5830812708E+00    0.1686869275E-02
    0.2100000000E+06    0.4491386400E-03    0.6943685249E+00    0.1592163371E-01    0.5897798626E+00    0.1696265551E-02
    0.2300000000E+06    0.3860161634E-03    0.6943657007E+00    0.1485310034E-01    0.5954861949E+00    0.1704851105E-02
    0.2500000000E+06    0.3353107171E-03    0.6943626752E+00    0.1391663487E-01    0.6004064752E+00    0.1712757970E-02
    0.2700000000E+06    0.2939720255E-03    0.6943595390E+00    0.1308950977E-01    0.6046932356E+00    0.1720088118E-02
    0.2900000000E+06    0.2598307169E-03    0.6943563513E+00    0.1235385316E-01    0.6084617980E+00    0.1726921977E-02
    0.3100000000E+06    0.2313101728E-03    0.6943531517E+00    0.1169543994E-01    0.6118010072E+00    0.1733324120E-02
    0.3300000000E+06    0.2072424994E-03    0.6943499664E+00    0.1110281949E-01    0.6147804400E+00    0.1739347189E-02
    0.3500000000E+06    0.1867477941E-03    0.6943468131E+00    0.1056667820E-01    0.6174553742E+00    0.1745034681E-02
    0.3700000000E+06    0.1691530216E-03    0.6943437037E+00    0.1007936786E-01    0.6198702907E+00    0.1750422950E-02
    0.3900000000E+06    0.1539363289E-03    0.6943406456E+00    0.9634552325E-02    0.6220613930E+00    0.1755542703E-02
    0.4100000000E+06    0.1406880824E-03    0.6943376438E+00    0.9226939634E-02    0.6240584504E+00    0.1760420111E-02
    0.4300000000E+06    0.1290831272E-03    0.6943347010E+00    0.8852076765E-02    0.6258861690E+00    0.1765077667E-02
    0.4500000000E+06    0.1188607257E-03    0.6943318185E+00    0.8506190607E-02    0.6275652263E+00    0.1769534848E-02
    0.4700000000E+06    0.1098098376E-03    0.6943289968E+00    0.8186063592E-02    0.6291130609E+00    0.1773808628E-02
    0.4900000000E+06    0.1017581786E-03    0.6943262354E+00    0.7888935530E-02    0.6305444839E+00    0.1777913897E-02
    0.1000000000E+06    0.1389257394E-02    0.6943665768E+00    0.2605326987E-01    0.5290092594E+00    0.1627810289E-02
    0.3000000000E+06    0.2449487691E-03    0.6943547511E+00    0.1201576340E-01    0.6101803385E+00    0.1730173480E-02
    0.5000000000E+06    0.9806174969E-04    0.6943248772E+00    0.7748239042E-02    0.6312205706E+00    0.1779907505E-02
    0.7000000000E+06    0.5259207786E-04    0.6943005619E+00    0.5706226199E-02    0.6409147792E+00    0.1813439129E-02
    0.9000000000E+06    0.3282901403E-04    0.6942806143E+00    0.4511507244E-02    0.6464915872E+00    0.1838893398E-02
    0.1100000000E+07    0.2249646163E-04    0.6942637836E+00    0.3728135457E-02    0.6501140489E+00    0.1859473333E-02
    0.1300000000E+07    0.1642317251E-04    0.6942492413E+00    0.3175204152E-02    0.6526559120E+00    0.1876780518E-02
    0.1500000000E+07    0.1255156382E-04    0.6942364399E+00    0.2764238075E-02    0.6545376934E+00    0.1891733634E-02
    0.1700000000E+07    0.9931713621E-05    0.6942250042E+00    0.2446877418E-02    0.6559868113E+00    0.1904909657E-02
    0.1900000000E+07    0.8075875519E-05    0.6942146677E+00    0.2194468465E-02    0.6571370006E+00    0.1916695188E-02
    0.2100000000E+07    0.6712721831E-05    0.6942052344E+00    0.1988959319E-02    0.6580720437E+00    0.1927362189E-02
    0.2300000000E+07    0.5681553775E-05    0.6941965566E+00    0.1818414338E-02    0.6588470984E+00    0.1937109383E-02
    0.2500000000E+07    0.4882271057E-05    0.6941885199E+00    0.1674627461E-02    0.6594999584E+00    0.1946086476E-02
    0.2700000000E+07    0.4249878284E-05    0.6941810343E+00    0.1551771817E-02    0.6600573868E+00    0.1954409112E-02
    0.2900000000E+07    0.3740680550E-05    0.6941740276E+00    0.1445596229E-02    0.6605388659E+00    0.1962168512E-02
    0.3100000000E+07    0.3324421237E-05    0.6941674407E+00    0.1352926624E-02    0.6609589146E+00    0.1969437926E-02
    0.3300000000E+07    0.2979608819E-05    0.6941612251E+00    0.1271345423E-02    0.6613285746E+00    0.1976277076E-02
    0.3500000000E+07    0.2690635651E-05    0.6941553401E+00    0.1198978974E-02    0.6616563919E+00    0.1982735310E-02
    0.3700000000E+07    0.2445944325E-05    0.6941497517E+00    0.1134352815E-02    0.6619490841E+00    0.1988853882E-02
    0.3900000000E+07    0.2236827835E-05    0.6941444305E+00    0.1076290803E-02    0.6622120046E+00    0.1994667634E-02
    0.4100000000E+07    0.2056624985E-05    0.6941393516E+00    0.1023843346E-02    0.6624494720E+00    0.2000206267E-02
    0.4300000000E+07    0.1900168912E-05    0.6941344933E+00    0.9762353960E-03    0.6626650085E+00    0.2005495308E-02
    0.4500000000E+07    0.1763401647E-05    0.6941298368E+00    0.9328281291E-03    0.6628615154E+00    0.2010556860E-02
    0.4700000000E+07    0.1643099934E-05    0.6941253656E+00    0.8930902975E-03    0.6630414040E+00    0.2015410192E-02
    0.4900000000E+07    0.1536677037E-05    0.6941210650E+00    0.8565765131E-03    0.6632066950E+00    0.2020072202E-02
    0.1000000000E+07    0.2692227083E-04    0.6942718693E+00    0.4082890829E-02    0.6484767837E+00    0.1849670289E-02
    0.3000000000E+07    0.3522442016E-05    0.6941706849E+00    0.1397739109E-02    0.6607558108E+00    0.1965860460E-02
    0.5000000000E+07    0.1487999253E-05    0.6941189747E+00    0.8394087509E-03    0.6632844102E+00    0.2022336189E-02
    0.7000000000E+07    0.8960421106E-06    0.6940836513E+00    0.5987129443E-03    0.6643741938E+00    0.2060416583E-02
    0.9000000000E+07    0.6383456154E-06    0.6940566661E+00    0.4648231441E-03    0.6649808719E+00    0.2089324892E-02
    0.1100000000E+08    0.4999342204E-06    0.6940347644E+00    0.3796290329E-03    0.6653672873E+00    0.2112697833E-02
    0.1300000000E+08    0.4152649938E-06    0.6940162972E+00    0.3206846751E-03    0.6656349172E+00    0.2132354036E-02
    0.1500000000E+08    0.3586785656E-06    0.6940003110E+00    0.2774943071E-03    0.6658312159E+00    0.2149336745E-02
    0.1700000000E+08    0.3183632489E-06    0.6939862035E+00    0.2444961154E-03    0.6659813373E+00    0.2164301190E-02
    0.1900000000E+08    0.2882223298E-06    0.6939735695E+00    0.2184688897E-03    0.6660998557E+00    0.2177686423E-02
    0.2100000000E+08    0.2648277832E-06    0.6939621230E+00    0.1974184455E-03    0.6661957976E+00    0.2189801303E-02
    0.2300000000E+08    0.2461195013E-06    0.6939516545E+00    0.1800444172E-03    0.6662750518E+00    0.2200871521E-02
    0.2500000000E+08    0.2307916838E-06    0.6939420060E+00    0.1654627947E-03    0.6663416235E+00    0.2211067103E-02
    0.2700000000E+08    0.2179797177E-06    0.6939330550E+00    0.1530517125E-03    0.6663983313E+00    0.2220519385E-02
