  Pressure (Pa) 22mC5-500 (mol/kg) 24mC5-500 (mol/kg) 2mC6-500 (mol/kg) 3mC6-500 (mol/kg) C7-500 (mol/kg)
    0.1000000000E+01    0.4269954798E-05    0.1513978957E+00    0.2198058797E-04    0.8001916347E-06    0.4191390686E-02
    0.3000000000E+01    0.8319235578E-05    0.3164683379E+00    0.4068520430E-04    0.2046109840E-05    0.4229990889E-02
    0.5000000000E+01    0.1016624259E-04    0.4047263499E+00    0.4855762241E-04    0.3191709435E-05    0.4249339180E-02
    0.7000000000E+01    0.1119373402E-04    0.4596686160E+00    0.5311465695E-04    0.4288824775E-05    0.4261330034E-02
    0.9000000000E+01    0.1185556947E-04    0.4971648062E+00    0.5652111073E-04    0.5354958989E-05    0.4269521426E-02
    0.1100000000E+02    0.1233612224E-04    0.5243863083E+00    0.5953358533E-04    0.6398875384E-05    0.4275471288E-02
    0.1300000000E+02    0.1272092920E-04    0.5450475841E+00    0.6244518987E-04    0.7425792080E-05    0.4279980608E-02
    0.1500000000E+02    0.1305342537E-04    0.5612651597E+00    0.6537425252E-04    0.8439148666E-05    0.4283505849E-02
    0.1700000000E+02    0.1335712972E-04    0.5743334742E+00    0.6836724606E-04    0.9441370930E-05    0.4286327101E-02
    0.1900000000E+02    0.1364538178E-04    0.5850886953E+00    0.7143956776E-04    0.1043425456E-04    0.4288626175E-02
    0.2100000000E+02    0.1392600138E-04    0.5940950357E+00    0.7459294045E-04    0.1141917824E-04    0.4290526458E-02
    0.2300000000E+02    0.1420367405E-04    0.6017470036E+00    0.7782322359E-04    0.1239723111E-04    0.4292114763E-02
    0.2500000000E+02    0.1448123971E-04    0.6083287467E+00    0.8112402683E-04    0.1336929354E-04    0.4293454028E-02
    0.2700000000E+02    0.1476042003E-04    0.6140501207E+00    0.8448839595E-04    0.1433609075E-04    0.4294591048E-02
    0.2900000000E+02    0.1504224396E-04    0.6190694802E+00    0.8790958289E-04    0.1529822961E-04    0.4295561375E-02
    0.3100000000E+02    0.1532730424E-04    0.6235085643E+00    0.9138137176E-04    0.1625622485E-04    0.4296392527E-02
    0.3300000000E+02    0.1561591597E-04    0.6274625015E+00    0.9489818868E-04    0.1721051811E-04    0.4297106157E-02
    0.3500000000E+02    0.1590821656E-04    0.6310067039E+00    0.9845510797E-04    0.1816149216E-04    0.4297719546E-02
    0.3700000000E+02    0.1620422987E-04    0.6342017237E+00    0.1020478115E-03    0.1910948170E-04    0.4298246666E-02
    0.3900000000E+02    0.1650390793E-04    0.6370967417E+00    0.1056725292E-03    0.2005478165E-04    0.4298698942E-02
    0.4100000000E+02    0.1680715832E-04    0.6397321168E+00    0.1093259758E-03    0.2099765377E-04    0.4299085812E-02
    0.4300000000E+02    0.1711386224E-04    0.6421412792E+00    0.1130052892E-03    0.2193833179E-04    0.4299415147E-02
    0.4500000000E+02    0.1742388652E-04    0.6443521563E+00    0.1167079749E-03    0.2287702564E-04    0.4299693566E-02
    0.4700000000E+02    0.1773709157E-04    0.6463882599E+00    0.1204318558E-03    0.2381392481E-04    0.4299926677E-02
    0.4900000000E+02    0.1805333663E-04    0.6482695259E+00    0.1241750298E-03    0.2474920118E-04    0.4300119267E-02
    0.1000000000E+02    0.1211176831E-04    0.5117765146E+00    0.5805222333E-04    0.5879313354E-05    0.4272715408E-02
    0.3000000000E+02    0.1518434474E-04    0.6213550802E+00    0.8963951590E-04    0.1577771605E-04    0.4295992877E-02
    0.5000000000E+02    0.1821255570E-04    0.6491575113E+00    0.1260533229E-03    0.2521628027E-04    0.4300201674E-02
    0.7000000000E+02    0.2152595338E-04    0.6618498522E+00    0.1643231390E-03    0.3450439345E-04    0.4300470880E-02
    0.9000000000E+02    0.2502416689E-04    0.6691179869E+00    0.2034920799E-03    0.4374903791E-04    0.4299178566E-02
    0.1100000000E+03    0.2865246165E-04    0.6738267892E+00    0.2432745533E-03    0.5300524849E-04    0.4297073483E-02
    0.1300000000E+03    0.3238271909E-04    0.6771256558E+00    0.2835830074E-03    0.6230703611E-04    0.4294472017E-02
    0.1500000000E+03    0.3619996885E-04    0.6795653447E+00    0.3243991551E-03    0.7167794514E-04    0.4291532425E-02
    0.1700000000E+03    0.4009607877E-04    0.6814428103E+00    0.3657317874E-03    0.8113562846E-04    0.4288343036E-02
    0.1900000000E+03    0.4406670908E-04    0.6829322991E+00    0.4076009658E-03    0.9069414313E-04    0.4284957041E-02
    0.2100000000E+03    0.4810974887E-04    0.6841427968E+00    0.4500315436E-03    0.1003652250E-03    0.4281408265E-02
    0.2300000000E+03    0.5222446550E-04    0.6851459650E+00    0.4930503646E-03    0.1101590514E-03    0.4277719079E-02
    0.2500000000E+03    0.5641101851E-04    0.6859908590E+00    0.5366850300E-03    0.1200847252E-03    0.4273904692E-02
    0.2700000000E+03    0.6067017002E-04    0.6867121902E+00    0.5809633725E-03    0.1301505968E-03    0.4269975625E-02
    0.2900000000E+03    0.6500310643E-04    0.6873352118E+00    0.6259132623E-03    0.1403644864E-03    0.4265939210E-02
    0.3100000000E+03    0.6941132542E-04    0.6878787345E+00    0.6715625693E-03    0.1507338444E-03    0.4261800536E-02
    0.3300000000E+03    0.7389656295E-04    0.6883570581E+00    0.7179392012E-03    0.1612658680E-03    0.4257563074E-02
    0.3500000000E+03    0.7846074531E-04    0.6887812470E+00    0.7650711748E-03    0.1719675918E-03    0.4253229086E-02
    0.3700000000E+03    0.8310595739E-04    0.6891599963E+00    0.8129867017E-03    0.1828459565E-03    0.4248799920E-02
    0.3900000000E+03    0.8783442172E-04    0.6895002335E+00    0.8617142777E-03    0.1939078645E-03    0.4244276209E-02
    0.4100000000E+03    0.9264848470E-04    0.6898075464E+00    0.9112827718E-03    0.2051602258E-03    0.4239658018E-02
    0.4300000000E+03    0.9755060795E-04    0.6900864917E+00    0.9617215126E-03    0.2166099954E-03    0.4234944949E-02
    0.4500000000E+03    0.1025433632E-03    0.6903408221E+00    0.1013060371E-02    0.2282642060E-03    0.4230136222E-02
    0.4700000000E+03    0.1076294297E-03    0.6905736568E+00    0.1065329840E-02    0.2401299962E-03    0.4225230732E-02
    0.4900000000E+03    0.1128115937E-03    0.6907876092E+00    0.1118561111E-02    0.2522146356E-03    0.4220227091E-02
    0.1000000000E+03    0.2682422916E-04    0.6716996653E+00    0.2233145441E-03    0.4837324723E-04    0.4298202435E-02
    0.3000000000E+03    0.6719770203E-04    0.6876159284E+00    0.6486487460E-03    0.1455292773E-03    0.4263882406E-02
    0.5000000000E+03    0.1154396123E-03    0.6908882077E+00    0.1145547380E-02    0.2583413371E-03    0.4217687962E-02
    0.7000000000E+03    0.1738232670E-03    0.6922992259E+00    0.1744179598E-02    0.3943084482E-03    0.4161233428E-02
    0.9000000000E+03    0.2460218871E-03    0.6930850652E+00    0.2483632840E-02    0.5624343108E-03    0.4091820076E-02
    0.1100000000E+04    0.3374485171E-03    0.6935857095E+00    0.3420064016E-02    0.7755921474E-03    0.4004898869E-02
    0.1300000000E+04    0.4563391741E-03    0.6939324741E+00    0.4638519454E-02    0.1053283319E-02    0.3893469138E-02
    0.1500000000E+04    0.6156470682E-03    0.6941867949E+00    0.6272721341E-02    0.1426207224E-02    0.3746656152E-02
    0.1700000000E+04    0.8362990536E-03    0.6943812506E+00    0.8538975993E-02    0.1944106758E-02    0.3547297771E-02
    0.1900000000E+04    0.1152348806E-02    0.6945347247E+00    0.1179009820E-01    0.2688316097E-02    0.3268463903E-02
    0.2100000000E+04    0.1616385867E-02    0.6946589167E+00    0.1657325243E-01    0.3785497696E-02    0.2871152035E-02
    0.2300000000E+04    0.2291540456E-02    0.6947614612E+00    0.2355226889E-01    0.5390887370E-02    0.2316001616E-02
    0.2500000000E+04    0.3186128056E-02    0.6948475522E+00    0.3283953977E-01    0.7536292831E-02    0.1623378196E-02
    0.2700000000E+04    0.4132919615E-02    0.6949208459E+00    0.4274067915E-01    0.9839691910E-02    0.9604526181E-03
    0.2900000000E+04    0.4882060568E-02    0.6949839905E+00    0.5067785685E-01    0.1170929750E-01    0.5251527261E-03
    0.3100000000E+04    0.5382888620E-02    0.6950389512E+00    0.5609913165E-01    0.1301190362E-01    0.3203730650E-03
    0.3300000000E+04    0.5731436096E-02    0.6950872168E+00    0.5997383869E-01    0.1396531473E-01    0.2410445563E-03
    0.3500000000E+04    0.6008480617E-02    0.6951299361E+00    0.6312813547E-01    0.1475763386E-01    0.2128943570E-03
    0.3700000000E+04    0.6252568049E-02    0.6951680093E+00    0.6595802053E-01    0.1547943813E-01    0.2033884923E-03
    0.3900000000E+04    0.6479147980E-02    0.6952021521E+00    0.6862228043E-01    0.1616707754E-01    0.2004245865E-03
    0.4100000000E+04    0.6694194412E-02    0.6952329405E+00    0.7118191786E-01    0.1683444194E-01    0.1997305202E-03
    0.4300000000E+04    0.6900115240E-02    0.6952608432E+00    0.7366101481E-01    0.1748691215E-01    0.1998175584E-03
    0.4500000000E+04    0.7098003644E-02    0.6952862457E+00    0.7607002587E-01    0.1812672307E-01    0.2001667490E-03
    0.4700000000E+04    0.7288463458E-02    0.6953094678E+00    0.7841435068E-01    0.1875494524E-01    0.2005966395E-03
    0.4900000000E+04    0.7471909317E-02    0.6953307771E+00    0.8069746140E-01    0.1937220998E-01    0.2010438394E-03
    0.1000000000E+04    0.2889002731E-03    0.6933603756E+00    0.2922768149E-02    0.6623623908E-03    0.4050915420E-02
    0.3000000000E+04    0.5158323600E-02    0.6950123915E+00    0.5365120290E-01    0.1241997958E-01    0.4004074882E-03
    0.5000000000E+04    0.7561108499E-02    0.6953407863E+00    0.8181691851E-01    0.1967688002E-01    0.2012663815E-03
    0.7000000000E+04    0.9044351432E-02    0.6954803649E+00    0.1015245809E+00    0.2528271213E-01    0.2050793641E-03
    0.9000000000E+04    0.1008933847E-01    0.6955572249E+00    0.1171888960E+00    0.3013347277E-01    0.2079754686E-03
    0.1100000000E+05    0.1083405024E-01    0.6956056880E+00    0.1299264538E+00    0.3441491170E-01    0.2103150797E-03
    0.1300000000E+05    0.1136678345E-01    0.6956389236E+00    0.1404768445E+00    0.3825359527E-01    0.2122816173E-03
    0.1500000000E+05    0.1174623187E-01    0.6956630614E+00    0.1493494916E+00    0.4173913695E-01    0.2139800756E-03
    0.1700000000E+05    0.1201264891E-01    0.6956813381E+00    0.1569067773E+00    0.4493702061E-01    0.2154763041E-03
    0.1900000000E+05    0.1219437156E-01    0.6956956223E+00    0.1634135678E+00    0.4789638375E-01    0.2168143805E-03
    0.2100000000E+05    0.1231179402E-01    0.6957070676E+00    0.1690679807E+00    0.5065494079E-01    0.2180252886E-03
    0.2300000000E+05    0.1237987449E-01    0.6957164242E+00    0.1740211905E+00    0.5324220815E-01    0.2191316550E-03
    0.2500000000E+05    0.1240976470E-01    0.6957242006E+00    0.1783905742E+00    0.5568168158E-01    0.2201505173E-03
    0.2700000000E+05    0.1240989733E-01    0.6957307538E+00    0.1822686700E+00    0.5799234507E-01    0.2210950314E-03
    0.2900000000E+05    0.1238672852E-01    0.6957363415E+00    0.1857294289E+00    0.6018974096E-01    0.2219755714E-03
    0.3100000000E+05    0.1234525510E-01    0.6957411542E+00    0.1888326658E+00    0.6228674431E-01    0.2228004655E-03
    0.3300000000E+05    0.1228938154E-01    0.6957453360E+00    0.1916272894E+00    0.6429413367E-01    0.2235765024E-03
    0.3500000000E+05    0.1222218451E-01    0.6957489975E+00    0.1941536838E+00    0.6622101854E-01    0.2243092903E-03
    0.3700000000E+05    0.1214610625E-01    0.6957522253E+00    0.1964454918E+00    0.6807516431E-01    0.2250035168E-03
    0.3900000000E+05    0.1206309806E-01    0.6957550878E+00    0.1985309678E+00    0.6986324260E-01    0.2256631403E-03
    0.4100000000E+05    0.1197472769E-01    0.6957576402E+00    0.2004340167E+00    0.7159102635E-01    0.2262915348E-03
    0.4300000000E+05    0.1188226093E-01    0.6957599270E+00    0.2021750013E+00    0.7326354373E-01    0.2268915996E-03
    0.4500000000E+05    0.1178672396E-01    0.6957619849E+00    0.2037713763E+00    0.7488520063E-01    0.2274658451E-03
    0.4700000000E+05    0.1168895159E-01    0.6957638440E+00    0.2052381900E+00    0.7645987920E-01    0.2280164593E-03
    0.4900000000E+05    0.1158962479E-01    0.6957655297E+00    0.2065884859E+00    0.7799101767E-01    0.2285453611E-03
    0.1000000000E+05    0.1049283973E-01    0.6955839353E+00    0.1238705969E+00    0.3233638171E-01    0.2092008119E-03
    0.3000000000E+05    0.1236801376E-01    0.6957388348E+00    0.1873224566E+00    0.6125007450E-01    0.2223945186E-03
    0.5000000000E+05    0.1153955663E-01    0.6957663142E+00    0.2072235486E+00    0.7874122877E-01    0.2288022067E-03
    0.7000000000E+05    0.1054750374E-01    0.6957766201E+00    0.2159204069E+00    0.9205224561E-01    0.2331222096E-03
    0.9000000000E+05    0.9660820780E-02    0.6957815219E+00    0.2201265283E+00    0.1031148123E+00    0.2364015965E-03
    0.1100000000E+06    0.8901009971E-02    0.6957841118E+00    0.2221186322E+00    0.1127372826E+00    0.2390530491E-03
    0.1300000000E+06    0.8251438977E-02    0.6957855347E+00    0.2228795383E+00    0.1213407228E+00    0.2412828988E-03
    0.1500000000E+06    0.7692117833E-02    0.6957863045E+00    0.2229006421E+00    0.1291752816E+00    0.2432094933E-03
    0.1700000000E+06    0.7206001982E-02    0.6957866823E+00    0.2224533023E+00    0.1364032269E+00    0.2449071592E-03
    0.1900000000E+06    0.6779568583E-02    0.6957868130E+00    0.2216985052E+00    0.1431366558E+00    0.2464256979E-03
    0.2100000000E+06    0.6402256867E-02    0.6957867823E+00    0.2207370538E+00    0.1494567529E+00    0.2478001429E-03
    0.2300000000E+06    0.6065803505E-02    0.6957866435E+00    0.2196347666E+00    0.1554245143E+00    0.2490560935E-03
    0.2500000000E+06    0.5763689481E-02    0.6957864312E+00    0.2184360688E+00    0.1610871338E+00    0.2502128347E-03
    0.2700000000E+06    0.5490718376E-02    0.6957861684E+00    0.2171717558E+00    0.1664820132E+00    0.2512852635E-03
    0.2900000000E+06    0.5242703066E-02    0.6957858710E+00    0.2158636412E+00    0.1716393916E+00    0.2522851309E-03
    0.3100000000E+06    0.5016233990E-02    0.6957855499E+00    0.2145274484E+00    0.1765841333E+00    0.2532218730E-03
    0.3300000000E+06    0.4808506950E-02    0.6957852130E+00    0.2131746720E+00    0.1813369805E+00    0.2541031834E-03
    0.3500000000E+06    0.4617194101E-02    0.6957848659E+00    0.2118138088E+00    0.1859154543E+00    0.2549354192E-03
    0.3700000000E+06    0.4440346313E-02    0.6957845129E+00    0.2104511930E+00    0.1903345171E+00    0.2557238947E-03
    0.3900000000E+06    0.4276318520E-02    0.6957841569E+00    0.2090915746E+00    0.1946070702E+00    0.2564730985E-03
    0.4100000000E+06    0.4123712049E-02    0.6957838002E+00    0.2077385274E+00    0.1987443323E+00    0.2571868568E-03
    0.4300000000E+06    0.3981329618E-02    0.6957834443E+00    0.2063947421E+00    0.2027561346E+00    0.2578684581E-03
    0.4500000000E+06    0.3848139885E-02    0.6957830907E+00    0.2050622396E+00    0.2066511507E+00    0.2585207499E-03
    0.4700000000E+06    0.3723249270E-02    0.6957827401E+00    0.2037425285E+00    0.2104370810E+00    0.2591462144E-03
    0.4900000000E+06    0.3605879366E-02    0.6957823932E+00    0.2024367224E+00    0.2141208001E+00    0.2597470289E-03
    0.1000000000E+06    0.9265857550E-02    0.6957830119E+00    0.2213212093E+00    0.1080742295E+00    0.2377900497E-03
    0.3000000000E+06    0.5126963010E-02    0.6957857128E+00    0.2151982539E+00    0.1741369610E+00    0.2527608764E-03
    0.5000000000E+06    0.3549798355E-02    0.6957822214E+00    0.2017892961E+00    0.2159262830E+00    0.2600388013E-03
    0.7000000000E+06    0.2695041072E-02    0.6957790393E+00    0.1896664934E+00    0.2478861613E+00    0.2649466442E-03
    0.9000000000E+06    0.2153548417E-02    0.6957763290E+00    0.1790546206E+00    0.2740420611E+00    0.2686726525E-03
    0.1100000000E+07    0.1778755454E-02    0.6957739990E+00    0.1697197437E+00    0.2962373709E+00    0.2716853798E-03
    0.1300000000E+07    0.1503995383E-02    0.6957719631E+00    0.1614322839E+00    0.3155089991E+00    0.2742191495E-03
    0.1500000000E+07    0.1294234113E-02    0.6957701575E+00    0.1540094292E+00    0.3325127035E+00    0.2764083850E-03
    0.1700000000E+07    0.1129174927E-02    0.6957685360E+00    0.1473093474E+00    0.3476960212E+00    0.2783375172E-03
    0.1900000000E+07    0.9961990266E-03    0.6957670646E+00    0.1412212473E+00    0.3613811754E+00    0.2800631221E-03
    0.2100000000E+07    0.8870292228E-03    0.6957657177E+00    0.1356573481E+00    0.3738095384E+00    0.2816250007E-03
    0.2300000000E+07    0.7960025341E-03    0.6957644756E+00    0.1305470434E+00    0.3851675132E+00    0.2830522372E-03
    0.2500000000E+07    0.7191104203E-03    0.6957633230E+00    0.1258327314E+00    0.3956025692E+00    0.2843667426E-03
    0.2700000000E+07    0.6534346199E-03    0.6957622478E+00    0.1214668164E+00    0.4052336826E+00    0.2855854430E-03
    0.2900000000E+07    0.5967998961E-03    0.6957612399E+00    0.1174095220E+00    0.4141584112E+00    0.2867216902E-03
    0.3100000000E+07    0.5475519249E-03    0.6957602913E+00    0.1136272701E+00    0.4224578486E+00    0.2877862059E-03
    0.3300000000E+07    0.5044105297E-03    0.6957593953E+00    0.1100914602E+00    0.4302001930E+00    0.2887877320E-03
    0.3500000000E+07    0.4663699558E-03    0.6957585462E+00    0.1067775366E+00    0.4374433775E+00    0.2897334920E-03
    0.3700000000E+07    0.4326294460E-03    0.6957577393E+00    0.1036642646E+00    0.4442370497E+00    0.2906295246E-03
    0.3900000000E+07    0.4025438730E-03    0.6957569705E+00    0.1007331629E+00    0.4506240873E+00    0.2914809300E-03
    0.4100000000E+07    0.3755879678E-03    0.6957562362E+00    0.9796805231E-01    0.4566417776E+00    0.2922920561E-03
    0.4300000000E+07    0.3513299642E-03    0.6957555334E+00    0.9535469378E-01    0.4623227467E+00    0.2930666398E-03
    0.4500000000E+07    0.3294118864E-03    0.6957548596E+00    0.9288049478E-01    0.4676957013E+00    0.2938079167E-03
    0.4700000000E+07    0.3095346055E-03    0.6957542122E+00    0.9053426928E-01    0.4727860273E+00    0.2945187074E-03
    0.4900000000E+07    0.2914463713E-03    0.6957535893E+00    0.8830603992E-01    0.4776162777E+00    0.2952014860E-03
    0.1000000000E+07    0.1950540545E-02    0.6957751224E+00    0.1742429666E+00    0.2855579853E+00    0.2702502735E-03
    0.3000000000E+07    0.5713399979E-03    0.6957607586E+00    0.1154859078E+00    0.4183817612E+00    0.2872623279E-03
    0.5000000000E+07    0.2830051980E-03    0.6957532865E+00    0.8723334531E-01    0.4799402477E+00    0.2955330627E-03
    0.7000000000E+07    0.1702566806E-03    0.6957481622E+00    0.7023000684E-01    0.5166723177E+00    0.3011104660E-03
    0.9000000000E+07    0.1139719388E-03    0.6957442411E+00    0.5880408911E-01    0.5412616536E+00    0.3053448179E-03
    0.1100000000E+08    0.8171456024E-04    0.6957410558E+00    0.5058049481E-01    0.5589215989E+00    0.3087685809E-03
    0.1300000000E+08    0.6147736024E-04    0.6957383688E+00    0.4437297524E-01    0.5722340261E+00    0.3116480428E-03
    0.1500000000E+08    0.4793684134E-04    0.6957360421E+00    0.3951922236E-01    0.5826335512E+00    0.3141359650E-03
    0.1700000000E+08    0.3842788327E-04    0.6957339884E+00    0.3561926329E-01    0.5909838954E+00    0.3163282970E-03
    0.1900000000E+08    0.3149299931E-04    0.6957321490E+00    0.3241690102E-01    0.5978371318E+00    0.3182893333E-03
    0.2100000000E+08    0.2627943780E-04    0.6957304825E+00    0.2974029492E-01    0.6035629837E+00    0.3200643052E-03
    0.2300000000E+08    0.2226085151E-04    0.6957289582E+00    0.2746982232E-01    0.6084185238E+00    0.3216862648E-03
    0.2500000000E+08    0.1909791127E-04    0.6957275534E+00    0.2551961799E-01    0.6125881096E+00    0.3231801126E-03
    0.2700000000E+08    0.1656380337E-04    0.6957262502E+00    0.2382643877E-01    0.6162074281E+00    0.3245650840E-03
