  Pressure (Pa) 22mC5-500 (mol/kg) 24mC5-500 (mol/kg) 2mC6-500 (mol/kg) 3mC6-500 (mol/kg) C7-500 (mol/kg)
    0.1000000000E+01    0.3657578768E-05    0.2321354050E+00    0.7127599343E-05    0.5104404280E-05    0.4145076975E-02
    0.3000000000E+01    0.6083117875E-05    0.4177428682E+00    0.1141948805E-04    0.1259892966E-04    0.4167818383E-02
    0.5000000000E+01    0.7016077590E-05    0.4972629877E+00    0.1334172054E-04    0.1939549164E-04    0.4172814233E-02
    0.7000000000E+01    0.7578515403E-05    0.5414346294E+00    0.1489853658E-04    0.2586326583E-04    0.4174734921E-02
    0.9000000000E+01    0.8019842090E-05    0.5695417201E+00    0.1641895948E-04    0.3212418607E-04    0.4175523433E-02
    0.1100000000E+02    0.8417669121E-05    0.5889995704E+00    0.1796872388E-04    0.3823857956E-04    0.4175767142E-02
    0.1300000000E+02    0.8800739508E-05    0.6032682219E+00    0.1955703380E-04    0.4424207031E-04    0.4175707636E-02
    0.1500000000E+02    0.9180748305E-05    0.6141793094E+00    0.2117997958E-04    0.5015799017E-04    0.4175462957E-02
    0.1700000000E+02    0.9562632372E-05    0.6227931914E+00    0.2283132504E-04    0.5600270858E-04    0.4175097642E-02
    0.1900000000E+02    0.9948419068E-05    0.6297662525E+00    0.2450528096E-04    0.6178829040E-04    0.4174649903E-02
    0.2100000000E+02    0.1033881929E-04    0.6355265555E+00    0.2619708875E-04    0.6752396424E-04    0.4174143760E-02
    0.2300000000E+02    0.1073393620E-04    0.6403651759E+00    0.2790299643E-04    0.7321699719E-04    0.4173595029E-02
    0.2500000000E+02    0.1113359694E-04    0.6444869405E+00    0.2962008973E-04    0.7887324700E-04    0.4173014516E-02
    0.2700000000E+02    0.1153751295E-04    0.6480401698E+00    0.3134611468E-04    0.8449752695E-04    0.4172409836E-02
    0.2900000000E+02    0.1194535856E-04    0.6511349063E+00    0.3307932755E-04    0.9009385625E-04    0.4171786490E-02
    0.3100000000E+02    0.1235680925E-04    0.6538545149E+00    0.3481837649E-04    0.9566563732E-04    0.4171148536E-02
    0.3300000000E+02    0.1277155935E-04    0.6562633048E+00    0.3656221077E-04    0.1012157846E-03    0.4170499025E-02
    0.3500000000E+02    0.1318932944E-04    0.6584116803E+00    0.3831001194E-04    0.1067468203E-03    0.4169840282E-02
    0.3700000000E+02    0.1360986828E-04    0.6603397059E+00    0.4006114158E-04    0.1122609469E-03    0.4169174109E-02
    0.3900000000E+02    0.1403295218E-04    0.6620796288E+00    0.4181510163E-04    0.1177601034E-03    0.4168501913E-02
    0.4100000000E+02    0.1445838305E-04    0.6636576961E+00    0.4357150405E-04    0.1232460088E-03    0.4167824806E-02
    0.4300000000E+02    0.1488598603E-04    0.6650954890E+00    0.4533004753E-04    0.1287201972E-03    0.4167143676E-02
    0.4500000000E+02    0.1531560701E-04    0.6664109151E+00    0.4709049953E-04    0.1341840453E-03    0.4166459234E-02
    0.4700000000E+02    0.1574711024E-04    0.6676189584E+00    0.4885268221E-04    0.1396387954E-03    0.4165772057E-02
    0.4900000000E+02    0.1618037614E-04    0.6687322522E+00    0.5061646151E-04    0.1450855739E-03    0.4165082611E-02
    0.1000000000E+02    0.8221795622E-05    0.5800814773E+00    0.1718905492E-04    0.3519709148E-04    0.4175694029E-02
    0.3000000000E+02    0.1215065294E-04    0.6525372054E+00    0.3394819434E-04    0.9288262298E-04    0.4171469129E-02
    0.5000000000E+02    0.1639763663E-04    0.6692567845E+00    0.5149891781E-04    0.1478062980E-03    0.4164737161E-02
    0.7000000000E+02    0.2081566883E-04    0.6766876375E+00    0.6922017747E-04    0.2020102504E-03    0.4157772015E-02
    0.9000000000E+02    0.2534406984E-04    0.6808876642E+00    0.8708984582E-04    0.2561970940E-03    0.4150764101E-02
    0.1100000000E+03    0.2996531244E-04    0.6835876686E+00    0.1051473472E-03    0.3107322669E-03    0.4143734166E-02
    0.1300000000E+03    0.3467559899E-04    0.6854694798E+00    0.1234353720E-03    0.3658467907E-03    0.4136673730E-02
    0.1500000000E+03    0.3947621164E-04    0.6868560690E+00    0.1419922362E-03    0.4217058621E-03    0.4129568844E-02
    0.1700000000E+03    0.4437054180E-04    0.6879201882E+00    0.1608517985E-03    0.4784383942E-03    0.4122405356E-02
    0.1900000000E+03    0.4936294135E-04    0.6887626096E+00    0.1800444853E-03    0.5361517861E-03    0.4115170081E-02
    0.2100000000E+03    0.5445824389E-04    0.6894460778E+00    0.1995982785E-03    0.5949401138E-03    0.4107850931E-02
    0.2300000000E+03    0.5966155848E-04    0.6900117017E+00    0.2195394956E-03    0.6548890458E-03    0.4100436763E-02
    0.2500000000E+03    0.6497818293E-04    0.6904875395E+00    0.2398933797E-03    0.7160789823E-03    0.4092917185E-02
    0.2700000000E+03    0.7041357241E-04    0.6908933972E+00    0.2606845485E-03    0.7785871711E-03    0.4085282372E-02
    0.2900000000E+03    0.7597333467E-04    0.6912436544E+00    0.2819373392E-03    0.8424892015E-03    0.4077522908E-02
    0.3100000000E+03    0.8166323846E-04    0.6915490035E+00    0.3036760828E-03    0.9078601063E-03    0.4069629657E-02
    0.3300000000E+03    0.8748922864E-04    0.6918175606E+00    0.3259253256E-03    0.9747752083E-03    0.4061593653E-02
    0.3500000000E+03    0.9345744472E-04    0.6920555971E+00    0.3487100151E-03    0.1043310798E-02    0.4053406015E-02
    0.3700000000E+03    0.9957424130E-04    0.6922680359E+00    0.3720556606E-03    0.1113544693E-02    0.4045057866E-02
    0.3900000000E+03    0.1058462097E-03    0.6924587949E+00    0.3959884758E-03    0.1185556729E-02    0.4036540269E-02
    0.4100000000E+03    0.1122802004E-03    0.6926310315E+00    0.4205355087E-03    0.1259429182E-02    0.4027844171E-02
    0.4300000000E+03    0.1188833461E-03    0.6927873183E+00    0.4457247640E-03    0.1335247173E-02    0.4018960352E-02
    0.4500000000E+03    0.1256630859E-03    0.6929297727E+00    0.4715853204E-03    0.1413099040E-02    0.4009879375E-02
    0.4700000000E+03    0.1326271897E-03    0.6930601529E+00    0.4981474457E-03    0.1493076699E-02    0.4000591544E-02
    0.4900000000E+03    0.1397837846E-03    0.6931799316E+00    0.5254427113E-03    0.1575276008E-02    0.3991086862E-02
    0.1000000000E+03    0.2764349948E-04    0.6823700212E+00    0.9609236781E-04    0.2834046450E-03    0.4147252168E-02
    0.3000000000E+03    0.7880165165E-04    0.6914013848E+00    0.2927444402E-03    0.8749863524E-03    0.4073593569E-02
    0.5000000000E+03    0.1434369100E-03    0.6932362413E+00    0.5393755227E-03    0.1617239902E-02    0.3986249987E-02
    0.7000000000E+03    0.2289696214E-03    0.6940254884E+00    0.8656566609E-03    0.2600889468E-02    0.3875326457E-02
    0.9000000000E+03    0.3473793825E-03    0.6944646710E+00    0.1317780878E-02    0.3966271024E-02    0.3727021033E-02
    0.1100000000E+04    0.5196739456E-03    0.6947443960E+00    0.1976600243E-02    0.5959420160E-02    0.3518382549E-02
    0.1300000000E+04    0.7844205574E-03    0.6949381517E+00    0.2990818646E-02    0.9033962987E-02    0.3209221197E-02
    0.1500000000E+04    0.1211157324E-02    0.6950802836E+00    0.4629635368E-02    0.1401445555E-01    0.2732146826E-02
    0.1700000000E+04    0.1896043765E-02    0.6951889928E+00    0.7269332037E-02    0.2206547021E-01    0.2010861579E-02
    0.1900000000E+04    0.2826689425E-02    0.6952748244E+00    0.1087817541E-01    0.3313822482E-01    0.1121001249E-02
    0.2100000000E+04    0.3682300571E-02    0.6953443099E+00    0.1423571595E-01    0.4355862855E-01    0.4430111037E-03
    0.2300000000E+04    0.4238616838E-02    0.6954017107E+00    0.1646913988E-01    0.5064024570E-01    0.1495565332E-03
    0.2500000000E+04    0.4604682962E-02    0.6954499256E+00    0.1798457958E-01    0.5558016050E-01    0.6017220435E-04
    0.2700000000E+04    0.4895778072E-02    0.6954909949E+00    0.1922143201E-01    0.5970425712E-01    0.3631007839E-04
    0.2900000000E+04    0.5156652352E-02    0.6955263966E+00    0.2035110897E-01    0.6353249240E-01    0.3020283144E-04
    0.3100000000E+04    0.5401029953E-02    0.6955572272E+00    0.2142601719E-01    0.6722354591E-01    0.2869914476E-04
    0.3300000000E+04    0.5633106176E-02    0.6955843176E+00    0.2246181862E-01    0.7082394073E-01    0.2837917457E-04
    0.3500000000E+04    0.5854389104E-02    0.6956083090E+00    0.2346378477E-01    0.7434838243E-01    0.2836233063E-04
    0.3700000000E+04    0.6065632122E-02    0.6956297039E+00    0.2443428072E-01    0.7780269438E-01    0.2842129028E-04
    0.3900000000E+04    0.6267364506E-02    0.6956489016E+00    0.2537482895E-01    0.8119017106E-01    0.2849715332E-04
    0.4100000000E+04    0.6460037017E-02    0.6956662237E+00    0.2628667687E-01    0.8451333021E-01    0.2857472314E-04
    0.4300000000E+04    0.6644062667E-02    0.6956819321E+00    0.2717095495E-01    0.8777439970E-01    0.2865021803E-04
    0.4500000000E+04    0.6819828886E-02    0.6956962418E+00    0.2802872274E-01    0.9097545645E-01    0.2872284406E-04
    0.4700000000E+04    0.6987701802E-02    0.6957093314E+00    0.2886098381E-01    0.9411846905E-01    0.2879257831E-04
    0.4900000000E+04    0.7148028303E-02    0.6957213505E+00    0.2966869213E-01    0.9720531344E-01    0.2885958290E-04
    0.1000000000E+04    0.4249313886E-03    0.6946184974E+00    0.1614191953E-02    0.4862556413E-02    0.3632227743E-02
    0.3000000000E+04    0.5280536521E-02    0.6955423261E+00    0.2089402624E-01    0.6539102236E-01    0.2919032044E-04
    0.5000000000E+04    0.7225465132E-02    0.6957269987E+00    0.3006362451E-01    0.9872823544E-01    0.2889212206E-04
    0.7000000000E+04    0.8449552467E-02    0.6958060042E+00    0.3687237942E-01    0.1266334405E+00    0.2943916217E-04
    0.9000000000E+04    0.9205474647E-02    0.6958498072E+00    0.4203257769E-01    0.1505399030E+00    0.2985414549E-04
    0.1100000000E+05    0.9648640531E-02    0.6958776218E+00    0.4600004179E-01    0.1713912850E+00    0.3018953710E-04
    0.1300000000E+05    0.9878793577E-02    0.6958968351E+00    0.4908099830E-01    0.1898424458E+00    0.3047152820E-04
    0.1500000000E+05    0.9961906600E-02    0.6959108925E+00    0.5148826710E-01    0.2063635151E+00    0.3071512708E-04
    0.1700000000E+05    0.9942702158E-02    0.6959216173E+00    0.5337401980E-01    0.2213018158E+00    0.3092975324E-04
    0.1900000000E+05    0.9852115580E-02    0.6959300641E+00    0.5484972434E-01    0.2349203124E+00    0.3112171514E-04
    0.2100000000E+05    0.9711902399E-02    0.6959368855E+00    0.5599874436E-01    0.2474223663E+00    0.3129544894E-04
    0.2300000000E+05    0.9537569561E-02    0.6959425069E+00    0.5688455566E-01    0.2589681824E+00    0.3145419530E-04
    0.2500000000E+05    0.9340289269E-02    0.6959472172E+00    0.5755625487E-01    0.2696860379E+00    0.3160039497E-04
    0.2700000000E+05    0.9128177113E-02    0.6959512197E+00    0.5805234365E-01    0.2796801355E+00    0.3173593302E-04
    0.2900000000E+05    0.8907162731E-02    0.6959546615E+00    0.5840338492E-01    0.2890362147E+00    0.3186229622E-04
    0.3100000000E+05    0.8681593335E-02    0.6959576516E+00    0.5863390338E-01    0.2978256377E+00    0.3198067824E-04
    0.3300000000E+05    0.8454658577E-02    0.6959602725E+00    0.5876376909E-01    0.3061084168E+00    0.3209205228E-04
    0.3500000000E+05    0.8228693772E-02    0.6959625879E+00    0.5880922034E-01    0.3139354922E+00    0.3219722235E-04
    0.3700000000E+05    0.8005398951E-02    0.6959646477E+00    0.5878363065E-01    0.3213504707E+00    0.3229686056E-04
    0.3900000000E+05    0.7785998846E-02    0.6959664914E+00    0.5869809119E-01    0.3283909688E+00    0.3239153453E-04
    0.4100000000E+05    0.7571360869E-02    0.6959681508E+00    0.5856185838E-01    0.3350896646E+00    0.3248172808E-04
    0.4300000000E+05    0.7362082851E-02    0.6959696519E+00    0.5838270141E-01    0.3414751285E+00    0.3256785703E-04
    0.4500000000E+05    0.7158558807E-02    0.6959710159E+00    0.5816717486E-01    0.3475724872E+00    0.3265028141E-04
    0.4700000000E+05    0.6961028552E-02    0.6959722605E+00    0.5792083435E-01    0.3534039587E+00    0.3272931504E-04
    0.4900000000E+05    0.6769615347E-02    0.6959734003E+00    0.5764840874E-01    0.3589892880E+00    0.3280523318E-04
    0.1000000000E+05    0.9458930757E-02    0.6958651128E+00    0.4414356558E-01    0.1613012707E+00    0.3002978844E-04
    0.3000000000E+05    0.8794724965E-02    0.6959562073E+00    0.5853237198E-01    0.2934977712E+00    0.3192241957E-04
    0.5000000000E+05    0.6676216502E-02    0.6959739350E+00    0.5750370034E-01    0.3616952322E+00    0.3284210093E-04
    0.7000000000E+05    0.5111820832E-02    0.6959813238E+00    0.5396059232E-01    0.4063259010E+00    0.3346222643E-04
    0.9000000000E+05    0.4012524318E-02    0.6959853112E+00    0.5011764210E-01    0.4386131744E+00    0.3393300455E-04
    0.1100000000E+06    0.3225447324E-02    0.6959877728E+00    0.4650827828E-01    0.4633430694E+00    0.3431365303E-04
    0.1300000000E+06    0.2646407492E-02    0.6959894240E+00    0.4325398981E-01    0.4830134701E+00    0.3463378341E-04
    0.1500000000E+06    0.2209257244E-02    0.6959905955E+00    0.4035675557E-01    0.4990919520E+00    0.3491038179E-04
    0.1700000000E+06    0.1871599034E-02    0.6959914611E+00    0.3778375638E-01    0.5125110859E+00    0.3515411663E-04
    0.1900000000E+06    0.1605562394E-02    0.6959921202E+00    0.3549481823E-01    0.5238977089E+00    0.3537213651E-04
    0.2100000000E+06    0.1392316729E-02    0.6959926342E+00    0.3345151420E-01    0.5336914428E+00    0.3556947036E-04
    0.2300000000E+06    0.1218804283E-02    0.6959930423E+00    0.3161987311E-01    0.5422110926E+00    0.3574979292E-04
    0.2500000000E+06    0.1075753917E-02    0.6959933714E+00    0.2997079030E-01    0.5496942062E+00    0.3591587262E-04
    0.2700000000E+06    0.9564420169E-03    0.6959936398E+00    0.2847964436E-01    0.5563218155E+00    0.3606984799E-04
    0.2900000000E+06    0.8558991607E-03    0.6959938609E+00    0.2712569052E-01    0.5622345358E+00    0.3621340599E-04
    0.3100000000E+06    0.7703895606E-03    0.6959940446E+00    0.2589144539E-01    0.5675433901E+00    0.3634790123E-04
    0.3300000000E+06    0.6970616681E-03    0.6959941980E+00    0.2476213683E-01    0.5723372929E+00    0.3647443822E-04
    0.3500000000E+06    0.6337087495E-03    0.6959943268E+00    0.2372523695E-01    0.5766883488E+00    0.3659392960E-04
    0.3700000000E+06    0.5786016905E-03    0.6959944354E+00    0.2277007532E-01    0.5806556825E+00    0.3670713829E-04
    0.3900000000E+06    0.5303702115E-03    0.6959945272E+00    0.2188752195E-01    0.5842882586E+00    0.3681470871E-04
    0.4100000000E+06    0.4879171366E-03    0.6959946049E+00    0.2106972873E-01    0.5876269907E+00    0.3691719016E-04
    0.4300000000E+06    0.4503556226E-03    0.6959946706E+00    0.2030991843E-01    0.5907063426E+00    0.3701505476E-04
    0.4500000000E+06    0.4169625861E-03    0.6959947263E+00    0.1960221253E-01    0.5935555591E+00    0.3710871132E-04
    0.4700000000E+06    0.3871437263E-03    0.6959947732E+00    0.1894148996E-01    0.5961996242E+00    0.3719851620E-04
    0.4900000000E+06    0.3604069591E-03    0.6959948127E+00    0.1832327111E-01    0.5986600134E+00    0.3728478197E-04
    0.1000000000E+06    0.3587560857E-02    0.6959866745E+00    0.4827163103E-01    0.4517336226E+00    0.3413233257E-04
    0.3000000000E+06    0.8114609179E-03    0.6959939569E+00    0.2649458529E-01    0.5649584415E+00    0.3628171234E-04
    0.5000000000E+06    0.3480634171E-03    0.6959948300E+00    0.1802885214E-01    0.5998272313E+00    0.3732667512E-04
    0.7000000000E+06    0.1921598723E-03    0.6959949587E+00    0.1363137018E-01    0.6169396966E+00    0.3803135693E-04
    0.9000000000E+06    0.1215301957E-03    0.6959948925E+00    0.1094691154E-01    0.6271193903E+00    0.3856635442E-04
    0.1100000000E+07    0.8369101542E-04    0.6959947616E+00    0.9140079080E-02    0.6338710584E+00    0.3899893968E-04
    0.1300000000E+07    0.6109911162E-04    0.6959946089E+00    0.7841882306E-02    0.6386766464E+00    0.3936275595E-04
    0.1500000000E+07    0.4654545651E-04    0.6959944509E+00    0.6864488576E-02    0.6422712957E+00    0.3967710346E-04
    0.1700000000E+07    0.3662659739E-04    0.6959942946E+00    0.6102304910E-02    0.6450612668E+00    0.3995410468E-04
    0.1900000000E+07    0.2956613749E-04    0.6959941429E+00    0.5491446034E-02    0.6472893828E+00    0.4020188278E-04
    0.2100000000E+07    0.2436350570E-04    0.6959939970E+00    0.4991008103E-02    0.6491097123E+00    0.4042615243E-04
    0.2300000000E+07    0.2042030804E-04    0.6959938574E+00    0.4573594872E-02    0.6506247248E+00    0.4063108957E-04
    0.2500000000E+07    0.1736090803E-04    0.6959937238E+00    0.4220171026E-02    0.6519052218E+00    0.4081984024E-04
    0.2700000000E+07    0.1493987805E-04    0.6959935962E+00    0.3917100903E-02    0.6530016918E+00    0.4099483470E-04
    0.2900000000E+07    0.1299138252E-04    0.6959934742E+00    0.3654361946E-02    0.6539511067E+00    0.4115799006E-04
    0.3100000000E+07    0.1140010912E-04    0.6959933573E+00    0.3424423122E-02    0.6547811602E+00    0.4131084575E-04
    0.3300000000E+07    0.1008386963E-04    0.6959932454E+00    0.3221516521E-02    0.6555130062E+00    0.4145465701E-04
    0.3500000000E+07    0.8982808671E-05    0.6959931379E+00    0.3041150260E-02    0.6561630811E+00    0.4159046098E-04
    0.3700000000E+07    0.8052500994E-05    0.6959930346E+00    0.2879774345E-02    0.6567443491E+00    0.4171912473E-04
    0.3900000000E+07    0.7259414849E-05    0.6959929353E+00    0.2734546251E-02    0.6572671727E+00    0.4184138058E-04
    0.4100000000E+07    0.6577858143E-05    0.6959928396E+00    0.2603163170E-02    0.6577399342E+00    0.4195785283E-04
    0.4300000000E+07    0.5987878387E-05    0.6959927473E+00    0.2483739801E-02    0.6581694872E+00    0.4206907801E-04
    0.4500000000E+07    0.5473790645E-05    0.6959926582E+00    0.2374717897E-02    0.6585614891E+00    0.4217552073E-04
    0.4700000000E+07    0.5023127712E-05    0.6959925720E+00    0.2274798343E-02    0.6589206519E+00    0.4227758600E-04
    0.4900000000E+07    0.4625879615E-05    0.6959924886E+00    0.2182889474E-02    0.6592509312E+00    0.4237562904E-04
    0.1000000000E+07    0.9998557577E-04    0.6959948315E+00    0.9962974343E-02    0.6308055476E+00    0.3879287818E-04
    0.3000000000E+07    0.1215685577E-04    0.6959934151E+00    0.3535687713E-02    0.6543796030E+00    0.4123562113E-04
    0.5000000000E+07    0.4444689261E-05    0.6959924479E+00    0.2139644642E-02    0.6594063054E+00    0.4242324159E-04
    0.7000000000E+07    0.2281977810E-05    0.6959917447E+00    0.1531188266E-02    0.6615908192E+00    0.4322413035E-04
    0.9000000000E+07    0.1385815838E-05    0.6959911916E+00    0.1190975999E-02    0.6628114148E+00    0.4383216972E-04
    0.1100000000E+08    0.9306198621E-06    0.6959907347E+00    0.9738421260E-03    0.6635904104E+00    0.4432381516E-04
    0.1300000000E+08    0.6682963152E-06    0.6959903447E+00    0.8233104721E-03    0.6641305832E+00    0.4473730285E-04
    0.1500000000E+08    0.5035013233E-06    0.6959900041E+00    0.7128547046E-03    0.6645270788E+00    0.4509456790E-04
    0.1700000000E+08    0.3932639902E-06    0.6959897014E+00    0.6283751218E-03    0.6648304450E+00    0.4540938783E-04
    0.1900000000E+08    0.3159100325E-06    0.6959894287E+00    0.5616873177E-03    0.6650700162E+00    0.4569099483E-04
    0.2100000000E+08    0.2595477591E-06    0.6959891804E+00    0.5077157807E-03    0.6652639828E+00    0.4594588377E-04
    0.2300000000E+08    0.2172118591E-06    0.6959889523E+00    0.4631463730E-03    0.6654242228E+00    0.4617880073E-04
    0.2500000000E+08    0.1846031971E-06    0.6959887414E+00    0.4257235987E-03    0.6655588205E+00    0.4639332127E-04
    0.2700000000E+08    0.1589518683E-06    0.6959885450E+00    0.3938593567E-03    0.6656734690E+00    0.4659220746E-04
