  Pressure (Pa) 22mC5-500 (mol/kg) 24mC5-500 (mol/kg) 2mC6-500 (mol/kg) 3mC6-500 (mol/kg) C7-500 (mol/kg)
    0.1000000000E+01    0.4698318508E-05    0.9949331537E-01    0.3030878354E-05    0.3544314179E-05    0.4241022611E-02
    0.3000000000E+01    0.1039088723E-04    0.2320765643E+00    0.6421099732E-05    0.9208185605E-05    0.4346036600E-02
    0.5000000000E+01    0.1361577492E-04    0.3164035984E+00    0.8173995383E-05    0.1445122585E-04    0.4412969125E-02
    0.7000000000E+01    0.1562597615E-04    0.3747638508E+00    0.9198948720E-05    0.1948895267E-04    0.4459881103E-02
    0.9000000000E+01    0.1697046639E-04    0.4175510014E+00    0.9868067322E-05    0.2439488163E-04    0.4494741145E-02
    0.1100000000E+02    0.1792265948E-04    0.4502646726E+00    0.1035352321E-04    0.2920602321E-04    0.4521751400E-02
    0.1300000000E+02    0.1863136499E-04    0.4760876274E+00    0.1074177188E-04    0.3394450047E-04    0.4543350187E-02
    0.1500000000E+02    0.1918307500E-04    0.4969895684E+00    0.1107879665E-04    0.3862493952E-04    0.4561053020E-02
    0.1700000000E+02    0.1963066890E-04    0.5142547872E+00    0.1139006337E-04    0.4325768041E-04    0.4575852956E-02
    0.1900000000E+02    0.2000779483E-04    0.5287564387E+00    0.1169005798E-04    0.4785039299E-04    0.4588428697E-02
    0.2100000000E+02    0.2033656463E-04    0.5411088708E+00    0.1198713943E-04    0.5240897626E-04    0.4599260358E-02
    0.2300000000E+02    0.2063189613E-04    0.5517568988E+00    0.1228613557E-04    0.5693809760E-04    0.4608697467E-02
    0.2500000000E+02    0.2090407352E-04    0.5610305106E+00    0.1258978881E-04    0.6144153503E-04    0.4617000755E-02
    0.2700000000E+02    0.2116031395E-04    0.5691796735E+00    0.1289958852E-04    0.6592240451E-04    0.4624368818E-02
    0.2900000000E+02    0.2140575673E-04    0.5763972037E+00    0.1321626326E-04    0.7038331659E-04    0.4630955696E-02
    0.3100000000E+02    0.2164410502E-04    0.5828342164E+00    0.1354007829E-04    0.7482648776E-04    0.4636882781E-02
    0.3300000000E+02    0.2187805214E-04    0.5886108212E+00    0.1387101864E-04    0.7925382166E-04    0.4642247091E-02
    0.3500000000E+02    0.2210957056E-04    0.5938236863E+00    0.1420890309E-04    0.8366696966E-04    0.4647127138E-02
    0.3700000000E+02    0.2234011156E-04    0.5985514909E+00    0.1455345583E-04    0.8806737694E-04    0.4651587176E-02
    0.3900000000E+02    0.2257074524E-04    0.6028589240E+00    0.1490435163E-04    0.9245631808E-04    0.4655680320E-02
    0.4100000000E+02    0.2280226025E-04    0.6067996615E+00    0.1526124434E-04    0.9683492507E-04    0.4659450884E-02
    0.4300000000E+02    0.2303523570E-04    0.6104186139E+00    0.1562378463E-04    0.1012042095E-03    0.4662936146E-02
    0.4500000000E+02    0.2327009359E-04    0.6137536460E+00    0.1599163087E-04    0.1055650805E-03    0.4666167705E-02
    0.4700000000E+02    0.2350713744E-04    0.6168369057E+00    0.1636445555E-04    0.1099183594E-03    0.4669172535E-02
    0.4900000000E+02    0.2374658105E-04    0.6196958644E+00    0.1674194880E-04    0.1142647915E-03    0.4671973806E-02
    0.1000000000E+02    0.1748434719E-04    0.4349307778E+00    0.1012705224E-04    0.2681068691E-04    0.4509046723E-02
    0.3000000000E+02    0.2152562960E-04    0.5797051421E+00    0.1337727419E-04    0.7260699427E-04    0.4633995156E-02
    0.5000000000E+02    0.2386725046E-04    0.6210487423E+00    0.1693235457E-04    0.1164356546E-03    0.4673304473E-02
    0.7000000000E+02    0.2642081295E-04    0.6406280441E+00    0.2092557125E-04    0.1596312951E-03    0.4692911615E-02
    0.9000000000E+02    0.2921821575E-04    0.6520472864E+00    0.2516423432E-04    0.2026590973E-03    0.4704522191E-02
    0.1100000000E+03    0.3220863313E-04    0.6595276709E+00    0.2956020018E-04    0.2457595487E-03    0.4711973845E-02
    0.1300000000E+03    0.3535214913E-04    0.6648071409E+00    0.3407232737E-04    0.2890818433E-03    0.4716928298E-02
    0.1500000000E+03    0.3862216700E-04    0.6687323159E+00    0.3868036704E-04    0.3327295972E-03    0.4720233913E-02
    0.1700000000E+03    0.4200125562E-04    0.6717649567E+00    0.4337413568E-04    0.3767807148E-03    0.4722374151E-02
    0.1900000000E+03    0.4547792290E-04    0.6741783339E+00    0.4814867885E-04    0.4212973788E-03    0.4723647118E-02
    0.2100000000E+03    0.4904455702E-04    0.6761444976E+00    0.5300193655E-04    0.4663316076E-03    0.4724247829E-02
    0.2300000000E+03    0.5269614336E-04    0.6777771696E+00    0.5793353941E-04    0.5119285858E-03    0.4724309859E-02
    0.2500000000E+03    0.5642945445E-04    0.6791545301E+00    0.6294415356E-04    0.5581287808E-03    0.4723928098E-02
    0.2700000000E+03    0.6024252710E-04    0.6803320955E+00    0.6803510809E-04    0.6049693522E-03    0.4723171974E-02
    0.2900000000E+03    0.6413431695E-04    0.6813503760E+00    0.7320817570E-04    0.6524851282E-03    0.4722093523E-02
    0.3100000000E+03    0.6810446503E-04    0.6822396246E+00    0.7846544002E-04    0.7007093056E-03    0.4720732533E-02
    0.3300000000E+03    0.7215313689E-04    0.6830228900E+00    0.8380921361E-04    0.7496739668E-03    0.4719119919E-02
    0.3500000000E+03    0.7628090967E-04    0.6837180409E+00    0.8924198694E-04    0.7994104728E-03    0.4717280033E-02
    0.3700000000E+03    0.8048869178E-04    0.6843391432E+00    0.9476639632E-04    0.8499497692E-03    0.4715232258E-02
    0.3900000000E+03    0.8477766493E-04    0.6848974210E+00    0.1003852042E-03    0.9013226303E-03    0.4712992155E-02
    0.4100000000E+03    0.8914924204E-04    0.6854019392E+00    0.1061012873E-03    0.9535598589E-03    0.4710572291E-02
    0.4300000000E+03    0.9360503639E-04    0.6858600992E+00    0.1119176302E-03    0.1006692453E-02    0.4707982856E-02
    0.4500000000E+03    0.9814683903E-04    0.6862780037E+00    0.1178373225E-03    0.1060751751E-02    0.4705232124E-02
    0.4700000000E+03    0.1027766023E-03    0.6866607295E+00    0.1238635584E-03    0.1115769551E-02    0.4702326803E-02
    0.4900000000E+03    0.1074964280E-03    0.6870125342E+00    0.1299996383E-03    0.1171778227E-02    0.4699272309E-02
    0.1000000000E+03    0.3069215105E-04    0.6561404691E+00    0.2734581085E-04    0.2241895054E-03    0.4708636349E-02
    0.3000000000E+03    0.6610959665E-04    0.6818095475E+00    0.7582614339E-04    0.6765066406E-03    0.4721446237E-02
    0.5000000000E+03    0.1098908097E-03    0.6871779876E+00    0.1331099308E-03    0.1200164443E-02    0.4697690516E-02
    0.7000000000E+03    0.1631353609E-03    0.6895010048E+00    0.2019905058E-03    0.1828553789E-02    0.4658846000E-02
    0.9000000000E+03    0.2288971503E-03    0.6907962384E+00    0.2867173180E-03    0.2601660268E-02    0.4606041763E-02
    0.1100000000E+04    0.3118776864E-03    0.6916216250E+00    0.3934678472E-03    0.3576480459E-02    0.4536626141E-02
    0.1300000000E+04    0.4192967970E-03    0.6921932223E+00    0.5316142782E-03    0.4839262505E-02    0.4445213295E-02
    0.1500000000E+04    0.5625789419E-03    0.6926122644E+00    0.7159486431E-03    0.6526178338E-02    0.4322804524E-02
    0.1700000000E+04    0.7604146163E-03    0.6929324853E+00    0.9706775072E-03    0.8860348346E-02    0.4154647664E-02
    0.1900000000E+04    0.1044144706E-02    0.6931850491E+00    0.1336458113E-02    0.1221725980E-01    0.3916501199E-02
    0.2100000000E+04    0.1465783364E-02    0.6933892717E+00    0.1880975993E-02    0.1722398493E-01    0.3569779346E-02
    0.2300000000E+04    0.2101192211E-02    0.6935577608E+00    0.2703600765E-02    0.2480702022E-01    0.3063224357E-02
    0.2500000000E+04    0.3006595271E-02    0.6936990950E+00    0.3880233036E-02    0.3569416270E-01    0.2375556798E-02
    0.2700000000E+04    0.4064131430E-02    0.6938193133E+00    0.5263509685E-02    0.4857415884E-01    0.1636212063E-02
    0.2900000000E+04    0.4954158498E-02    0.6939227898E+00    0.6441897263E-02    0.5967426818E-01    0.1105519540E-02
    0.3100000000E+04    0.5537926837E-02    0.6940127703E+00    0.7231922653E-02    0.6726915440E-01    0.8535920870E-03
    0.3300000000E+04    0.5922566289E-02    0.6940917138E+00    0.7768344955E-02    0.7256620448E-01    0.7619335390E-03
    0.3500000000E+04    0.6218075994E-02    0.6941615170E+00    0.8192160843E-02    0.7685285410E-01    0.7330368385E-03
    0.3700000000E+04    0.6475740548E-02    0.6942236665E+00    0.8569468729E-02    0.8073604186E-01    0.7252617475E-03
    0.3900000000E+04    0.6714613048E-02    0.6942793437E+00    0.8924855186E-02    0.8444193268E-01    0.7242124473E-03
    0.4100000000E+04    0.6941405451E-02    0.6943294993E+00    0.9266927332E-02    0.8804933896E-01    0.7252356990E-03
    0.4300000000E+04    0.7158569304E-02    0.6943749068E+00    0.9598754148E-02    0.9158579780E-01    0.7268576679E-03
    0.4500000000E+04    0.7367125227E-02    0.6944162023E+00    0.9921540662E-02    0.9506154427E-01    0.7286157231E-03
    0.4700000000E+04    0.7567611466E-02    0.6944539132E+00    0.1023586511E-01    0.9848100032E-01    0.7303670795E-03
    0.4900000000E+04    0.7760398251E-02    0.6944884807E+00    0.1054209051E-01    0.1018466122E+00    0.7320700455E-03
    0.1000000000E+04    0.2678577509E-03    0.6912501297E+00    0.3368486605E-03    0.3059337179E-02    0.4573678432E-02
    0.3000000000E+04    0.5279944454E-02    0.6939692980E+00    0.6880097109E-02    0.6386325117E-01    0.9509481835E-03
    0.5000000000E+04    0.7854001437E-02    0.6945047043E+00    0.1069225657E-01    0.1035097863E+00    0.7328997956E-03
    0.7000000000E+04    0.9386045303E-02    0.6947297716E+00    0.1332889368E-01    0.1342913800E+00    0.7468635766E-03
    0.9000000000E+04    0.1040733248E-01    0.6948522636E+00    0.1539229438E-01    0.1610741497E+00    0.7574377865E-03
    0.1100000000E+05    0.1106695628E-01    0.6949285560E+00    0.1702213469E-01    0.1846859650E+00    0.7659740928E-03
    0.1300000000E+05    0.1146702807E-01    0.6949802086E+00    0.1831765573E-01    0.2057310685E+00    0.7731458892E-03
    0.1500000000E+05    0.1167899894E-01    0.6950172222E+00    0.1935113951E-01    0.2246616838E+00    0.7793380097E-03
    0.1700000000E+05    0.1175377553E-01    0.6950448588E+00    0.2017636790E-01    0.2418237031E+00    0.7847915393E-03
    0.1900000000E+05    0.1172818259E-01    0.6950661454E+00    0.2083410690E-01    0.2574867890E+00    0.7896677213E-03
    0.2100000000E+05    0.1162920108E-01    0.6950829439E+00    0.2135576236E-01    0.2718647535E+00    0.7940798275E-03
    0.2300000000E+05    0.1147681195E-01    0.6950964605E+00    0.2176587730E-01    0.2851296896E+00    0.7981105368E-03
    0.2500000000E+05    0.1128594330E-01    0.6951075099E+00    0.2208387554E-01    0.2974219837E+00    0.8018220808E-03
    0.2700000000E+05    0.1106782772E-01    0.6951166616E+00    0.2232530298E-01    0.3088575450E+00    0.8052624965E-03
    0.2900000000E+05    0.1083096372E-01    0.6951243252E+00    0.2250272696E-01    0.3195331183E+00    0.8084696541E-03
    0.3100000000E+05    0.1058180647E-01    0.6951308023E+00    0.2262639833E-01    0.3295302486E+00    0.8114739472E-03
    0.3300000000E+05    0.1032527043E-01    0.6951363200E+00    0.2270474583E-01    0.3389182842E+00    0.8143001467E-03
    0.3500000000E+05    0.1006509937E-01    0.6951410520E+00    0.2274475020E-01    0.3477566797E+00    0.8169687123E-03
    0.3700000000E+05    0.9804141545E-02    0.6951451338E+00    0.2275223070E-01    0.3560967849E+00    0.8194967419E-03
    0.3900000000E+05    0.9544556271E-02    0.6951486720E+00    0.2273206688E-01    0.3639832497E+00    0.8218986729E-03
    0.4100000000E+05    0.9287970312E-02    0.6951517519E+00    0.2268837217E-01    0.3714551384E+00    0.8241868086E-03
    0.4300000000E+05    0.9035597148E-02    0.6951544424E+00    0.2262463080E-01    0.3785468223E+00    0.8263717212E-03
    0.4500000000E+05    0.8788328573E-02    0.6951567998E+00    0.2254380689E-01    0.3852887020E+00    0.8284625628E-03
    0.4700000000E+05    0.8546805466E-02    0.6951588703E+00    0.2244843205E-01    0.3917077950E+00    0.8304673102E-03
    0.4900000000E+05    0.8311472765E-02    0.6951606924E+00    0.2234067617E-01    0.3978282190E+00    0.8323929586E-03
    0.1000000000E+05    0.1077509922E-01    0.6948944303E+00    0.1625444849E-01    0.1732344201E+00    0.7619091623E-03
    0.3000000000E+05    0.1070758337E-01    0.6951276964E+00    0.2257071710E-01    0.3246118986E+00    0.8099954963E-03
    0.5000000000E+05    0.8196224043E-02    0.6951615205E+00    0.2228274894E-01    0.4007832738E+00    0.8333280771E-03
    0.7000000000E+05    0.6237356375E-02    0.6951706382E+00    0.2081007874E-01    0.4484402890E+00    0.8490549141E-03
    0.9000000000E+05    0.4846023209E-02    0.6951726943E+00    0.1918368716E-01    0.4814295471E+00    0.8609920142E-03
    0.1100000000E+06    0.3852454273E-02    0.6951720694E+00    0.1765999045E-01    0.5057117330E+00    0.8706427115E-03
    0.1300000000E+06    0.3127025318E-02    0.6951702859E+00    0.1629741214E-01    0.5243602982E+00    0.8787584630E-03
    0.1500000000E+06    0.2584475421E-02    0.6951679793E+00    0.1509636641E-01    0.5391417285E+00    0.8857702280E-03
    0.1700000000E+06    0.2169505265E-02    0.6951654461E+00    0.1404064633E-01    0.5511495456E+00    0.8919486362E-03
    0.1900000000E+06    0.1845698231E-02    0.6951628348E+00    0.1311082592E-01    0.5610988799E+00    0.8974750064E-03
    0.2100000000E+06    0.1588526206E-02    0.6951602229E+00    0.1228861422E-01    0.5694778215E+00    0.9024768821E-03
    0.2300000000E+06    0.1381076015E-02    0.6951576517E+00    0.1155807376E-01    0.5766311761E+00    0.9070474559E-03
    0.2500000000E+06    0.1211421536E-02    0.6951551428E+00    0.1090573609E-01    0.5828095670E+00    0.9112569311E-03
    0.2700000000E+06    0.1070977977E-02    0.6951527068E+00    0.1032035450E-01    0.5881995884E+00    0.9151595359E-03
    0.2900000000E+06    0.9534485948E-03    0.6951503481E+00    0.9792568620E-02    0.5929430497E+00    0.9187980452E-03
    0.3100000000E+06    0.8541355765E-03    0.6951480676E+00    0.9314580387E-02    0.5971496627E+00    0.9222068060E-03
    0.3300000000E+06    0.7694795332E-03    0.6951458640E+00    0.8879872252E-02    0.6009056422E+00    0.9254138229E-03
    0.3500000000E+06    0.6967456033E-03    0.6951437350E+00    0.8482973043E-02    0.6042796796E+00    0.9284422347E-03
    0.3700000000E+06    0.6338055206E-03    0.6951416774E+00    0.8119267269E-02    0.6073271808E+00    0.9313113844E-03
    0.3900000000E+06    0.5789837174E-03    0.6951396880E+00    0.7784841210E-02    0.6100933310E+00    0.9340376096E-03
    0.4100000000E+06    0.5309469360E-03    0.6951377634E+00    0.7476359012E-02    0.6126153475E+00    0.9366348363E-03
    0.4300000000E+06    0.4886238976E-03    0.6951359002E+00    0.7190962895E-02    0.6149241620E+00    0.9391150339E-03
    0.4500000000E+06    0.4511460611E-03    0.6951340952E+00    0.6926192555E-02    0.6170456941E+00    0.9414885660E-03
    0.4700000000E+06    0.4178033953E-03    0.6951323453E+00    0.6679919826E-02    0.6190018264E+00    0.9437644669E-03
    0.4900000000E+06    0.3880109809E-03    0.6951306475E+00    0.6450295483E-02    0.6208111615E+00    0.9459506604E-03
    0.1000000000E+06    0.4308823614E-02    0.6951725899E+00    0.1840314500E-01    0.4944249511E+00    0.8660457448E-03
    0.3000000000E+06    0.9017599382E-03    0.6951491982E+00    0.9547784186E-02    0.5951076033E+00    0.9205292649E-03
    0.5000000000E+06    0.3742911416E-03    0.6951298173E+00    0.6341213972E-02    0.6216658449E+00    0.9470123334E-03
    0.7000000000E+06    0.2031215321E-03    0.6951153664E+00    0.4733076585E-02    0.6339268725E+00    0.9648701155E-03
    0.9000000000E+06    0.1271352698E-03    0.6951039031E+00    0.3770890179E-02    0.6409841636E+00    0.9784271706E-03
    0.1100000000E+07    0.8695198288E-04    0.6950944024E+00    0.3131602789E-02    0.6455694066E+00    0.9893886711E-03
    0.1300000000E+07    0.6317581479E-04    0.6950862841E+00    0.2676414526E-02    0.6487873518E+00    0.9986073404E-03
    0.1500000000E+07    0.4796010257E-04    0.6950791917E+00    0.2335988796E-02    0.6511699454E+00    0.1006572345E-02
    0.1700000000E+07    0.3764212861E-04    0.6950728908E+00    0.2071877573E-02    0.6530049323E+00    0.1013590921E-02
    0.1900000000E+07    0.3032657502E-04    0.6950672193E+00    0.1861060755E-02    0.6544615444E+00    0.1019868940E-02
    0.2100000000E+07    0.2495309441E-04    0.6950620604E+00    0.1688919928E-02    0.6556458110E+00    0.1025551230E-02
    0.2300000000E+07    0.2089100113E-04    0.6950573271E+00    0.1545728952E-02    0.6566275402E+00    0.1030743623E-02
    0.2500000000E+07    0.1774616774E-04    0.6950529532E+00    0.1424766950E-02    0.6574545670E+00    0.1035525845E-02
    0.2700000000E+07    0.1526205588E-04    0.6950488867E+00    0.1321241661E-02    0.6581607662E+00    0.1039959484E-02
    0.2900000000E+07    0.1326587784E-04    0.6950450862E+00    0.1231644452E-02    0.6587707985E+00    0.1044093125E-02
    0.3100000000E+07    0.1163781837E-04    0.6950415182E+00    0.1153347819E-02    0.6593030429E+00    0.1047965778E-02
    0.3300000000E+07    0.1029268425E-04    0.6950381553E+00    0.1084345317E-02    0.6597714770E+00    0.1051609252E-02
    0.3500000000E+07    0.9168561848E-05    0.6950349746E+00    0.1023078429E-02    0.6601869200E+00    0.1055049829E-02
    0.3700000000E+07    0.8219583350E-05    0.6950319569E+00    0.9683182629E-03    0.6605578766E+00    0.1058309483E-02
    0.3900000000E+07    0.7411185171E-05    0.6950290859E+00    0.9190828445E-03    0.6608911246E+00    0.1061406769E-02
    0.4100000000E+07    0.6716923581E-05    0.6950263475E+00    0.8745781082E-03    0.6611921319E+00    0.1064357509E-02
    0.4300000000E+07    0.6116289512E-05    0.6950237299E+00    0.8341550341E-03    0.6614653585E+00    0.1067175298E-02
    0.4500000000E+07    0.5593179721E-05    0.6950212225E+00    0.7972779985E-03    0.6617144781E+00    0.1069871908E-02
    0.4700000000E+07    0.5134808352E-05    0.6950188161E+00    0.7635010618E-03    0.6619425443E+00    0.1072457604E-02
    0.4900000000E+07    0.4730919671E-05    0.6950165028E+00    0.7324499650E-03    0.6621521161E+00    0.1074941385E-02
    0.1000000000E+07    0.1042047047E-03    0.6950989507E+00    0.3421925758E-02    0.6434968848E+00    0.9841672149E-03
    0.3000000000E+07    0.1241181107E-04    0.6950432750E+00    0.1191221166E-02    0.6590456844E+00    0.1046059940E-02
    0.5000000000E+07    0.4546747849E-05    0.6950153787E+00    0.7178457787E-03    0.6622506550E+00    0.1076147576E-02
    0.7000000000E+07    0.2350462323E-05    0.6949964185E+00    0.5127665794E-03    0.6636327855E+00    0.1096436321E-02
    0.9000000000E+07    0.1440837133E-05    0.6949819690E+00    0.3984257591E-03    0.6644025444E+00    0.1111838967E-02
    0.1100000000E+08    0.9783145570E-06    0.6949702587E+00    0.3255725119E-03    0.6648929879E+00    0.1124292732E-02
    0.1300000000E+08    0.7112515830E-06    0.6949603946E+00    0.2751218115E-03    0.6652327482E+00    0.1134766400E-02
    0.1500000000E+08    0.5430530736E-06    0.6949518619E+00    0.2381317169E-03    0.6654819969E+00    0.1143815727E-02
    0.1700000000E+08    0.4302023483E-06    0.6949443363E+00    0.2098573419E-03    0.6656726374E+00    0.1151789774E-02
    0.1900000000E+08    0.3507487521E-06    0.6949375997E+00    0.1875478722E-03    0.6658231590E+00    0.1158922439E-02
    0.2100000000E+08    0.2926444999E-06    0.6949314986E+00    0.1694990362E-03    0.6659450153E+00    0.1165378269E-02
    0.2300000000E+08    0.2488285590E-06    0.6949259207E+00    0.1545988439E-03    0.6660456799E+00    0.1171277502E-02
    0.2500000000E+08    0.2149392509E-06    0.6949207810E+00    0.1420909756E-03    0.6661302368E+00    0.1176710721E-02
    0.2700000000E+08    0.1881637169E-06    0.6949160140E+00    0.1314431752E-03    0.6662022643E+00    0.1181747899E-02
