  Pressure (Pa) 22mC5-500 (mol/kg) 24mC5-500 (mol/kg) 2mC6-500 (mol/kg) 3mC6-500 (mol/kg) C7-500 (mol/kg)
    0.1000000000E+01    0.4270041772E-05    0.1513994046E+00    0.1648593470E-04    0.2400850438E-05    0.4191283963E-02
    0.3000000000E+01    0.8319680096E-05    0.3164740172E+00    0.3051664255E-04    0.6140254593E-05    0.4229755588E-02
    0.5000000000E+01    0.1016716692E-04    0.4047345019E+00    0.3642431132E-04    0.9579929608E-05    0.4248993992E-02
    0.7000000000E+01    0.1119526728E-04    0.4596779871E+00    0.3984655958E-04    0.1287527157E-04    0.4260883348E-02
    0.9000000000E+01    0.1185785082E-04    0.4971746975E+00    0.4240700426E-04    0.1607873224E-04    0.4268978434E-02
    0.1100000000E+02    0.1233929440E-04    0.5243963383E+00    0.4467308782E-04    0.1921656388E-04    0.4274835644E-02
    0.1300000000E+02    0.1272513517E-04    0.5450575440E+00    0.4686462514E-04    0.2230439388E-04    0.4279255069E-02
    0.1500000000E+02    0.1305880719E-04    0.5612749356E+00    0.4907034447E-04    0.2535252067E-04    0.4282692590E-02
    0.1700000000E+02    0.1336382798E-04    0.5743430058E+00    0.5132508402E-04    0.2836820573E-04    0.4285427888E-02
    0.1900000000E+02    0.1365353560E-04    0.5850979536E+00    0.5364037749E-04    0.3135682346E-04    0.4287642477E-02
    0.2100000000E+02    0.1393574848E-04    0.5941040095E+00    0.5601750489E-04    0.3432249961E-04    0.4289459515E-02
    0.2300000000E+02    0.1421515089E-04    0.6017556923E+00    0.5845335060E-04    0.3726849318E-04    0.4290965635E-02
    0.2500000000E+02    0.1449458165E-04    0.6083371560E+00    0.6094311326E-04    0.4019743836E-04    0.4292223632E-02
    0.2700000000E+02    0.1477576149E-04    0.6140582597E+00    0.6348157001E-04    0.4311150499E-04    0.4293280183E-02
    0.2900000000E+02    0.1505971852E-04    0.6190773598E+00    0.6606365378E-04    0.4601250892E-04    0.4294170742E-02
    0.3100000000E+02    0.1534704482E-04    0.6235161964E+00    0.6868469763E-04    0.4890199040E-04    0.4294922744E-02
    0.3300000000E+02    0.1563805487E-04    0.6274698980E+00    0.7134051699E-04    0.5178127111E-04    0.4295557771E-02
    0.3500000000E+02    0.1593288560E-04    0.6310138767E+00    0.7402741417E-04    0.5465149671E-04    0.4296093044E-02
    0.3700000000E+02    0.1623156047E-04    0.6342086843E+00    0.7674214776E-04    0.5751366916E-04    0.4296542480E-02
    0.3900000000E+02    0.1653403118E-04    0.6371035011E+00    0.7948188808E-04    0.6036867164E-04    0.4296917459E-02
    0.4100000000E+02    0.1684020503E-04    0.6397386853E+00    0.8224416936E-04    0.6321728812E-04    0.4297227378E-02
    0.4300000000E+02    0.1714996303E-04    0.6421476666E+00    0.8502684378E-04    0.6606021896E-04    0.4297480070E-02
    0.4500000000E+02    0.1746317185E-04    0.6443583718E+00    0.8782803946E-04    0.6889809335E-04    0.4297682122E-02
    0.4700000000E+02    0.1777969180E-04    0.6463943122E+00    0.9064612322E-04    0.7173147953E-04    0.4297839112E-02
    0.4900000000E+02    0.1809938205E-04    0.6482754231E+00    0.9347966809E-04    0.7456089311E-04    0.4297955800E-02
    0.1000000000E+02    0.1211447715E-04    0.5117865097E+00    0.4355856309E-04    0.1765471039E-04    0.4272125699E-02
    0.3000000000E+02    0.1520293574E-04    0.6213628346E+00    0.6736957884E-04    0.4745860280E-04    0.4294562597E-02
    0.5000000000E+02    0.1826037257E-04    0.6491633338E+00    0.9490184189E-04    0.7597425864E-04    0.4298000331E-02
    0.7000000000E+02    0.2161605323E-04    0.6618544968E+00    0.1239254781E-03    0.1041283699E-03    0.4297518661E-02
    0.9000000000E+02    0.2516973932E-04    0.6691218538E+00    0.1537240003E-03    0.1322430905E-03    0.4295479217E-02
    0.1100000000E+03    0.2886701503E-04    0.6738301063E+00    0.1840857529E-03    0.1604859125E-03    0.4292622400E-02
    0.1300000000E+03    0.3268019156E-04    0.6771285635E+00    0.2149484333E-03    0.1889619816E-03    0.4289259408E-02
    0.1500000000E+03    0.3659480845E-04    0.6795679357E+00    0.2463022867E-03    0.2177455787E-03    0.4285544838E-02
    0.1700000000E+03    0.4060330871E-04    0.6814451489E+00    0.2781583590E-03    0.2468937521E-03    0.4281564188E-02
    0.1900000000E+03    0.4470198546E-04    0.6829344317E+00    0.3105365872E-03    0.2764531574E-03    0.4277368307E-02
    0.2100000000E+03    0.4888941452E-04    0.6841447579E+00    0.3434609119E-03    0.3064638578E-03    0.4272988977E-02
    0.2300000000E+03    0.5316560219E-04    0.6851477810E+00    0.3769571652E-03    0.3369616030E-03    0.4268446713E-02
    0.2500000000E+03    0.5753149876E-04    0.6859925507E+00    0.4110521441E-03    0.3679792798E-03    0.4263754982E-02
    0.2700000000E+03    0.6198870959E-04    0.6867137741E+00    0.4457732217E-03    0.3995478834E-03    0.4258922633E-02
    0.2900000000E+03    0.6653931797E-04    0.6873367013E+00    0.4811482110E-03    0.4316971953E-03    0.4253955358E-02
    0.3100000000E+03    0.7118577395E-04    0.6878801407E+00    0.5172053512E-03    0.4644562750E-03    0.4248856622E-02
    0.3300000000E+03    0.7593082358E-04    0.6883583902E+00    0.5539733537E-03    0.4978538296E-03    0.4243628258E-02
    0.3500000000E+03    0.8077746349E-04    0.6887825126E+00    0.5914814755E-03    0.5319184999E-03    0.4238270873E-02
    0.3700000000E+03    0.8572891212E-04    0.6891612020E+00    0.6297596062E-03    0.5666790912E-03    0.4232784121E-02
    0.3900000000E+03    0.9078859200E-04    0.6895013850E+00    0.6688383608E-03    0.6021647625E-03    0.4227166898E-02
    0.4100000000E+03    0.9596011962E-04    0.6898086485E+00    0.7087491740E-03    0.6384051882E-03    0.4221417476E-02
    0.4300000000E+03    0.1012473006E-03    0.6900875485E+00    0.7495243951E-03    0.6754307002E-03    0.4215533603E-02
    0.4500000000E+03    0.1066541290E-03    0.6903418375E+00    0.7911973831E-03    0.7132724150E-03    0.4209512574E-02
    0.4700000000E+03    0.1121847890E-03    0.6905746340E+00    0.8338026022E-03    0.7519623512E-03    0.4203351279E-02
    0.4900000000E+03    0.1178436595E-03    0.6907885510E+00    0.8773757176E-03    0.7915335408E-03    0.4197046243E-02
    0.1000000000E+03    0.2700257879E-04    0.6717032355E+00    0.1688402179E-03    0.1463409577E-03    0.4294128167E-02
    0.3000000000E+03    0.6885039969E-04    0.6876173751E+00    0.4990897296E-03    0.4479987154E-03    0.4251422275E-02
    0.5000000000E+03    0.1207225967E-03    0.6908891328E+00    0.8995367341E-03    0.8116602314E-03    0.4193838643E-02
    0.7000000000E+03    0.1862894720E-03    0.6922999115E+00    0.1403571800E-02    0.1269667202E-02    0.4121018274E-02
    0.9000000000E+03    0.2717146406E-03    0.6930856121E+00    0.2059715169E-02    0.1866610530E-02    0.4027235829E-02
    0.1100000000E+04    0.3869604234E-03    0.6935861656E+00    0.2945214777E-02    0.2673311464E-02    0.3902767959E-02
    0.1300000000E+04    0.5488382239E-03    0.6939328660E+00    0.4190194097E-02    0.3809188511E-02    0.3731375922E-02
    0.1500000000E+04    0.7868109736E-03    0.6941871387E+00    0.6022975710E-02    0.5484182624E-02    0.3485366376E-02
    0.1700000000E+04    0.1152809521E-02    0.6943815572E+00    0.8847172580E-02    0.8070549787E-02    0.3118131661E-02
    0.1900000000E+04    0.1728446410E-02    0.6945350015E+00    0.1330109744E-01    0.1216064382E-01    0.2563249002E-02
    0.2100000000E+04    0.2577455812E-02    0.6946591690E+00    0.1989809308E-01    0.1824410924E-01    0.1792671617E-02
    0.2300000000E+04    0.3554219398E-02    0.6947616932E+00    0.2754516668E-01    0.2534767421E-01    0.9943054773E-03
    0.2500000000E+04    0.4317765456E-02    0.6948477669E+00    0.3361184102E-01    0.3106299154E-01    0.4892607128E-03
    0.2700000000E+04    0.4795769815E-02    0.6949210457E+00    0.3750995104E-01    0.3482466009E-01    0.2860736731E-03
    0.2900000000E+04    0.5122397253E-02    0.6949841774E+00    0.4025779857E-01    0.3755032693E-01    0.2219566937E-03
    0.3100000000E+04    0.5388454597E-02    0.6950391268E+00    0.4255281879E-01    0.3987601480E-01    0.2036554246E-03
    0.3300000000E+04    0.5628436553E-02    0.6950873824E+00    0.4466088071E-01    0.4204510805E-01    0.1988620496E-03
    0.3500000000E+04    0.5853659701E-02    0.6951300927E+00    0.4666890518E-01    0.4413698536E-01    0.1979298955E-03
    0.3700000000E+04    0.6067891617E-02    0.6951681578E+00    0.4860526025E-01    0.4617710905E-01    0.1980852402E-03
    0.3900000000E+04    0.6272576831E-02    0.6952022934E+00    0.5048025435E-01    0.4817426623E-01    0.1985348824E-03
    0.4100000000E+04    0.6468442932E-02    0.6952330752E+00    0.5229864100E-01    0.5013212412E-01    0.1990518322E-03
    0.4300000000E+04    0.6655985088E-02    0.6952609719E+00    0.5406340618E-01    0.5205274403E-01    0.1995716458E-03
    0.4500000000E+04    0.6835612731E-02    0.6952863689E+00    0.5577691726E-01    0.5393765012E-01    0.2000768259E-03
    0.4700000000E+04    0.7007694852E-02    0.6953095860E+00    0.5744127659E-01    0.5578815776E-01    0.2005634556E-03
    0.4900000000E+04    0.7172574698E-02    0.6953308905E+00    0.5905843421E-01    0.5760547692E-01    0.2010314876E-03
    0.1000000000E+04    0.3247702965E-03    0.6933608729E+00    0.2467296775E-02    0.2237781228E-02    0.3969655749E-02
    0.3000000000E+04    0.5259994850E-02    0.6950125725E+00    0.4143877219E-01    0.3874198907E-01    0.2099468917E-03
    0.5000000000E+04    0.7252415387E-02    0.6953408975E+00    0.5984989032E-01    0.5850204910E-01    0.2012588242E-03
    0.7000000000E+04    0.8540726511E-02    0.6954804447E+00    0.7359988836E-01    0.7493991662E-01    0.2050793863E-03
    0.9000000000E+04    0.9385336145E-02    0.6955572865E+00    0.8423131220E-01    0.8906681855E-01    0.2079754867E-03
    0.1100000000E+05    0.9932932110E-02    0.6956057377E+00    0.9262619683E-01    0.1014550936E+00    0.2103150945E-03
    0.1300000000E+05    0.1027624878E-01    0.6956389647E+00    0.9936558847E-01    0.1124937346E+00    0.2122816296E-03
    0.1500000000E+05    0.1047609738E-01    0.6956630961E+00    0.1048474138E+00    0.1224574268E+00    0.2139800861E-03
    0.1700000000E+05    0.1057356787E-01    0.6956813677E+00    0.1093531011E+00    0.1315463868E+00    0.2154763131E-03
    0.1900000000E+05    0.1059712265E-01    0.6956956478E+00    0.1130871510E+00    0.1399105060E+00    0.2168143884E-03
    0.2100000000E+05    0.1056689110E-01    0.6957070897E+00    0.1162016374E+00    0.1476645919E+00    0.2180252955E-03
    0.2300000000E+05    0.1049736047E-01    0.6957164434E+00    0.1188119254E+00    0.1548983327E+00    0.2191316611E-03
    0.2500000000E+05    0.1039911238E-01    0.6957242173E+00    0.1210070659E+00    0.1616830097E+00    0.2201505227E-03
    0.2700000000E+05    0.1027997254E-01    0.6957307684E+00    0.1228568544E+00    0.1680761396E+00    0.2210950361E-03
    0.2900000000E+05    0.1014578919E-01    0.6957363542E+00    0.1244167388E+00    0.1741247595E+00    0.2219755756E-03
    0.3100000000E+05    0.1000097068E-01    0.6957411652E+00    0.1257313023E+00    0.1798677997E+00    0.2228004691E-03
    0.3300000000E+05    0.9848863265E-02    0.6957453455E+00    0.1268367808E+00    0.1853378289E+00    0.2235765056E-03
    0.3500000000E+05    0.9692020732E-02    0.6957490056E+00    0.1277629130E+00    0.1905623588E+00    0.2243092931E-03
    0.3700000000E+05    0.9532399664E-02    0.6957522321E+00    0.1285343213E+00    0.1955648339E+00    0.2250035192E-03
    0.3900000000E+05    0.9371502511E-02    0.6957550935E+00    0.1291715552E+00    0.2003653936E+00    0.2256631424E-03
    0.4100000000E+05    0.9210483687E-02    0.6957576448E+00    0.1296918907E+00    0.2049814639E+00    0.2262915365E-03
    0.4300000000E+05    0.9050229045E-02    0.6957599307E+00    0.1301099487E+00    0.2094282246E+00    0.2268916010E-03
    0.4500000000E+05    0.8891415957E-02    0.6957619876E+00    0.1304381792E+00    0.2137189804E+00    0.2274658462E-03
    0.4700000000E+05    0.8734559126E-02    0.6957638459E+00    0.1306872436E+00    0.2178654582E+00    0.2280164602E-03
    0.4900000000E+05    0.8580045785E-02    0.6957655307E+00    0.1308663195E+00    0.2218780493E+00    0.2285453618E-03
    0.1000000000E+05    0.9689523174E-02    0.6955839904E+00    0.8866666837E-01    0.9545067374E-01    0.2092008281E-03
    0.3000000000E+05    0.1007447889E-01    0.6957388466E+00    0.1251022497E+00    0.1770323095E+00    0.2223945225E-03
    0.5000000000E+05    0.8503760911E-02    0.6957663148E+00    0.1309321352E+00    0.2238370684E+00    0.2288022072E-03
    0.7000000000E+05    0.7137300304E-02    0.6957766149E+00    0.1300292409E+00    0.2577832320E+00    0.2331222083E-03
    0.9000000000E+05    0.6064255330E-02    0.6957815127E+00    0.1269725243E+00    0.2847321921E+00    0.2364015938E-03
    0.1100000000E+06    0.5222321938E-02    0.6957840995E+00    0.1231739493E+00    0.3071645389E+00    0.2390530455E-03
    0.1300000000E+06    0.4551830897E-02    0.6957855200E+00    0.1191727777E+00    0.3263899043E+00    0.2412828944E-03
    0.1500000000E+06    0.4008890065E-02    0.6957862877E+00    0.1151982626E+00    0.3431967809E+00    0.2432094882E-03
    0.1700000000E+06    0.3562370257E-02    0.6957866638E+00    0.1113516586E+00    0.3581029673E+00    0.2449071534E-03
    0.1900000000E+06    0.3190068315E-02    0.6957867928E+00    0.1076760952E+00    0.3714700348E+00    0.2464256915E-03
    0.2100000000E+06    0.2875887717E-02    0.6957867606E+00    0.1041867018E+00    0.3835622270E+00    0.2478001361E-03
    0.2300000000E+06    0.2607941951E-02    0.6957866205E+00    0.1008847049E+00    0.3945795351E+00    0.2490560862E-03
    0.2500000000E+06    0.2377294504E-02    0.6957864070E+00    0.9776442622E-01    0.4046775659E+00    0.2502128269E-03
    0.2700000000E+06    0.2177114117E-02    0.6957861431E+00    0.9481690168E-01    0.4139801300E+00    0.2512852553E-03
    0.2900000000E+06    0.2002099271E-02    0.6957858445E+00    0.9203180174E-01    0.4225875710E+00    0.2522851224E-03
    0.3100000000E+06    0.1848079014E-02    0.6957855224E+00    0.8939846128E-01    0.4305824784E+00    0.2532218641E-03
    0.3300000000E+06    0.1711731129E-02    0.6957851845E+00    0.8690642712E-01    0.4380337259E+00    0.2541031741E-03
    0.3500000000E+06    0.1590379735E-02    0.6957848365E+00    0.8454573863E-01    0.4449993997E+00    0.2549354096E-03
    0.3700000000E+06    0.1481847642E-02    0.6957844825E+00    0.8230705850E-01    0.4515289705E+00    0.2557238847E-03
    0.3900000000E+06    0.1384347036E-02    0.6957841257E+00    0.8018171911E-01    0.4576649342E+00    0.2564730882E-03
    0.4100000000E+06    0.1296397473E-02    0.6957837681E+00    0.7816172200E-01    0.4634440742E+00    0.2571868462E-03
    0.4300000000E+06    0.1216763571E-02    0.6957834114E+00    0.7623971186E-01    0.4688984449E+00    0.2578684472E-03
    0.4500000000E+06    0.1144407135E-02    0.6957830570E+00    0.7440893768E-01    0.4740561501E+00    0.2585207387E-03
    0.4700000000E+06    0.1078449990E-02    0.6957827056E+00    0.7266320849E-01    0.4789419656E+00    0.2591462029E-03
    0.4900000000E+06    0.1018144823E-02    0.6957823580E+00    0.7099684771E-01    0.4835778418E+00    0.2597470171E-03
    0.1000000000E+06    0.5618503304E-02    0.6957830011E+00    0.1251214596E+00    0.2964143398E+00    0.2377900465E-03
    0.3000000000E+06    0.1922689661E-02    0.6957856858E+00    0.9069682410E-01    0.4266570040E+00    0.2527608676E-03
    0.5000000000E+06    0.9899082049E-03    0.6957821858E+00    0.7019178622E-01    0.4858082423E+00    0.2600387893E-03
    0.7000000000E+06    0.6066549188E-03    0.6957789973E+00    0.5720204079E-01    0.5210740087E+00    0.2649466299E-03
    0.9000000000E+06    0.4106273775E-03    0.6957762817E+00    0.4825597704E-01    0.5447193933E+00    0.2686726361E-03
    0.1100000000E+07    0.2966087618E-03    0.6957739470E+00    0.4172115193E-01    0.5617341607E+00    0.2716853616E-03
    0.1300000000E+07    0.2243542425E-03    0.6957719070E+00    0.3673867977E-01    0.5745836497E+00    0.2742191296E-03
    0.1500000000E+07    0.1756536998E-03    0.6957700976E+00    0.3281430411E-01    0.5846378998E+00    0.2764083636E-03
    0.1700000000E+07    0.1412611565E-03    0.6957684727E+00    0.2964350322E-01    0.5927225874E+00    0.2783374944E-03
    0.1900000000E+07    0.1160673042E-03    0.6957669980E+00    0.2702840060E-01    0.5993661603E+00    0.2800630980E-03
    0.2100000000E+07    0.9705862325E-04    0.6957656480E+00    0.2483482570E-01    0.6049230085E+00    0.2816249753E-03
    0.2300000000E+07    0.8236308028E-04    0.6957644030E+00    0.2296857995E-01    0.6096398749E+00    0.2830522106E-03
    0.2500000000E+07    0.7076743524E-04    0.6957632476E+00    0.2136158043E-01    0.6136939358E+00    0.2843667149E-03
    0.2700000000E+07    0.6145716696E-04    0.6957621697E+00    0.1996339518E-01    0.6172157477E+00    0.2855854141E-03
    0.2900000000E+07    0.5386885591E-04    0.6957611593E+00    0.1873587111E-01    0.6203036582E+00    0.2867216603E-03
    0.3100000000E+07    0.4760265315E-04    0.6957602083E+00    0.1764961162E-01    0.6230331732E+00    0.2877861750E-03
    0.3300000000E+07    0.4236840675E-04    0.6957593099E+00    0.1668160106E-01    0.6254632310E+00    0.2887877001E-03
    0.3500000000E+07    0.3795141895E-04    0.6957584586E+00    0.1581356280E-01    0.6276405143E+00    0.2897334592E-03
    0.3700000000E+07    0.3419006078E-04    0.6957576495E+00    0.1503079952E-01    0.6296024796E+00    0.2906294908E-03
    0.3900000000E+07    0.3096077126E-04    0.6957568785E+00    0.1432135808E-01    0.6313795310E+00    0.2914808953E-03
    0.4100000000E+07    0.2816778181E-04    0.6957561421E+00    0.1367541784E-01    0.6329966059E+00    0.2922920206E-03
    0.4300000000E+07    0.2573593774E-04    0.6957554374E+00    0.1308483556E-01    0.6344743509E+00    0.2930666034E-03
    0.4500000000E+07    0.2360559379E-04    0.6957547615E+00    0.1254280208E-01    0.6358300074E+00    0.2938078794E-03
    0.4700000000E+07    0.2172892592E-04    0.6957541123E+00    0.1204357997E-01    0.6370780851E+00    0.2945186693E-03
    0.4900000000E+07    0.2006722736E-04    0.6957534875E+00    0.1158230076E-01    0.6382308834E+00    0.2952014471E-03
    0.1000000000E+07    0.3466577561E-03    0.6957750727E+00    0.4475246883E-01    0.5538658271E+00    0.2702502562E-03
    0.3000000000E+07    0.5059072298E-04    0.6957606768E+00    0.1817664925E-01    0.6217092013E+00    0.2872622975E-03
    0.5000000000E+07    0.1930688348E-04    0.6957531838E+00    0.1136456623E-01    0.6387748933E+00    0.2955330234E-03
    0.7000000000E+07    0.1009733666E-04    0.6957480429E+00    0.8252971783E-02    0.6465402322E+00    0.3011104196E-03
    0.9000000000E+07    0.6192254530E-05    0.6957441077E+00    0.6472943448E-02    0.6509758464E+00    0.3053447652E-03
    0.1100000000E+08    0.4181830219E-05    0.6957409102E+00    0.5321295628E-02    0.6538435740E+00    0.3087685227E-03
    0.1300000000E+08    0.3013042389E-05    0.6957382119E+00    0.4515626002E-02    0.6558490544E+00    0.3116479795E-03
    0.1500000000E+08    0.2274297989E-05    0.6957358750E+00    0.3920608944E-02    0.6573299086E+00    0.3141358971E-03
    0.1700000000E+08    0.1777927091E-05    0.6957338118E+00    0.3463307636E-02    0.6584679314E+00    0.3163282247E-03
    0.1900000000E+08    0.1428463458E-05    0.6957319635E+00    0.3100948896E-02    0.6593696677E+00    0.3182892569E-03
    0.2100000000E+08    0.1173189200E-05    0.6957302885E+00    0.2806797413E-02    0.6601016840E+00    0.3200642249E-03
    0.2300000000E+08    0.9810683713E-06    0.6957287564E+00    0.2563286406E-02    0.6607077055E+00    0.3216861807E-03
    0.2500000000E+08    0.8328662511E-06    0.6957273439E+00    0.2358399476E-02    0.6612176353E+00    0.3231800250E-03
    0.2700000000E+08    0.7161482696E-06    0.6957260334E+00    0.2183640018E-02    0.6616526143E+00    0.3245649930E-03
