  Pressure (Pa) 22mC5-500 (mol/kg) 24mC5-500 (mol/kg) 2mC6-500 (mol/kg) 3mC6-500 (mol/kg) C7-500 (mol/kg)
    0.1000000000E+01    0.5299345164E-05    0.3665754781E-01    0.2780967769E-04    0.2256232488E-05    0.4218784232E-02
    0.3000000000E+01    0.1400250201E-04    0.9946820575E-01    0.7185750917E-04    0.5820127725E-05    0.4317911172E-02
    0.5000000000E+01    0.2088162722E-04    0.1513266758E+00    0.1053917443E-03    0.9111377646E-05    0.4398247346E-02
    0.7000000000E+01    0.2642403886E-04    0.1948685222E+00    0.1314742719E-03    0.1227126813E-04    0.4465779283E-02
    0.9000000000E+01    0.3095852215E-04    0.2319463945E+00    0.1521105416E-03    0.1534771572E-04    0.4523477691E-02
    0.1100000000E+02    0.3471715658E-04    0.2639006509E+00    0.1686855006E-03    0.1836476330E-04    0.4573394449E-02
    0.1300000000E+02    0.3786839176E-04    0.2917249868E+00    0.1821836238E-03    0.2133674793E-04    0.4617032615E-02
    0.1500000000E+02    0.4053722471E-04    0.3161717069E+00    0.1933202150E-03    0.2427313023E-04    0.4655525989E-02
    0.1700000000E+02    0.4281815099E-04    0.3378208307E+00    0.2026244790E-03    0.2718058815E-04    0.4689748052E-02
    0.1900000000E+02    0.4478376523E-04    0.3571267441E+00    0.2104940192E-03    0.3006406875E-04    0.4720383400E-02
    0.2100000000E+02    0.4649062825E-04    0.3744504692E+00    0.2172315846E-03    0.3292737285E-04    0.4747976534E-02
    0.2300000000E+02    0.4798336157E-04    0.3900824746E+00    0.2230704188E-03    0.3577350500E-04    0.4772966141E-02
    0.2500000000E+02    0.4929756161E-04    0.4042591090E+00    0.2281920888E-03    0.3860489553E-04    0.4795709725E-02
    0.2700000000E+02    0.5046191049E-04    0.4171746453E+00    0.2327392418E-03    0.4142354767E-04    0.4816501631E-02
    0.2900000000E+02    0.5149972867E-04    0.4289902464E+00    0.2368248712E-03    0.4423113904E-04    0.4835586462E-02
    0.3100000000E+02    0.5243013326E-04    0.4398407306E+00    0.2405391406E-03    0.4702909359E-04    0.4853169197E-02
    0.3300000000E+02    0.5326891314E-04    0.4498397441E+00    0.2439544703E-03    0.4981863409E-04    0.4869422939E-02
    0.3500000000E+02    0.5402919781E-04    0.4590837609E+00    0.2471293719E-03    0.5260082122E-04    0.4884494901E-02
    0.3700000000E+02    0.5472197400E-04    0.4676552079E+00    0.2501113684E-03    0.5537658333E-04    0.4898511092E-02
    0.3900000000E+02    0.5535648867E-04    0.4756249327E+00    0.2529392391E-03    0.5814673933E-04    0.4911580019E-02
    0.4100000000E+02    0.5594056609E-04    0.4830541675E+00    0.2556447599E-03    0.6091201678E-04    0.4923795637E-02
    0.4300000000E+02    0.5648085951E-04    0.4899961076E+00    0.2582540632E-03    0.6367306615E-04    0.4935239720E-02
    0.4500000000E+02    0.5698305238E-04    0.4964971880E+00    0.2607887089E-03    0.6643047239E-04    0.4945983782E-02
    0.4700000000E+02    0.5745202042E-04    0.5025981242E+00    0.2632665330E-03    0.6918476424E-04    0.4956090646E-02
    0.4900000000E+02    0.5789196301E-04    0.5083347671E+00    0.2657023238E-03    0.7193642199E-04    0.4965615730E-02
    0.1000000000E+02    0.3292308233E-04    0.2484951983E+00    0.1608366094E-03    0.1686261792E-04    0.4549304547E-02
    0.3000000000E+02    0.5197730155E-04    0.4345285807E+00    0.2387235339E-03    0.4563124029E-04    0.4844554103E-02
    0.5000000000E+02    0.5810220395E-04    0.5110765277E+00    0.2669083810E-03    0.7331140150E-04    0.4970175665E-02
    0.7000000000E+02    0.6144517627E-04    0.5528255358E+00    0.2908870585E-03    0.1007618393E-03    0.5040217879E-02
    0.9000000000E+02    0.6406610662E-04    0.5791126846E+00    0.3167868980E-03    0.1282846176E-03    0.5084812741E-02
    0.1100000000E+03    0.6655816525E-04    0.5971861437E+00    0.3453867061E-03    0.1560394685E-03    0.5115474847E-02
    0.1300000000E+03    0.6912241340E-04    0.6103756442E+00    0.3765245876E-03    0.1841289566E-03    0.5137592226E-02
    0.1500000000E+03    0.7183130451E-04    0.6204252736E+00    0.4099105906E-03    0.2126275422E-03    0.5154037291E-02
    0.1700000000E+03    0.7470990206E-04    0.6283369751E+00    0.4452907687E-03    0.2415941784E-03    0.5166488195E-02
    0.1900000000E+03    0.7776480104E-04    0.6347273574E+00    0.4824713187E-03    0.2710786409E-03    0.5175994295E-02
    0.2100000000E+03    0.8099544957E-04    0.6399966974E+00    0.5213120340E-03    0.3011250569E-03    0.5183247047E-02
    0.2300000000E+03    0.8439885119E-04    0.6444161667E+00    0.5617150471E-03    0.3317740310E-03    0.5188721371E-02
    0.2500000000E+03    0.8797157300E-04    0.6481760011E+00    0.6036148883E-03    0.3630640106E-03    0.5192754582E-02
    0.2700000000E+03    0.9171059539E-04    0.6514136013E+00    0.6469708193E-03    0.3950322114E-03    0.5195592925E-02
    0.2900000000E+03    0.9561364681E-04    0.6542306847E+00    0.6917611746E-03    0.4277152745E-03    0.5197420281E-02
    0.3100000000E+03    0.9967930688E-04    0.6567041635E+00    0.7379792462E-03    0.4611497553E-03    0.5198376564E-02
    0.3300000000E+03    0.1039070076E-03    0.6588932716E+00    0.7856302987E-03    0.4953725021E-03    0.5198569884E-02
    0.3500000000E+03    0.1082969931E-03    0.6608443680E+00    0.8347294047E-03    0.5304209621E-03    0.5198084838E-02
    0.3700000000E+03    0.1128502659E-03    0.6625942547E+00    0.8852998707E-03    0.5663334378E-03    0.5196988283E-02
    0.3900000000E+03    0.1175685334E-03    0.6641725184E+00    0.9373720966E-03    0.6031493111E-03    0.5195333446E-02
    0.4100000000E+03    0.1224541599E-03    0.6656032165E+00    0.9909827511E-03    0.6409092445E-03    0.5193162910E-02
    0.4300000000E+03    0.1275101262E-03    0.6669061111E+00    0.1046174186E-02    0.6796553687E-03    0.5190510818E-02
    0.4500000000E+03    0.1327399977E-03    0.6680975864E+00    0.1102994027E-02    0.7194314617E-03    0.5187404515E-02
    0.4700000000E+03    0.1381478998E-03    0.6691913412E+00    0.1161494907E-02    0.7602831232E-03    0.5183865802E-02
    0.4900000000E+03    0.1437385011E-03    0.6701989170E+00    0.1221734303E-02    0.8022579495E-03    0.5179911892E-02
    0.1000000000E+03    0.6531104473E-04    0.5889151036E+00    0.3307524586E-03    0.1421257469E-03    0.5101465124E-02
    0.3000000000E+03    0.9762620588E-04    0.6555063233E+00    0.7146916687E-03    0.4443362954E-03    0.5197999917E-02
    0.5000000000E+03    0.1466039187E-03    0.6706735073E+00    0.1252525211E-02    0.8236820123E-03    0.5177783548E-02
    0.7000000000E+03    0.2151010122E-03    0.6773871143E+00    0.1977835624E-02    0.1324933061E-02    0.5115096890E-02
    0.9000000000E+03    0.3118674167E-03    0.6811725850E+00    0.2986567092E-02    0.2018116263E-02    0.5011138182E-02
    0.1100000000E+04    0.4539098890E-03    0.6836016584E+00    0.4456868961E-02    0.3027175034E-02    0.4850321819E-02
    0.1300000000E+04    0.6738575119E-03    0.6852920249E+00    0.6727346749E-02    0.4586231196E-02    0.4598503930E-02
    0.1500000000E+04    0.1034878438E-02    0.6865358113E+00    0.1045369033E-01    0.7149324181E-02    0.4190612982E-02
    0.1700000000E+04    0.1643514157E-02    0.6874890882E+00    0.1674892171E-01    0.1149226899E-01    0.3527437264E-02
    0.1900000000E+04    0.2555229233E-02    0.6882428119E+00    0.2622630301E-01    0.1806513976E-01    0.2602705015E-02
    0.2100000000E+04    0.3470879494E-02    0.6888535711E+00    0.3584961544E-01    0.2481061455E-01    0.1804291678E-02
    0.2300000000E+04    0.4052424008E-02    0.6893584159E+00    0.4210836926E-01    0.2929570715E-01    0.1450879175E-02
    0.2500000000E+04    0.4403442961E-02    0.6897826190E+00    0.4602559505E-01    0.3219467862E-01    0.1353949294E-02
    0.2700000000E+04    0.4669604147E-02    0.6901440101E+00    0.4909075261E-01    0.3452463988E-01    0.1334680786E-02
    0.2900000000E+04    0.4904553658E-02    0.6904555273E+00    0.5185550828E-01    0.3666452509E-01    0.1334338431E-02
    0.3100000000E+04    0.5123284356E-02    0.6907267864E+00    0.5447357623E-01    0.3871969919E-01    0.1338206948E-02
    0.3300000000E+04    0.5330045287E-02    0.6909650830E+00    0.5698745141E-01    0.4071864780E-01    0.1342830963E-02
    0.3500000000E+04    0.5526333952E-02    0.6911760519E+00    0.5941108399E-01    0.4267007275E-01    0.1347422094E-02
    0.3700000000E+04    0.5712932566E-02    0.6913641141E+00    0.6175105778E-01    0.4457759696E-01    0.1351815862E-02
    0.3900000000E+04    0.5890417587E-02    0.6915327871E+00    0.6401191168E-01    0.4644347481E-01    0.1355992480E-02
    0.4100000000E+04    0.6059288973E-02    0.6916849040E+00    0.6619748970E-01    0.4826953449E-01    0.1359964031E-02
    0.4300000000E+04    0.6220004581E-02    0.6918227725E+00    0.6831129587E-01    0.5005742341E-01    0.1363747963E-02
    0.4500000000E+04    0.6372990633E-02    0.6919482910E+00    0.7035659691E-01    0.5180867624E-01    0.1367361064E-02
    0.4700000000E+04    0.6518645946E-02    0.6920630355E+00    0.7233645966E-01    0.5352473732E-01    0.1370818331E-02
    0.4900000000E+04    0.6657344453E-02    0.6921683253E+00    0.7425377075E-01    0.5520697070E-01    0.1374132951E-02
    0.1000000000E+04    0.3756874877E-03    0.6825066875E+00    0.3647998914E-02    0.2472076904E-02    0.4939428459E-02
    0.3000000000E+04    0.5015571007E-02    0.6905956878E+00    0.5317908294E-01    0.3770013099E-01    0.1336071257E-02
    0.5000000000E+04    0.6724195439E-02    0.6922177794E+00    0.7518982577E-01    0.5603580795E-01    0.1375740448E-02
    0.7000000000E+04    0.7770667682E-02    0.6929070553E+00    0.9121125671E-01    0.7111596767E-01    0.1402595472E-02
    0.9000000000E+04    0.8412968290E-02    0.6932858895E+00    0.1032866779E+00    0.8392918307E-01    0.1422798040E-02
    0.1100000000E+05    0.8797256753E-02    0.6935241390E+00    0.1126268393E+00    0.9508185633E-01    0.1439046512E-02
    0.1300000000E+05    0.9011446238E-02    0.6936870379E+00    0.1199969823E+00    0.1049714515E+00    0.1452664476E-02
    0.1500000000E+05    0.9110787158E-02    0.6938049571E+00    0.1259039193E+00    0.1138707539E+00    0.1464402043E-02
    0.1700000000E+05    0.9131245825E-02    0.6938939296E+00    0.1306963098E+00    0.1219741183E+00    0.1474726414E-02
    0.1900000000E+05    0.9096914360E-02    0.6939632087E+00    0.1346216883E+00    0.1294243840E+00    0.1483948731E-02
    0.2100000000E+05    0.9024313924E-02    0.6940185032E+00    0.1378605173E+00    0.1363293096E+00    0.1492286855E-02
    0.2300000000E+05    0.8924994939E-02    0.6940635234E+00    0.1405473726E+00    0.1427720236E+00    0.1499899397E-02
    0.2500000000E+05    0.8807162027E-02    0.6941007831E+00    0.1427845903E+00    0.1488179017E+00    0.1506905491E-02
    0.2700000000E+05    0.8676719240E-02    0.6941320445E+00    0.1446513262E+00    0.1545192291E+00    0.1513396936E-02
    0.2900000000E+05    0.8537959421E-02    0.6941585790E+00    0.1462097289E+00    0.1599184433E+00    0.1519446000E-02
    0.3100000000E+05    0.8394028906E-02    0.6941813260E+00    0.1475092445E+00    0.1650504426E+00    0.1525110610E-02
    0.3300000000E+05    0.8247246851E-02    0.6942009946E+00    0.1485896795E+00    0.1699442615E+00    0.1530437925E-02
    0.3500000000E+05    0.8099328429E-02    0.6942181294E+00    0.1494834214E+00    0.1746243097E+00    0.1535466863E-02
    0.3700000000E+05    0.7951543202E-02    0.6942331556E+00    0.1502170730E+00    0.1791113030E+00    0.1540229919E-02
    0.3900000000E+05    0.7804829016E-02    0.6942464098E+00    0.1508126757E+00    0.1834229726E+00    0.1544754511E-02
    0.4100000000E+05    0.7659874909E-02    0.6942581619E+00    0.1512886348E+00    0.1875746130E+00    0.1549063991E-02
    0.4300000000E+05    0.7517182102E-02    0.6942686303E+00    0.1516604299E+00    0.1915795109E+00    0.1553178412E-02
    0.4500000000E+05    0.7377109309E-02    0.6942779942E+00    0.1519411657E+00    0.1954492835E+00    0.1557115125E-02
    0.4700000000E+05    0.7239906696E-02    0.6942864014E+00    0.1521420032E+00    0.1991941491E+00    0.1560889248E-02
    0.4900000000E+05    0.7105741511E-02    0.6942939751E+00    0.1522725010E+00    0.2028231450E+00    0.1564514028E-02
    0.1000000000E+05    0.8630886293E-02    0.6934172842E+00    0.1082431699E+00    0.8968458873E-01    0.1431314997E-02
    0.3000000000E+05    0.8466479161E-02    0.6941703771E+00    0.1468891632E+00    0.1625159090E+00    0.1522323196E-02
    0.5000000000E+05    0.7039832443E-02    0.6942974824E+00    0.1523139894E+00    0.2045967373E+00    0.1566274120E-02
    0.7000000000E+05    0.5886477286E-02    0.6943419887E+00    0.1509472819E+00    0.2355399522E+00    0.1595862976E-02
    0.9000000000E+05    0.5004562835E-02    0.6943611203E+00    0.1474901340E+00    0.2604201210E+00    0.1618309204E-02
    0.1100000000E+06    0.4320948955E-02    0.6943696952E+00    0.1433413868E+00    0.2813692354E+00    0.1636450236E-02
    0.1300000000E+06    0.3779570269E-02    0.6943731141E+00    0.1390226140E+00    0.2995110060E+00    0.1651702670E-02
    0.1500000000E+06    0.3342089034E-02    0.6943737588E+00    0.1347511972E+00    0.3155222712E+00    0.1664878314E-02
    0.1700000000E+06    0.2982309210E-02    0.6943728161E+00    0.1306211931E+00    0.3298481801E+00    0.1676486696E-02
    0.1900000000E+06    0.2681958418E-02    0.6943709306E+00    0.1266714935E+00    0.3428002691E+00    0.1686869068E-02
    0.2100000000E+06    0.2427979327E-02    0.6943684745E+00    0.1229147734E+00    0.3546068468E+00    0.1696265405E-02
    0.2300000000E+06    0.2210822303E-02    0.6943656731E+00    0.1193508682E+00    0.3654412597E+00    0.1704851011E-02
    0.2500000000E+06    0.2023354487E-02    0.6943626677E+00    0.1159733381E+00    0.3754388608E+00    0.1712757922E-02
    0.2700000000E+06    0.1860147181E-02    0.6943595492E+00    0.1127728283E+00    0.3847077558E+00    0.1720088112E-02
    0.2900000000E+06    0.1716999234E-02    0.6943563775E+00    0.1097388334E+00    0.3933359131E+00    0.1726922009E-02
    0.3100000000E+06    0.1590610945E-02    0.6943531923E+00    0.1068606327E+00    0.4013960406E+00    0.1733324186E-02
    0.3300000000E+06    0.1478356182E-02    0.6943500202E+00    0.1041277810E+00    0.4089490332E+00    0.1739347287E-02
    0.3500000000E+06    0.1378120028E-02    0.6943468791E+00    0.1015303545E+00    0.4160464750E+00    0.1745034807E-02
    0.3700000000E+06    0.1288181056E-02    0.6943437809E+00    0.9905906154E-01    0.4227324955E+00    0.1750423104E-02
    0.3900000000E+06    0.1207124602E-02    0.6943407334E+00    0.9670527698E-01    0.4290451735E+00    0.1755542882E-02
    0.4100000000E+06    0.1133777915E-02    0.6943377414E+00    0.9446103566E-01    0.4350176181E+00    0.1760420314E-02
    0.4300000000E+06    0.1067161041E-02    0.6943348078E+00    0.9231900315E-01    0.4406788124E+00    0.1765077893E-02
    0.4500000000E+06    0.1006449158E-02    0.6943319340E+00    0.9027243595E-01    0.4460542818E+00    0.1769535094E-02
    0.4700000000E+06    0.9509433683E-03    0.6943291205E+00    0.8831513728E-01    0.4511666296E+00    0.1773808895E-02
    0.4900000000E+06    0.9000478254E-03    0.6943263669E+00    0.8644141235E-01    0.4560359703E+00    0.1777914183E-02
    0.1000000000E+06    0.4641954250E-02    0.6943662822E+00    0.1454589360E+00    0.2713014509E+00    0.1627809600E-02
    0.3000000000E+06    0.1651887891E-02    0.6943547847E+00    0.1082809218E+00    0.3974329309E+00    0.1730173530E-02
    0.5000000000E+06    0.8761663415E-03    0.6943250124E+00    0.8553423696E-01    0.4583852069E+00    0.1779907800E-02
    0.7000000000E+06    0.5481466073E-03    0.6943007584E+00    0.7071105905E-01    0.4961202522E+00    0.1813439579E-02
    0.9000000000E+06    0.3766616457E-03    0.6942808559E+00    0.6027974273E-01    0.5220886544E+00    0.1838893964E-02
    0.1100000000E+07    0.2752310416E-03    0.6942640616E+00    0.5253281580E-01    0.5411366883E+00    0.1859473996E-02
    0.1300000000E+07    0.2100995424E-03    0.6942495504E+00    0.4654882599E-01    0.5557351205E+00    0.1876781263E-02
    0.1500000000E+07    0.1657302777E-03    0.6942367765E+00    0.4178602974E-01    0.5672920144E+00    0.1891734453E-02
    0.1700000000E+07    0.1341207132E-03    0.6942253656E+00    0.3790460755E-01    0.5766735642E+00    0.1904910543E-02
    0.1900000000E+07    0.1107948042E-03    0.6942150516E+00    0.3468038639E-01    0.5844436635E+00    0.1916696137E-02
    0.2100000000E+07    0.9308513296E-04    0.6942056393E+00    0.3195940123E-01    0.5909859224E+00    0.1927363196E-02
    0.2300000000E+07    0.7931986037E-04    0.6941969810E+00    0.2963235800E-01    0.5965707030E+00    0.1937110445E-02
    0.2500000000E+07    0.6840707423E-04    0.6941889628E+00    0.2761950510E-01    0.6013941901E+00    0.1946087590E-02
    0.2700000000E+07    0.5960871596E-04    0.6941814947E+00    0.2586127164E-01    0.6056022739E+00    0.1954410275E-02
    0.2900000000E+07    0.5241118434E-04    0.6941745046E+00    0.2431225782E-01    0.6093057368E+00    0.1962169723E-02
    0.3100000000E+07    0.4644803334E-04    0.6941679336E+00    0.2293725433E-01    0.6125902369E+00    0.1969439181E-02
    0.3300000000E+07    0.4145207416E-04    0.6941617332E+00    0.2170853331E-01    0.6155230607E+00    0.1976278375E-02
    0.3500000000E+07    0.3722474589E-04    0.6941558629E+00    0.2060396057E-01    0.6181578051E+00    0.1982736652E-02
    0.3700000000E+07    0.3361598225E-04    0.6941502886E+00    0.1960565221E-01    0.6205376948E+00    0.1988855264E-02
    0.3900000000E+07    0.3051065268E-04    0.6941449811E+00    0.1869900097E-01    0.6226979780E+00    0.1994669055E-02
    0.4100000000E+07    0.2781923189E-04    0.6941399154E+00    0.1787195853E-01    0.6246676869E+00    0.2000207727E-02
    0.4300000000E+07    0.2547125437E-04    0.6941350700E+00    0.1711449865E-01    0.6264709514E+00    0.2005496805E-02
    0.4500000000E+07    0.2341064206E-04    0.6941304259E+00    0.1641821003E-01    0.6281279919E+00    0.2010558394E-02
    0.4700000000E+07    0.2159231644E-04    0.6941259668E+00    0.1577598376E-01    0.6296558812E+00    0.2015411761E-02
    0.4900000000E+07    0.1997970651E-04    0.6941216781E+00    0.1518177068E-01    0.6310691339E+00    0.2020073806E-02
    0.1000000000E+07    0.3199366647E-03    0.6942721300E+00    0.5614032385E-01    0.5322890206E+00    0.1849670905E-02
    0.3000000000E+07    0.4929391416E-04    0.6941711699E+00    0.2360488780E-01    0.6109957841E+00    0.1965861693E-02
    0.5000000000E+07    0.1924097577E-04    0.6941195935E+00    0.1490102081E-01    0.6317367238E+00    0.2022337810E-02
    0.7000000000E+07    0.1024224859E-04    0.6940843739E+00    0.1086992176E-01    0.6413133814E+00    0.2060418513E-02
    0.9000000000E+07    0.6387465854E-05    0.6940574762E+00    0.8547679075E-02    0.6468237760E+00    0.2089327086E-02
    0.1100000000E+08    0.4387498030E-05    0.6940356512E+00    0.7038826202E-02    0.6504020916E+00    0.2112700263E-02
    0.1300000000E+08    0.3216990247E-05    0.6940172530E+00    0.5980237792E-02    0.6529118748E+00    0.2132356680E-02
    0.1500000000E+08    0.2472562082E-05    0.6940013300E+00    0.5196818997E-02    0.6547690058E+00    0.2149339585E-02
    0.1700000000E+08    0.1969372529E-05    0.6939872810E+00    0.4593785131E-02    0.6561984422E+00    0.2164304215E-02
    0.1900000000E+08    0.1613008068E-05    0.6939747017E+00    0.4115369749E-02    0.6573324710E+00    0.2177689621E-02
    0.2100000000E+08    0.1351145960E-05    0.6939633068E+00    0.3726628464E-02    0.6582539568E+00    0.2189804666E-02
    0.2300000000E+08    0.1152883615E-05    0.6939528872E+00    0.3404554581E-02    0.6590174429E+00    0.2200875041E-02
    0.2500000000E+08    0.9990116643E-06    0.6939432852E+00    0.3133384816E-02    0.6596602939E+00    0.2211070772E-02
    0.2700000000E+08    0.8770767112E-06    0.6939343787E+00    0.2901958019E-02    0.6602089621E+00    0.2220523199E-02
