  Pressure (Pa) 22mC5-500 (mol/kg) 24mC5-500 (mol/kg) 2mC6-500 (mol/kg) 3mC6-500 (mol/kg) C7-500 (mol/kg)
    0.1000000000E+01    0.3879912553E-05    0.1949935447E+00    0.1484472529E-04    0.8000690154E-06    0.4189109283E-02
    0.3000000000E+01    0.6876940184E-05    0.3748839622E+00    0.2496110026E-04    0.2045271750E-05    0.4220467517E-02
    0.5000000000E+01    0.8056114972E-05    0.4597060727E+00    0.2889374819E-04    0.3189643557E-05    0.4234254761E-02
    0.7000000000E+01    0.8693572958E-05    0.5090717677E+00    0.3149557856E-04    0.4285066460E-05    0.4242249417E-02
    0.9000000000E+01    0.9126649878E-05    0.5413698010E+00    0.3380529579E-04    0.5349068535E-05    0.4247487708E-02
    0.1100000000E+02    0.9473468381E-05    0.5641471396E+00    0.3610059202E-04    0.6390429487E-05    0.4251181156E-02
    0.1300000000E+02    0.9782536078E-05    0.5810727982E+00    0.3845805966E-04    0.7414379329E-05    0.4253915760E-02
    0.1500000000E+02    0.1007583712E-04    0.5941451285E+00    0.4089331300E-04    0.8424366768E-05    0.4256011457E-02
    0.1700000000E+02    0.1036395505E-04    0.6045455485E+00    0.4340277653E-04    0.9422824830E-05    0.4257658462E-02
    0.1900000000E+02    0.1065214249E-04    0.6130172944E+00    0.4597745613E-04    0.1041155509E-04    0.4258977313E-02
    0.2100000000E+02    0.1094300561E-04    0.6200513324E+00    0.4860765679E-04    0.1139194111E-04    0.4260048285E-02
    0.2300000000E+02    0.1123778116E-04    0.6259850201E+00    0.5128453483E-04    0.1236507610E-04    0.4260927015E-02
    0.2500000000E+02    0.1153697859E-04    0.6310578232E+00    0.5400049978E-04    0.1333184391E-04    0.4261653353E-02
    0.2700000000E+02    0.1184071709E-04    0.6354444210E+00    0.5674920294E-04    0.1429297269E-04    0.4262256628E-02
    0.2900000000E+02    0.1214890826E-04    0.6392752282E+00    0.5952539186E-04    0.1524907184E-04    0.4262758940E-02
    0.3100000000E+02    0.1246135728E-04    0.6426495808E+00    0.6232473728E-04    0.1620065826E-04    0.4263177276E-02
    0.3300000000E+02    0.1277781984E-04    0.6456444733E+00    0.6514367107E-04    0.1714817546E-04    0.4263524921E-02
    0.3500000000E+02    0.1309803414E-04    0.6483205055E+00    0.6797924693E-04    0.1809200783E-04    0.4263812429E-02
    0.3700000000E+02    0.1342173880E-04    0.6507260255E+00    0.7082902508E-04    0.1903249142E-04    0.4264048293E-02
    0.3900000000E+02    0.1374868258E-04    0.6529000771E+00    0.7369097847E-04    0.1996992237E-04    0.4264239434E-02
    0.4100000000E+02    0.1407862921E-04    0.6548745354E+00    0.7656341716E-04    0.2090456343E-04    0.4264391553E-02
    0.4300000000E+02    0.1441135960E-04    0.6566756795E+00    0.7944492741E-04    0.2183664919E-04    0.4264509387E-02
    0.4500000000E+02    0.1474667223E-04    0.6583253694E+00    0.8233432273E-04    0.2276639028E-04    0.4264596915E-02
    0.4700000000E+02    0.1508438282E-04    0.6598419368E+00    0.8523060432E-04    0.2369397680E-04    0.4264657500E-02
    0.4900000000E+02    0.1542432341E-04    0.6612408701E+00    0.8813292905E-04    0.2461958109E-04    0.4264694005E-02
    0.1000000000E+02    0.9306900665E-05    0.5536645110E+00    0.3494767907E-04    0.5872197268E-05    0.4249482177E-02
    0.3000000000E+02    0.1230461511E-04    0.6410142059E+00    0.6092240910E-04    0.1572539989E-04    0.4262977701E-02
    0.5000000000E+02    0.1559508165E-04    0.6619004195E+00    0.8958613019E-04    0.2508168949E-04    0.4264704009E-02
    0.7000000000E+02    0.1909706702E-04    0.6712741468E+00    0.1188431654E-03    0.3425156160E-04    0.4264086323E-02
    0.9000000000E+02    0.2271411722E-04    0.6765972612E+00    0.1483203442E-03    0.4334196920E-04    0.4262543862E-02
    0.1100000000E+03    0.2640696269E-04    0.6800287483E+00    0.1779521456E-03    0.5240743228E-04    0.4260520744E-02
    0.1300000000E+03    0.3015827430E-04    0.6824247497E+00    0.2077430079E-03    0.6148116352E-04    0.4258204595E-02
    0.1500000000E+03    0.3396000587E-04    0.6841924902E+00    0.2377150365E-03    0.7058571273E-04    0.4255689388E-02
    0.1700000000E+03    0.3780846976E-04    0.6855504131E+00    0.2678938779E-03    0.7973758603E-04    0.4253027664E-02
    0.1900000000E+03    0.4170219701E-04    0.6866262122E+00    0.2983045988E-03    0.8894956584E-04    0.4250251125E-02
    0.2100000000E+03    0.4564092033E-04    0.6874995238E+00    0.3289705868E-03    0.9823199940E-04    0.4247379978E-02
    0.2300000000E+03    0.4962505563E-04    0.6882225903E+00    0.3599134219E-03    0.1075935698E-03    0.4244427634E-02
    0.2500000000E+03    0.5365542312E-04    0.6888311060E+00    0.3911530542E-03    0.1170417842E-03    0.4241403257E-02
    0.2700000000E+03    0.5773309072E-04    0.6893502888E+00    0.4227080553E-03    0.1265832981E-03    0.4238313229E-02
    0.2900000000E+03    0.6185928335E-04    0.6897984608E+00    0.4545958676E-03    0.1362241381E-03    0.4235162055E-02
    0.3100000000E+03    0.6603532912E-04    0.6901892544E+00    0.4868330246E-03    0.1459698611E-03    0.4231952916E-02
    0.3300000000E+03    0.7026262703E-04    0.6905330226E+00    0.5194353386E-03    0.1558256698E-03    0.4228688050E-02
    0.3500000000E+03    0.7454262743E-04    0.6908377693E+00    0.5524180583E-03    0.1657964999E-03    0.4225368993E-02
    0.3700000000E+03    0.7887682037E-04    0.6911097795E+00    0.5857960005E-03    0.1758870867E-03    0.4221996754E-02
    0.3900000000E+03    0.8326672886E-04    0.6913540573E+00    0.6195836601E-03    0.1861020164E-03    0.4218571939E-02
    0.4100000000E+03    0.8771390523E-04    0.6915746366E+00    0.6537953033E-03    0.1964457681E-03    0.4215094834E-02
    0.4300000000E+03    0.9221992950E-04    0.6917748051E+00    0.6884450463E-03    0.2069227463E-03    0.4211565476E-02
    0.4500000000E+03    0.9678640901E-04    0.6919572692E+00    0.7235469228E-03    0.2175373088E-03    0.4207983692E-02
    0.4700000000E+03    0.1014149791E-03    0.6921242772E+00    0.7591149425E-03    0.2282937893E-03    0.4204349141E-02
    0.4900000000E+03    0.1061073039E-03    0.6922777124E+00    0.7951631421E-03    0.2391965170E-03    0.4200661342E-02
    0.1000000000E+03    0.2455245651E-04    0.6784802989E+00    0.1631173523E-03    0.4787541317E-04    0.4261577453E-02
    0.3000000000E+03    0.6394098854E-04    0.6900003187E+00    0.4706697748E-03    0.1410835569E-03    0.4233564572E-02
    0.5000000000E+03    0.1084779027E-03    0.6923498466E+00    0.8133717145E-03    0.2447040793E-03    0.4198797289E-02
    0.7000000000E+03    0.1596735775E-03    0.6933609675E+00    0.1206310681E-02    0.3636243615E-03    0.4158519082E-02
    0.9000000000E+03    0.2194751536E-03    0.6939235598E+00    0.1665113149E-02    0.5026288769E-03    0.4111691760E-02
    0.1100000000E+04    0.2904030577E-03    0.6942817748E+00    0.2209428179E-02    0.6677157111E-03    0.4056639095E-02
    0.1300000000E+04    0.3758610266E-03    0.6945297930E+00    0.2865626525E-02    0.8669396450E-03    0.3991018914E-02
    0.1500000000E+04    0.4805840195E-03    0.6947116414E+00    0.3670347965E-02    0.1111503038E-02    0.3911571591E-02
    0.1700000000E+04    0.6113220873E-03    0.6948506544E+00    0.4675839640E-02    0.1417397207E-02    0.3813696204E-02
    0.1900000000E+04    0.7779056480E-03    0.6949603515E+00    0.5958260785E-02    0.1807960504E-02    0.3690794698E-02
    0.2100000000E+04    0.9948878885E-03    0.6950491063E+00    0.7630514071E-02    0.2317842016E-02    0.3533299644E-02
    0.2300000000E+04    0.1283918348E-02    0.6951223817E+00    0.9860881921E-02    0.2998787317E-02    0.3327379280E-02
    0.2500000000E+04    0.1676462974E-02    0.6951838935E+00    0.1289467273E-01    0.3926444886E-02    0.3053784931E-02
    0.2700000000E+04    0.2214099353E-02    0.6952362568E+00    0.1705776004E-01    0.5201826684E-02    0.2689065637E-02
    0.2900000000E+04    0.2936558588E-02    0.6952813656E+00    0.2266619373E-01    0.6924281349E-02    0.2215952262E-02
    0.3100000000E+04    0.3838985200E-02    0.6953206251E+00    0.2969705241E-01    0.9091206151E-02    0.1653464185E-02
    0.3300000000E+04    0.4810548631E-02    0.6953550998E+00    0.3730858304E-01    0.1144970053E-01    0.1091666358E-02
    0.3500000000E+04    0.5667253039E-02    0.6953856110E+00    0.4408052647E-01    0.1356607729E-01    0.6536292083E-03
    0.3700000000E+04    0.6308406498E-02    0.6954128023E+00    0.4922094887E-01    0.1519412871E-01    0.3876617178E-03
    0.3900000000E+04    0.6764724420E-02    0.6954371852E+00    0.5295239776E-01    0.1639750215E-01    0.2532019895E-03
    0.4100000000E+04    0.7108076093E-02    0.6954591715E+00    0.5582275539E-01    0.1734149162E-01    0.1919402486E-03
    0.4300000000E+04    0.7391300829E-02    0.6954790961E+00    0.5823801593E-01    0.1814955343E-01    0.1654233072E-03
    0.4500000000E+04    0.7642894752E-02    0.6954972345E+00    0.6041792303E-01    0.1888875547E-01    0.1542615254E-03
    0.4700000000E+04    0.7876512135E-02    0.6955138153E+00    0.6246788672E-01    0.1959131455E-01    0.1496935939E-03
    0.4900000000E+04    0.8098452070E-02    0.6955290297E+00    0.6443641713E-01    0.2027203035E-01    0.1479288542E-03
    0.1000000000E+04    0.2533606622E-03    0.6941205664E+00    0.1925126140E-02    0.5814676150E-03    0.4085322194E-02
    0.3000000000E+04    0.3369243116E-02    0.6953016533E+00    0.2603341886E-01    0.7960914943E-02    0.1942066384E-02
    0.5000000000E+04    0.8206028472E-02    0.6955361758E+00    0.6539767680E-01    0.2060647997E-01    0.1475481506E-03
    0.7000000000E+04    0.1003267510E-01    0.6956358115E+00    0.8248724393E-01    0.2677983445E-01    0.1492727678E-03
    0.9000000000E+04    0.1139312283E-01    0.6956906584E+00    0.9646217249E-01    0.3219939259E-01    0.1513777795E-03
    0.1100000000E+05    0.1241871578E-01    0.6957252314E+00    0.1081030393E+00    0.3703581597E-01    0.1530790722E-03
    0.1300000000E+05    0.1319702685E-01    0.6957489347E+00    0.1179417020E+00    0.4140703417E-01    0.1545093425E-03
    0.1500000000E+05    0.1378914290E-01    0.6957661450E+00    0.1263595691E+00    0.4539954813E-01    0.1557447976E-03
    0.1700000000E+05    0.1423875836E-01    0.6957791728E+00    0.1336373110E+00    0.4907843128E-01    0.1568332549E-03
    0.1900000000E+05    0.1457780349E-01    0.6957893520E+00    0.1399860835E+00    0.5249370871E-01    0.1578067329E-03
    0.2100000000E+05    0.1483004648E-01    0.6957975060E+00    0.1455678149E+00    0.5568456486E-01    0.1586877441E-03
    0.2300000000E+05    0.1501346635E-01    0.6958041700E+00    0.1505087803E+00    0.5868219997E-01    0.1594927322E-03
    0.2500000000E+05    0.1514185584E-01    0.6958097072E+00    0.1549089162E+00    0.6151181861E-01    0.1602340812E-03
    0.2700000000E+05    0.1522592844E-01    0.6958143721E+00    0.1588483593E+00    0.6419404485E-01    0.1609213548E-03
    0.2900000000E+05    0.1527409804E-01    0.6958183485E+00    0.1623921278E+00    0.6674594939E-01    0.1615620953E-03
    0.3100000000E+05    0.1529303770E-01    0.6958217724E+00    0.1655935336E+00    0.6918180830E-01    0.1621623582E-03
    0.3300000000E+05    0.1528808655E-01    0.6958247466E+00    0.1684967089E+00    0.7151367227E-01    0.1627270800E-03
    0.3500000000E+05    0.1526355020E-01    0.6958273500E+00    0.1711385055E+00    0.7375179995E-01    0.1632603392E-03
    0.3700000000E+05    0.1522292545E-01    0.6958296442E+00    0.1735499401E+00    0.7590499208E-01    0.1637655446E-03
    0.3900000000E+05    0.1516907041E-01    0.6958316783E+00    0.1757573082E+00    0.7798085216E-01    0.1642455754E-03
    0.4100000000E+05    0.1510433459E-01    0.6958334913E+00    0.1777830515E+00    0.7998599204E-01    0.1647028856E-03
    0.4300000000E+05    0.1503065941E-01    0.6958351152E+00    0.1796464414E+00    0.8192619569E-01    0.1651395839E-03
    0.4500000000E+05    0.1494965655E-01    0.6958365759E+00    0.1813641207E+00    0.8380655090E-01    0.1655574965E-03
    0.4700000000E+05    0.1486266952E-01    0.6958378952E+00    0.1829505382E+00    0.8563155601E-01    0.1659582149E-03
    0.4900000000E+05    0.1477082249E-01    0.6958390909E+00    0.1844183000E+00    0.8740520716E-01    0.1663431351E-03
    0.1000000000E+05    0.1194154245E-01    0.6957097145E+00    0.1025368385E+00    0.3468223762E-01    0.1522687640E-03
    0.3000000000E+05    0.1528686060E-01    0.6958201224E+00    0.1640326775E+00    0.6797758487E-01    0.1618669552E-03
    0.5000000000E+05    0.1472337752E-01    0.6958396473E+00    0.1851111918E+00    0.8827390439E-01    0.1665300613E-03
    0.7000000000E+05    0.1368192990E-01    0.6958469422E+00    0.1948153063E+00    0.1036452956E+00    0.1696741529E-03
    0.9000000000E+05    0.1265461091E-01    0.6958503944E+00    0.1997614855E+00    0.1163539819E+00    0.1720609801E-03
    0.1100000000E+06    0.1173095967E-01    0.6958522053E+00    0.2022939115E+00    0.1273580214E+00    0.1739908238E-03
    0.1300000000E+06    0.1091786290E-01    0.6958531894E+00    0.2034535836E+00    0.1371578802E+00    0.1756138306E-03
    0.1500000000E+06    0.1020368262E-01    0.6958537116E+00    0.2037721437E+00    0.1460508401E+00    0.1770161266E-03
    0.1700000000E+06    0.9573989031E-02    0.6958539572E+00    0.2035482982E+00    0.1542295206E+00    0.1782518036E-03
    0.1900000000E+06    0.9015588683E-02    0.6958540291E+00    0.2029619207E+00    0.1618267927E+00    0.1793571065E-03
    0.2100000000E+06    0.8517344146E-02    0.6958539878E+00    0.2021271593E+00    0.1689387434E+00    0.1803575326E-03
    0.2300000000E+06    0.8070091501E-02    0.6958538711E+00    0.2011194770E+00    0.1756374658E+00    0.1812717130E-03
    0.2500000000E+06    0.7666338863E-02    0.6958537033E+00    0.1999904139E+00    0.1819786701E+00    0.1821136838E-03
    0.2700000000E+06    0.7299951898E-02    0.6958535007E+00    0.1987761109E+00    0.1880064587E+00    0.1828942874E-03
    0.2900000000E+06    0.6965882585E-02    0.6958532744E+00    0.1975024623E+00    0.1937564540E+00    0.1836220766E-03
    0.3100000000E+06    0.6659949763E-02    0.6958530321E+00    0.1961883508E+00    0.1992579225E+00    0.1843039193E-03
    0.3300000000E+06    0.6378665861E-02    0.6958527793E+00    0.1948477473E+00    0.2045352614E+00    0.1849454152E-03
    0.3500000000E+06    0.6119101186E-02    0.6958525200E+00    0.1934911106E+00    0.2096090666E+00    0.1855511913E-03
    0.3700000000E+06    0.5878777676E-02    0.6958522570E+00    0.1921263441E+00    0.2144969175E+00    0.1861251157E-03
    0.3900000000E+06    0.5655585420E-02    0.6958519924E+00    0.1907594634E+00    0.2192139649E+00    0.1866704552E-03
    0.4100000000E+06    0.5447716733E-02    0.6958517278E+00    0.1893950704E+00    0.2237733794E+00    0.1871899950E-03
    0.4300000000E+06    0.5253613739E-02    0.6958514643E+00    0.1880366967E+00    0.2281866986E+00    0.1876861284E-03
    0.4500000000E+06    0.5071926430E-02    0.6958512028E+00    0.1866870543E+00    0.2324640997E+00    0.1881609282E-03
    0.4700000000E+06    0.4901478870E-02    0.6958509439E+00    0.1853482230E+00    0.2366146157E+00    0.1886162011E-03
    0.4900000000E+06    0.4741241772E-02    0.6958506880E+00    0.1840217903E+00    0.2406463098E+00    0.1890535316E-03
    0.1000000000E+06    0.1217861688E-01    0.6958514382E+00    0.2012471934E+00    0.1220312569E+00    0.1730715530E-03
    0.3000000000E+06    0.6809631589E-02    0.6958531549E+00    0.1968494951E+00    0.1965366293E+00    0.1839683655E-03
    0.5000000000E+06    0.4664664999E-02    0.6958505612E+00    0.1833636117E+00    0.2426198886E+00    0.1892659118E-03
    0.7000000000E+06    0.3498088420E-02    0.6958482219E+00    0.1710135730E+00    0.2772795469E+00    0.1928383271E-03
    0.9000000000E+06    0.2762383365E-02    0.6958462358E+00    0.1602250747E+00    0.3052362200E+00    0.1955505001E-03
    0.1100000000E+07    0.2256758991E-02    0.6958445312E+00    0.1507925403E+00    0.3286511468E+00    0.1977434815E-03
    0.1300000000E+07    0.1889029331E-02    0.6958430431E+00    0.1424808579E+00    0.3487394980E+00    0.1995878318E-03
    0.1500000000E+07    0.1610583104E-02    0.6958417242E+00    0.1350950816E+00    0.3662686959E+00    0.2011813965E-03
    0.1700000000E+07    0.1393248114E-02    0.6958405403E+00    0.1284812955E+00    0.3817611986E+00    0.2025856321E-03
    0.1900000000E+07    0.1219535359E-02    0.6958394664E+00    0.1225182711E+00    0.3955918855E+00    0.2038417200E-03
    0.2100000000E+07    0.1078003495E-02    0.6958384836E+00    0.1171096290E+00    0.4080403879E+00    0.2049786311E-03
    0.2300000000E+07    0.9608514510E-03    0.6958375774E+00    0.1121778078E+00    0.4193216054E+00    0.2060175357E-03
    0.2500000000E+07    0.8625789035E-03    0.6958367367E+00    0.1076596197E+00    0.4296046435E+00    0.2069743830E-03
    0.2700000000E+07    0.7791986171E-03    0.6958359525E+00    0.1035029931E+00    0.4390251558E+00    0.2078614933E-03
    0.2900000000E+07    0.7077518714E-03    0.6958352176E+00    0.9966456623E-01    0.4476937126E+00    0.2086885854E-03
    0.3100000000E+07    0.6459988684E-03    0.6958345259E+00    0.9610788771E-01    0.4557016620E+00    0.2094634637E-03
    0.3300000000E+07    0.5922144961E-03    0.6958338726E+00    0.9280205311E-01    0.4631253476E+00    0.2101924914E-03
    0.3500000000E+07    0.5450498325E-03    0.6958332536E+00    0.8972065895E-01    0.4700292168E+00    0.2108809265E-03
    0.3700000000E+07    0.5034359559E-03    0.6958326654E+00    0.8684098956E-01    0.4764681538E+00    0.2115331646E-03
    0.3900000000E+07    0.4665157197E-03    0.6958321050E+00    0.8414337805E-01    0.4824892647E+00    0.2121529182E-03
    0.4100000000E+07    0.4335944543E-03    0.6958315698E+00    0.8161069853E-01    0.4881332616E+00    0.2127433521E-03
    0.4300000000E+07    0.4041037509E-03    0.6958310576E+00    0.7922795882E-01    0.4934355510E+00    0.2133071864E-03
    0.4500000000E+07    0.3775744564E-03    0.6958305664E+00    0.7698197059E-01    0.4984271002E+00    0.2138467764E-03
    0.4700000000E+07    0.3536162657E-03    0.6958300946E+00    0.7486108019E-01    0.5031351339E+00    0.2143641752E-03
    0.4900000000E+07    0.3319021095E-03    0.6958296407E+00    0.7285494719E-01    0.5075836993E+00    0.2148611836E-03
    0.1000000000E+07    0.2488027374E-02    0.6958453528E+00    0.1553547652E+00    0.3174213682E+00    0.1966988586E-03
    0.3000000000E+07    0.6757816601E-03    0.6958348666E+00    0.9785305639E-01    0.4517751810E+00    0.2090821243E-03
    0.5000000000E+07    0.3217985972E-03    0.6958294200E+00    0.7189199661E-01    0.5097174433E+00    0.2151025451E-03
    0.7000000000E+07    0.1889299753E-03    0.6958256861E+00    0.5687690505E-01    0.5428688330E+00    0.2191624606E-03
    0.9000000000E+07    0.1243865744E-03    0.6958228294E+00    0.4705446226E-01    0.5644505407E+00    0.2222447499E-03
    0.1100000000E+08    0.8811110794E-04    0.6958205090E+00    0.4012022399E-01    0.5796447454E+00    0.2247369984E-03
    0.1300000000E+08    0.6568440120E-04    0.6958185516E+00    0.3496161275E-01    0.5909285778E+00    0.2268330401E-03
    0.1500000000E+08    0.5084935344E-04    0.6958168568E+00    0.3097357597E-01    0.5996415034E+00    0.2286440726E-03
    0.1700000000E+08    0.4052621129E-04    0.6958153609E+00    0.2779826883E-01    0.6065728036E+00    0.2302399387E-03
    0.1900000000E+08    0.3305377390E-04    0.6958140211E+00    0.2521033042E-01    0.6122182719E+00    0.2316674396E-03
    0.2100000000E+08    0.2747110922E-04    0.6958128072E+00    0.2306070625E-01    0.6169052103E+00    0.2329594999E-03
    0.2300000000E+08    0.2319075152E-04    0.6958116970E+00    0.2124685005E-01    0.6208584724E+00    0.2341401790E-03
    0.2500000000E+08    0.1983704936E-04    0.6958106737E+00    0.1969588836E-01    0.6242376674E+00    0.2352276025E-03
    0.2700000000E+08    0.1716067303E-04    0.6958097244E+00    0.1835460866E-01    0.6271592369E+00    0.2362357720E-03
