  Pressure (Pa) 22mC5-500 (mol/kg) 24mC5-500 (mol/kg) 2mC6-500 (mol/kg) 3mC6-500 (mol/kg) C7-500 (mol/kg)
    0.1000000000E+01    0.3880107730E-05    0.1949978761E+00    0.2474310507E-05    0.4801791606E-05    0.4188842369E-02
    0.3000000000E+01    0.6877906611E-05    0.3748970954E+00    0.4161228454E-05    0.1228125290E-04    0.4219878464E-02
    0.5000000000E+01    0.8058189839E-05    0.4597228108E+00    0.4818018196E-05    0.1916185612E-04    0.4233390484E-02
    0.7000000000E+01    0.8697123644E-05    0.5090895945E+00    0.5253501614E-05    0.2575435578E-04    0.4241131238E-02
    0.9000000000E+01    0.9132051520E-05    0.5413876363E+00    0.5640786814E-05    0.3216362985E-04    0.4246128877E-02
    0.1100000000E+02    0.9481092204E-05    0.5641645200E+00    0.6026142797E-05    0.3844216585E-04    0.4249591006E-02
    0.1300000000E+02    0.9792746611E-05    0.5810895342E+00    0.6422323127E-05    0.4462120682E-04    0.4252101334E-02
    0.1500000000E+02    0.1008899220E-04    0.5941611572E+00    0.6831920338E-05    0.5072134114E-04    0.4253978307E-02
    0.1700000000E+02    0.1038040656E-04    0.6045608668E+00    0.7254330485E-05    0.5675708549E-04    0.4255411103E-02
    0.1900000000E+02    0.1067223720E-04    0.6130319271E+00    0.7688047988E-05    0.6273918392E-04    0.4256519497E-02
    0.2100000000E+02    0.1096708600E-04    0.6200653166E+00    0.8131451629E-05    0.6867588428E-04    0.4257383186E-02
    0.2300000000E+02    0.1126618605E-04    0.6259983972E+00    0.8583062997E-05    0.7457370178E-04    0.4258057355E-02
    0.2500000000E+02    0.1157004372E-04    0.6310706349E+00    0.9041613300E-05    0.8043790273E-04    0.4258581487E-02
    0.2700000000E+02    0.1187877562E-04    0.6354567075E+00    0.9506041311E-05    0.8627282522E-04    0.4258984616E-02
    0.2900000000E+02    0.1219229113E-04    0.6392870271E+00    0.9975469008E-05    0.9208209981E-04    0.4259288593E-02
    0.3100000000E+02    0.1251039359E-04    0.6426609269E+00    0.1044917265E-04    0.9786880623E-04    0.4259510197E-02
    0.3300000000E+02    0.1283283709E-04    0.6456553984E+00    0.1092655571E-04    0.1036355874E-03    0.4259662536E-02
    0.3500000000E+02    0.1315935853E-04    0.6483310387E+00    0.1140712560E-04    0.1093847344E-03    0.4259756009E-02
    0.3700000000E+02    0.1348969540E-04    0.6507361933E+00    0.1189047440E-04    0.1151182512E-03    0.4259798978E-02
    0.3900000000E+02    0.1382359554E-04    0.6529099037E+00    0.1237626322E-04    0.1208379043E-03    0.4259798246E-02
    0.4100000000E+02    0.1416082193E-04    0.6548840428E+00    0.1286420955E-04    0.1265452622E-03    0.4259759409E-02
    0.4300000000E+02    0.1450115485E-04    0.6566848878E+00    0.1335407709E-04    0.1322417261E-03    0.4259687116E-02
    0.4500000000E+02    0.1484439232E-04    0.6583342968E+00    0.1384566758E-04    0.1379285551E-03    0.4259585261E-02
    0.4700000000E+02    0.1519034968E-04    0.6598506003E+00    0.1433881416E-04    0.1436068865E-03    0.4259457132E-02
    0.4900000000E+02    0.1553885871E-04    0.6612492849E+00    0.1483337606E-04    0.1492777524E-03    0.4259305529E-02
    0.1000000000E+02    0.9313367396E-05    0.5536821547E+00    0.5832528832E-05    0.3531695833E-04    0.4248006688E-02
    0.3000000000E+02    0.1235078367E-04    0.6410257743E+00    0.1021182631E-04    0.9497809974E-04    0.4259408799E-02
    0.5000000000E+02    0.1571402174E-04    0.6619087153E+00    0.1508114982E-04    0.1521106830E-03    0.4259221687E-02
    0.7000000000E+02    0.1932099578E-04    0.6712806228E+00    0.2009024349E-04    0.2085683914E-03    0.4256746575E-02
    0.9000000000E+02    0.2307545913E-04    0.6766025856E+00    0.2517723364E-04    0.2649970045E-03    0.4253361688E-02
    0.1100000000E+03    0.2693879834E-04    0.6800332781E+00    0.3033207294E-04    0.3217335185E-03    0.4249490452E-02
    0.1300000000E+03    0.3089460585E-04    0.6824286975E+00    0.3555670361E-04    0.3789905972E-03    0.4245307762E-02
    0.1500000000E+03    0.3493594590E-04    0.6841959928E+00    0.4085624879E-04    0.4369194625E-03    0.4240898712E-02
    0.1700000000E+03    0.3906039276E-04    0.6855535639E+00    0.4623661241E-04    0.4956371282E-03    0.4236309071E-02
    0.1900000000E+03    0.4326787108E-04    0.6866290777E+00    0.5170376832E-04    0.5552400671E-03    0.4231565019E-02
    0.2100000000E+03    0.4755962822E-04    0.6875021531E+00    0.5726356413E-04    0.6158118090E-03    0.4226682020E-02
    0.2300000000E+03    0.5193771057E-04    0.6882250206E+00    0.6292169353E-04    0.6774275010E-03    0.4221669235E-02
    0.2500000000E+03    0.5640468261E-04    0.6888333665E+00    0.6868372363E-04    0.7401568174E-03    0.4216531893E-02
    0.2700000000E+03    0.6096347057E-04    0.6893524024E+00    0.7455513750E-04    0.8040659121E-03    0.4211272648E-02
    0.2900000000E+03    0.6561727351E-04    0.6898004462E+00    0.8054137815E-04    0.8692187867E-03    0.4205892390E-02
    0.3100000000E+03    0.7036951266E-04    0.6901911267E+00    0.8664788937E-04    0.9356782894E-03    0.4200390747E-02
    0.3300000000E+03    0.7522380308E-04    0.6905347946E+00    0.9288015232E-04    0.1003506870E-02    0.4194766412E-02
    0.3500000000E+03    0.8018393902E-04    0.6908394515E+00    0.9924371813E-04    0.1072767174E-02    0.4189017361E-02
    0.3700000000E+03    0.8525388796E-04    0.6911113809E+00    0.1057442372E-03    0.1143522519E-02    0.4183140990E-02
    0.3900000000E+03    0.9043779015E-04    0.6913555857E+00    0.1123874859E-03    0.1215837300E-02    0.4177134216E-02
    0.4100000000E+03    0.9573996202E-04    0.6915760985E+00    0.1191793908E-03    0.1289777338E-02    0.4170993544E-02
    0.4300000000E+03    0.1011649022E-03    0.6917762063E+00    0.1261260522E-03    0.1365410184E-02    0.4164715114E-02
    0.4500000000E+03    0.1067172997E-03    0.6919586147E+00    0.1332337658E-03    0.1442805412E-02    0.4158294728E-02
    0.4700000000E+03    0.1124020433E-03    0.6921255715E+00    0.1405090446E-03    0.1522034874E-02    0.4151727873E-02
    0.4900000000E+03    0.1182242326E-03    0.6922789593E+00    0.1479586394E-03    0.1603172967E-02    0.4145009730E-02
    0.1000000000E+03    0.2499485767E-04    0.6784851927E+00    0.2774617582E-04    0.2933115707E-03    0.4251472848E-02
    0.3000000000E+03    0.6798086694E-04    0.6900022458E+00    0.8357925865E-04    0.9022813046E-03    0.4203156804E-02
    0.5000000000E+03    0.1211885236E-03    0.6923510711E+00    0.1517509854E-03    0.1644481753E-02    0.4141592337E-02
    0.7000000000E+03    0.1891509581E-03    0.6933618721E+00    0.2386580870E-03    0.2591850491E-02    0.4063862899E-02
    0.9000000000E+03    0.2790853599E-03    0.6939242799E+00    0.3536781046E-03    0.3847493117E-02    0.3962780700E-02
    0.1100000000E+04    0.4029401259E-03    0.6942823743E+00    0.5122184088E-03    0.5580834801E-02    0.3826352046E-02
    0.1300000000E+04    0.5816016387E-03    0.6945303073E+00    0.7412103894E-03    0.8088478160E-02    0.3634026018E-02
    0.1500000000E+04    0.8531186137E-03    0.6947120921E+00    0.1089807383E-02    0.1191297784E-01    0.3349580141E-02
    0.1700000000E+04    0.1286267516E-02    0.6948510558E+00    0.1647186318E-02    0.1804231053E-01    0.2911127142E-02
    0.1900000000E+04    0.1982042770E-02    0.6949607134E+00    0.2545488402E-02    0.2795327911E-01    0.2239884945E-02
    0.2100000000E+04    0.2958702447E-02    0.6950494358E+00    0.3813448524E-02    0.4201873752E-01    0.1368093518E-02
    0.2300000000E+04    0.3909079209E-02    0.6951226842E+00    0.5060652623E-02    0.5599833395E-01    0.6377714101E-03
    0.2500000000E+04    0.4534277577E-02    0.6951841731E+00    0.5899126506E-02    0.6559028737E-01    0.2925060053E-03
    0.2700000000E+04    0.4923962518E-02    0.6952365167E+00    0.6439141420E-02    0.7195288009E-01    0.1824988338E-03
    0.2900000000E+04    0.5218621149E-02    0.6952816084E+00    0.6859951771E-02    0.7704144919E-01    0.1528193846E-03
    0.3100000000E+04    0.5477100341E-02    0.6953208529E+00    0.7237116741E-02    0.8168556973E-01    0.1454272630E-03
    0.3300000000E+04    0.5717690618E-02    0.6953553143E+00    0.7594113442E-02    0.8614316198E-01    0.1438648626E-03
    0.3500000000E+04    0.5945852719E-02    0.6953858137E+00    0.7937847198E-02    0.9048919281E-01    0.1437979732E-03
    0.3700000000E+04    0.6163407610E-02    0.6954129943E+00    0.8270504336E-02    0.9474631918E-01    0.1441032626E-03
    0.3900000000E+04    0.6371161245E-02    0.6954373676E+00    0.8592956070E-02    0.9892260981E-01    0.1444903724E-03
    0.4100000000E+04    0.6569627439E-02    0.6954593451E+00    0.8905700458E-02    0.1030220339E+00    0.1448848364E-03
    0.4300000000E+04    0.6759225910E-02    0.6954792618E+00    0.9209121353E-02    0.1070473557E+00    0.1452683201E-03
    0.4500000000E+04    0.6940337114E-02    0.6954973929E+00    0.9503560060E-02    0.1110009361E+00    0.1456370774E-03
    0.4700000000E+04    0.7113318009E-02    0.6955139670E+00    0.9789335646E-02    0.1148849574E+00    0.1459910877E-03
    0.4900000000E+04    0.7278507092E-02    0.6955291751E+00    0.1006675112E-01    0.1187014899E+00    0.1463312073E-03
    0.1000000000E+04    0.3357473569E-03    0.6941212205E+00    0.4261867688E-03    0.4639909951E-02    0.3900005234E-02
    0.3000000000E+04    0.5350746497E-02    0.6953018884E+00    0.7051886063E-02    0.7939592837E-01    0.1478423218E-03
    0.5000000000E+04    0.7358280962E-02    0.6955363183E+00    0.1020241469E-01    0.1205850697E+00    0.1464963695E-03
    0.7000000000E+04    0.8615308652E-02    0.6956359120E+00    0.1254071486E-01    0.1551540926E+00    0.1492724441E-03
    0.9000000000E+04    0.9378871170E-02    0.6956907345E+00    0.1430471020E-01    0.1847947909E+00    0.1513777956E-03
    0.1100000000E+05    0.9808776636E-02    0.6957252913E+00    0.1564690880E-01    0.2106017487E+00    0.1530790853E-03
    0.1300000000E+05    0.1001012105E-01    0.6957489830E+00    0.1667240645E-01    0.2333542488E+00    0.1545093532E-03
    0.1500000000E+05    0.1005369259E-01    0.6957661844E+00    0.1745573008E-01    0.2536236106E+00    0.1557448065E-03
    0.1700000000E+05    0.9988111987E-02    0.6957792053E+00    0.1805103043E-01    0.2718393827E+00    0.1568332623E-03
    0.1900000000E+05    0.9847309227E-02    0.6957893788E+00    0.1849848182E-01    0.2883316654E+00    0.1578067391E-03
    0.2100000000E+05    0.9655266174E-02    0.6957975280E+00    0.1882843063E-01    0.3033590323E+00    0.1586877493E-03
    0.2300000000E+05    0.9429102704E-02    0.6958041880E+00    0.1906416060E-01    0.3171274649E+00    0.1594927366E-03
    0.2500000000E+05    0.9181130047E-02    0.6958097216E+00    0.1922378195E-01    0.3298035078E+00    0.1602340848E-03
    0.2700000000E+05    0.8920243762E-02    0.6958143834E+00    0.1932155051E-01    0.3415236109E+00    0.1609213577E-03
    0.2900000000E+05    0.8652884999E-02    0.6958183571E+00    0.1936880690E-01    0.3524008925E+00    0.1615620976E-03
    0.3100000000E+05    0.8383713897E-02    0.6958217786E+00    0.1937465690E-01    0.3625301237E+00    0.1621623599E-03
    0.3300000000E+05    0.8116087622E-02    0.6958247505E+00    0.1934647237E-01    0.3719914607E+00    0.1627270813E-03
    0.3500000000E+05    0.7852403748E-02    0.6958273518E+00    0.1929026509E-01    0.3808532805E+00    0.1632603400E-03
    0.3700000000E+05    0.7594349459E-02    0.6958296442E+00    0.1921096956E-01    0.3891743643E+00    0.1637655450E-03
    0.3900000000E+05    0.7343084080E-02    0.6958316765E+00    0.1911265942E-01    0.3970055998E+00    0.1642455754E-03
    0.4100000000E+05    0.7099373837E-02    0.6958334879E+00    0.1899871475E-01    0.4043913234E+00    0.1647028852E-03
    0.4300000000E+05    0.6863692048E-02    0.6958351103E+00    0.1887195288E-01    0.4113703886E+00    0.1651395832E-03
    0.4500000000E+05    0.6636294061E-02    0.6958365697E+00    0.1873473140E-01    0.4179770266E+00    0.1655574955E-03
    0.4700000000E+05    0.6417273586E-02    0.6958378876E+00    0.1858903007E-01    0.4242415436E+00    0.1659582136E-03
    0.4900000000E+05    0.6206605214E-02    0.6958390821E+00    0.1843651634E-01    0.4301908920E+00    0.1663431335E-03
    0.1000000000E+05    0.9627971825E-02    0.6957097818E+00    0.1502109385E-01    0.1981229088E+00    0.1522687785E-03
    0.3000000000E+05    0.8518290195E-02    0.6958201298E+00    0.1937641122E-01    0.3575536990E+00    0.1618669572E-03
    0.5000000000E+05    0.6104370647E-02    0.6958396379E+00    0.1835815376E-01    0.4330550012E+00    0.1665300596E-03
    0.7000000000E+05    0.4447515509E-02    0.6958469234E+00    0.1667762990E-01    0.4784732076E+00    0.1696741490E-03
    0.9000000000E+05    0.3349974073E-02    0.6958503690E+00    0.1506921972E-01    0.5090306143E+00    0.1720609746E-03
    0.1100000000E+06    0.2602113466E-02    0.6958521747E+00    0.1366268490E-01    0.5310464146E+00    0.1739908171E-03
    0.1300000000E+06    0.2074496571E-02    0.6958531545E+00    0.1245853952E-01    0.5476765347E+00    0.1756138228E-03
    0.1500000000E+06    0.1690153069E-02    0.6958536729E+00    0.1142956500E-01    0.5606859310E+00    0.1770161178E-03
    0.1700000000E+06    0.1402275781E-02    0.6958539153E+00    0.1054614191E-01    0.5711422482E+00    0.1782517941E-03
    0.1900000000E+06    0.1181437394E-02    0.6958539842E+00    0.9782426414E-02    0.5797302448E+00    0.1793570962E-03
    0.2100000000E+06    0.1008510109E-02    0.6958539401E+00    0.9117258895E-02    0.5869096478E+00    0.1803575215E-03
    0.2300000000E+06    0.8706737649E-03    0.6958538209E+00    0.8533663914E-02    0.5930006961E+00    0.1812717013E-03
    0.2500000000E+06    0.7590966093E-03    0.6958536507E+00    0.8018078771E-02    0.5982333608E+00    0.1821136715E-03
    0.2700000000E+06    0.6675441810E-03    0.6958534459E+00    0.7559636752E-02    0.6027770760E+00    0.1828942745E-03
    0.2900000000E+06    0.5915190362E-03    0.6958532174E+00    0.7149579534E-02    0.6067594355E+00    0.1836220631E-03
    0.3100000000E+06    0.5277135425E-03    0.6958529731E+00    0.6780796797E-02    0.6102783604E+00    0.1843039053E-03
    0.3300000000E+06    0.4736527609E-03    0.6958527183E+00    0.6447471535E-02    0.6134102519E+00    0.1849454007E-03
    0.3500000000E+06    0.4274558959E-03    0.6958524571E+00    0.6144807992E-02    0.6162155952E+00    0.1855511763E-03
    0.3700000000E+06    0.3876735497E-03    0.6958521923E+00    0.5868822622E-02    0.6187428993E+00    0.1861251001E-03
    0.3900000000E+06    0.3531745469E-03    0.6958519260E+00    0.5616182721E-02    0.6210315208E+00    0.1866704392E-03
    0.4100000000E+06    0.3230658486E-03    0.6958516598E+00    0.5384081054E-02    0.6231137251E+00    0.1871899785E-03
    0.4300000000E+06    0.2966349730E-03    0.6958513947E+00    0.5170137787E-02    0.6250162146E+00    0.1876861116E-03
    0.4500000000E+06    0.2733079913E-03    0.6958511316E+00    0.4972323190E-02    0.6267612779E+00    0.1881609109E-03
    0.4700000000E+06    0.2526184743E-03    0.6958508712E+00    0.4788896284E-02    0.6283676651E+00    0.1886161834E-03
    0.4900000000E+06    0.2341842503E-03    0.6958506137E+00    0.4618355779E-02    0.6298512638E+00    0.1890535135E-03
    0.1000000000E+06    0.2941994967E-02    0.6958514101E+00    0.1433947775E-01    0.5208638167E+00    0.1730715469E-03
    0.3000000000E+06    0.5582597853E-03    0.6958530968E+00    0.6960419191E-02    0.6085716234E+00    0.1839683518E-03
    0.5000000000E+06    0.2257120639E-03    0.6958504863E+00    0.4537504433E-02    0.6305513313E+00    0.1892658934E-03
    0.7000000000E+06    0.1210011786E-03    0.6958481340E+00    0.3357323104E-02    0.6405419426E+00    0.1928383052E-03
    0.9000000000E+06    0.7519670484E-04    0.6958461371E+00    0.2661288596E-02    0.6462485072E+00    0.1955504751E-03
    0.1100000000E+07    0.5118658884E-04    0.6958444229E+00    0.2202813568E-02    0.6499392246E+00    0.1977434538E-03
    0.1300000000E+07    0.3706339963E-04    0.6958429264E+00    0.1878247542E-02    0.6525215158E+00    0.1995878017E-03
    0.1500000000E+07    0.2806334992E-04    0.6958415997E+00    0.1636513311E-02    0.6544293255E+00    0.2011813641E-03
    0.1700000000E+07    0.2197979482E-04    0.6958404086E+00    0.1449551951E-02    0.6558962718E+00    0.2025855976E-03
    0.1900000000E+07    0.1767731011E-04    0.6958393279E+00    0.1300678531E-02    0.6570592721E+00    0.2038416834E-03
    0.2100000000E+07    0.1452342539E-04    0.6958383387E+00    0.1179353167E-02    0.6580038785E+00    0.2049785927E-03
    0.2300000000E+07    0.1214324597E-04    0.6958374266E+00    0.1078592407E-02    0.6587862975E+00    0.2060174956E-03
    0.2500000000E+07    0.1030314913E-04    0.6958365802E+00    0.9935868633E-03    0.6594449765E+00    0.2069743411E-03
    0.2700000000E+07    0.8851423404E-05    0.6958357905E+00    0.9209168172E-03    0.6600071035E+00    0.2078614497E-03
    0.2900000000E+07    0.7686086894E-05    0.6958350503E+00    0.8580844287E-03    0.6604924474E+00    0.2086885403E-03
    0.3100000000E+07    0.6736542169E-05    0.6958343536E+00    0.8032229005E-03    0.6609157260E+00    0.2094634170E-03
    0.3300000000E+07    0.5952665279E-05    0.6958336955E+00    0.7549091644E-03    0.6612881227E+00    0.2101924432E-03
    0.3500000000E+07    0.5298075720E-05    0.6958330718E+00    0.7120395200E-03    0.6616182871E+00    0.2108808769E-03
    0.3700000000E+07    0.4745852149E-05    0.6958324791E+00    0.6737448604E-03    0.6619130139E+00    0.2115331136E-03
    0.3900000000E+07    0.4275728593E-05    0.6958319142E+00    0.6393315278E-03    0.6621777147E+00    0.2121528658E-03
    0.4100000000E+07    0.3872214172E-05    0.6958313747E+00    0.6082391961E-03    0.6624167530E+00    0.2127432984E-03
    0.4300000000E+07    0.3523304444E-05    0.6958308584E+00    0.5800103254E-03    0.6626336862E+00    0.2133071315E-03
    0.4500000000E+07    0.3219580850E-05    0.6958303632E+00    0.5542676413E-03    0.6628314431E+00    0.2138467201E-03
    0.4700000000E+07    0.2953570230E-05    0.6958298874E+00    0.5306972853E-03    0.6630124575E+00    0.2143641177E-03
    0.4900000000E+07    0.2719282012E-05    0.6958294296E+00    0.5090360362E-03    0.6631787680E+00    0.2148611249E-03
    0.1000000000E+07    0.6147511893E-04    0.6958452492E+00    0.2410637069E-02    0.6482726670E+00    0.1966988322E-03
    0.3000000000E+07    0.7187859198E-05    0.6958346969E+00    0.8297549540E-03    0.6607110767E+00    0.2090820783E-03
    0.5000000000E+07    0.2612481732E-05    0.6958292070E+00    0.4988504546E-03    0.6632569577E+00    0.2151024859E-03
    0.7000000000E+07    0.1340930429E-05    0.6958254389E+00    0.3559746188E-03    0.6643531227E+00    0.2191623905E-03
    0.9000000000E+07    0.8159418323E-06    0.6958225531E+00    0.2764404099E-03    0.6649631980E+00    0.2222446705E-03
    0.1100000000E+08    0.5497057294E-06    0.6958202070E+00    0.2258112346E-03    0.6653517564E+00    0.2247369106E-03
    0.1300000000E+08    0.3963661014E-06    0.6958182265E+00    0.1907719513E-03    0.6656208742E+00    0.2268329447E-03
    0.1500000000E+08    0.3000330401E-06    0.6958165104E+00    0.1650924701E-03    0.6658182706E+00    0.2286439701E-03
    0.1700000000E+08    0.2355638473E-06    0.6958149948E+00    0.1454699843E-03    0.6659692364E+00    0.2302398296E-03
    0.1900000000E+08    0.1902920886E-06    0.6958136366E+00    0.1299910216E-03    0.6660884242E+00    0.2316673243E-03
    0.2100000000E+08    0.1572738432E-06    0.6958124052E+00    0.1174707064E-03    0.6661849092E+00    0.2329593788E-03
    0.2300000000E+08    0.1324439452E-06    0.6958112785E+00    0.1071362592E-03    0.6662646119E+00    0.2341400523E-03
    0.2500000000E+08    0.1132940498E-06    0.6958102396E+00    0.9846225078E-04    0.6663315593E+00    0.2352274703E-03
    0.2700000000E+08    0.9820827487E-07    0.6958092753E+00    0.9107901559E-04    0.6663885856E+00    0.2362356347E-03
