  Pressure (Pa) 22mC5-500 (mol/kg) 24mC5-500 (mol/kg) 2mC6-500 (mol/kg) 3mC6-500 (mol/kg) C7-500 (mol/kg)
    0.1000000000E+01    0.3513073500E-05    0.2487117936E+00    0.6831874359E-05    0.4082909469E-05    0.4145044771E-02
    0.3000000000E+01    0.5679440761E-05    0.4351410955E+00    0.1069440617E-04    0.1007504110E-04    0.4167495458E-02
    0.5000000000E+01    0.6501091702E-05    0.5118815080E+00    0.1250805286E-04    0.1550635600E-04    0.4172364970E-02
    0.7000000000E+01    0.7016400877E-05    0.5537343371E+00    0.1406228066E-04    0.2067243535E-04    0.4174253323E-02
    0.9000000000E+01    0.7438910270E-05    0.5800842446E+00    0.1561306959E-04    0.2567095344E-04    0.4175059546E-02
    0.1100000000E+02    0.7831423028E-05    0.5981990231E+00    0.1720173150E-04    0.3055025453E-04    0.4175349777E-02
    0.1300000000E+02    0.8215937001E-05    0.6114175387E+00    0.1882878004E-04    0.3533889658E-04    0.4175354571E-02
    0.1500000000E+02    0.8600810500E-05    0.6214885883E+00    0.2048721270E-04    0.4005558909E-04    0.4175185778E-02
    0.1700000000E+02    0.8989224750E-05    0.6294167465E+00    0.2216983784E-04    0.4471346184E-04    0.4174904229E-02
    0.1900000000E+02    0.9382241543E-05    0.6358201893E+00    0.2387075323E-04    0.4932219389E-04    0.4174545800E-02
    0.2100000000E+02    0.9780024728E-05    0.6411001768E+00    0.2558541182E-04    0.5388919006E-04    0.4174132978E-02
    0.2300000000E+02    0.1018236253E-04    0.6455285242E+00    0.2731038203E-04    0.5842028194E-04    0.4173680538E-02
    0.2500000000E+02    0.1058890054E-04    0.6492959042E+00    0.2904308814E-04    0.6292017037E-04    0.4173198562E-02
    0.2700000000E+02    0.1099924740E-04    0.6525400230E+00    0.3078159602E-04    0.6739271808E-04    0.4172694143E-02
    0.2900000000E+02    0.1141302211E-04    0.6553628177E+00    0.3252444984E-04    0.7184115037E-04    0.4172172405E-02
    0.3100000000E+02    0.1182987372E-04    0.6578413617E+00    0.3427055095E-04    0.7626819732E-04    0.4171637125E-02
    0.3300000000E+02    0.1224948792E-04    0.6600350100E+00    0.3601906887E-04    0.8067619709E-04    0.4171091146E-02
    0.3500000000E+02    0.1267158743E-04    0.6619902141E+00    0.3776937566E-04    0.8506717272E-04    0.4170536633E-02
    0.3700000000E+02    0.1309592964E-04    0.6637438475E+00    0.3952099750E-04    0.8944289045E-04    0.4169975265E-02
    0.3900000000E+02    0.1352230325E-04    0.6653255535E+00    0.4127357855E-04    0.9380490456E-04    0.4169408356E-02
    0.4100000000E+02    0.1395052454E-04    0.6667594345E+00    0.4302685388E-04    0.9815459259E-04    0.4168836945E-02
    0.4300000000E+02    0.1438043391E-04    0.6680652887E+00    0.4478062895E-04    0.1024931832E-03    0.4168261861E-02
    0.4500000000E+02    0.1481189270E-04    0.6692595301E+00    0.4653476407E-04    0.1068217787E-03    0.4167683774E-02
    0.4700000000E+02    0.1524478032E-04    0.6703558817E+00    0.4828916240E-04    0.1111413731E-03    0.4167103224E-02
    0.4900000000E+02    0.1567899180E-04    0.6713659055E+00    0.5004376070E-04    0.1154528671E-03    0.4166520651E-02
    0.1000000000E+02    0.7637053735E-05    0.5899092854E+00    0.1640228887E-04    0.2812341628E-04    0.4175250646E-02
    0.3000000000E+02    0.1162108383E-04    0.6566410613E+00    0.3339715181E-04    0.7405719270E-04    0.4171906262E-02
    0.5000000000E+02    0.1589656493E-04    0.6718416692E+00    0.5092112246E-04    0.1176058355E-03    0.4166228722E-02
    0.7000000000E+02    0.2030076423E-04    0.6785739029E+00    0.6847876351E-04    0.1604058377E-03    0.4160343873E-02
    0.9000000000E+02    0.2478257521E-04    0.6823726787E+00    0.8608416475E-04    0.2030162876E-03    0.4154434018E-02
    0.1100000000E+03    0.2932909971E-04    0.6848123078E+00    0.1037878447E-03    0.2457239618E-03    0.4148522671E-02
    0.1300000000E+03    0.3393859667E-04    0.6865115228E+00    0.1216354652E-03    0.2887064917E-03    0.4142605318E-02
    0.1500000000E+03    0.3861309960E-04    0.6877629780E+00    0.1396649098E-03    0.3320876299E-03    0.4136671819E-02
    0.1700000000E+03    0.4335602025E-04    0.6887230508E+00    0.1579078577E-03    0.3759610654E-03    0.4130711531E-02
    0.1900000000E+03    0.4817127690E-04    0.6894828935E+00    0.1763914928E-03    0.4204023255E-03    0.4124714529E-02
    0.2100000000E+03    0.5306295878E-04    0.6900992286E+00    0.1951398064E-03    0.4654753633E-03    0.4118671817E-02
    0.2300000000E+03    0.5803519787E-04    0.6906092025E+00    0.2141745303E-03    0.5112364949E-03    0.4112575242E-02
    0.2500000000E+03    0.6309212624E-04    0.6910381596E+00    0.2335158045E-03    0.5577368958E-03    0.4106417354E-02
    0.2700000000E+03    0.6823786955E-04    0.6914039844E+00    0.2531826611E-03    0.6050242639E-03    0.4100191268E-02
    0.2900000000E+03    0.7347655610E-04    0.6917196585E+00    0.2731933830E-03    0.6531439751E-03    0.4093890536E-02
    0.3100000000E+03    0.7881233184E-04    0.6919948324E+00    0.2935657749E-03    0.7021399155E-03    0.4087509052E-02
    0.3300000000E+03    0.8424937754E-04    0.6922368300E+00    0.3143173742E-03    0.7520551015E-03    0.4081040959E-02
    0.3500000000E+03    0.8979192614E-04    0.6924513098E+00    0.3354656181E-03    0.8029321567E-03    0.4074480591E-02
    0.3700000000E+03    0.9544427954E-04    0.6926427124E+00    0.3570279801E-03    0.8548136899E-03    0.4067822406E-02
    0.3900000000E+03    0.1012108247E-03    0.6928145720E+00    0.3790220837E-03    0.9077426028E-03    0.4061060947E-02
    0.4100000000E+03    0.1070960492E-03    0.6929697362E+00    0.4014658000E-03    0.9617623482E-03    0.4054190794E-02
    0.4300000000E+03    0.1131045555E-03    0.6931105248E+00    0.4243773326E-03    0.1016917153E-02    0.4047206534E-02
    0.4500000000E+03    0.1192410756E-03    0.6932388470E+00    0.4477752946E-03    0.1073252215E-02    0.4040102734E-02
    0.4700000000E+03    0.1255104849E-03    0.6933562882E+00    0.4716787787E-03    0.1130813881E-02    0.4032873904E-02
    0.4900000000E+03    0.1319178156E-03    0.6934641761E+00    0.4961074228E-03    0.1189649814E-02    0.4025514483E-02
    0.1000000000E+03    0.2704799267E-04    0.6837123196E+00    0.9492067357E-04    0.2243451937E-03    0.4151478567E-02
    0.3000000000E+03    0.7613204754E-04    0.6918618047E+00    0.2833332700E-03    0.6775297139E-03    0.4090710259E-02
    0.5000000000E+03    0.1351748203E-03    0.6935148944E+00    0.5085249814E-03    0.1219560922E-02    0.4021784038E-02
    0.7000000000E+03    0.2089552611E-03    0.6942256841E+00    0.7898688107E-03    0.1897841569E-02    0.3938843666E-02
    0.9000000000E+03    0.3042019873E-03    0.6946211368E+00    0.1153357809E-02    0.2775501407E-02    0.3835021033E-02
    0.1100000000E+04    0.4313875296E-03    0.6948729823E+00    0.1639288884E-02    0.3950553044E-02    0.3700252063E-02
    0.1300000000E+04    0.6076651762E-03    0.6950474143E+00    0.2313705993E-02    0.5583912979E-02    0.3518661849E-02
    0.1500000000E+04    0.8619909774E-03    0.6951753644E+00    0.3288309586E-02    0.7948332189E-02    0.3264486709E-02
    0.1700000000E+04    0.1242790103E-02    0.6952732228E+00    0.4750517594E-02    0.1150295510E-01    0.2897044586E-02
    0.1900000000E+04    0.1820811104E-02    0.6953504848E+00    0.6976019420E-02    0.1692766135E-01    0.2363653652E-02
    0.2100000000E+04    0.2646212554E-02    0.6954130311E+00    0.1016675013E-01    0.2473580882E-01    0.1649002236E-02
    0.2300000000E+04    0.3603413366E-02    0.6954646985E+00    0.1389195569E-01    0.3391174966E-01    0.9023515235E-03
    0.2500000000E+04    0.4405419869E-02    0.6955080967E+00    0.1705189125E-01    0.4178786148E-01    0.3876829734E-03
    0.2700000000E+04    0.4944600537E-02    0.6955450626E+00    0.1922155024E-01    0.4730334844E-01    0.1513060384E-03
    0.2900000000E+04    0.5318297891E-02    0.6955769266E+00    0.2076593268E-01    0.5132482782E-01    0.6612626934E-04
    0.3100000000E+04    0.5617769791E-02    0.6956046761E+00    0.2203304102E-01    0.5469275212E-01    0.3836221849E-04
    0.3300000000E+04    0.5884446542E-02    0.6956290589E+00    0.2318163167E-01    0.5779247056E-01    0.2962605655E-04
    0.3500000000E+04    0.6133635386E-02    0.6956506522E+00    0.2427034328E-01    0.6076638115E-01    0.2693025908E-04
    0.3700000000E+04    0.6370784522E-02    0.6956699083E+00    0.2531983504E-01    0.6366424310E-01    0.2613172216E-04
    0.3900000000E+04    0.6597955455E-02    0.6956871868E+00    0.2633767447E-01    0.6650376492E-01    0.2592832072E-04
    0.4100000000E+04    0.6816071993E-02    0.6957027771E+00    0.2732702788E-01    0.6929186390E-01    0.2591108663E-04
    0.4300000000E+04    0.7025671161E-02    0.6957169148E+00    0.2828957447E-01    0.7203182530E-01    0.2595110829E-04
    0.4500000000E+04    0.7227151434E-02    0.6957297936E+00    0.2922647301E-01    0.7472568587E-01    0.2600760297E-04
    0.4700000000E+04    0.7420855044E-02    0.6957415743E+00    0.3013868286E-01    0.7737502717E-01    0.2606767554E-04
    0.4900000000E+04    0.7607095693E-02    0.6957523914E+00    0.3102707170E-01    0.7998124128E-01    0.2612730617E-04
    0.1000000000E+04    0.3629335243E-03    0.6947596344E+00    0.1377674683E-02    0.3317713732E-02    0.3772321687E-02
    0.3000000000E+04    0.5473823660E-02    0.6955912643E+00    0.2142078596E-01    0.5305807556E-01    0.4836925347E-04
    0.5000000000E+04    0.7697510175E-02    0.6957574748E+00    0.3146258903E-01    0.8126858256E-01    0.2615653997E-04
    0.7000000000E+04    0.9178434137E-02    0.6958285776E+00    0.3910087360E-01    0.1050357397E+00    0.2665131928E-04
    0.9000000000E+04    0.1017399283E-01    0.6958679974E+00    0.4508656180E-01    0.1256610162E+00    0.2702691508E-04
    0.1100000000E+05    0.1083125350E-01    0.6958930280E+00    0.4984444634E-01    0.1438442231E+00    0.2733048939E-04
    0.1300000000E+05    0.1124816826E-01    0.6959103177E+00    0.5366799922E-01    0.1600823226E+00    0.2758573771E-04
    0.1500000000E+05    0.1149178719E-01    0.6959229675E+00    0.5676612752E-01    0.1747388632E+00    0.2780623993E-04
    0.1700000000E+05    0.1160906876E-01    0.6959326180E+00    0.5929136847E-01    0.1880866149E+00    0.2800051982E-04
    0.1900000000E+05    0.1163353946E-01    0.6959402186E+00    0.6135755800E-01    0.2003347577E+00    0.2817428627E-04
    0.2100000000E+05    0.1158952887E-01    0.6959463565E+00    0.6305127406E-01    0.2116467908E+00    0.2833155405E-04
    0.2300000000E+05    0.1149493785E-01    0.6959514146E+00    0.6443946338E-01    0.2221526666E+00    0.2847525604E-04
    0.2500000000E+05    0.1136309194E-01    0.6959556527E+00    0.6557465386E-01    0.2319572174E+00    0.2860760131E-04
    0.2700000000E+05    0.1120400869E-01    0.6959592540E+00    0.6649859684E-01    0.2411461363E+00    0.2873029600E-04
    0.2900000000E+05    0.1102528044E-01    0.6959623506E+00    0.6724486305E-01    0.2497903069E+00    0.2884468578E-04
    0.3100000000E+05    0.1083269975E-01    0.6959650409E+00    0.6784072598E-01    0.2579489920E+00    0.2895185109E-04
    0.3300000000E+05    0.1063070888E-01    0.6959673989E+00    0.6830855009E-01    0.2656722196E+00    0.2905267278E-04
    0.3500000000E+05    0.1042272738E-01    0.6959694821E+00    0.6866682921E-01    0.2730025943E+00    0.2914787862E-04
    0.3700000000E+05    0.1021139352E-01    0.6959713351E+00    0.6893097327E-01    0.2799766905E+00    0.2923807695E-04
    0.3900000000E+05    0.9998744363E-02    0.6959729938E+00    0.6911391183E-01    0.2866261364E+00    0.2932378158E-04
    0.4100000000E+05    0.9786351228E-02    0.6959744867E+00    0.6922656200E-01    0.2929784671E+00    0.2940543044E-04
    0.4300000000E+05    0.9575422610E-02    0.6959758370E+00    0.6927819509E-01    0.2990578033E+00    0.2948339992E-04
    0.4500000000E+05    0.9366882972E-02    0.6959770641E+00    0.6927672641E-01    0.3048853948E+00    0.2955801592E-04
    0.4700000000E+05    0.9161433517E-02    0.6959781837E+00    0.6922894653E-01    0.3104800619E+00    0.2962956250E-04
    0.4900000000E+05    0.8959599376E-02    0.6959792091E+00    0.6914070714E-01    0.3158585540E+00    0.2969828884E-04
    0.1000000000E+05    0.1053789788E-01    0.6958817711E+00    0.4759822539E-01    0.1350230466E+00    0.2718589393E-04
    0.3000000000E+05    0.1093041669E-01    0.6959637415E+00    0.6756009569E-01    0.2539270155E+00    0.2889911239E-04
    0.5000000000E+05    0.8860163247E-02    0.6959796901E+00    0.6908302471E-01    0.3184714763E+00    0.2973166410E-04
    0.7000000000E+05    0.7108063930E-02    0.6959863361E+00    0.6673128694E-01    0.3623055457E+00    0.3029304791E-04
    0.9000000000E+05    0.5782116667E-02    0.6959899220E+00    0.6339545770E-01    0.3950051037E+00    0.3071923421E-04
    0.1100000000E+06    0.4782085530E-02    0.6959921354E+00    0.5991963369E-01    0.4207123581E+00    0.3106382919E-04
    0.1300000000E+06    0.4016326580E-02    0.6959936197E+00    0.5658600539E-01    0.4416240142E+00    0.3135363880E-04
    0.1500000000E+06    0.3419206199E-02    0.6959946727E+00    0.5348616865E-01    0.4590536885E+00    0.3160403992E-04
    0.1700000000E+06    0.2945396256E-02    0.6959954505E+00    0.5063982753E-01    0.4738515252E+00    0.3182469035E-04
    0.1900000000E+06    0.2563441283E-02    0.6959960427E+00    0.4803864773E-01    0.4865994283E+00    0.3202206150E-04
    0.2100000000E+06    0.2251164872E-02    0.6959965043E+00    0.4566393973E-01    0.4977127445E+00    0.3220070593E-04
    0.2300000000E+06    0.1992641786E-02    0.6959968708E+00    0.4349412709E-01    0.5074977707E+00    0.3236395030E-04
    0.2500000000E+06    0.1776225048E-02    0.6959971662E+00    0.4150791909E-01    0.5161863853E+00    0.3251430080E-04
    0.2700000000E+06    0.1593249017E-02    0.6959974071E+00    0.3968558857E-01    0.5239579599E+00    0.3265369343E-04
    0.2900000000E+06    0.1437163427E-02    0.6959976055E+00    0.3800939382E-01    0.5309537877E+00    0.3278365534E-04
    0.3100000000E+06    0.1302944908E-02    0.6959977702E+00    0.3646361540E-01    0.5372869042E+00    0.3290541284E-04
    0.3300000000E+06    0.1186689975E-02    0.6959979078E+00    0.3503442754E-01    0.5430489587E+00    0.3301996583E-04
    0.3500000000E+06    0.1085328711E-02    0.6959980233E+00    0.3370970825E-01    0.5483151377E+00    0.3312814050E-04
    0.3700000000E+06    0.9964201330E-03    0.6959981206E+00    0.3247883685E-01    0.5531477654E+00    0.3323062753E-04
    0.3900000000E+06    0.9180037467E-03    0.6959982027E+00    0.3133250103E-01    0.5575989847E+00    0.3332801028E-04
    0.4100000000E+06    0.8484903839E-03    0.6959982722E+00    0.3026252221E-01    0.5617127840E+00    0.3342078604E-04
    0.4300000000E+06    0.7865808898E-03    0.6959983310E+00    0.2926170193E-01    0.5655265529E+00    0.3350938221E-04
    0.4500000000E+06    0.7312048428E-03    0.6959983807E+00    0.2832368854E-01    0.5690722899E+00    0.3359416887E-04
    0.4700000000E+06    0.6814738623E-03    0.6959984227E+00    0.2744286267E-01    0.5723775508E+00    0.3367546865E-04
    0.4900000000E+06    0.6366456695E-03    0.6959984579E+00    0.2661423912E-01    0.5754662027E+00    0.3375356451E-04
    0.1000000000E+06    0.5247724162E-02    0.6959911479E+00    0.6165060929E-01    0.4085672444E+00    0.3089968255E-04
    0.3000000000E+06    0.1367587167E-02    0.6959976916E+00    0.3722110898E-01    0.5341970209E+00    0.3284549254E-04
    0.5000000000E+06    0.6158711031E-03    0.6959984733E+00    0.2621809788E-01    0.5769359009E+00    0.3379149011E-04
    0.7000000000E+06    0.3485842981E-03    0.6959985867E+00    0.2018339372E-01    0.5988224161E+00    0.3442943439E-04
    0.9000000000E+06    0.2238219793E-03    0.6959985255E+00    0.1638902546E-01    0.6121589588E+00    0.3491376471E-04
    0.1100000000E+07    0.1557085948E-03    0.6959984065E+00    0.1378686644E-01    0.6211427751E+00    0.3530538193E-04
    0.1300000000E+07    0.1145077215E-03    0.6959982682E+00    0.1189282335E-01    0.6276069363E+00    0.3563474302E-04
    0.1500000000E+07    0.8771119948E-04    0.6959981252E+00    0.1045317335E-01    0.6324811743E+00    0.3591932032E-04
    0.1700000000E+07    0.6931426933E-04    0.6959979839E+00    0.9322291076E-02    0.6362877043E+00    0.3617008824E-04
    0.1900000000E+07    0.5614303746E-04    0.6959978469E+00    0.8410687265E-02    0.6393425624E+00    0.3639440064E-04
    0.2100000000E+07    0.4639204083E-04    0.6959977153E+00    0.7660363581E-02    0.6418482521E+00    0.3659743097E-04
    0.2300000000E+07    0.3897289758E-04    0.6959975892E+00    0.7032093084E-02    0.6439405354E+00    0.3678295967E-04
    0.2500000000E+07    0.3319789843E-04    0.6959974688E+00    0.6498400730E-02    0.6457138390E+00    0.3695383484E-04
    0.2700000000E+07    0.2861524659E-04    0.6959973537E+00    0.6039472602E-02    0.6472358733E+00    0.3711225659E-04
    0.2900000000E+07    0.2491823505E-04    0.6959972436E+00    0.5640661691E-02    0.6485564574E+00    0.3725996046E-04
    0.3100000000E+07    0.2189273931E-04    0.6959971383E+00    0.5290908002E-02    0.6497130612E+00    0.3739834009E-04
    0.3300000000E+07    0.1938560886E-04    0.6959970374E+00    0.4981704647E-02    0.6507344081E+00    0.3752853184E-04
    0.3500000000E+07    0.1728496555E-04    0.6959969406E+00    0.4706401872E-02    0.6516428864E+00    0.3765147464E-04
    0.3700000000E+07    0.1550754640E-04    0.6959968475E+00    0.4459726858E-02    0.6524562039E+00    0.3776795341E-04
    0.3900000000E+07    0.1399035288E-04    0.6959967581E+00    0.4237445124E-02    0.6531885501E+00    0.3787863116E-04
    0.4100000000E+07    0.1268501040E-04    0.6959966719E+00    0.4036117110E-02    0.6538514285E+00    0.3798407303E-04
    0.4300000000E+07    0.1155387753E-04    0.6959965887E+00    0.3852920137E-02    0.6544542633E+00    0.3808476477E-04
    0.4500000000E+07    0.1056731121E-04    0.6959965085E+00    0.3685516141E-02    0.6550048486E+00    0.3818112696E-04
    0.4700000000E+07    0.9701711405E-05    0.6959964309E+00    0.3531952030E-02    0.6555096864E+00    0.3827352626E-04
    0.4900000000E+07    0.8938101516E-05    0.6959963558E+00    0.3390583631E-02    0.6559742434E+00    0.3836228426E-04
    0.1000000000E+07    0.1851660036E-03    0.6959984700E+00    0.1497685129E-01    0.6170497740E+00    0.3511883550E-04
    0.3000000000E+07    0.2333227454E-04    0.6959971904E+00    0.5460234770E-02    0.6491532894E+00    0.3733023955E-04
    0.5000000000E+07    0.8589613736E-05    0.6959963191E+00    0.3324028763E-02    0.6561928916E+00    0.3840538772E-04
    0.7000000000E+07    0.4419542636E-05    0.6959956865E+00    0.2384984213E-02    0.6592741313E+00    0.3913042946E-04
    0.9000000000E+07    0.2684990234E-05    0.6959951892E+00    0.1857787734E-02    0.6610015140E+00    0.3968088547E-04
    0.1100000000E+08    0.1802145500E-05    0.6959947787E+00    0.1520507735E-02    0.6621060609E+00    0.4012597054E-04
    0.1300000000E+08    0.1292781041E-05    0.6959944286E+00    0.1286312182E-02    0.6628729251E+00    0.4050029969E-04
    0.1500000000E+08    0.9725810463E-06    0.6959941229E+00    0.1114272662E-02    0.6634362976E+00    0.4082373072E-04
    0.1700000000E+08    0.7583162486E-06    0.6959938513E+00    0.9825812922E-03    0.6638676125E+00    0.4110873633E-04
    0.1900000000E+08    0.6079495944E-06    0.6959936067E+00    0.8785567320E-03    0.6642083858E+00    0.4136367440E-04
    0.2100000000E+08    0.4983945622E-06    0.6959933842E+00    0.7943239610E-03    0.6644843897E+00    0.4159442471E-04
    0.2300000000E+08    0.4161187859E-06    0.6959931798E+00    0.7247352863E-03    0.6647124677E+00    0.4180528386E-04
    0.2500000000E+08    0.3527651976E-06    0.6959929909E+00    0.6662842708E-03    0.6649040917E+00    0.4199948880E-04
    0.2700000000E+08    0.3029471548E-06    0.6959928150E+00    0.6165002220E-03    0.6650673450E+00    0.4217954001E-04
