  Pressure (Pa) 22mC5-500 (mol/kg) 24mC5-500 (mol/kg) 2mC6-500 (mol/kg) 3mC6-500 (mol/kg) C7-500 (mol/kg)
    0.1000000000E+01    0.4445617926E-05    0.1266216075E+00    0.8542886404E-05    0.6982019931E-06    0.4246392432E-02
    0.3000000000E+01    0.9174119700E-05    0.2784713341E+00    0.1677274321E-04    0.1816192145E-05    0.4347402259E-02
    0.5000000000E+01    0.1153593898E-04    0.3663373197E+00    0.2047507024E-04    0.2850703714E-05    0.4406455823E-02
    0.7000000000E+01    0.1289492557E-04    0.4236231197E+00    0.2251948258E-04    0.3843962559E-05    0.4445718610E-02
    0.9000000000E+01    0.1376203806E-04    0.4639269687E+00    0.2388092027E-04    0.4810409105E-05    0.4473906168E-02
    0.1100000000E+02    0.1436469916E-04    0.4938254248E+00    0.2494842996E-04    0.5757326266E-05    0.4495238040E-02
    0.1300000000E+02    0.1481624447E-04    0.5168874140E+00    0.2589323213E-04    0.6689073929E-05    0.4512016440E-02
    0.1500000000E+02    0.1517786120E-04    0.5352171702E+00    0.2679527671E-04    0.7608538282E-05    0.4525607779E-02
    0.1700000000E+02    0.1548459905E-04    0.5501357105E+00    0.2769296576E-04    0.8517762102E-05    0.4536875992E-02
    0.1900000000E+02    0.1575745998E-04    0.5625142171E+00    0.2860465405E-04    0.9418262196E-05    0.4546395012E-02
    0.2100000000E+02    0.1600947210E-04    0.5729504905E+00    0.2953863573E-04    0.1031120623E-04    0.4554561600E-02
    0.2300000000E+02    0.1624893506E-04    0.5818683848E+00    0.3049804128E-04    0.1119751884E-04    0.4561659177E-02
    0.2500000000E+02    0.1648124310E-04    0.5895767865E+00    0.3148333917E-04    0.1207794897E-04    0.4567895835E-02
    0.2700000000E+02    0.1670995228E-04    0.5963061190E+00    0.3249365221E-04    0.1295311471E-04    0.4573427970E-02
    0.2900000000E+02    0.1693742729E-04    0.6022317693E+00    0.3352746372E-04    0.1382353416E-04    0.4578375515E-02
    0.3100000000E+02    0.1716524511E-04    0.6074895938E+00    0.3458299959E-04    0.1468964737E-04    0.4582832063E-02
    0.3300000000E+02    0.1739445335E-04    0.6121864617E+00    0.3565843373E-04    0.1555183243E-04    0.4586871783E-02
    0.3500000000E+02    0.1762573916E-04    0.6164075945E+00    0.3675199597E-04    0.1641041737E-04    0.4590554257E-02
    0.3700000000E+02    0.1785954176E-04    0.6202217831E+00    0.3786202529E-04    0.1726568930E-04    0.4593927936E-02
    0.3900000000E+02    0.1809612859E-04    0.6236851655E+00    0.3898699245E-04    0.1811790145E-04    0.4597032647E-02
    0.4100000000E+02    0.1833564758E-04    0.6268440082E+00    0.4012550571E-04    0.1896727869E-04    0.4599901452E-02
    0.4300000000E+02    0.1857816345E-04    0.6297367844E+00    0.4127630743E-04    0.1981402196E-04    0.4602562044E-02
    0.4500000000E+02    0.1882368312E-04    0.6323957485E+00    0.4243826596E-04    0.2065831179E-04    0.4605037808E-02
    0.4700000000E+02    0.1907217373E-04    0.6348481442E+00    0.4361036550E-04    0.2150031119E-04    0.4607348636E-02
    0.4900000000E+02    0.1932357537E-04    0.6371171410E+00    0.4479169533E-04    0.2234016804E-04    0.4609511566E-02
    0.1000000000E+02    0.1408765712E-04    0.4799076410E+00    0.2443766550E-04    0.5285990930E-05    0.4485255717E-02
    0.3000000000E+02    0.1705121778E-04    0.6049368995E+00    0.3405263063E-04    0.1425710412E-04    0.4580660138E-02
    0.5000000000E+02    0.1945034404E-04    0.6381891751E+00    0.4538556312E-04    0.2275933558E-04    0.4610542238E-02
    0.7000000000E+02    0.2211614869E-04    0.6535849118E+00    0.5758987448E-04    0.3105748847E-04    0.4626079924E-02
    0.9000000000E+02    0.2497055139E-04    0.6624624573E+00    0.7016861608E-04    0.3924338007E-04    0.4635829585E-02
    0.1100000000E+03    0.2795044154E-04    0.6682377492E+00    0.8293856474E-04    0.4736369465E-04    0.4642564128E-02
    0.1300000000E+03    0.3101856549E-04    0.6722948331E+00    0.9582438443E-04    0.5544660322E-04    0.4647483939E-02
    0.1500000000E+03    0.3415273751E-04    0.6753010551E+00    0.1087929150E-03    0.6351093057E-04    0.4651204406E-02
    0.1700000000E+03    0.3733925175E-04    0.6776177951E+00    0.1218294291E-03    0.7157015524E-04    0.4654078445E-02
    0.1900000000E+03    0.4056934307E-04    0.6794577824E+00    0.1349279275E-03    0.7963442773E-04    0.4656325317E-02
    0.2100000000E+03    0.4383724918E-04    0.6809544002E+00    0.1480867772E-03    0.8771169584E-04    0.4658089684E-02
    0.2300000000E+03    0.4713910562E-04    0.6821955233E+00    0.1613066024E-03    0.9580837999E-04    0.4659471563E-02
    0.2500000000E+03    0.5047228913E-04    0.6832414010E+00    0.1745892097E-03    0.1039298022E-03    0.4660542735E-02
    0.2700000000E+03    0.5383501267E-04    0.6841347216E+00    0.1879370167E-03    0.1120804708E-03    0.4661356324E-02
    0.2900000000E+03    0.5722606714E-04    0.6849065757E+00    0.2013527402E-03    0.1202642772E-03    0.4661952652E-02
    0.3100000000E+03    0.6064465200E-04    0.6855801441E+00    0.2148392231E-03    0.1284846350E-03    0.4662362993E-02
    0.3300000000E+03    0.6409026117E-04    0.6861730628E+00    0.2283993386E-03    0.1367445822E-03    0.4662612051E-02
    0.3500000000E+03    0.6756260464E-04    0.6866989873E+00    0.2420359371E-03    0.1450468567E-03    0.4662719650E-02
    0.3700000000E+03    0.7106155348E-04    0.6871686553E+00    0.2557518194E-03    0.1533939544E-03    0.4662701921E-02
    0.3900000000E+03    0.7458710052E-04    0.6875906269E+00    0.2695497233E-03    0.1617881737E-03    0.4662572147E-02
    0.4100000000E+03    0.7813933200E-04    0.6879718095E+00    0.2834323195E-03    0.1702316504E-03    0.4662341384E-02
    0.4300000000E+03    0.8171840669E-04    0.6883178384E+00    0.2974022118E-03    0.1787263857E-03    0.4662018923E-02
    0.4500000000E+03    0.8532454037E-04    0.6886333569E+00    0.3114619413E-03    0.1872742689E-03    0.4661612635E-02
    0.4700000000E+03    0.8895799427E-04    0.6889222251E+00    0.3256139902E-03    0.1958770955E-03    0.4661129240E-02
    0.4900000000E+03    0.9261906622E-04    0.6891876787E+00    0.3398607880E-03    0.2045365821E-03    0.4660574512E-02
    0.1000000000E+03    0.2644759889E-04    0.6656265468E+00    0.7653583406E-04    0.4330968569E-04    0.4639478807E-02
    0.3000000000E+03    0.5893195575E-04    0.6852544347E+00    0.2080869571E-03    0.1243696895E-03    0.4662179396E-02
    0.5000000000E+03    0.9446006037E-04    0.6893124957E+00    0.3470204639E-03    0.2088880911E-03    0.4660271987E-02
    0.7000000000E+03    0.1328218894E-03    0.6910631986E+00    0.4957523670E-03    0.2992716254E-03    0.4651394432E-02
    0.9000000000E+03    0.1744294338E-03    0.6920378205E+00    0.6565416405E-03    0.3970074973E-03    0.4638449690E-02
    0.1100000000E+04    0.2198011849E-03    0.6926582712E+00    0.8316284341E-03    0.5034918675E-03    0.4622317021E-02
    0.1300000000E+04    0.2695420985E-03    0.6930876239E+00    0.1023460287E-02    0.6202315124E-03    0.4603255478E-02
    0.1500000000E+04    0.3243625906E-03    0.6934021949E+00    0.1234844220E-02    0.7489493713E-03    0.4581245001E-02
    0.1700000000E+04    0.3851074741E-03    0.6936424575E+00    0.1469086289E-02    0.8916736495E-03    0.4556096343E-02
    0.1900000000E+04    0.4527930912E-03    0.6938318698E+00    0.1730147267E-02    0.1050834724E-02    0.4527487595E-02
    0.2100000000E+04    0.5286549258E-03    0.6939849640E+00    0.2022833306E-02    0.1229383004E-02    0.4494969870E-02
    0.2300000000E+04    0.6142094931E-03    0.6941112214E+00    0.2353039821E-02    0.1430939455E-02    0.4457955685E-02
    0.2500000000E+04    0.7113357470E-03    0.6942170911E+00    0.2728070486E-02    0.1659992515E-02    0.4415694090E-02
    0.2700000000E+04    0.8223831237E-03    0.6943071115E+00    0.3157059869E-02    0.1922159152E-02    0.4367232651E-02
    0.2900000000E+04    0.9503157926E-03    0.6943845690E+00    0.3651537673E-02    0.2224533733E-02    0.4311364213E-02
    0.3100000000E+04    0.1098905697E-02    0.6944519016E+00    0.4226184398E-02    0.2576155825E-02    0.4246554949E-02
    0.3300000000E+04    0.1272990062E-02    0.6945109558E+00    0.4899840788E-02    0.2988636074E-02    0.4170849222E-02
    0.3500000000E+04    0.1478810650E-02    0.6945631558E+00    0.5696840478E-02    0.3476984237E-02    0.4081747197E-02
    0.3700000000E+04    0.1724447640E-02    0.6946096175E+00    0.6648719772E-02    0.4060674790E-02    0.3976054756E-02
    0.3900000000E+04    0.2020339522E-02    0.6946512277E+00    0.7796277292E-02    0.4764937156E-02    0.3849717252E-02
    0.4100000000E+04    0.2379815792E-02    0.6946886996E+00    0.9191709081E-02    0.5622107823E-02    0.3697679893E-02
    0.4300000000E+04    0.2819407560E-02    0.6947226137E+00    0.1089992062E-01    0.6672500450E-02    0.3513889535E-02
    0.4500000000E+04    0.3358348496E-02    0.6947534471E+00    0.1299674816E-01    0.7963409061E-02    0.3291699241E-02
    0.4700000000E+04    0.4016044734E-02    0.6947815954E+00    0.1555934440E-01    0.9543327444E-02    0.3025178445E-02
    0.4900000000E+04    0.4805568179E-02    0.6948073896E+00    0.1864110955E-01    0.1144666467E-01    0.2712049958E-02
    0.1000000000E+04    0.1966091590E-03    0.6923790792E+00    0.7421516769E-03    0.4490659466E-03    0.4630756948E-02
    0.3000000000E+04    0.1021754766E-02    0.6944193739E+00    0.3927773750E-02    0.2393532043E-02    0.4280188232E-02
    0.5000000000E+04    0.5249261625E-02    0.6948194927E+00    0.2037578619E-01    0.1251970749E-01    0.2539479625E-02
    0.7000000000E+04    0.1184372058E-01    0.6949871585E+00    0.4686513512E-01    0.2933542656E-01    0.6572380455E-03
    0.9000000000E+04    0.1398054248E-01    0.6950781227E+00    0.5649278534E-01    0.3608348792E-01    0.6416326603E-03
    0.1100000000E+05    0.1568175183E-01    0.6951345939E+00    0.6465911023E-01    0.4210343372E-01    0.6487439711E-03
    0.1300000000E+05    0.1708781298E-01    0.6951726964E+00    0.7184044584E-01    0.4764991242E-01    0.6548105411E-03
    0.1500000000E+05    0.1825507091E-01    0.6951999022E+00    0.7820253081E-01    0.5279442427E-01    0.6600499848E-03
    0.1700000000E+05    0.1922693819E-01    0.6952201388E+00    0.8387493425E-01    0.5759345162E-01    0.6646651580E-03
    0.1900000000E+05    0.2003751084E-01    0.6952356631E+00    0.8896118000E-01    0.6209276573E-01    0.6687922060E-03
    0.2100000000E+05    0.2071388317E-01    0.6952478621E+00    0.9354498620E-01    0.6632989984E-01    0.6725268102E-03
    0.2300000000E+05    0.2127781220E-01    0.6952576335E+00    0.9769478960E-01    0.7033595896E-01    0.6759388312E-03
    0.2500000000E+05    0.2174693491E-01    0.6952655830E+00    0.1014670844E+00    0.7413696857E-01    0.6790808657E-03
    0.2700000000E+05    0.2213567134E-01    0.6952721334E+00    0.1049089223E+00    0.7775489436E-01    0.6819935218E-03
    0.2900000000E+05    0.2245590361E-01    0.6952775886E+00    0.1080598105E+00    0.8120842334E-01    0.6847088182E-03
    0.3100000000E+05    0.2271749243E-01    0.6952821723E+00    0.1109531684E+00    0.8451356942E-01    0.6872524563E-03
    0.3300000000E+05    0.2292867456E-01    0.6952860525E+00    0.1136174600E+00    0.8768414803E-01    0.6896453854E-03
    0.3500000000E+05    0.2309637151E-01    0.6952893578E+00    0.1160770826E+00    0.9073215183E-01    0.6919049106E-03
    0.3700000000E+05    0.2322643176E-01    0.6952921880E+00    0.1183530699E+00    0.9366805099E-01    0.6940454948E-03
    0.3900000000E+05    0.2332382230E-01    0.6952946220E+00    0.1204636544E+00    0.9650103518E-01    0.6960793516E-03
    0.4100000000E+05    0.2339278144E-01    0.6952967226E+00    0.1224247210E+00    0.9923921012E-01    0.6980168899E-03
    0.4300000000E+05    0.2343694153E-01    0.6952985406E+00    0.1242501740E+00    0.1018897585E+00    0.6998670547E-03
    0.4500000000E+05    0.2345942820E-01    0.6953001173E+00    0.1259522381E+00    0.1044590727E+00    0.7016375898E-03
    0.4700000000E+05    0.2346294124E-01    0.6953014866E+00    0.1275417058E+00    0.1069528647E+00    0.7033352452E-03
    0.4900000000E+05    0.2344982079E-01    0.6953026769E+00    0.1290281419E+00    0.1093762579E+00    0.7049659403E-03
    0.1000000000E+05    0.1487225577E-01    0.6951093574E+00    0.6071144109E-01    0.3915800336E-01    0.6453131255E-03
    0.3000000000E+05    0.2259347958E-01    0.6952799778E+00    0.1095367970E+00    0.8287863407E-01    0.6860006886E-03
    0.5000000000E+05    0.2343766957E-01    0.6953032123E+00    0.1297354191E+00    0.1105630142E+00    0.7057578334E-03
    0.7000000000E+05    0.2269599005E-01    0.6953086098E+00    0.1401112505E+00    0.1315121439E+00    0.7190765405E-03
    0.9000000000E+05    0.2153487319E-01    0.6953090579E+00    0.1459433774E+00    0.1487093092E+00    0.7291864498E-03
    0.1100000000E+06    0.2030033159E-01    0.6953077047E+00    0.1493090488E+00    0.1634783362E+00    0.7373602374E-03
    0.1300000000E+06    0.1910791645E-01    0.6953056235E+00    0.1511964689E+00    0.1765245425E+00    0.7442341518E-03
    0.1500000000E+06    0.1799544948E-01    0.6953032512E+00    0.1521371254E+00    0.1882708015E+00    0.7501731119E-03
    0.1700000000E+06    0.1697181897E-01    0.6953007855E+00    0.1524424984E+00    0.1989924216E+00    0.7554062890E-03
    0.1900000000E+06    0.1603476928E-01    0.6952983209E+00    0.1523070587E+00    0.2088798354E+00    0.7600872319E-03
    0.2100000000E+06    0.1517795075E-01    0.6952959041E+00    0.1518582440E+00    0.2180710052E+00    0.7643239537E-03
    0.2300000000E+06    0.1439384445E-01    0.6952935574E+00    0.1511828023E+00    0.2266695854E+00    0.7681953783E-03
    0.2500000000E+06    0.1367498425E-01    0.6952912905E+00    0.1503416130E+00    0.2347557711E+00    0.7717609620E-03
    0.2700000000E+06    0.1301444210E-01    0.6952891065E+00    0.1493784762E+00    0.2423931184E+00    0.7750666317E-03
    0.2900000000E+06    0.1240598673E-01    0.6952870047E+00    0.1483255558E+00    0.2496330184E+00    0.7781486152E-03
    0.3100000000E+06    0.1184409817E-01    0.6952849826E+00    0.1472068761E+00    0.2565177376E+00    0.7810360025E-03
    0.3300000000E+06    0.1132392169E-01    0.6952830367E+00    0.1460406370E+00    0.2630825470E+00    0.7837525123E-03
    0.3500000000E+06    0.1084119974E-01    0.6952811630E+00    0.1448407902E+00    0.2693572527E+00    0.7863177424E-03
    0.3700000000E+06    0.1039219991E-01    0.6952793576E+00    0.1436181351E+00    0.2753673202E+00    0.7887480757E-03
    0.3900000000E+06    0.9973646644E-02    0.6952776164E+00    0.1423810987E+00    0.2811347180E+00    0.7910573497E-03
    0.4100000000E+06    0.9582659698E-02    0.6952759356E+00    0.1411362985E+00    0.2866785602E+00    0.7932573597E-03
    0.4300000000E+06    0.9216700292E-02    0.6952743116E+00    0.1398889564E+00    0.2920156050E+00    0.7953582433E-03
    0.4500000000E+06    0.8873524534E-02    0.6952727411E+00    0.1386432071E+00    0.2971606458E+00    0.7973687787E-03
    0.4700000000E+06    0.8551143517E-02    0.6952712208E+00    0.1374023310E+00    0.3021268221E+00    0.7992966177E-03
    0.4900000000E+06    0.8247789225E-02    0.6952697478E+00    0.1361689316E+00    0.3069258704E+00    0.8011484720E-03
    0.1000000000E+06    0.2091677457E-01    0.6953085164E+00    0.1478576892E+00    0.1563442213E+00    0.7334667447E-03
    0.3000000000E+06    0.1211953986E-01    0.6952859839E+00    0.1477731832E+00    0.2531174275E+00    0.7796150417E-03
    0.5000000000E+06    0.8102747753E-02    0.6952690282E+00    0.1355556985E+00    0.3092660560E+00    0.8020477821E-03
    0.7000000000E+06    0.5896434723E-02    0.6952565604E+00    0.1239967086E+00    0.3493739798E+00    0.8171746562E-03
    0.9000000000E+06    0.4522843904E-02    0.6952467270E+00    0.1139738868E+00    0.3803175634E+00    0.8286586100E-03
    0.1100000000E+07    0.3597297126E-02    0.6952386031E+00    0.1053642187E+00    0.4052372007E+00    0.8379439785E-03
    0.1300000000E+07    0.2938658503E-02    0.6952316754E+00    0.9793348489E-01    0.4258810191E+00    0.8457530558E-03
    0.1500000000E+07    0.2450736491E-02    0.6952256316E+00    0.9146997864E-01    0.4433362763E+00    0.8525001909E-03
    0.1700000000E+07    0.2077905483E-02    0.6952202679E+00    0.8580186781E-01    0.4583294243E+00    0.8584456307E-03
    0.1900000000E+07    0.1785885511E-02    0.6952154439E+00    0.8079294226E-01    0.4713709426E+00    0.8637637615E-03
    0.2100000000E+07    0.1552480537E-02    0.6952110587E+00    0.7633532642E-01    0.4828333002E+00    0.8685772622E-03
    0.2300000000E+07    0.1362737943E-02    0.6952070375E+00    0.7234302111E-01    0.4929963507E+00    0.8729757782E-03
    0.2500000000E+07    0.1206251599E-02    0.6952033232E+00    0.6874684448E-01    0.5020753800E+00    0.8770268449E-03
    0.2700000000E+07    0.1075579424E-02    0.6951998712E+00    0.6549060581E-01    0.5102392601E+00    0.8807826322E-03
    0.2900000000E+07    0.9652742614E-03    0.6951966461E+00    0.6252823385E-01    0.5176226469E+00    0.8842842934E-03
    0.3100000000E+07    0.8712685781E-03    0.6951936192E+00    0.5982161517E-01    0.5243344334E+00    0.8875648743E-03
    0.3300000000E+07    0.7904715843E-03    0.6951907670E+00    0.5733895509E-01    0.5304637605E+00    0.8906513195E-03
    0.3500000000E+07    0.7204983129E-03    0.6951880699E+00    0.5505352370E-01    0.5360843871E+00    0.8935658927E-03
    0.3700000000E+07    0.6594831387E-03    0.6951855115E+00    0.5294268706E-01    0.5412579278E+00    0.8963272056E-03
    0.3900000000E+07    0.6059487496E-03    0.6951830780E+00    0.5098715177E-01    0.5460362933E+00    0.8989509785E-03
    0.4100000000E+07    0.5587123798E-03    0.6951807573E+00    0.4917037037E-01    0.5504635551E+00    0.9014506117E-03
    0.4300000000E+07    0.5168175968E-03    0.6951785392E+00    0.4747806923E-01    0.5545773908E+00    0.9038376224E-03
    0.4500000000E+07    0.4794839392E-03    0.6951764148E+00    0.4589787051E-01    0.5584102168E+00    0.9061219832E-03
    0.4700000000E+07    0.4460692314E-03    0.6951743763E+00    0.4441898717E-01    0.5619900860E+00    0.9083123878E-03
    0.4900000000E+07    0.4160410368E-03    0.6951724169E+00    0.4303197504E-01    0.5653414046E+00    0.9104164609E-03
    0.1000000000E+07    0.4018196107E-02    0.6952424898E+00    0.1095070322E+00    0.3934003299E+00    0.8335209324E-03
    0.3000000000E+07    0.9164463738E-03    0.6951951095E+00    0.6114507432E-01    0.5210565137E+00    0.8859504107E-03
    0.5000000000E+07    0.4021550134E-03    0.6951714649E+00    0.4237028585E-01    0.5669381324E+00    0.9114382562E-03
    0.7000000000E+07    0.2252246000E-03    0.6951554138E+00    0.3239126940E-01    0.5908690965E+00    0.9286254494E-03
    0.9000000000E+07    0.1437953476E-03    0.6951431898E+00    0.2620096492E-01    0.6055872256E+00    0.9416735852E-03
    0.1100000000E+08    0.9968426182E-04    0.6951332876E+00    0.2198730161E-01    0.6155568236E+00    0.9522236795E-03
    0.1300000000E+08    0.7313312203E-04    0.6951249496E+00    0.1893480266E-01    0.6227565067E+00    0.9610963973E-03
    0.1500000000E+08    0.5592305743E-04    0.6951177391E+00    0.1662221079E-01    0.6281992506E+00    0.9687625229E-03
    0.1700000000E+08    0.4413684306E-04    0.6951113811E+00    0.1480996663E-01    0.6324577148E+00    0.9755177511E-03
    0.1900000000E+08    0.3571443045E-04    0.6951056911E+00    0.1335179572E-01    0.6358801039E+00    0.9815602215E-03
    0.2100000000E+08    0.2948834547E-04    0.6951005389E+00    0.1215334074E-01    0.6386903365E+00    0.9870293238E-03
    0.2300000000E+08    0.2475682994E-04    0.6950958292E+00    0.1115101207E-01    0.6410389551E+00    0.9920269143E-03
    0.2500000000E+08    0.2107748220E-04    0.6950914902E+00    0.1030039671E-01    0.6430309031E+00    0.9966297280E-03
    0.2700000000E+08    0.1816020318E-04    0.6950874666E+00    0.9569539136E-02    0.6447415720E+00    0.1000897041E-02
