  Pressure (Pa) 22mC5-500 (mol/kg) 24mC5-500 (mol/kg) 2mC6-500 (mol/kg) 3mC6-500 (mol/kg) C7-500 (mol/kg)
    0.1000000000E+01    0.3727465454E-05    0.2142763650E+00    0.1426791894E-04    0.8380744753E-06    0.4178688275E-02
    0.3000000000E+01    0.6366190086E-05    0.3978364976E+00    0.2319808172E-04    0.2128682538E-05    0.4202610101E-02
    0.5000000000E+01    0.7363409462E-05    0.4800931904E+00    0.2676104791E-04    0.3311629015E-05    0.4211866734E-02
    0.7000000000E+01    0.7916847899E-05    0.5267724275E+00    0.2935786246E-04    0.4442513077E-05    0.4216943467E-02
    0.9000000000E+01    0.8315350196E-05    0.5568522320E+00    0.3180815123E-04    0.5540044434E-05    0.4220134071E-02
    0.1100000000E+02    0.8653845469E-05    0.5778503605E+00    0.3430065334E-04    0.6613574779E-05    0.4222298520E-02
    0.1300000000E+02    0.8969209156E-05    0.5933403191E+00    0.3687438166E-04    0.7668666615E-05    0.4223838429E-02
    0.1500000000E+02    0.9277219194E-05    0.6052381604E+00    0.3952851517E-04    0.8708983720E-05    0.4224968071E-02
    0.1700000000E+02    0.9584968213E-05    0.6146635855E+00    0.4225228150E-04    0.9737108468E-05    0.4225812751E-02
    0.1900000000E+02    0.9895660817E-05    0.6223147299E+00    0.4503371930E-04    0.1075495154E-04    0.4226450883E-02
    0.2100000000E+02    0.1021066190E-04    0.6286494953E+00    0.4786215808E-04    0.1176397929E-04    0.4226934171E-02
    0.2300000000E+02    0.1053043733E-04    0.6339806977E+00    0.5072872121E-04    0.1276534969E-04    0.4227298161E-02
    0.2500000000E+02    0.1085500973E-04    0.6385293132E+00    0.5362621850E-04    0.1375999846E-04    0.4227568132E-02
    0.2700000000E+02    0.1118418797E-04    0.6424558774E+00    0.5654888195E-04    0.1474869610E-04    0.4227762585E-02
    0.2900000000E+02    0.1151768549E-04    0.6458798274E+00    0.5949209408E-04    0.1573208720E-04    0.4227895385E-02
    0.3100000000E+02    0.1185518212E-04    0.6488918627E+00    0.6245215277E-04    0.1671071828E-04    0.4227977140E-02
    0.3300000000E+02    0.1219635600E-04    0.6515620978E+00    0.6542608026E-04    0.1768505811E-04    0.4228016111E-02
    0.3500000000E+02    0.1254089961E-04    0.6539455888E+00    0.6841147198E-04    0.1865551282E-04    0.4228018835E-02
    0.3700000000E+02    0.1288852716E-04    0.6560861700E+00    0.7140637825E-04    0.1962243739E-04    0.4227990554E-02
    0.3900000000E+02    0.1323897730E-04    0.6580191741E+00    0.7440921200E-04    0.2058614451E-04    0.4227935526E-02
    0.4100000000E+02    0.1359201325E-04    0.6597733985E+00    0.7741867655E-04    0.2154691157E-04    0.4227857243E-02
    0.4300000000E+02    0.1394742176E-04    0.6613725491E+00    0.8043370913E-04    0.2250498616E-04    0.4227758603E-02
    0.4500000000E+02    0.1430501133E-04    0.6628363179E+00    0.8345343631E-04    0.2346059053E-04    0.4227642029E-02
    0.4700000000E+02    0.1466461035E-04    0.6641811983E+00    0.8647713870E-04    0.2441392521E-04    0.4227509564E-02
    0.4900000000E+02    0.1502606504E-04    0.6654211092E+00    0.8950422294E-04    0.2536517197E-04    0.4227362944E-02
    0.1000000000E+02    0.8489059824E-05    0.5682084567E+00    0.3304512210E-04    0.6079403415E-05    0.4221313243E-02
    0.3000000000E+02    0.1168595424E-04    0.6474325446E+00    0.6097021874E-04    0.1622196682E-04    0.4227942080E-02
    0.5000000000E+02    0.1520744465E-04    0.6660054679E+00    0.9101887665E-04    0.2584006468E-04    0.4227284798E-02
    0.7000000000E+02    0.1890585166E-04    0.6742955716E+00    0.1214086392E-03    0.3526179344E-04    0.4225247060E-02
    0.9000000000E+02    0.2269716851E-04    0.6789909104E+00    0.1519055810E-03    0.4459986559E-04    0.4222680333E-02
    0.1100000000E+03    0.2655050958E-04    0.6820129776E+00    0.1825001413E-03    0.5391166077E-04    0.4219843376E-02
    0.1300000000E+03    0.3045351667E-04    0.6841209225E+00    0.2132238218E-03    0.6323210846E-04    0.4216842277E-02
    0.1500000000E+03    0.3440123260E-04    0.6856749970E+00    0.2441137384E-03    0.7258491688E-04    0.4213728426E-02
    0.1700000000E+03    0.3839200256E-04    0.6868681357E+00    0.2752047598E-03    0.8198744067E-04    0.4210529463E-02
    0.1900000000E+03    0.4242576609E-04    0.6878129879E+00    0.3065280904E-03    0.9145312357E-04    0.4207261317E-02
    0.2100000000E+03    0.4650327619E-04    0.6885797433E+00    0.3381114781E-03    0.1009928544E-03    0.4203933584E-02
    0.2300000000E+03    0.5062571719E-04    0.6892144139E+00    0.3699797753E-03    0.1106157776E-03    0.4200552193E-02
    0.2500000000E+03    0.5479450805E-04    0.6897484190E+00    0.4021555058E-03    0.1203298069E-03    0.4197120830E-02
    0.2700000000E+03    0.5901119783E-04    0.6902039451E+00    0.4346593506E-03    0.1301419653E-03    0.4193641745E-02
    0.2900000000E+03    0.6327740883E-04    0.6905971055E+00    0.4675105428E-03    0.1400586199E-03    0.4190116238E-02
    0.3100000000E+03    0.6759480582E-04    0.6909398848E+00    0.5007271837E-03    0.1500856486E-03    0.4186544953E-02
    0.3300000000E+03    0.7196507957E-04    0.6912413820E+00    0.5343264953E-03    0.1602285617E-03    0.4182928076E-02
    0.3500000000E+03    0.7638993871E-04    0.6915086295E+00    0.5683250230E-03    0.1704925931E-03    0.4179265459E-02
    0.3700000000E+03    0.8087110629E-04    0.6917471483E+00    0.6027387993E-03    0.1808827707E-03    0.4175556707E-02
    0.3900000000E+03    0.8541031916E-04    0.6919613334E+00    0.6375834781E-03    0.1914039703E-03    0.4171801236E-02
    0.4100000000E+03    0.9000932900E-04    0.6921547266E+00    0.6728744453E-03    0.2020609594E-03    0.4167998316E-02
    0.4300000000E+03    0.9466990418E-04    0.6923302146E+00    0.7086269115E-03    0.2128584318E-03    0.4164147099E-02
    0.4500000000E+03    0.9939383232E-04    0.6924901731E+00    0.7448559902E-03    0.2238010370E-03    0.4160246640E-02
    0.4700000000E+03    0.1041829230E-03    0.6926365755E+00    0.7815767651E-03    0.2348934039E-03    0.4156295916E-02
    0.4900000000E+03    0.1090390106E-03    0.6927710743E+00    0.8188043482E-03    0.2461401616E-03    0.4152293833E-02
    0.1000000000E+03    0.2461710848E-04    0.6806497352E+00    0.1671890042E-03    0.4925651744E-04    0.4221287118E-02
    0.3000000000E+03    0.6542960388E-04    0.6907741677E+00    0.4840720878E-03    0.1450579857E-03    0.4188336297E-02
    0.5000000000E+03    0.1114927590E-03    0.6928343044E+00    0.8376129358E-03    0.2518228879E-03    0.4150273172E-02
    0.7000000000E+03    0.1645627174E-03    0.6937205197E+00    0.1244226759E-02    0.3747536268E-03    0.4106850023E-02
    0.9000000000E+03    0.2267665322E-03    0.6942135708E+00    0.1720794567E-02    0.5190011522E-03    0.4056627741E-02
    0.1100000000E+04    0.3008546400E-03    0.6945275177E+00    0.2288678383E-02    0.6910772382E-03    0.3997646409E-02
    0.1300000000E+04    0.3905610423E-03    0.6947449059E+00    0.2976754191E-02    0.8997930625E-03    0.3927253393E-02
    0.1500000000E+04    0.5011151007E-03    0.6949043164E+00    0.3825438300E-02    0.1157494942E-02    0.3841779004E-02
    0.1700000000E+04    0.6400240866E-03    0.6950261950E+00    0.4892784119E-02    0.1481937385E-02    0.3736036698E-02
    0.1900000000E+04    0.8182914114E-03    0.6951223867E+00    0.6263972467E-02    0.1899205160E-02    0.3602567280E-02
    0.2100000000E+04    0.1052274090E-02    0.6952002280E+00    0.8065823312E-02    0.2448196493E-02    0.3430546285E-02
    0.2300000000E+04    0.1366257749E-02    0.6952645050E+00    0.1048704337E-01    0.3186917902E-02    0.3204428615E-02
    0.2500000000E+04    0.1794930378E-02    0.6953184732E+00    0.1379810566E-01    0.4198791338E-02    0.2903152577E-02
    0.2700000000E+04    0.2381424481E-02    0.6953644237E+00    0.1833764666E-01    0.5588954138E-02    0.2503255265E-02
    0.2900000000E+04    0.3157788077E-02    0.6954040160E+00    0.2436379956E-01    0.7439482147E-02    0.1994716603E-02
    0.3100000000E+04    0.4091250724E-02    0.6954384813E+00    0.3163923513E-01    0.9682610152E-02    0.1417404564E-02
    0.3300000000E+04    0.5037065685E-02    0.6954687523E+00    0.3905852506E-01    0.1198434718E-01    0.8824728999E-03
    0.3500000000E+04    0.5822438704E-02    0.6954955486E+00    0.4528372942E-01    0.1393490538E-01    0.4997310271E-03
    0.3700000000E+04    0.6394224405E-02    0.6955194343E+00    0.4988894724E-01    0.1539957387E-01    0.2830437727E-03
    0.3900000000E+04    0.6806528668E-02    0.6955408576E+00    0.5327932444E-01    0.1649838190E-01    0.1780878129E-03
    0.4100000000E+04    0.7127206450E-02    0.6955601792E+00    0.5597331621E-01    0.1738810465E-01    0.1312811681E-03
    0.4300000000E+04    0.7399803696E-02    0.6955776929E+00    0.5830561655E-01    0.1817055346E-01    0.1112036305E-03
    0.4500000000E+04    0.7646609309E-02    0.6955936399E+00    0.6044801082E-01    0.1889813579E-01    0.1027707560E-03
    0.4700000000E+04    0.7878101022E-02    0.6956082208E+00    0.6248125807E-01    0.1959550013E-01    0.9930796806E-04
    0.4900000000E+04    0.8099101331E-02    0.6956216029E+00    0.6444236704E-01    0.2027390222E-01    0.9795310028E-04
    0.1000000000E+04    0.2621197303E-03    0.6943862286E+00    0.1991733098E-02    0.6010760242E-03    0.4028378413E-02
    0.3000000000E+04    0.3611379534E-02    0.6954218254E+00    0.2789450649E-01    0.8526677590E-02    0.1709109712E-02
    0.5000000000E+04    0.8206428308E-02    0.6956278895E+00    0.6540164835E-01    0.2060773347E-01    0.9765271364E-04
    0.7000000000E+04    0.1003258722E-01    0.6957156343E+00    0.8248722970E-01    0.2677983468E-01    0.9869865626E-04
    0.9000000000E+04    0.1139304448E-01    0.6957640499E+00    0.9646215985E-01    0.3219939225E-01    0.1000899839E-03
    0.1100000000E+05    0.1241864442E-01    0.6957946435E+00    0.1081030288E+00    0.3703581560E-01    0.1012145935E-03
    0.1300000000E+05    0.1319696084E-01    0.6958156713E+00    0.1179416930E+00    0.4140703377E-01    0.1021601024E-03
    0.1500000000E+05    0.1378908116E-01    0.6958309784E+00    0.1263595612E+00    0.4539954770E-01    0.1029768576E-03
    0.1700000000E+05    0.1423870012E-01    0.6958425963E+00    0.1336373040E+00    0.4907843083E-01    0.1036964542E-03
    0.1900000000E+05    0.1457774820E-01    0.6958516986E+00    0.1399860771E+00    0.5249370824E-01    0.1043400508E-03
    0.2100000000E+05    0.1482999371E-01    0.6958590102E+00    0.1455678091E+00    0.5568456436E-01    0.1049225252E-03
    0.2300000000E+05    0.1501341577E-01    0.6958650029E+00    0.1505087750E+00    0.5868219945E-01    0.1054547453E-03
    0.2500000000E+05    0.1514180720E-01    0.6958699968E+00    0.1549089112E+00    0.6151181808E-01    0.1059448960E-03
    0.2700000000E+05    0.1522588152E-01    0.6958742166E+00    0.1588483547E+00    0.6419404430E-01    0.1063992988E-03
    0.2900000000E+05    0.1527405265E-01    0.6958778246E+00    0.1623921235E+00    0.6674594883E-01    0.1068229392E-03
    0.3100000000E+05    0.1529299371E-01    0.6958809412E+00    0.1655935295E+00    0.6918180772E-01    0.1072198198E-03
    0.3300000000E+05    0.1528804383E-01    0.6958836570E+00    0.1684967050E+00    0.7151367167E-01    0.1075932038E-03
    0.3500000000E+05    0.1526350863E-01    0.6958860421E+00    0.1711385019E+00    0.7375179933E-01    0.1079457873E-03
    0.3700000000E+05    0.1522288494E-01    0.6958881511E+00    0.1735499367E+00    0.7590499145E-01    0.1082798238E-03
    0.3900000000E+05    0.1516903089E-01    0.6958900273E+00    0.1757573048E+00    0.7798085152E-01    0.1085972165E-03
    0.4100000000E+05    0.1510429598E-01    0.6958917057E+00    0.1777830484E+00    0.7998599137E-01    0.1088995877E-03
    0.4300000000E+05    0.1503062165E-01    0.6958932143E+00    0.1796464384E+00    0.8192619501E-01    0.1091883316E-03
    0.4500000000E+05    0.1494961958E-01    0.6958945765E+00    0.1813641178E+00    0.8380655021E-01    0.1094646552E-03
    0.4700000000E+05    0.1486263330E-01    0.6958958114E+00    0.1829505354E+00    0.8563155531E-01    0.1097296109E-03
    0.4900000000E+05    0.1477078696E-01    0.6958969350E+00    0.1844182973E+00    0.8740520644E-01    0.1099841215E-03
    0.1000000000E+05    0.1194146786E-01    0.6957809033E+00    0.1025368270E+00    0.3468223726E-01    0.1006789439E-03
    0.3000000000E+05    0.1528681593E-01    0.6958794381E+00    0.1640326733E+00    0.6797758429E-01    0.1070245054E-03
    0.5000000000E+05    0.1472334233E-01    0.6958974594E+00    0.1851111891E+00    0.8827390367E-01    0.1101077180E-03
    0.7000000000E+05    0.1368189982E-01    0.6959044748E+00    0.1948153044E+00    0.1036452947E+00    0.1121866272E-03
    0.9000000000E+05    0.1265458417E-01    0.6959079757E+00    0.1997614840E+00    0.1163539810E+00    0.1137648457E-03
    0.1100000000E+06    0.1173093532E-01    0.6959099487E+00    0.2022939102E+00    0.1273580204E+00    0.1150409078E-03
    0.1300000000E+06    0.1091784038E-01    0.6959111365E+00    0.2034535825E+00    0.1371578791E+00    0.1161140873E-03
    0.1500000000E+06    0.1020366156E-01    0.6959118758E+00    0.2037721427E+00    0.1460508389E+00    0.1170413301E-03
    0.1700000000E+06    0.9573969163E-02    0.6959123397E+00    0.2035482974E+00    0.1542295193E+00    0.1178584018E-03
    0.1900000000E+06    0.9015569822E-02    0.6959126252E+00    0.2029619199E+00    0.1618267914E+00    0.1185892674E-03
    0.2100000000E+06    0.8517326146E-02    0.6959127906E+00    0.2021271586E+00    0.1689387420E+00    0.1192507860E-03
    0.2300000000E+06    0.8070074250E-02    0.6959128726E+00    0.2011194763E+00    0.1756374644E+00    0.1198552770E-03
    0.2500000000E+06    0.7666322272E-02    0.6959128955E+00    0.1999904133E+00    0.1819786686E+00    0.1204120210E-03
    0.2700000000E+06    0.7299935893E-02    0.6959128755E+00    0.1987761104E+00    0.1880064572E+00    0.1209281874E-03
    0.2900000000E+06    0.6965867105E-02    0.6959128241E+00    0.1975024617E+00    0.1937564524E+00    0.1214094313E-03
    0.3100000000E+06    0.6659934758E-02    0.6959127495E+00    0.1961883503E+00    0.1992579209E+00    0.1218602940E-03
    0.3300000000E+06    0.6378651288E-02    0.6959126576E+00    0.1948477468E+00    0.2045352597E+00    0.1222844781E-03
    0.3500000000E+06    0.6119087009E-02    0.6959125527E+00    0.1934911101E+00    0.2096090649E+00    0.1226850431E-03
    0.3700000000E+06    0.5878763861E-02    0.6959124383E+00    0.1921263437E+00    0.2144969157E+00    0.1230645467E-03
    0.3900000000E+06    0.5655571941E-02    0.6959123167E+00    0.1907594630E+00    0.2192139631E+00    0.1234251490E-03
    0.4100000000E+06    0.5447703565E-02    0.6959121899E+00    0.1893950700E+00    0.2237733776E+00    0.1237686917E-03
    0.4300000000E+06    0.5253600861E-02    0.6959120594E+00    0.1880366963E+00    0.2281866968E+00    0.1240967573E-03
    0.4500000000E+06    0.5071913823E-02    0.6959119263E+00    0.1866870540E+00    0.2324640978E+00    0.1244107162E-03
    0.4700000000E+06    0.4901466517E-02    0.6959117915E+00    0.1853482227E+00    0.2366146137E+00    0.1247117633E-03
    0.4900000000E+06    0.4741229657E-02    0.6959116557E+00    0.1840217900E+00    0.2406463078E+00    0.1250009462E-03
    0.1000000000E+06    0.1217859143E-01    0.6959090924E+00    0.2012471920E+00    0.1220312559E+00    0.1144330614E-03
    0.3000000000E+06    0.6809616353E-02    0.6959127893E+00    0.1968494946E+00    0.1965366277E+00    0.1216384118E-03
    0.5000000000E+06    0.4664652998E-02    0.6959115876E+00    0.1833636113E+00    0.2426198866E+00    0.1251413818E-03
    0.7000000000E+06    0.3498078165E-02    0.6959102609E+00    0.1710135728E+00    0.2772795446E+00    0.1275036322E-03
    0.9000000000E+06    0.2762374246E-02    0.6959090700E+00    0.1602250746E+00    0.3052362174E+00    0.1292970555E-03
    0.1100000000E+07    0.2256750688E-02    0.6959080206E+00    0.1507925402E+00    0.3286511439E+00    0.1307471672E-03
    0.1300000000E+07    0.1889021652E-02    0.6959070905E+00    0.1424808578E+00    0.3487394950E+00    0.1319667486E-03
    0.1500000000E+07    0.1610575922E-02    0.6959062578E+00    0.1350950815E+00    0.3662686927E+00    0.1330204990E-03
    0.1700000000E+07    0.1393241340E-02    0.6959055051E+00    0.1284812954E+00    0.3817611952E+00    0.1339490562E-03
    0.1900000000E+07    0.1219528928E-02    0.6959048187E+00    0.1225182710E+00    0.3955918819E+00    0.1347796511E-03
    0.2100000000E+07    0.1077997357E-02    0.6959041881E+00    0.1171096289E+00    0.4080403842E+00    0.1355314405E-03
    0.2300000000E+07    0.9608455689E-03    0.6959036047E+00    0.1121778077E+00    0.4193216015E+00    0.1362184232E-03
    0.2500000000E+07    0.8625732463E-03    0.6959030621E+00    0.1076596196E+00    0.4296046394E+00    0.1368511454E-03
    0.2700000000E+07    0.7791931597E-03    0.6959025549E+00    0.1035029930E+00    0.4390251516E+00    0.1374377541E-03
    0.2900000000E+07    0.7077465932E-03    0.6959020786E+00    0.9966456617E-01    0.4476937083E+00    0.1379846757E-03
    0.3100000000E+07    0.6459937522E-03    0.6959016297E+00    0.9610788764E-01    0.4557016575E+00    0.1384970708E-03
    0.3300000000E+07    0.5922095272E-03    0.6959012051E+00    0.9280205305E-01    0.4631253431E+00    0.1389791472E-03
    0.3500000000E+07    0.5450449984E-03    0.6959008023E+00    0.8972065890E-01    0.4700292121E+00    0.1394343816E-03
    0.3700000000E+07    0.5034312457E-03    0.6959004192E+00    0.8684098951E-01    0.4764681490E+00    0.1398656806E-03
    0.3900000000E+07    0.4665111239E-03    0.6959000538E+00    0.8414337800E-01    0.4824892598E+00    0.1402754992E-03
    0.4100000000E+07    0.4335899647E-03    0.6958997046E+00    0.8161069849E-01    0.4881332566E+00    0.1406659300E-03
    0.4300000000E+07    0.4040993601E-03    0.6958993702E+00    0.7922795878E-01    0.4934355459E+00    0.1410387717E-03
    0.4500000000E+07    0.3775701579E-03    0.6958990493E+00    0.7698197055E-01    0.4984270950E+00    0.1413955818E-03
    0.4700000000E+07    0.3536120537E-03    0.6958987408E+00    0.7486108015E-01    0.5031351285E+00    0.1417377178E-03
    0.4900000000E+07    0.3318979787E-03    0.6958984438E+00    0.7285494715E-01    0.5075836939E+00    0.1420663706E-03
    0.1000000000E+07    0.2488018693E-02    0.6959085289E+00    0.1553547650E+00    0.3174213655E+00    0.1300564086E-03
    0.3000000000E+07    0.6757764649E-03    0.6959018509E+00    0.9785305633E-01    0.4517751766E+00    0.1382449067E-03
    0.5000000000E+07    0.3217945052E-03    0.6958982994E+00    0.7189199657E-01    0.5097174378E+00    0.1422259739E-03
    0.7000000000E+07    0.1889264786E-03    0.6958958512E+00    0.5687690503E-01    0.5428688266E+00    0.1449106480E-03
    0.9000000000E+07    0.1243834652E-03    0.6958939732E+00    0.4705446223E-01    0.5644505336E+00    0.1469488599E-03
    0.1100000000E+08    0.8810827706E-04    0.6958924455E+00    0.4012022397E-01    0.5796447376E+00    0.1485969020E-03
    0.1300000000E+08    0.6568178291E-04    0.6958911556E+00    0.3496161274E-01    0.5909285695E+00    0.1499829484E-03
    0.1500000000E+08    0.5084690451E-04    0.6958900378E+00    0.3097357595E-01    0.5996414945E+00    0.1511805291E-03
    0.1700000000E+08    0.4052390149E-04    0.6958890508E+00    0.2779826882E-01    0.6065727942E+00    0.1522358285E-03
    0.1900000000E+08    0.3305158110E-04    0.6958881663E+00    0.2521033041E-01    0.6122182620E+00    0.1531797941E-03
    0.2100000000E+08    0.2746901661E-04    0.6958873647E+00    0.2306070623E-01    0.6169052000E+00    0.1540341978E-03
    0.2300000000E+08    0.2318874601E-04    0.6958866314E+00    0.2124685004E-01    0.6208584616E+00    0.1548149490E-03
    0.2500000000E+08    0.1983512048E-04    0.6958859553E+00    0.1969588835E-01    0.6242376562E+00    0.1555340334E-03
    0.2700000000E+08    0.1715881229E-04    0.6958853280E+00    0.1835460866E-01    0.6271592253E+00    0.1562007099E-03
