  Pressure (Pa) 22mC5-500 (mol/kg) 24mC5-500 (mol/kg) 2mC6-500 (mol/kg) 3mC6-500 (mol/kg) C7-500 (mol/kg)
    0.1000000000E+01    0.4728713515E-05    0.9949356384E-01    0.2761086060E-04    0.7729541383E-06    0.4204200938E-02
    0.3000000000E+01    0.1045951955E-04    0.2320802534E+00    0.5854117816E-04    0.1986000352E-05    0.4264615435E-02
    0.5000000000E+01    0.1371754784E-04    0.3164141252E+00    0.7467885664E-04    0.3103827462E-05    0.4301870335E-02
    0.7000000000E+01    0.1575855899E-04    0.3747830036E+00    0.8423907243E-04    0.4175605803E-05    0.4327742519E-02
    0.9000000000E+01    0.1713239486E-04    0.4175794589E+00    0.9058060639E-04    0.5217984113E-05    0.4346843368E-02
    0.1100000000E+02    0.1811289425E-04    0.4503024924E+00    0.9525785036E-04    0.6239309686E-05    0.4361554587E-02
    0.1300000000E+02    0.1884912057E-04    0.4761345436E+00    0.9905178487E-04    0.7244557611E-05    0.4373247557E-02
    0.1500000000E+02    0.1942773505E-04    0.4970451585E+00    0.1023781609E-03    0.8237009577E-05    0.4382771330E-02
    0.1700000000E+02    0.1990173770E-04    0.5143185635E+00    0.1054675112E-03    0.9218981297E-05    0.4390680940E-02
    0.1900000000E+02    0.2030486672E-04    0.5288278984E+00    0.1084511981E-03    0.1019218777E-04    0.4397355115E-02
    0.2100000000E+02    0.2065930351E-04    0.5411875219E+00    0.1114052079E-03    0.1115794624E-04    0.4403061441E-02
    0.2300000000E+02    0.2098002098E-04    0.5518422735E+00    0.1143735835E-03    0.1211729771E-04    0.4407994537E-02
    0.2500000000E+02    0.2127734785E-04    0.5611221714E+00    0.1173814823E-03    0.1307108391E-04    0.4412299462E-02
    0.2700000000E+02    0.2155853790E-04    0.5692772151E+00    0.1204426968E-03    0.1401999845E-04    0.4416086628E-02
    0.2900000000E+02    0.2182876096E-04    0.5765002526E+00    0.1235641058E-03    0.1496462193E-04    0.4419441619E-02
    0.3100000000E+02    0.2209174602E-04    0.5829424294E+00    0.1267483674E-03    0.1590544693E-04    0.4422431841E-02
    0.3300000000E+02    0.2235020838E-04    0.5887238836E+00    0.1299955771E-03    0.1684289624E-04    0.4425111135E-02
    0.3500000000E+02    0.2260613952E-04    0.5939413093E+00    0.1333043019E-03    0.1777733640E-04    0.4427523049E-02
    0.3700000000E+02    0.2286100719E-04    0.5986734098E+00    0.1366722309E-03    0.1870908800E-04    0.4429703204E-02
    0.3900000000E+02    0.2311589594E-04    0.6029848955E+00    0.1400965874E-03    0.1963843364E-04    0.4431681030E-02
    0.4100000000E+02    0.2337160718E-04    0.6069294619E+00    0.1435743882E-03    0.2056562423E-04    0.4433481069E-02
    0.4300000000E+02    0.2362873131E-04    0.6105520376E+00    0.1471026067E-03    0.2149088388E-04    0.4435123956E-02
    0.4500000000E+02    0.2388770045E-04    0.6138905032E+00    0.1506782732E-03    0.2241441395E-04    0.4436627172E-02
    0.4700000000E+02    0.2414882719E-04    0.6169770212E+00    0.1542985341E-03    0.2333639627E-04    0.4438005635E-02
    0.4900000000E+02    0.2441233351E-04    0.6198390762E+00    0.1579606856E-03    0.2425699585E-04    0.4439272150E-02
    0.1000000000E+02    0.1766054024E-04    0.4349639345E+00    0.9306674656E-04    0.5730915267E-05    0.4354645859E-02
    0.3000000000E+02    0.2196096870E-04    0.5798108141E+00    0.1251483284E-03    0.1543548135E-04    0.4420978687E-02
    0.5000000000E+02    0.2454502904E-04    0.6211934454E+00    0.1598066706E-03    0.2471682460E-04    0.4439866945E-02
    0.7000000000E+02    0.2733954588E-04    0.6407964356E+00    0.1984011697E-03    0.3387130582E-04    0.4447916978E-02
    0.9000000000E+02    0.3038143340E-04    0.6522317021E+00    0.2392500320E-03    0.4300189172E-04    0.4451585705E-02
    0.1100000000E+03    0.3362242082E-04    0.6597237547E+00    0.2815870870E-03    0.5216190975E-04    0.4452977699E-02
    0.1300000000E+03    0.3702421990E-04    0.6650121733E+00    0.3250596215E-03    0.6138461992E-04    0.4452998504E-02
    0.1500000000E+03    0.4056143059E-04    0.6689444787E+00    0.3694984864E-03    0.7069331387E-04    0.4452107181E-02
    0.1700000000E+03    0.4421759337E-04    0.6719829694E+00    0.4148227751E-03    0.8010569239E-04    0.4450563252E-02
    0.1900000000E+03    0.4798206233E-04    0.6744012578E+00    0.4609973376E-03    0.8963606270E-04    0.4448525268E-02
    0.2100000000E+03    0.5184800062E-04    0.6763716214E+00    0.5080123366E-03    0.9929655934E-04    0.4446095841E-02
    0.2300000000E+03    0.5581112922E-04    0.6780079405E+00    0.5558727508E-03    0.1090978756E-03    0.4443344357E-02
    0.2500000000E+03    0.5986893710E-04    0.6793885084E+00    0.6045926938E-03    0.1190497285E-03    0.4440319359E-02
    0.2700000000E+03    0.6402017197E-04    0.6805689252E+00    0.6541922070E-03    0.1291611691E-03    0.4437055706E-02
    0.2900000000E+03    0.6826450440E-04    0.6815897641E+00    0.7046953898E-03    0.1394407976E-03    0.4433578936E-02
    0.3100000000E+03    0.7260230163E-04    0.6824813265E+00    0.7561292830E-03    0.1498969196E-03    0.4429908029E-02
    0.3300000000E+03    0.7703447231E-04    0.6832666994E+00    0.8085231941E-03    0.1605376605E-03    0.4426057219E-02
    0.3500000000E+03    0.8156235829E-04    0.6839637815E+00    0.8619082885E-03    0.1713710552E-03    0.4422037224E-02
    0.3700000000E+03    0.8618765824E-04    0.6845866632E+00    0.9163173456E-03    0.1824051177E-03    0.4417856097E-02
    0.3900000000E+03    0.9091237325E-04    0.6851465885E+00    0.9717846214E-03    0.1936478977E-03    0.4413519828E-02
    0.4100000000E+03    0.9573876805E-04    0.6856526388E+00    0.1028345779E-02    0.2051075282E-03    0.4409032781E-02
    0.4300000000E+03    0.1006693433E-03    0.6861122291E+00    0.1086037868E-02    0.2167922660E-03    0.4404398017E-02
    0.4500000000E+03    0.1057068160E-03    0.6865314737E+00    0.1144899328E-02    0.2287105274E-03    0.4399617530E-02
    0.4700000000E+03    0.1108541061E-03    0.6869154591E+00    0.1204970026E-02    0.2408709195E-03    0.4394692429E-02
    0.4900000000E+03    0.1161143277E-03    0.6872684513E+00    0.1266291304E-02    0.2532822703E-03    0.4389623077E-02
    0.1000000000E+03    0.3197977759E-04    0.6563311371E+00    0.2602606039E-03    0.4757583355E-04    0.4452494484E-02
    0.3000000000E+03    0.7042167436E-04    0.6820501204E+00    0.7302942132E-03    0.1446462860E-03    0.4431766766E-02
    0.5000000000E+03    0.1187878127E-03    0.6874344737E+00    0.1297434247E-02    0.2595848810E-03    0.4387034242E-02
    0.7000000000E+03    0.1791089386E-03    0.6897663899E+00    0.1997502193E-02    0.4012259216E-03    0.4327331703E-02
    0.9000000000E+03    0.2559133929E-03    0.6910676763E+00    0.2885732164E-02    0.5810093227E-03    0.4250039029E-02
    0.1100000000E+04    0.3564037488E-03    0.6918976122E+00    0.4046606692E-02    0.8162011749E-03    0.4148934690E-02
    0.1300000000E+04    0.4921975419E-03    0.6924728407E+00    0.5615378249E-02    0.1134412349E-02    0.4013508643E-02
    0.1500000000E+04    0.6826475061E-03    0.6928948991E+00    0.7817178945E-02    0.1581651537E-02    0.3826373643E-02
    0.1700000000E+04    0.9606996352E-03    0.6932176976E+00    0.1103586674E-01    0.2236530412E-02    0.3558751659E-02
    0.1900000000E+04    0.1381015436E-02    0.6934725110E+00    0.1591055647E-01    0.3230409859E-02    0.3165390787E-02
    0.2100000000E+04    0.2018215959E-02    0.6936787288E+00    0.2332119115E-01    0.4745644660E-02    0.2592217961E-02
    0.2300000000E+04    0.2900007943E-02    0.6938490107E+00    0.3362185906E-01    0.6861019221E-02    0.1846059282E-02
    0.2500000000E+04    0.3846329975E-02    0.6939919725E+00    0.4476305947E-01    0.9166396052E-02    0.1126329556E-02
    0.2700000000E+04    0.4569085521E-02    0.6941136813E+00    0.5339858083E-01    0.1097849086E-01    0.6806513784E-03
    0.2900000000E+04    0.5032208820E-02    0.6942185327E+00    0.5907058840E-01    0.1219612883E-01    0.4923784257E-03
    0.3100000000E+04    0.5353428174E-02    0.6943097893E+00    0.6312157944E-01    0.1308858038E-01    0.4278640851E-03
    0.3300000000E+04    0.5613930353E-02    0.6943899234E+00    0.6648754136E-01    0.1384565153E-01    0.4079055465E-03
    0.3500000000E+04    0.5847302917E-02    0.6944608427E+00    0.6955709857E-01    0.1454644990E-01    0.4024314582E-03
    0.3700000000E+04    0.6065614519E-02    0.6945240427E+00    0.7246962932E-01    0.1521931296E-01    0.4015170591E-03
    0.3900000000E+04    0.6273196485E-02    0.6945807121E+00    0.7527449122E-01    0.1587415860E-01    0.4020107546E-03
    0.4100000000E+04    0.6471761244E-02    0.6946318079E+00    0.7799049403E-01    0.1651463636E-01    0.4029185166E-03
    0.4300000000E+04    0.6662137686E-02    0.6946781090E+00    0.8062615509E-01    0.1714228456E-01    0.4039269163E-03
    0.4500000000E+04    0.6844846734E-02    0.6947202557E+00    0.8318644306E-01    0.1775791968E-01    0.4049379781E-03
    0.4700000000E+04    0.7020292506E-02    0.6947587794E+00    0.8567502329E-01    0.1836210024E-01    0.4059223476E-03
    0.4900000000E+04    0.7188826751E-02    0.6947941248E+00    0.8809501399E-01    0.1895528303E-01    0.4068725767E-03
    0.1000000000E+04    0.3026043870E-03    0.6915239840E+00    0.3425171276E-02    0.6902672567E-03    0.4202997973E-02
    0.3000000000E+04    0.5204023467E-02    0.6942656904E+00    0.6122350492E-01    0.1266777516E-01    0.4511883243E-03
    0.5000000000E+04    0.7270603515E-02    0.6948107251E+00    0.8928018137E-01    0.1924787922E-01    0.4073346145E-03
    0.7000000000E+04    0.8611621955E-02    0.6950420440E+00    0.1099860854E+00    0.2460948618E-01    0.4150997882E-03
    0.9000000000E+04    0.9530456700E-02    0.6951691944E+00    0.1262299221E+00    0.2921959039E-01    0.4209794496E-03
    0.1100000000E+05    0.1016676748E-01    0.6952492116E+00    0.1393000881E+00    0.3327087716E-01    0.4257259983E-03
    0.1300000000E+05    0.1060770278E-01    0.6953039735E+00    0.1500319924E+00    0.3689220386E-01    0.4297138502E-03
    0.1500000000E+05    0.1090996433E-01    0.6953436594E+00    0.1589911340E+00    0.4017345075E-01    0.4331569786E-03
    0.1700000000E+05    0.1111172130E-01    0.6953736415E+00    0.1665740265E+00    0.4317950867E-01    0.4361894308E-03
    0.1900000000E+05    0.1123940240E-01    0.6953970196E+00    0.1730669822E+00    0.4595859200E-01    0.4389008608E-03
    0.2100000000E+05    0.1131174576E-01    0.6954157064E+00    0.1786819481E+00    0.4854740575E-01    0.4413542503E-03
    0.2300000000E+05    0.1134230671E-01    0.6954309450E+00    0.1835792056E+00    0.5097448125E-01    0.4435955704E-03
    0.2500000000E+05    0.1134106170E-01    0.6954435778E+00    0.1878822292E+00    0.5326240015E-01    0.4456594234E-03
    0.2700000000E+05    0.1131546304E-01    0.6954541953E+00    0.1916876933E+00    0.5542931947E-01    0.4475725191E-03
    0.2900000000E+05    0.1127114955E-01    0.6954632238E+00    0.1950723799E+00    0.5749004301E-01    0.4493559143E-03
    0.3100000000E+05    0.1121243579E-01    0.6954709784E+00    0.1980980524E+00    0.5945679069E-01    0.4510265086E-03
    0.3300000000E+05    0.1114265526E-01    0.6954776968E+00    0.2008149622E+00    0.6133976141E-01    0.4525980754E-03
    0.3500000000E+05    0.1106440524E-01    0.6954835618E+00    0.2032644155E+00    0.6314755218E-01    0.4540819910E-03
    0.3700000000E+05    0.1097972413E-01    0.6954887162E+00    0.2054806823E+00    0.6488747484E-01    0.4554877623E-03
    0.3900000000E+05    0.1089022172E-01    0.6954932729E+00    0.2074924352E+00    0.6656579895E-01    0.4568234170E-03
    0.4100000000E+05    0.1079717601E-01    0.6954973226E+00    0.2093238491E+00    0.6818794030E-01    0.4580957962E-03
    0.4300000000E+05    0.1070160597E-01    0.6955009387E+00    0.2109954510E+00    0.6975860890E-01    0.4593107783E-03
    0.4500000000E+05    0.1060432687E-01    0.6955041814E+00    0.2125247838E+00    0.7128192652E-01    0.4604734522E-03
    0.4700000000E+05    0.1050599268E-01    0.6955071005E+00    0.2139269303E+00    0.7276152084E-01    0.4615882535E-03
    0.4900000000E+05    0.1040712878E-01    0.6955097374E+00    0.2152149298E+00    0.7420060155E-01    0.4626590716E-03
    0.1000000000E+05    0.9877576168E-02    0.6952133157E+00    0.1331015728E+00    0.3130589899E-01    0.4234657199E-03
    0.3000000000E+05    0.1124336462E-01    0.6954672440E+00    0.1966267163E+00    0.5848448453E-01    0.4502043871E-03
    0.5000000000E+05    0.1035763365E-01    0.6955109611E+00    0.2158197245E+00    0.7490585356E-01    0.4631790748E-03
    0.7000000000E+05    0.9406507131E-02    0.6955267235E+00    0.2240214140E+00    0.8743601870E-01    0.4719245768E-03
    0.9000000000E+05    0.8583818909E-02    0.6955338147E+00    0.2278927012E+00    0.9787434613E-01    0.4785627539E-03
    0.1100000000E+06    0.7890683059E-02    0.6955372565E+00    0.2296534781E+00    0.1069714473E+00    0.4839295353E-03
    0.1300000000E+06    0.7304333320E-02    0.6955388909E+00    0.2302513421E+00    0.1151182869E+00    0.4884427737E-03
    0.1500000000E+06    0.6803091548E-02    0.6955395359E+00    0.2301561064E+00    0.1225473173E+00    0.4923421090E-03
    0.1700000000E+06    0.6369740942E-02    0.6955396027E+00    0.2296254281E+00    0.1294094804E+00    0.4957780290E-03
    0.1900000000E+06    0.5991104278E-02    0.6955393164E+00    0.2288112506E+00    0.1358091556E+00    0.4988513596E-03
    0.2100000000E+06    0.5657117183E-02    0.6955388086E+00    0.2278081981E+00    0.1418220085E+00    0.5016330244E-03
    0.2300000000E+06    0.5360024792E-02    0.6955381597E+00    0.2266777387E+00    0.1475049365E+00    0.5041748455E-03
    0.2500000000E+06    0.5093778264E-02    0.6955374211E+00    0.2254611564E+00    0.1529019946E+00    0.5065158614E-03
    0.2700000000E+06    0.4853598119E-02    0.6955366261E+00    0.2241869285E+00    0.1580481194E+00    0.5086862274E-03
    0.2900000000E+06    0.4635660144E-02    0.6955357974E+00    0.2228751258E+00    0.1629715727E+00    0.5107097300E-03
    0.3100000000E+06    0.4436868181E-02    0.6955349501E+00    0.2215401405E+00    0.1676956042E+00    0.5126054690E-03
    0.3300000000E+06    0.4254688030E-02    0.6955340948E+00    0.2201924363E+00    0.1722396171E+00    0.5143890173E-03
    0.3500000000E+06    0.4087024567E-02    0.6955332389E+00    0.2188397018E+00    0.1766200073E+00    0.5160732423E-03
    0.3700000000E+06    0.3932129690E-02    0.6955323875E+00    0.2174876312E+00    0.1808507808E+00    0.5176689004E-03
    0.3900000000E+06    0.3788532509E-02    0.6955315441E+00    0.2161404626E+00    0.1849440172E+00    0.5191850768E-03
    0.4100000000E+06    0.3654985794E-02    0.6955307113E+00    0.2148013577E+00    0.1889102232E+00    0.5206295158E-03
    0.4300000000E+06    0.3530424432E-02    0.6955298908E+00    0.2134726725E+00    0.1927586076E+00    0.5220088734E-03
    0.4500000000E+06    0.3413932867E-02    0.6955290835E+00    0.2121561551E+00    0.1964972963E+00    0.5233289128E-03
    0.4700000000E+06    0.3304719337E-02    0.6955282903E+00    0.2108530898E+00    0.2001335043E+00    0.5245946580E-03
    0.4900000000E+06    0.3202095300E-02    0.6955275115E+00    0.2095644059E+00    0.2036736736E+00    0.5258105154E-03
    0.1000000000E+06    0.8222404974E-02    0.6955358402E+00    0.2289613919E+00    0.1025610009E+00    0.4813731412E-03
    0.3000000000E+06    0.4534040854E-02    0.6955353753E+00    0.2222098007E+00    0.1653572244E+00    0.5116725249E-03
    0.5000000000E+06    0.3153063252E-02    0.6955271276E+00    0.2089256704E+00    0.2054095737E+00    0.5264009688E-03
    0.7000000000E+06    0.2405613013E-02    0.6955201832E+00    0.1969760825E+00    0.2362255333E+00    0.5363327482E-03
    0.9000000000E+06    0.1931310659E-02    0.6955144190E+00    0.1865089887E+00    0.2615777812E+00    0.5438727717E-03
    0.1100000000E+07    0.1602155897E-02    0.6955095265E+00    0.1772809484E+00    0.2831940162E+00    0.5499693120E-03
    0.1300000000E+07    0.1360129060E-02    0.6955052843E+00    0.1690654465E+00    0.3020458705E+00    0.5550965881E-03
    0.1500000000E+07    0.1174782672E-02    0.6955015412E+00    0.1616850105E+00    0.3187478119E+00    0.5595266395E-03
    0.1700000000E+07    0.1028482198E-02    0.6954981920E+00    0.1550029982E+00    0.3337193262E+00    0.5634303311E-03
    0.1900000000E+07    0.9102597067E-03    0.6954951609E+00    0.1489131052E+00    0.3472626342E+00    0.5669221559E-03
    0.2100000000E+07    0.8129149562E-03    0.6954923921E+00    0.1433312848E+00    0.3596043413E+00    0.5700826592E-03
    0.2300000000E+07    0.7315162677E-03    0.6954898432E+00    0.1381899973E+00    0.3709196616E+00    0.5729706979E-03
    0.2500000000E+07    0.6625681314E-03    0.6954874813E+00    0.1334341501E+00    0.3813474147E+00    0.5756306128E-03
    0.2700000000E+07    0.6035220396E-03    0.6954852802E+00    0.1290182010E+00    0.3909997830E+00    0.5780966563E-03
    0.2900000000E+07    0.5524753831E-03    0.6954832191E+00    0.1249040577E+00    0.3999689185E+00    0.5803958479E-03
    0.3100000000E+07    0.5079788045E-03    0.6954812809E+00    0.1210595269E+00    0.4083315680E+00    0.5825498844E-03
    0.3300000000E+07    0.4689088462E-03    0.6954794515E+00    0.1174571498E+00    0.4161524033E+00    0.5845764563E-03
    0.3500000000E+07    0.4343813639E-03    0.6954777189E+00    0.1140733145E+00    0.4234864754E+00    0.5864901812E-03
    0.3700000000E+07    0.4036912055E-03    0.6954760733E+00    0.1108875685E+00    0.4303810618E+00    0.5883032790E-03
    0.3900000000E+07    0.3762692820E-03    0.6954745061E+00    0.1078820797E+00    0.4368770805E+00    0.5900260710E-03
    0.4100000000E+07    0.3516514342E-03    0.6954730101E+00    0.1050412090E+00    0.4430101913E+00    0.5916673552E-03
    0.4300000000E+07    0.3294554711E-03    0.6954715788E+00    0.1023511665E+00    0.4488116635E+00    0.5932346937E-03
    0.4500000000E+07    0.3093639795E-03    0.6954702068E+00    0.9979973408E-01    0.4543090695E+00    0.5947346342E-03
    0.4700000000E+07    0.2911112784E-03    0.6954688893E+00    0.9737603736E-01    0.4595268441E+00    0.5961728845E-03
    0.4900000000E+07    0.2744733959E-03    0.6954676219E+00    0.9507035831E-01    0.4644867412E+00    0.5975544509E-03
    0.1000000000E+07    0.1753140560E-02    0.6955118796E+00    0.1817554119E+00    0.2727809279E+00    0.5470652458E-03
    0.3000000000E+07    0.5294850178E-03    0.6954822356E+00    0.1229499063E+00    0.4042217612E+00    0.5814898234E-03
    0.5000000000E+07    0.2666994728E-03    0.6954670059E+00    0.9395901581E-01    0.4668761445E+00    0.5982253781E-03
    0.7000000000E+07    0.1621729815E-03    0.6954565929E+00    0.7621950079E-01    0.5049170953E+00    0.6095108544E-03
    0.9000000000E+07    0.1093748815E-03    0.6954486360E+00    0.6416005048E-01    0.5306884468E+00    0.6180786496E-03
    0.1100000000E+08    0.7885371921E-04    0.6954421778E+00    0.5540620269E-01    0.5493595350E+00    0.6250062275E-03
    0.1300000000E+08    0.5957912038E-04    0.6954367326E+00    0.4875514375E-01    0.5635282401E+00    0.6308324279E-03
    0.1500000000E+08    0.4661535085E-04    0.6954320195E+00    0.4352767803E-01    0.5746549538E+00    0.6358663653E-03
    0.1700000000E+08    0.3747294209E-04    0.6954278607E+00    0.3930985201E-01    0.5836272123E+00    0.6403021928E-03
    0.1900000000E+08    0.3078208830E-04    0.6954241368E+00    0.3583449890E-01    0.5910167088E+00    0.6442700093E-03
    0.2100000000E+08    0.2573720999E-04    0.6954207634E+00    0.3292128108E-01    0.5972087851E+00    0.6478613391E-03
    0.2300000000E+08    0.2183890149E-04    0.6954176786E+00    0.3044398410E-01    0.6024728423E+00    0.6511430619E-03
    0.2500000000E+08    0.1876399226E-04    0.6954148358E+00    0.2831159194E-01    0.6070029875E+00    0.6541655629E-03
    0.2700000000E+08    0.1629576399E-04    0.6954121989E+00    0.2645679865E-01    0.6109426651E+00    0.6569677637E-03
