  Pressure (Pa) 22mC5-500 (mol/kg) 24mC5-500 (mol/kg) 2mC6-500 (mol/kg) 3mC6-500 (mol/kg) C7-500 (mol/kg)
    0.1000000000E+01    0.3570909021E-05    0.2321329380E+00    0.2270433686E-05    0.4191031567E-05    0.4177787433E-02
    0.3000000000E+01    0.5898111285E-05    0.4177334133E+00    0.3581367672E-05    0.1064803124E-04    0.4199747670E-02
    0.5000000000E+01    0.6748233045E-05    0.4972482190E+00    0.4121236819E-05    0.1656967775E-04    0.4207712540E-02
    0.7000000000E+01    0.7234639472E-05    0.5414159608E+00    0.4547548076E-05    0.2223370345E-04    0.4211899684E-02
    0.9000000000E+01    0.7604021744E-05    0.5695200945E+00    0.4966672956E-05    0.2773351364E-04    0.4214429233E-02
    0.1100000000E+02    0.7932688098E-05    0.5889756268E+00    0.5398941587E-05    0.3311577271E-04    0.4216072523E-02
    0.1300000000E+02    0.8248630151E-05    0.6032424092E+00    0.5846510515E-05    0.3840822550E-04    0.4217182930E-02
    0.1500000000E+02    0.8563060229E-05    0.6141519542E+00    0.6307491013E-05    0.4362913956E-04    0.4217946475E-02
    0.1700000000E+02    0.8880581939E-05    0.6227645388E+00    0.6779400111E-05    0.4879138634E-04    0.4218470854E-02
    0.1900000000E+02    0.9202980394E-05    0.6297364910E+00    0.7260014180E-05    0.5390448669E-04    0.4218822937E-02
    0.2100000000E+02    0.9530783408E-05    0.6354958336E+00    0.7747524877E-05    0.5897574565E-04    0.4219046531E-02
    0.2300000000E+02    0.9863951501E-05    0.6403336124E+00    0.8240508418E-05    0.6401093092E-04    0.4219171592E-02
    0.2500000000E+02    0.1020219790E-04    0.6444546322E+00    0.8737855095E-05    0.6901470242E-04    0.4219219325E-02
    0.2700000000E+02    0.1054514123E-04    0.6480071966E+00    0.9238700891E-05    0.7399089699E-04    0.4219205184E-02
    0.2900000000E+02    0.1089237888E-04    0.6511013352E+00    0.9742371129E-05    0.7894272425E-04    0.4219140707E-02
    0.3100000000E+02    0.1124352162E-04    0.6538204023E+00    0.1024833660E-04    0.8387290551E-04    0.4219034692E-02
    0.3300000000E+02    0.1159820871E-04    0.6562286990E+00    0.1075618013E-04    0.8878377502E-04    0.4218893970E-02
    0.3500000000E+02    0.1195611329E-04    0.6583766229E+00    0.1126557126E-04    0.9367735530E-04    0.4218723927E-02
    0.3700000000E+02    0.1231694289E-04    0.6603042331E+00    0.1177624707E-04    0.9855541438E-04    0.4218528872E-02
    0.3900000000E+02    0.1268043767E-04    0.6620437719E+00    0.1228799758E-04    0.1034195100E-03    0.4218312292E-02
    0.4100000000E+02    0.1304636760E-04    0.6636214829E+00    0.1280065461E-04    0.1082710244E-03    0.4218077043E-02
    0.4300000000E+02    0.1341452940E-04    0.6650589440E+00    0.1331408316E-04    0.1131111915E-03    0.4217825486E-02
    0.4500000000E+02    0.1378474353E-04    0.6663740603E+00    0.1382817475E-04    0.1179411196E-03    0.4217559590E-02
    0.4700000000E+02    0.1415685131E-04    0.6675818131E+00    0.1434284220E-04    0.1227618090E-03    0.4217281013E-02
    0.4900000000E+02    0.1453071241E-04    0.6686948340E+00    0.1485801557E-04    0.1275741666E-03    0.4216991157E-02
    0.1000000000E+02    0.7771102316E-05    0.5800586267E+00    0.5180858418E-05    0.3043731017E-04    0.4215333983E-02
    0.3000000000E+02    0.1106748543E-04    0.6525033571E+00    0.9995095328E-05    0.8141036665E-04    0.4219092426E-02
    0.5000000000E+02    0.1471826104E-04    0.6692192359E+00    0.1511577402E-04    0.1299774821E-03    0.4216842380E-02
    0.7000000000E+02    0.1853773743E-04    0.6766480841E+00    0.2028894221E-04    0.1777738166E-03    0.4213490033E-02
    0.9000000000E+02    0.2245223068E-04    0.6808467951E+00    0.2549136081E-04    0.2253640221E-03    0.4209716954E-02
    0.1100000000E+03    0.2643723755E-04    0.6835458416E+00    0.3072762097E-04    0.2730388337E-03    0.4205723569E-02
    0.1300000000E+03    0.3048425888E-04    0.6854269088E+00    0.3600615785E-04    0.3209783598E-03    0.4201588813E-02
    0.1500000000E+03    0.3459092032E-04    0.6868128940E+00    0.4133521075E-04    0.3693077471E-03    0.4197348935E-02
    0.1700000000E+03    0.3875748406E-04    0.6878765073E+00    0.4672216664E-04    0.4181212786E-03    0.4193022027E-02
    0.1900000000E+03    0.4298544487E-04    0.6887184945E+00    0.5217359182E-04    0.4674944568E-03    0.4188617422E-02
    0.2100000000E+03    0.4727691043E-04    0.6894015833E+00    0.5769538977E-04    0.5174907103E-03    0.4184139815E-02
    0.2300000000E+03    0.5163430982E-04    0.6899668706E+00    0.6329295721E-04    0.5681654069E-03    0.4179591275E-02
    0.2500000000E+03    0.5606025107E-04    0.6904424063E+00    0.6897131291E-04    0.6195684013E-03    0.4174972291E-02
    0.2700000000E+03    0.6055745059E-04    0.6908479902E+00    0.7473519906E-04    0.6717457306E-03    0.4170282364E-02
    0.2900000000E+03    0.6512869894E-04    0.6911979969E+00    0.8058916030E-04    0.7247407903E-03    0.4165520338E-02
    0.3100000000E+03    0.6977684558E-04    0.6915031156E+00    0.8653760555E-04    0.7785951781E-03    0.4160684609E-02
    0.3300000000E+03    0.7450479394E-04    0.6917714592E+00    0.9258485710E-04    0.8333493194E-03    0.4155773252E-02
    0.3500000000E+03    0.7931550204E-04    0.6920092969E+00    0.9873519015E-04    0.8890429438E-03    0.4150784097E-02
    0.3700000000E+03    0.8421198619E-04    0.6922215496E+00    0.1049928652E-03    0.9457154593E-03    0.4145714786E-02
    0.3900000000E+03    0.8919732645E-04    0.6924121340E+00    0.1113621552E-03    0.1003406253E-02    0.4140562804E-02
    0.4100000000E+03    0.9427467293E-04    0.6925842059E+00    0.1178473685E-03    0.1062154937E-02    0.4135325497E-02
    0.4300000000E+03    0.9944725277E-04    0.6927403369E+00    0.1244528691E-03    0.1122001561E-02    0.4130000088E-02
    0.4500000000E+03    0.1047183773E-03    0.6928826435E+00    0.1311830942E-03    0.1182986795E-02    0.4124583687E-02
    0.4700000000E+03    0.1100914494E-03    0.6930128831E+00    0.1380425706E-03    0.1245152084E-02    0.4119073288E-02
    0.4900000000E+03    0.1155699712E-03    0.6931325278E+00    0.1450359292E-03    0.1308539799E-02    0.4113465777E-02
    0.1000000000E+03    0.2443666084E-04    0.6823286398E+00    0.2810474695E-04    0.2491778898E-03    0.4207741386E-02
    0.3000000000E+03    0.6744297976E-04    0.6913556098E+00    0.8355130075E-04    0.7515580203E-03    0.4163111801E-02
    0.5000000000E+03    0.1183498991E-03    0.6931887727E+00    0.1485842935E-03    0.1340705595E-02    0.4110624601E-02
    0.7000000000E+03    0.1804455983E-03    0.6939769602E+00    0.2278354033E-03    0.2059670679E-02    0.4047839425E-02
    0.9000000000E+03    0.2582663779E-03    0.6944153684E+00    0.3271970913E-03    0.2962327176E-02    0.3970696145E-02
    0.1100000000E+04    0.3585678359E-03    0.6946944817E+00    0.4553723298E-03    0.4128299772E-02    0.3873215967E-02
    0.1300000000E+04    0.4919376568E-03    0.6948877310E+00    0.6259920544E-03    0.5682469103E-02    0.3746213508E-02
    0.1500000000E+04    0.6756425147E-03    0.6950294301E+00    0.8613089552E-03    0.7829024581E-02    0.3575060117E-02
    0.1700000000E+04    0.9386473362E-03    0.6951377612E+00    0.1198722987E-02    0.1091184307E-01    0.3335967462E-02
    0.1900000000E+04    0.1329309098E-02    0.6952232568E+00    0.1700866949E-02    0.1550857593E-01    0.2991067893E-02
    0.2100000000E+04    0.1919724069E-02    0.6952924397E+00    0.2461698958E-02    0.2249097236E-01    0.2489107538E-02
    0.2300000000E+04    0.2770033088E-02    0.6953495653E+00    0.3561556075E-02    0.3262187766E-01    0.1804121611E-02
    0.2500000000E+04    0.3786314192E-02    0.6953975277E+00    0.4884320507E-02    0.4488006981E-01    0.1054151979E-02
    0.2700000000E+04    0.4668062317E-02    0.6954383636E+00    0.6045229231E-02    0.5575736321E-01    0.5014872777E-03
    0.2900000000E+04    0.5260853743E-02    0.6954735482E+00    0.6841871451E-02    0.6336619629E-01    0.2330019651E-03
    0.3100000000E+04    0.5656804493E-02    0.6955041759E+00    0.7389145848E-02    0.6872729190E-01    0.1331867781E-03
    0.3300000000E+04    0.5962866570E-02    0.6955310758E+00    0.7823469281E-02    0.7308025431E-01    0.1002392614E-03
    0.3500000000E+04    0.6230382938E-02    0.6955548876E+00    0.8210706959E-02    0.7702712799E-01    0.8989402027E-04
    0.3700000000E+04    0.6478617629E-02    0.6955761126E+00    0.8575601118E-02    0.8079447448E-01    0.8679317258E-04
    0.3900000000E+04    0.6714381848E-02    0.6955951491E+00    0.8926842844E-02    0.8446149607E-01    0.8597721083E-04
    0.4100000000E+04    0.6940169787E-02    0.6956123179E+00    0.9267536759E-02    0.8805589865E-01    0.8587642054E-04
    0.4300000000E+04    0.7157024607E-02    0.6956278799E+00    0.9598905967E-02    0.9158799995E-01    0.8599575047E-04
    0.4500000000E+04    0.7365500561E-02    0.6956420497E+00    0.9921541344E-02    0.9506228107E-01    0.8617897960E-04
    0.4700000000E+04    0.7565981621E-02    0.6956550054E+00    0.1023581688E-01    0.9848124214E-01    0.8637689338E-04
    0.4900000000E+04    0.7758786938E-02    0.6956668958E+00    0.1054202752E-01    0.1018466859E+00    0.8657419168E-04
    0.1000000000E+04    0.3050604872E-03    0.6945688732E+00    0.3869795345E-03    0.3505958000E-02    0.3924976753E-02
    0.3000000000E+04    0.5475352395E-02    0.6954893746E+00    0.7136396778E-02    0.6623450539E-01    0.1699844871E-03
    0.5000000000E+04    0.7852402430E-02    0.6956724816E+00    0.1069219113E-01    0.1035098237E+00    0.8667102343E-04
    0.7000000000E+04    0.9384674305E-02    0.6957504407E+00    0.1332884161E-01    0.1342913642E+00    0.8831084804E-04
    0.9000000000E+04    0.1040611276E-01    0.6957934523E+00    0.1539225297E-01    0.1610741320E+00    0.8955560916E-04
    0.1100000000E+05    0.1106584536E-01    0.6958206287E+00    0.1702210020E-01    0.1846859458E+00    0.9056162949E-04
    0.1300000000E+05    0.1146600034E-01    0.6958393060E+00    0.1831762612E-01    0.2057310479E+00    0.9140747162E-04
    0.1500000000E+05    0.1167803753E-01    0.6958529010E+00    0.1935111353E-01    0.2246616618E+00    0.9213815395E-04
    0.1700000000E+05    0.1175286862E-01    0.6958632185E+00    0.2017634473E-01    0.2418236799E+00    0.9278193099E-04
    0.1900000000E+05    0.1172732153E-01    0.6958713013E+00    0.2083408597E-01    0.2574867647E+00    0.9335772537E-04
    0.2100000000E+05    0.1162837930E-01    0.6958777934E+00    0.2135574325E-01    0.2718647281E+00    0.9387884367E-04
    0.2300000000E+05    0.1147602432E-01    0.6958831139E+00    0.2176585971E-01    0.2851296632E+00    0.9435500637E-04
    0.2500000000E+05    0.1128518572E-01    0.6958875473E+00    0.2208385924E-01    0.2974219563E+00    0.9479353473E-04
    0.2700000000E+05    0.1106709687E-01    0.6958912931E+00    0.2232528779E-01    0.3088575167E+00    0.9520008310E-04
    0.2900000000E+05    0.1083025685E-01    0.6958944956E+00    0.2250271273E-01    0.3195330891E+00    0.9557911110E-04
    0.3100000000E+05    0.1058112127E-01    0.6958972616E+00    0.2262638494E-01    0.3295302185E+00    0.9593419925E-04
    0.3300000000E+05    0.1032460493E-01    0.6958996717E+00    0.2270473318E-01    0.3389182533E+00    0.9626826666E-04
    0.3500000000E+05    0.1006445190E-01    0.6959017881E+00    0.2274473822E-01    0.3477566480E+00    0.9658372508E-04
    0.3700000000E+05    0.9803510660E-02    0.6959036593E+00    0.2275221931E-01    0.3560967524E+00    0.9688259046E-04
    0.3900000000E+05    0.9543940703E-02    0.6959053239E+00    0.2273205603E-01    0.3639832165E+00    0.9716656543E-04
    0.4100000000E+05    0.9287368952E-02    0.6959068127E+00    0.2268836180E-01    0.3714551044E+00    0.9743710125E-04
    0.4300000000E+05    0.9035009014E-02    0.6959081508E+00    0.2262462087E-01    0.3785467876E+00    0.9769544516E-04
    0.4500000000E+05    0.8787752793E-02    0.6959093589E+00    0.2254379736E-01    0.3852886666E+00    0.9794267710E-04
    0.4700000000E+05    0.8546241261E-02    0.6959104540E+00    0.2244842290E-01    0.3917077589E+00    0.9817973840E-04
    0.4900000000E+05    0.8310919434E-02    0.6959114503E+00    0.2234066736E-01    0.3978281823E+00    0.9840745470E-04
    0.1000000000E+05    0.1077393788E-01    0.6958084235E+00    0.1625441087E-01    0.1732344016E+00    0.9008245730E-04
    0.3000000000E+05    0.1070688759E-01    0.6958959276E+00    0.2257070330E-01    0.3246118689E+00    0.9575945176E-04
    0.5000000000E+05    0.8195675907E-02    0.6959119152E+00    0.2228274029E-01    0.4007832368E+00    0.9851803940E-04
    0.7000000000E+05    0.6236887953E-02    0.6959181315E+00    0.2081007238E-01    0.4484402461E+00    0.1003781008E-03
    0.9000000000E+05    0.4845606674E-02    0.6959212291E+00    0.1918368210E-01    0.4814294992E+00    0.1017901921E-03
    0.1100000000E+06    0.3852075014E-02    0.6959229714E+00    0.1765998624E-01    0.5057116807E+00    0.1029319385E-03
    0.1300000000E+06    0.3126674534E-02    0.6959240177E+00    0.1629740853E-01    0.5243602420E+00    0.1038921606E-03
    0.1500000000E+06    0.2584147324E-02    0.6959246666E+00    0.1509636324E-01    0.5391416686E+00    0.1047218083E-03
    0.1700000000E+06    0.2169195806E-02    0.6959250717E+00    0.1404064350E-01    0.5511494823E+00    0.1054528820E-03
    0.1900000000E+06    0.1845404444E-02    0.6959253190E+00    0.1311082337E-01    0.5610988135E+00    0.1061068239E-03
    0.2100000000E+06    0.1588245843E-02    0.6959254602E+00    0.1228861189E-01    0.5694777520E+00    0.1066987181E-03
    0.2300000000E+06    0.1380807320E-02    0.6959255277E+00    0.1155807161E-01    0.5766311039E+00    0.1072395873E-03
    0.2500000000E+06    0.1211163109E-02    0.6959255431E+00    0.1090573411E-01    0.5828094921E+00    0.1077377352E-03
    0.2700000000E+06    0.1070728679E-02    0.6959255207E+00    0.1032035264E-01    0.5881995108E+00    0.1081995764E-03
    0.2900000000E+06    0.9532074840E-03    0.6959254706E+00    0.9792566885E-02    0.5929429696E+00    0.1086301709E-03
    0.3100000000E+06    0.8539018641E-03    0.6959254002E+00    0.9314578754E-02    0.5971495803E+00    0.1090335819E-03
    0.3300000000E+06    0.7692525503E-03    0.6959253147E+00    0.8879870710E-02    0.6009055575E+00    0.1094131223E-03
    0.3500000000E+06    0.6965247768E-03    0.6959252178E+00    0.8482971581E-02    0.6042795926E+00    0.1097715295E-03
    0.3700000000E+06    0.6335903548E-03    0.6959251126E+00    0.8119265880E-02    0.6073270917E+00    0.1101110920E-03
    0.3900000000E+06    0.5787737804E-03    0.6959250012E+00    0.7784839886E-02    0.6100932398E+00    0.1104337427E-03
    0.4100000000E+06    0.5307418486E-03    0.6959248853E+00    0.7476357747E-02    0.6126152543E+00    0.1107411291E-03
    0.4300000000E+06    0.4884233246E-03    0.6959247663E+00    0.7190961685E-02    0.6149240668E+00    0.1110346675E-03
    0.4500000000E+06    0.4509497044E-03    0.6959246450E+00    0.6926191394E-02    0.6170455970E+00    0.1113155840E-03
    0.4700000000E+06    0.4176109887E-03    0.6959245224E+00    0.6679918710E-02    0.6190017275E+00    0.1115849475E-03
    0.4900000000E+06    0.3878222852E-03    0.6959243989E+00    0.6450294409E-02    0.6208110607E+00    0.1118436956E-03
    0.1000000000E+06    0.4308427085E-02    0.6959222157E+00    0.1840314040E-01    0.4944249010E+00    0.1023880722E-03
    0.3000000000E+06    0.9015226171E-03    0.6959254376E+00    0.9547782503E-02    0.5951075220E+00    0.1088350520E-03
    0.5000000000E+06    0.3741042190E-03    0.6959243371E+00    0.6341212917E-02    0.6216657432E+00    0.1119693511E-03
    0.7000000000E+06    0.2029618081E-03    0.6959231350E+00    0.4733075810E-02    0.6339267545E+00    0.1140829897E-03
    0.9000000000E+06    0.1269932459E-03    0.6959220585E+00    0.3770889563E-02    0.6409840319E+00    0.1156876682E-03
    0.1100000000E+07    0.8682267316E-04    0.6959211107E+00    0.3131602276E-02    0.6455692626E+00    0.1169851670E-03
    0.1300000000E+07    0.6305621682E-04    0.6959202710E+00    0.2676414086E-02    0.6487871968E+00    0.1180763974E-03
    0.1500000000E+07    0.4784824172E-04    0.6959195194E+00    0.2335988410E-02    0.6511697804E+00    0.1190192496E-03
    0.1700000000E+07    0.3753662358E-04    0.6959188400E+00    0.2071877228E-02    0.6530047579E+00    0.1198500842E-03
    0.1900000000E+07    0.3022641439E-04    0.6959182204E+00    0.1861060444E-02    0.6544613612E+00    0.1205932664E-03
    0.2100000000E+07    0.2485751101E-04    0.6959176511E+00    0.1688919644E-02    0.6556456195E+00    0.1212659368E-03
    0.2300000000E+07    0.2079939653E-04    0.6959171244E+00    0.1545728690E-02    0.6566273409E+00    0.1218806210E-03
    0.2500000000E+07    0.1765806435E-04    0.6959166345E+00    0.1424766708E-02    0.6574543602E+00    0.1224467552E-03
    0.2700000000E+07    0.1517706522E-04    0.6959161764E+00    0.1321241435E-02    0.6581605523E+00    0.1229716289E-03
    0.2900000000E+07    0.1318367883E-04    0.6959157463E+00    0.1231644241E-02    0.6587705777E+00    0.1234609923E-03
    0.3100000000E+07    0.1155814199E-04    0.6959153408E+00    0.1153347620E-02    0.6593028155E+00    0.1239194628E-03
    0.3300000000E+07    0.1021530238E-04    0.6959149573E+00    0.1084345129E-02    0.6597712433E+00    0.1243508054E-03
    0.3500000000E+07    0.9093279038E-05    0.6959145934E+00    0.1023078250E-02    0.6601866801E+00    0.1247581309E-03
    0.3700000000E+07    0.8146230627E-05    0.6959142472E+00    0.9683180937E-03    0.6605576307E+00    0.1251440400E-03
    0.3900000000E+07    0.7339615242E-05    0.6959139170E+00    0.9190826832E-03    0.6608908730E+00    0.1255107293E-03
    0.4100000000E+07    0.6647007122E-05    0.6959136014E+00    0.8745779541E-03    0.6611918747E+00    0.1258600713E-03
    0.4300000000E+07    0.6047912229E-05    0.6959132991E+00    0.8341548865E-03    0.6614650958E+00    0.1261936753E-03
    0.4500000000E+07    0.5526240012E-05    0.6959130089E+00    0.7972778569E-03    0.6617142101E+00    0.1265129347E-03
    0.4700000000E+07    0.5069215405E-05    0.6959127300E+00    0.7635009258E-03    0.6619422711E+00    0.1268190645E-03
    0.4900000000E+07    0.4666591924E-05    0.6959124615E+00    0.7324498341E-03    0.6621518378E+00    0.1271131300E-03
    0.1000000000E+07    0.1040695048E-03    0.6959215697E+00    0.3421925198E-02    0.6434967468E+00    0.1163671053E-03
    0.3000000000E+07    0.1233090423E-04    0.6959155407E+00    0.1191220960E-02    0.6590454603E+00    0.1236938365E-03
    0.5000000000E+07    0.4483024652E-05    0.6959123309E+00    0.7178456501E-03    0.6622503743E+00    0.1272559367E-03
    0.7000000000E+07    0.2296012127E-05    0.6959101155E+00    0.5127664849E-03    0.6636324597E+00    0.1296580776E-03
    0.9000000000E+07    0.1392421395E-05    0.6959084142E+00    0.3984256840E-03    0.6644021804E+00    0.1314817901E-03
    0.1100000000E+08    0.9342333638E-06    0.6959070290E+00    0.3255724494E-03    0.6648925902E+00    0.1329563945E-03
    0.1300000000E+08    0.6704813056E-06    0.6959058583E+00    0.2751217579E-03    0.6652323201E+00    0.1341965754E-03
    0.1500000000E+08    0.5049205043E-06    0.6959048431E+00    0.2381316698E-03    0.6654815408E+00    0.1352681247E-03
    0.1700000000E+08    0.3942365658E-06    0.6959039460E+00    0.2098572999E-03    0.6656721555E+00    0.1362123662E-03
    0.1900000000E+08    0.3166049374E-06    0.6959031415E+00    0.1875478343E-03    0.6658226528E+00    0.1370569907E-03
    0.2100000000E+08    0.2600611111E-06    0.6959024120E+00    0.1694990016E-03    0.6659444862E+00    0.1378214786E-03
    0.2300000000E+08    0.2176015788E-06    0.6959017441E+00    0.1545988121E-03    0.6660451291E+00    0.1385200651E-03
    0.2500000000E+08    0.1849058570E-06    0.6959011281E+00    0.1420909461E-03    0.6661296653E+00    0.1391634746E-03
    0.2700000000E+08    0.1591914739E-06    0.6959005562E+00    0.1314431477E-03    0.6662016731E+00    0.1397599915E-03
