  Pressure (Pa) 22mC5-500 (mol/kg) 24mC5-500 (mol/kg) 2mC6-500 (mol/kg) 3mC6-500 (mol/kg) C7-500 (mol/kg)
    0.1000000000E+01    0.3814210940E-05    0.2142805017E+00    0.1490095584E-04    0.3062509068E-05    0.4145379516E-02
    0.3000000000E+01    0.6551574323E-05    0.3978509244E+00    0.2455129118E-04    0.7558427489E-05    0.4168772503E-02
    0.5000000000E+01    0.7632067063E-05    0.4801143912E+00    0.2872265276E-04    0.1163497547E-04    0.4174196009E-02
    0.7000000000E+01    0.8262113501E-05    0.5267981441E+00    0.3187951581E-04    0.1551371288E-04    0.4176410138E-02
    0.9000000000E+01    0.8733279514E-05    0.5568811552E+00    0.3486129979E-04    0.1926782925E-04    0.4177415871E-02
    0.1100000000E+02    0.9141795647E-05    0.5778816829E+00    0.3786620321E-04    0.2293353960E-04    0.4177830171E-02
    0.1300000000E+02    0.9525286201E-05    0.5933735105E+00    0.4093868141E-04    0.2653223145E-04    0.4177910726E-02
    0.1500000000E+02    0.9900009363E-05    0.6052728545E+00    0.4408140415E-04    0.3007791355E-04    0.4177785006E-02
    0.1700000000E+02    0.1027338880E-04    0.6146995184E+00    0.4728600589E-04    0.3358041495E-04    0.4177523423E-02
    0.1900000000E+02    0.1064886942E-04    0.6223517050E+00    0.5054227302E-04    0.3704698034E-04    0.4177168042E-02
    0.2100000000E+02    0.1102799751E-04    0.6286873618E+00    0.5384085477E-04    0.4048315141E-04    0.4176745516E-02
    0.2300000000E+02    0.1141138014E-04    0.6340193377E+00    0.5717390204E-04    0.4389329206E-04    0.4176273523E-02
    0.2500000000E+02    0.1179915259E-04    0.6385686322E+00    0.6053504468E-04    0.4728091982E-04    0.4175764232E-02
    0.2700000000E+02    0.1219121543E-04    0.6424957987E+00    0.6391918258E-04    0.5064892495E-04    0.4175226272E-02
    0.2900000000E+02    0.1258735809E-04    0.6459202876E+00    0.6732225161E-04    0.5399972080E-04    0.4174665920E-02
    0.3100000000E+02    0.1298732424E-04    0.6489328088E+00    0.7074101490E-04    0.5733535021E-04    0.4174087837E-02
    0.3300000000E+02    0.1339084636E-04    0.6516034851E+00    0.7417289076E-04    0.6065756289E-04    0.4173495550E-02
    0.3500000000E+02    0.1379766372E-04    0.6539873791E+00    0.7761581561E-04    0.6396787291E-04    0.4172891771E-02
    0.3700000000E+02    0.1420753118E-04    0.6561283304E+00    0.8106813621E-04    0.6726760230E-04    0.4172278609E-02
    0.3900000000E+02    0.1462022300E-04    0.6580616761E+00    0.8452852542E-04    0.7055791467E-04    0.4171657729E-02
    0.4100000000E+02    0.1503553392E-04    0.6598162170E+00    0.8799591632E-04    0.7383984151E-04    0.4171030457E-02
    0.4300000000E+02    0.1545327867E-04    0.6614156621E+00    0.9146945065E-04    0.7711430310E-04    0.4170397857E-02
    0.4500000000E+02    0.1587329087E-04    0.6628797060E+00    0.9494843818E-04    0.8038212525E-04    0.4169760792E-02
    0.4700000000E+02    0.1629542149E-04    0.6642248442E+00    0.9843232463E-04    0.8364405293E-04    0.4169119969E-02
    0.4900000000E+02    0.1671953726E-04    0.6654649973E+00    0.1019206663E-03    0.8690076143E-04    0.4168475964E-02
    0.1000000000E+02    0.8942274738E-05    0.5682386596E+00    0.3635645696E-04    0.2111016995E-04    0.4177676375E-02
    0.3000000000E+02    0.1278687996E-04    0.6474732538E+00    0.6902984642E-04    0.5566931584E-04    0.4174378852E-02
    0.5000000000E+02    0.1693230183E-04    0.6660494718E+00    0.1036663942E-03    0.8852735277E-04    0.4168152922E-02
    0.7000000000E+02    0.2126899065E-04    0.6743413619E+00    0.1387616930E-03    0.1209097350E-03    0.4161605666E-02
    0.9000000000E+02    0.2572583964E-04    0.6790378873E+00    0.1741763119E-03    0.1532368692E-03    0.4154984143E-02
    0.1100000000E+03    0.3027899321E-04    0.6820608304E+00    0.2099524880E-03    0.1857262440E-03    0.4148328655E-02
    0.1300000000E+03    0.3492093582E-04    0.6841694649E+00    0.2461576396E-03    0.2185142980E-03    0.4141639966E-02
    0.1500000000E+03    0.3965056379E-04    0.6857241059E+00    0.2828576440E-03    0.2516976590E-03    0.4134909416E-02
    0.1700000000E+03    0.4446958801E-04    0.6869177246E+00    0.3201126261E-03    0.2853509064E-03    0.4128126322E-02
    0.1900000000E+03    0.4938107139E-04    0.6878629928E+00    0.3579773316E-03    0.3195354475E-03    0.4121280034E-02
    0.2100000000E+03    0.5438878282E-04    0.6886301149E+00    0.3965023163E-03    0.3543044360E-03    0.4114360467E-02
    0.2300000000E+03    0.5949689601E-04    0.6892651133E+00    0.4357350995E-03    0.3897057176E-03    0.4107358174E-02
    0.2500000000E+03    0.6470984549E-04    0.6897994148E+00    0.4757211160E-03    0.4257837049E-03    0.4100264277E-02
    0.2700000000E+03    0.7003225881E-04    0.6902552114E+00    0.5165044726E-03    0.4625806353E-03    0.4093070355E-02
    0.2900000000E+03    0.7546892730E-04    0.6906486205E+00    0.5581285458E-03    0.5001374519E-03    0.4085768342E-02
    0.3100000000E+03    0.8102479716E-04    0.6909916300E+00    0.6006364611E-03    0.5384944474E-03    0.4078350424E-02
    0.3300000000E+03    0.8670497154E-04    0.6912933414E+00    0.6440714834E-03    0.5776917522E-03    0.4070808958E-02
    0.3500000000E+03    0.9251471890E-04    0.6915607893E+00    0.6884773435E-03    0.6177697185E-03    0.4063136404E-02
    0.3700000000E+03    0.9845948481E-04    0.6917994964E+00    0.7338985172E-03    0.6587692331E-03    0.4055325260E-02
    0.3900000000E+03    0.1045449060E-03    0.6920138589E+00    0.7803804706E-03    0.7007319811E-03    0.4047368009E-02
    0.4100000000E+03    0.1107768261E-03    0.6922074201E+00    0.8279698808E-03    0.7437006750E-03    0.4039257075E-02
    0.4300000000E+03    0.1171613116E-03    0.6923830675E+00    0.8767148400E-03    0.7877192615E-03    0.4030984777E-02
    0.4500000000E+03    0.1237046698E-03    0.6925431776E+00    0.9266650481E-03    0.8328331107E-03    0.4022543297E-02
    0.4700000000E+03    0.1304134669E-03    0.6926897246E+00    0.9778719973E-03    0.8790891966E-03    0.4013924639E-02
    0.4900000000E+03    0.1372945467E-03    0.6928243617E+00    0.1030389155E-02    0.9265362705E-03    0.4005120604E-02
    0.1000000000E+03    0.2799106617E-04    0.6806971790E+00    0.1920150740E-03    0.1694515078E-03    0.4151660216E-02
    0.3000000000E+03    0.7823164687E-04    0.6908257999E+00    0.5792693265E-03    0.5192134202E-03    0.4082074352E-02
    0.5000000000E+03    0.1408019121E-03    0.6928876586E+00    0.1057156354E-02    0.9507221910E-03    0.4000646441E-02
    0.7000000000E+03    0.2219580124E-03    0.6937749802E+00    0.1676510226E-02    0.1510840727E-02    0.3899171286E-02
    0.9000000000E+03    0.3314680520E-03    0.6942688515E+00    0.2512817851E-02    0.2268384993E-02    0.3766735091E-02
    0.1100000000E+04    0.4857378654E-03    0.6945834525E+00    0.3692390976E-02    0.3338643010E-02    0.3585985438E-02
    0.1300000000E+04    0.7136175249E-03    0.6948013859E+00    0.5437606321E-02    0.4925011938E-02    0.3327690621E-02
    0.1500000000E+04    0.1066132531E-02    0.6949612644E+00    0.8142968583E-02    0.7389488154E-02    0.2943040738E-02
    0.1700000000E+04    0.1622916805E-02    0.6950835533E+00    0.1242827112E-01    0.1130449604E-01    0.2364379004E-02
    0.1900000000E+04    0.2441079818E-02    0.6951801108E+00    0.1875325710E-01    0.1710822135E-01    0.1572661768E-02
    0.2100000000E+04    0.3367495769E-02    0.6952582821E+00    0.2597155586E-01    0.2378237627E-01    0.7799637975E-03
    0.2300000000E+04    0.4084821607E-02    0.6953228600E+00    0.3164584151E-01    0.2910521028E-01    0.3000717314E-03
    0.2500000000E+04    0.4544751714E-02    0.6953771047E+00    0.3537738168E-01    0.3268868203E-01    0.1130850507E-03
    0.2700000000E+04    0.4872025323E-02    0.6954233112E+00    0.3810904693E-01    0.3537904076E-01    0.5484923096E-04
    0.2900000000E+04    0.5145655566E-02    0.6954631418E+00    0.4044455325E-01    0.3772406662E-01    0.3807312979E-04
    0.3100000000E+04    0.5395112923E-02    0.6954978301E+00    0.4260969451E-01    0.3992927783E-01    0.3337471910E-04
    0.3300000000E+04    0.5630061497E-02    0.6955283107E+00    0.4467810291E-01    0.4206140976E-01    0.3210939663E-04
    0.3500000000E+04    0.5853772022E-02    0.6955553048E+00    0.4667407765E-01    0.4414199830E-01    0.3181723740E-04
    0.3700000000E+04    0.6067553930E-02    0.6955793776E+00    0.4860675977E-01    0.4617866061E-01    0.3180046294E-04
    0.3900000000E+04    0.6272110263E-02    0.6956009786E+00    0.5048062946E-01    0.4817474915E-01    0.3186011299E-04
    0.4100000000E+04    0.6467944744E-02    0.6956204695E+00    0.5229867171E-01    0.5013227442E-01    0.3193913221E-04
    0.4300000000E+04    0.6655484610E-02    0.6956381446E+00    0.5406333287E-01    0.5205278987E-01    0.3202116756E-04
    0.4500000000E+04    0.6835118566E-02    0.6956542462E+00    0.5577681443E-01    0.5393766281E-01    0.3210163752E-04
    0.4700000000E+04    0.7007209255E-02    0.6956689750E+00    0.5744116738E-01    0.5578815982E-01    0.3217938283E-04
    0.4900000000E+04    0.7172097994E-02    0.6956824993E+00    0.5905832573E-01    0.5760547551E-01    0.3225423411E-04
    0.1000000000E+04    0.4015905801E-03    0.6944418528E+00    0.3048780816E-02    0.2754451980E-02    0.3683865000E-02
    0.3000000000E+04    0.5272560887E-02    0.6954810645E+00    0.4154196004E-01    0.3883827815E-01    0.3499288862E-04
    0.5000000000E+04    0.7251943052E-02    0.6956888549E+00    0.5984978312E-01    0.5850204695E-01    0.3229060417E-04
    0.7000000000E+04    0.8540322518E-02    0.6957777586E+00    0.7359980875E-01    0.7493991304E-01    0.3290223124E-04
    0.9000000000E+04    0.9384976778E-02    0.6958270523E+00    0.8423124891E-01    0.8906681456E-01    0.3336617162E-04
    0.1100000000E+05    0.9932604829E-02    0.6958583550E+00    0.9262614413E-01    0.1014550892E+00    0.3374110565E-04
    0.1300000000E+05    0.1027594602E-01    0.6958799786E+00    0.9936554322E-01    0.1124937300E+00    0.3405632977E-04
    0.1500000000E+05    0.1047581417E-01    0.6958958003E+00    0.1048473741E+00    0.1224574218E+00    0.3432862896E-04
    0.1700000000E+05    0.1057330073E-01    0.6959078714E+00    0.1093530657E+00    0.1315463815E+00    0.3456853666E-04
    0.1900000000E+05    0.1059686902E-01    0.6959173790E+00    0.1130871190E+00    0.1399105005E+00    0.3478310680E-04
    0.2100000000E+05    0.1056664904E-01    0.6959250573E+00    0.1162016082E+00    0.1476645862E+00    0.3497729948E-04
    0.2300000000E+05    0.1049712848E-01    0.6959313851E+00    0.1188118986E+00    0.1548983267E+00    0.3515473789E-04
    0.2500000000E+05    0.1039888924E-01    0.6959366875E+00    0.1210070410E+00    0.1616830035E+00    0.3531815085E-04
    0.2700000000E+05    0.1027975727E-01    0.6959411933E+00    0.1228568312E+00    0.1680761332E+00    0.3546964580E-04
    0.2900000000E+05    0.1014558098E-01    0.6959450680E+00    0.1244167171E+00    0.1741247529E+00    0.3561088486E-04
    0.3100000000E+05    0.1000076886E-01    0.6959484343E+00    0.1257312819E+00    0.1798677929E+00    0.3574320247E-04
    0.3300000000E+05    0.9848667250E-02    0.6959513851E+00    0.1268367614E+00    0.1853378219E+00    0.3586768656E-04
    0.3500000000E+05    0.9691830030E-02    0.6959539921E+00    0.1277628946E+00    0.1905623516E+00    0.3598523594E-04
    0.3700000000E+05    0.9532213847E-02    0.6959563112E+00    0.1285343039E+00    0.1955648266E+00    0.3609660191E-04
    0.3900000000E+05    0.9371321205E-02    0.6959583872E+00    0.1291715386E+00    0.2003653860E+00    0.3620241899E-04
    0.4100000000E+05    0.9210306567E-02    0.6959602557E+00    0.1296918748E+00    0.2049814562E+00    0.3630322804E-04
    0.4300000000E+05    0.9050055821E-02    0.6959619460E+00    0.1301099335E+00    0.2094282168E+00    0.3639949384E-04
    0.4500000000E+05    0.8891246372E-02    0.6959634820E+00    0.1304381646E+00    0.2137189723E+00    0.3649161886E-04
    0.4700000000E+05    0.8734392950E-02    0.6959648836E+00    0.1306872296E+00    0.2178654500E+00    0.3657995389E-04
    0.4900000000E+05    0.8579882812E-02    0.6959661674E+00    0.1308663060E+00    0.2218780409E+00    0.3666480661E-04
    0.1000000000E+05    0.9689181025E-02    0.6958442771E+00    0.8866661088E-01    0.9545066957E-01    0.3356252515E-04
    0.3000000000E+05    0.1007427395E-01    0.6959468083E+00    0.1251022286E+00    0.1770323028E+00    0.3567808584E-04
    0.5000000000E+05    0.8503599468E-02    0.6959667695E+00    0.1309321219E+00    0.2238370600E+00    0.3670601315E-04
    0.7000000000E+05    0.7137162341E-02    0.6959750923E+00    0.1300292312E+00    0.2577832223E+00    0.3739911390E-04
    0.9000000000E+05    0.6064132649E-02    0.6959795856E+00    0.1269725166E+00    0.2847321812E+00    0.3792528784E-04
    0.1100000000E+06    0.5222210235E-02    0.6959823608E+00    0.1231739428E+00    0.3071645270E+00    0.3835072464E-04
    0.1300000000E+06    0.4551727580E-02    0.6959842232E+00    0.1191727721E+00    0.3263898915E+00    0.3870852149E-04
    0.1500000000E+06    0.4008793429E-02    0.6959855452E+00    0.1151982578E+00    0.3431967673E+00    0.3901766371E-04
    0.1700000000E+06    0.3562279111E-02    0.6959865225E+00    0.1113516542E+00    0.3581029529E+00    0.3929007533E-04
    0.1900000000E+06    0.3189981784E-02    0.6959872673E+00    0.1076760913E+00    0.3714700198E+00    0.3953374619E-04
    0.2100000000E+06    0.2875805140E-02    0.6959878483E+00    0.1041866982E+00    0.3835622112E+00    0.3975429701E-04
    0.2300000000E+06    0.2607862810E-02    0.6959883102E+00    0.1008847016E+00    0.3945795187E+00    0.3995583496E-04
    0.2500000000E+06    0.2377218387E-02    0.6959886828E+00    0.9776442318E-01    0.4046775489E+00    0.4014145423E-04
    0.2700000000E+06    0.2177040689E-02    0.6959889870E+00    0.9481689885E-01    0.4139801123E+00    0.4031354499E-04
    0.2900000000E+06    0.2002028253E-02    0.6959892379E+00    0.9203179909E-01    0.4225875528E+00    0.4047399268E-04
    0.3100000000E+06    0.1848010176E-02    0.6959894464E+00    0.8939845878E-01    0.4305824597E+00    0.4062431133E-04
    0.3300000000E+06    0.1711664272E-02    0.6959896209E+00    0.8690642476E-01    0.4380337066E+00    0.4076573538E-04
    0.3500000000E+06    0.1590314692E-02    0.6959897677E+00    0.8454573640E-01    0.4449993800E+00    0.4089928487E-04
    0.3700000000E+06    0.1481784265E-02    0.6959898915E+00    0.8230705638E-01    0.4515289502E+00    0.4102581249E-04
    0.3900000000E+06    0.1384285200E-02    0.6959899964E+00    0.8018171709E-01    0.4576649135E+00    0.4114603847E-04
    0.4100000000E+06    0.1296337065E-02    0.6959900853E+00    0.7816172007E-01    0.4634440530E+00    0.4126057675E-04
    0.4300000000E+06    0.1216704492E-02    0.6959901607E+00    0.7623971001E-01    0.4688984233E+00    0.4136995499E-04
    0.4500000000E+06    0.1144349298E-02    0.6959902247E+00    0.7440893591E-01    0.4740561281E+00    0.4147463009E-04
    0.4700000000E+06    0.1078393316E-02    0.6959902789E+00    0.7266320678E-01    0.4789419431E+00    0.4157500036E-04
    0.4900000000E+06    0.1018089242E-02    0.6959903247E+00    0.7099684607E-01    0.4835778189E+00    0.4167141514E-04
    0.1000000000E+06    0.5618386515E-02    0.6959811224E+00    0.1251214526E+00    0.2964143284E+00    0.3814806963E-04
    0.3000000000E+06    0.1922619760E-02    0.6959893469E+00    0.9069682153E-01    0.4266569856E+00    0.4055033530E-04
    0.5000000000E+06    0.9898531464E-03    0.6959903447E+00    0.7019178460E-01    0.4858082192E+00    0.4171823694E-04
    0.7000000000E+06    0.6066078707E-03    0.6959905006E+00    0.5720203961E-01    0.5210739819E+00    0.4250582283E-04
    0.9000000000E+06    0.4105855424E-03    0.6959904348E+00    0.4825597610E-01    0.5447193633E+00    0.4310376109E-04
    0.1100000000E+07    0.2965706712E-03    0.6959902949E+00    0.4172115115E-01    0.5617341280E+00    0.4358723846E-04
    0.1300000000E+07    0.2243190122E-03    0.6959901294E+00    0.3673867910E-01    0.5745836144E+00    0.4399385632E-04
    0.1500000000E+07    0.1756207483E-03    0.6959899573E+00    0.3281430352E-01    0.5846378623E+00    0.4434518554E-04
    0.1700000000E+07    0.1412300770E-03    0.6959897866E+00    0.2964350270E-01    0.5927225478E+00    0.4465477479E-04
    0.1900000000E+07    0.1160377987E-03    0.6959896206E+00    0.2702840012E-01    0.5993661187E+00    0.4493170292E-04
    0.2100000000E+07    0.9703046595E-04    0.6959894609E+00    0.2483482526E-01    0.6049229650E+00    0.4518235691E-04
    0.2300000000E+07    0.8233609487E-04    0.6959893078E+00    0.2296857955E-01    0.6096398297E+00    0.4541140399E-04
    0.2500000000E+07    0.7074148106E-04    0.6959891614E+00    0.2136158006E-01    0.6136938888E+00    0.4562236031E-04
    0.2700000000E+07    0.6143212959E-04    0.6959890214E+00    0.1996339483E-01    0.6172156991E+00    0.4581794206E-04
    0.2900000000E+07    0.5384464080E-04    0.6959888875E+00    0.1873587079E-01    0.6203036080E+00    0.4600029189E-04
    0.3100000000E+07    0.4757918105E-04    0.6959887593E+00    0.1764961132E-01    0.6230331215E+00    0.4617113034E-04
    0.3300000000E+07    0.4234561047E-04    0.6959886364E+00    0.1668160077E-01    0.6254631779E+00    0.4633186030E-04
    0.3500000000E+07    0.3792924094E-04    0.6959885185E+00    0.1581356253E-01    0.6276404598E+00    0.4648364096E-04
    0.3700000000E+07    0.3416845127E-04    0.6959884052E+00    0.1503079926E-01    0.6296024237E+00    0.4662744138E-04
    0.3900000000E+07    0.3093968686E-04    0.6959882962E+00    0.1432135783E-01    0.6313794738E+00    0.4676408004E-04
    0.4100000000E+07    0.2814718443E-04    0.6959881912E+00    0.1367541760E-01    0.6329965474E+00    0.4689425468E-04
    0.4300000000E+07    0.2571579373E-04    0.6959880899E+00    0.1308483533E-01    0.6344742912E+00    0.4701856496E-04
    0.4500000000E+07    0.2358587321E-04    0.6959879921E+00    0.1254280186E-01    0.6358299465E+00    0.4713753014E-04
    0.4700000000E+07    0.2170960202E-04    0.6959878976E+00    0.1204357976E-01    0.6370780231E+00    0.4725160288E-04
    0.4900000000E+07    0.2004827613E-04    0.6959878061E+00    0.1158230056E-01    0.6382308202E+00    0.4736118019E-04
    0.1000000000E+07    0.3466179307E-03    0.6959903700E+00    0.4475246797E-01    0.5538657958E+00    0.4335693458E-04
    0.3000000000E+07    0.5056688846E-04    0.6959888227E+00    0.1817664893E-01    0.6217091503E+00    0.4608705590E-04
    0.5000000000E+07    0.1928811032E-04    0.6959877615E+00    0.1136456603E-01    0.6387748295E+00    0.4741439412E-04
    0.7000000000E+07    0.1008129491E-04    0.6959869906E+00    0.8252971638E-02    0.6465401581E+00    0.4830950339E-04
    0.9000000000E+07    0.6177990288E-05    0.6959863849E+00    0.6472943333E-02    0.6509757636E+00    0.4898907543E-04
    0.1100000000E+08    0.4168842786E-05    0.6959858853E+00    0.5321295532E-02    0.6538434837E+00    0.4953856037E-04
    0.1300000000E+08    0.3001030254E-05    0.6959854593E+00    0.4515625920E-02    0.6558489571E+00    0.5000069268E-04
    0.1500000000E+08    0.2263062853E-05    0.6959850876E+00    0.3920608872E-02    0.6573298049E+00    0.5039998805E-04
    0.1700000000E+08    0.1767330241E-05    0.6959847575E+00    0.3463307572E-02    0.6584678219E+00    0.5075184484E-04
    0.1900000000E+08    0.1418403324E-05    0.6959844605E+00    0.3100948838E-02    0.6593695526E+00    0.5106658138E-04
    0.2100000000E+08    0.1163588739E-05    0.6959841903E+00    0.2806797360E-02    0.6601015638E+00    0.5135145662E-04
    0.2300000000E+08    0.9718674879E-06    0.6959839423E+00    0.2563286357E-02    0.6607075803E+00    0.5161177499E-04
    0.2500000000E+08    0.8240169825E-06    0.6959837131E+00    0.2358399431E-02    0.6612175054E+00    0.5185153270E-04
    0.2700000000E+08    0.7076116041E-06    0.6959834999E+00    0.2183639976E-02    0.6616524799E+00    0.5207381678E-04
