  Pressure (Pa) 22mC5-500 (mol/kg) 24mC5-500 (mol/kg) 2mC6-500 (mol/kg) 3mC6-500 (mol/kg) C7-500 (mol/kg)
    0.1000000000E+01    0.4741962256E-05    0.9949699124E-01    0.1541954968E-04    0.4803268707E-05    0.4193862634E-02
    0.3000000000E+01    0.1048997490E-04    0.2320978369E+00    0.3270601458E-04    0.1229137454E-04    0.4243239966E-02
    0.5000000000E+01    0.1376338549E-04    0.3164451440E+00    0.4176344557E-04    0.1918682213E-04    0.4272831703E-02
    0.7000000000E+01    0.1581907127E-04    0.3748245431E+00    0.4716294742E-04    0.2579979492E-04    0.4293166942E-02
    0.9000000000E+01    0.1720728361E-04    0.4176289274E+00    0.5077296798E-04    0.3223488318E-04    0.4308047130E-02
    0.1100000000E+02    0.1820207951E-04    0.4503579120E+00    0.5345830325E-04    0.3854439205E-04    0.4319404843E-02
    0.1300000000E+02    0.1895265410E-04    0.4761944552E+00    0.5565355876E-04    0.4475943659E-04    0.4328346122E-02
    0.1500000000E+02    0.1954575396E-04    0.4971084891E+00    0.5759016972E-04    0.5090051027E-04    0.4335553562E-02
    0.1700000000E+02    0.2003443728E-04    0.5143845187E+00    0.5939652216E-04    0.5698205711E-04    0.4341472478E-02
    0.1900000000E+02    0.2045248369E-04    0.5288958836E+00    0.6114581643E-04    0.6301476441E-04    0.4346406286E-02
    0.2100000000E+02    0.2082210510E-04    0.5412570873E+00    0.6288043023E-04    0.6900683516E-04    0.4350569108E-02
    0.2300000000E+02    0.2115829757E-04    0.5519130749E+00    0.6462495641E-04    0.7496474897E-04    0.4354116526E-02
    0.2500000000E+02    0.2147140791E-04    0.5611939430E+00    0.6639346907E-04    0.8089374394E-04    0.4357164397E-02
    0.2700000000E+02    0.2176870440E-04    0.5693497494E+00    0.6819370961E-04    0.8679813592E-04    0.4359800832E-02
    0.2900000000E+02    0.2205536870E-04    0.5765733865E+00    0.7002956482E-04    0.9268153827E-04    0.4362094080E-02
    0.3100000000E+02    0.2233513968E-04    0.5830160337E+00    0.7190256649E-04    0.9854701766E-04    0.4364097848E-02
    0.3300000000E+02    0.2261074105E-04    0.5887978550E+00    0.7381281492E-04    0.1043972076E-03    0.4365855008E-02
    0.3500000000E+02    0.2288417158E-04    0.5940155652E+00    0.7575955528E-04    0.1102343928E-03    0.4367400208E-02
    0.3700000000E+02    0.2315690539E-04    0.5987478832E+00    0.7774154054E-04    0.1160605736E-03    0.4368761767E-02
    0.3900000000E+02    0.2343003274E-04    0.6030595325E+00    0.7975726106E-04    0.1218775153E-03    0.4369963070E-02
    0.4100000000E+02    0.2370436017E-04    0.6070042185E+00    0.8180508967E-04    0.1276867871E-03    0.4371023599E-02
    0.4300000000E+02    0.2398048279E-04    0.6106268779E+00    0.8388337270E-04    0.1334897930E-03    0.4371959725E-02
    0.4500000000E+02    0.2425883704E-04    0.6139653978E+00    0.8599048607E-04    0.1392877966E-03    0.4372785306E-02
    0.4700000000E+02    0.2453973957E-04    0.6170519462E+00    0.8812486880E-04    0.1450819411E-03    0.4373512159E-02
    0.4900000000E+02    0.2482341615E-04    0.6199140119E+00    0.9028504178E-04    0.1508732661E-03    0.4374150421E-02
    0.1000000000E+02    0.1774257760E-04    0.4350165902E+00    0.5219754650E-04    0.3540306221E-04    0.4314084077E-02
    0.3000000000E+02    0.2219592576E-04    0.5798841976E+00    0.7096139058E-04    0.9561634470E-04    0.4363129250E-02
    0.5000000000E+02    0.2496634588E-04    0.6212683802E+00    0.9137436218E-04    0.1537681712E-03    0.4374439111E-02
    0.7000000000E+02    0.2798706293E-04    0.6408709108E+00    0.1142283528E-03    0.2117120292E-03    0.4377166101E-02
    0.9000000000E+02    0.3129810077E-04    0.6523055120E+00    0.1386083100E-03    0.2701076518E-03    0.4376404545E-02
    0.1100000000E+03    0.3485390797E-04    0.6597969790E+00    0.1641058293E-03    0.3293127267E-03    0.4373798273E-02
    0.1300000000E+03    0.3861894080E-04    0.6650849264E+00    0.1905424753E-03    0.3895651565E-03    0.4370045727E-02
    0.1500000000E+03    0.4257068428E-04    0.6690168620E+00    0.2178427279E-03    0.4510450882E-03    0.4365495131E-02
    0.1700000000E+03    0.4669575159E-04    0.6720550648E+00    0.2459813074E-03    0.5139017915E-03    0.4360338926E-02
    0.1900000000E+03    0.5098678423E-04    0.6744731297E+00    0.2749597367E-03    0.5782672063E-03    0.4354691022E-02
    0.2100000000E+03    0.5544046804E-04    0.6764433207E+00    0.3047951126E-03    0.6442635510E-03    0.4348621910E-02
    0.2300000000E+03    0.6005630090E-04    0.6780795070E+00    0.3355143956E-03    0.7120079756E-03    0.4342176279E-02
    0.2500000000E+03    0.6483582210E-04    0.6794599740E+00    0.3671513755E-03    0.7816156214E-03    0.4335382563E-02
    0.2700000000E+03    0.6978212335E-04    0.6806403154E+00    0.3997450203E-03    0.8532017684E-03    0.4328258417E-02
    0.2900000000E+03    0.7489953481E-04    0.6816610995E+00    0.4333385783E-03    0.9268834389E-03    0.4320814024E-02
    0.3100000000E+03    0.8019342275E-04    0.6825526240E+00    0.4679791110E-03    0.1002780667E-02    0.4313054168E-02
    0.3300000000E+03    0.8567006031E-04    0.6833379726E+00    0.5037172858E-03    0.1081017559E-02    0.4304979568E-02
    0.3500000000E+03    0.9133654768E-04    0.6840350418E+00    0.5406073319E-03    0.1161723232E-02    0.4296587766E-02
    0.3700000000E+03    0.9720076681E-04    0.6846579201E+00    0.5787071048E-03    0.1245032672E-02    0.4287873718E-02
    0.3900000000E+03    0.1032713610E-03    0.6852178498E+00    0.6180782289E-03    0.1331087555E-02    0.4278830200E-02
    0.4100000000E+03    0.1095577335E-03    0.6857239110E+00    0.6587862991E-03    0.1420037063E-02    0.4269448077E-02
    0.4300000000E+03    0.1160700599E-03    0.6861835178E+00    0.7009011295E-03    0.1512038702E-02    0.4259716485E-02
    0.4500000000E+03    0.1228193138E-03    0.6866027835E+00    0.7444970459E-03    0.1607259147E-02    0.4249622946E-02
    0.4700000000E+03    0.1298173017E-03    0.6869867938E+00    0.7896532174E-03    0.1705875128E-02    0.4239153430E-02
    0.4900000000E+03    0.1370767078E-03    0.6873398143E+00    0.8364540272E-03    0.1808074362E-02    0.4228292388E-02
    0.1000000000E+03    0.3304797712E-04    0.6564046400E+00    0.1512318904E-03    0.2995923201E-03    0.4375276392E-02
    0.3000000000E+03    0.7752404727E-04    0.6821214350E+00    0.4505248894E-03    0.9645474583E-03    0.4316973401E-02
    0.5000000000E+03    0.1408086593E-03    0.6875058519E+00    0.8604990671E-03    0.1860579608E-02    0.4222709767E-02
    0.7000000000E+03    0.2331841705E-03    0.6898381576E+00    0.1454003173E-02    0.3156848207E-02    0.4085317331E-02
    0.9000000000E+03    0.3769792177E-03    0.6911398851E+00    0.2376163038E-02    0.5173521110E-02    0.3875650970E-02
    0.1100000000E+04    0.6200069636E-03    0.6919702524E+00    0.3935719867E-02    0.8591162663E-02    0.3531914077E-02
    0.1300000000E+04    0.1065400096E-02    0.6925458874E+00    0.6800666500E-02    0.1488815758E-01    0.2929213928E-02
    0.1500000000E+04    0.1861532169E-02    0.6929683247E+00    0.1194611311E-01    0.2625329171E-01    0.1927238205E-02
    0.1700000000E+04    0.2822944196E-02    0.6932914759E+00    0.1822450581E-01    0.4026172655E-01    0.8834158776E-03
    0.1900000000E+04    0.3433480713E-02    0.6935466180E+00    0.2231286692E-01    0.4960191828E-01    0.4325224648E-03
    0.2100000000E+04    0.3779913345E-02    0.6937531432E+00    0.2473118260E-01    0.5533616801E-01    0.3326613055E-03
    0.2300000000E+04    0.4045585255E-02    0.6939237133E+00    0.2664890097E-01    0.6001536477E-01    0.3158221910E-03
    0.2500000000E+04    0.4283757998E-02    0.6940669463E+00    0.2840755268E-01    0.6438877579E-01    0.3140645139E-03
    0.2700000000E+04    0.4505841127E-02    0.6941889112E+00    0.3007945748E-01    0.6861361794E-01    0.3148666487E-03
    0.2900000000E+04    0.4714640947E-02    0.6942940050E+00    0.3168129897E-01    0.7272406254E-01    0.3160449847E-03
    0.3100000000E+04    0.4911292984E-02    0.6943854917E+00    0.3321898685E-01    0.7673047456E-01    0.3172250478E-03
    0.3300000000E+04    0.5096577419E-02    0.6944658448E+00    0.3469621891E-01    0.8063846404E-01    0.3183480020E-03
    0.3500000000E+04    0.5271168527E-02    0.6945369730E+00    0.3611610712E-01    0.8445251366E-01    0.3194097756E-03
    0.3700000000E+04    0.5435684691E-02    0.6946003726E+00    0.3748149838E-01    0.8817668618E-01    0.3204151192E-03
    0.3900000000E+04    0.5590700746E-02    0.6946572333E+00    0.3879504761E-01    0.9181477555E-01    0.3213695508E-03
    0.4100000000E+04    0.5736752922E-02    0.6947085126E+00    0.4005924262E-01    0.9537034998E-01    0.3222780472E-03
    0.4300000000E+04    0.5874342137E-02    0.6947549900E+00    0.4127641867E-01    0.9884677284E-01    0.3231449297E-03
    0.4500000000E+04    0.6003936768E-02    0.6947973065E+00    0.4244877021E-01    0.1022472182E+00    0.3239739411E-03
    0.4700000000E+04    0.6125975133E-02    0.6948359939E+00    0.4357836127E-01    0.1055746843E+00    0.3247683387E-03
    0.4900000000E+04    0.6240867742E-02    0.6948714973E+00    0.4466713488E-01    0.1088320057E+00    0.3255309738E-03
    0.1000000000E+04    0.4814009452E-03    0.6915964112E+00    0.3045979631E-02    0.6640370429E-02    0.3726465032E-02
    0.3000000000E+04    0.4814433024E-02    0.6943412792E+00    0.3245790967E-01    0.7473987866E-01    0.3166409025E-03
    0.5000000000E+04    0.6295755580E-02    0.6948881746E+00    0.4519679140E-01    0.1104352060E+00    0.3259011766E-03
    0.7000000000E+04    0.7099935206E-02    0.6951208110E+00    0.5403969688E-01    0.1393973529E+00    0.3321152702E-03
    0.9000000000E+04    0.7506349251E-02    0.6952489854E+00    0.6035007465E-01    0.1636641639E+00    0.3368199578E-03
    0.1100000000E+05    0.7670812545E-02    0.6953298419E+00    0.6493484721E-01    0.1844948356E+00    0.3406179873E-03
    0.1300000000E+05    0.7684839023E-02    0.6953853162E+00    0.6829999716E-01    0.2027136675E+00    0.3438089439E-03
    0.1500000000E+05    0.7604358121E-02    0.6954256216E+00    0.7077770883E-01    0.2188857217E+00    0.3465640369E-03
    0.1700000000E+05    0.7464621617E-02    0.6954561521E+00    0.7259435487E-01    0.2334132382E+00    0.3489905241E-03
    0.1900000000E+05    0.7288382305E-02    0.6954800228E+00    0.7390903349E-01    0.2465916871E+00    0.3511601423E-03
    0.2100000000E+05    0.7090589781E-02    0.6954991567E+00    0.7483649206E-01    0.2586439467E+00    0.3531232863E-03
    0.2300000000E+05    0.6881190510E-02    0.6955148049E+00    0.7546132780E-01    0.2697419979E+00    0.3549167401E-03
    0.2500000000E+05    0.6666851595E-02    0.6955278156E+00    0.7584709454E-01    0.2800211755E+00    0.3565681910E-03
    0.2700000000E+05    0.6452051151E-02    0.6955387842E+00    0.7604231996E-01    0.2895898125E+00    0.3580990111E-03
    0.2900000000E+05    0.6239784239E-02    0.6955481405E+00    0.7608458623E-01    0.2985359393E+00    0.3595260491E-03
    0.3100000000E+05    0.6032029132E-02    0.6955562025E+00    0.7600336141E-01    0.3069320443E+00    0.3608628274E-03
    0.3300000000E+05    0.5830060631E-02    0.6955632105E+00    0.7582200421E-01    0.3148385259E+00    0.3621203671E-03
    0.3500000000E+05    0.5634663756E-02    0.6955693493E+00    0.7555920941E-01    0.3223062433E+00    0.3633077709E-03
    0.3700000000E+05    0.5446281347E-02    0.6955747632E+00    0.7523006683E-01    0.3293784310E+00    0.3644326460E-03
    0.3900000000E+05    0.5265117123E-02    0.6955795668E+00    0.7484684871E-01    0.3360921573E+00    0.3655014157E-03
    0.4100000000E+05    0.5091208297E-02    0.6955838518E+00    0.7441960281E-01    0.3424794510E+00    0.3665195542E-03
    0.4300000000E+05    0.4924477108E-02    0.6955876927E+00    0.7395660462E-01    0.3485681826E+00    0.3674917650E-03
    0.4500000000E+05    0.4764767603E-02    0.6955911508E+00    0.7346470586E-01    0.3543827603E+00    0.3684221204E-03
    0.4700000000E+05    0.4611871984E-02    0.6955942764E+00    0.7294960587E-01    0.3599446863E+00    0.3693141692E-03
    0.4900000000E+05    0.4465549532E-02    0.6955971118E+00    0.7241606475E-01    0.3652730057E+00    0.3701710239E-03
    0.1000000000E+05    0.7612027660E-02    0.6952935451E+00    0.6282137009E-01    0.1744498898E+00    0.3388093863E-03
    0.3000000000E+05    0.6135249440E-02    0.6955523168E+00    0.7605782627E-01    0.3027987198E+00    0.3602049811E-03
    0.5000000000E+05    0.4394772442E-02    0.6955984319E+00    0.7214365177E-01    0.3678549338E+00    0.3705871238E-03
    0.7000000000E+05    0.3259829208E-02    0.6956158189E+00    0.6641290145E-01    0.4105166418E+00    0.3775851816E-03
    0.9000000000E+05    0.2508323282E-02    0.6956241460E+00    0.6093848609E-01    0.4415164666E+00    0.3828970028E-03
    0.1100000000E+06    0.1989087417E-02    0.6956285882E+00    0.5607789440E-01    0.4653681325E+00    0.3871914762E-03
    0.1300000000E+06    0.1616069979E-02    0.6956310645E+00    0.5183572268E-01    0.4844189580E+00    0.3908029580E-03
    0.1500000000E+06    0.1339193691E-02    0.6956324373E+00    0.4813886110E-01    0.5000485767E+00    0.3939232029E-03
    0.1700000000E+06    0.1128024297E-02    0.6956331454E+00    0.4490508330E-01    0.5131355507E+00    0.3966726286E-03
    0.1900000000E+06    0.9632678569E-03    0.6956334330E+00    0.4206063177E-01    0.5242721332E+00    0.3991319142E-03
    0.2100000000E+06    0.8322277680E-03    0.6956334445E+00    0.3954352564E-01    0.5338750181E+00    0.4013578114E-03
    0.2300000000E+06    0.7262745164E-03    0.6956332703E+00    0.3730280420E-01    0.5422473610E+00    0.4033917877E-03
    0.2500000000E+06    0.6393767129E-03    0.6956329688E+00    0.3529680290E-01    0.5496157586E+00    0.4052650812E-03
    0.2700000000E+06    0.5672153021E-03    0.6956325791E+00    0.3349141339E-01    0.5561534143E+00    0.4070018217E-03
    0.2900000000E+06    0.5066310668E-03    0.6956321281E+00    0.3185858896E-01    0.5619952417E+00    0.4086210429E-03
    0.3100000000E+06    0.4552695466E-03    0.6956316348E+00    0.3037513229E-01    0.5672480423E+00    0.4101380282E-03
    0.3300000000E+06    0.4113466939E-03    0.6956311125E+00    0.2902173401E-01    0.5719975599E+00    0.4115652391E-03
    0.3500000000E+06    0.3734905173E-03    0.6956305710E+00    0.2778221632E-01    0.5763134863E+00    0.4129129717E-03
    0.3700000000E+06    0.3406317883E-03    0.6956300174E+00    0.2664293825E-01    0.5802530893E+00    0.4141898333E-03
    0.3900000000E+06    0.3119271675E-03    0.6956294571E+00    0.2559232684E-01    0.5838638891E+00    0.4154030938E-03
    0.4100000000E+06    0.2867041988E-03    0.6956288939E+00    0.2462050583E-01    0.5871856652E+00    0.4165589501E-03
    0.4300000000E+06    0.2644213343E-03    0.6956283307E+00    0.2371899978E-01    0.5902519839E+00    0.4176627283E-03
    0.4500000000E+06    0.2446384705E-03    0.6956277698E+00    0.2288049701E-01    0.5930913736E+00    0.4187190401E-03
    0.4700000000E+06    0.2269949478E-03    0.6956272127E+00    0.2209865844E-01    0.5957282425E+00    0.4197319057E-03
    0.4900000000E+06    0.2111929267E-03    0.6956266607E+00    0.2136796236E-01    0.5981836010E+00    0.4207048511E-03
    0.1000000000E+06    0.2226162896E-02    0.6956266953E+00    0.5842785489E-01    0.4541580133E+00    0.3851458601E-03
    0.3000000000E+06    0.4799201922E-03    0.6956318858E+00    0.3109947786E-01    0.5646894845E+00    0.4093914788E-03
    0.5000000000E+06    0.2039033938E-03    0.6956263869E+00    0.2102025908E-01    0.5993489942E+00    0.4211773400E-03
    0.7000000000E+06    0.1121633947E-03    0.6956212943E+00    0.1584699115E-01    0.6164762763E+00    0.4291249067E-03
    0.9000000000E+06    0.7082013670E-04    0.6956169345E+00    0.1270567093E-01    0.6267015834E+00    0.4351585786E-03
    0.1100000000E+07    0.4873457431E-04    0.6956131766E+00    0.1059766306E-01    0.6334984491E+00    0.4400371636E-03
    0.1300000000E+07    0.3557172749E-04    0.6956098878E+00    0.9085985874E-02    0.6383433338E+00    0.4441401334E-03
    0.1500000000E+07    0.2710211633E-04    0.6956069677E+00    0.7949390919E-02    0.6419711698E+00    0.4476851753E-03
    0.1700000000E+07    0.2133432940E-04    0.6956043432E+00    0.7063935494E-02    0.6447890844E+00    0.4508090167E-03
    0.1900000000E+07    0.1723093258E-04    0.6956019599E+00    0.6354817408E-02    0.6470408553E+00    0.4536032760E-03
    0.2100000000E+07    0.1420839545E-04    0.6955997771E+00    0.5774230786E-02    0.6488813705E+00    0.4561324062E-03
    0.2300000000E+07    0.1191810698E-04    0.6955977633E+00    0.5290201917E-02    0.6504137574E+00    0.4584435054E-03
    0.2500000000E+07    0.1014141172E-04    0.6955958939E+00    0.4880540028E-02    0.6517093352E+00    0.4605720555E-03
    0.2700000000E+07    0.8735542663E-05    0.6955941493E+00    0.4529363693E-02    0.6528189990E+00    0.4625454658E-03
    0.2900000000E+07    0.7604083823E-05    0.6955925135E+00    0.4225008569E-02    0.6537800409E+00    0.4643853578E-03
    0.3100000000E+07    0.6680022586E-05    0.6955909735E+00    0.3958715623E-02    0.6546204095E+00    0.4661090933E-03
    0.3300000000E+07    0.5915613297E-05    0.6955895185E+00    0.3723780132E-02    0.6553614624E+00    0.4677308289E-03
    0.3500000000E+07    0.5276094505E-05    0.6955881395E+00    0.3514983144E-02    0.6560198010E+00    0.4692622617E-03
    0.3700000000E+07    0.4735672278E-05    0.6955868286E+00    0.3328201773E-02    0.6566085239E+00    0.4707131703E-03
    0.3900000000E+07    0.4274881577E-05    0.6955855793E+00    0.3160135985E-02    0.6571381044E+00    0.4720918138E-03
    0.4100000000E+07    0.3878810749E-05    0.6955843860E+00    0.3008113205E-02    0.6576170163E+00    0.4734052329E-03
    0.4300000000E+07    0.3535880986E-05    0.6955832437E+00    0.2869946044E-02    0.6580521896E+00    0.4746594786E-03
    0.4500000000E+07    0.3236991028E-05    0.6955821481E+00    0.2743827049E-02    0.6584493463E+00    0.4758597906E-03
    0.4700000000E+07    0.2974907350E-05    0.6955810955E+00    0.2628249697E-02    0.6588132528E+00    0.4770107365E-03
    0.4900000000E+07    0.2743822512E-05    0.6955800826E+00    0.2521948310E-02    0.6591479110E+00    0.4781163224E-03
    0.1000000000E+07    0.5823939967E-04    0.6956149894E+00    0.1155712319E-01    0.6304109543E+00    0.4377132644E-03
    0.3000000000E+07    0.7119476600E-05    0.6955917323E+00    0.4087563785E-02    0.6542138450E+00    0.4652607951E-03
    0.5000000000E+07    0.2638398113E-05    0.6955795901E+00    0.2471934829E-02    0.6593053507E+00    0.4786532259E-03
    0.7000000000E+07    0.1378140784E-05    0.6955712510E+00    0.1768465903E-02    0.6615192182E+00    0.4876843538E-03
    0.9000000000E+07    0.8537462604E-06    0.6955648636E+00    0.1375308299E-02    0.6627563991E+00    0.4945407061E-03
    0.1100000000E+08    0.5860522511E-06    0.6955596710E+00    0.1124450180E-02    0.6635460030E+00    0.5000844986E-03
    0.1300000000E+08    0.4309108221E-06    0.6955552878E+00    0.9505692614E-03    0.6640935232E+00    0.5047469271E-03
    0.1500000000E+08    0.3328436163E-06    0.6955514901E+00    0.8229964320E-03    0.6644953980E+00    0.5087753551E-03
    0.1700000000E+08    0.2668035318E-06    0.6955481365E+00    0.7254343742E-03    0.6648028670E+00    0.5123251505E-03
    0.1900000000E+08    0.2201324142E-06    0.6955451314E+00    0.6484249135E-03    0.6650456676E+00    0.5155004233E-03
    0.2100000000E+08    0.1858705968E-06    0.6955424075E+00    0.5861035066E-03    0.6652422403E+00    0.5183744145E-03
    0.2300000000E+08    0.1599323255E-06    0.6955399153E+00    0.5346412639E-03    0.6654046264E+00    0.5210006440E-03
    0.2500000000E+08    0.1397896937E-06    0.6955376175E+00    0.4914326193E-03    0.6655410216E+00    0.5234194320E-03
    0.2700000000E+08    0.1238098393E-06    0.6955354851E+00    0.4546431342E-03    0.6656571970E+00    0.5256619251E-03
