  Pressure (Pa) 22mC5-500 (mol/kg) 24mC5-500 (mol/kg) 2mC6-500 (mol/kg) 3mC6-500 (mol/kg) C7-500 (mol/kg)
    0.1000000000E+01    0.5340909187E-05    0.3665993588E-01    0.1410645040E-04    0.8389821406E-05    0.4185010064E-02
    0.3000000000E+01    0.1409750351E-04    0.9948558406E-01    0.3638597917E-04    0.2134932834E-04    0.4237768475E-02
    0.5000000000E+01    0.2102496462E-04    0.1513664514E+00    0.5338156993E-04    0.3327103679E-04    0.4277606138E-02
    0.7000000000E+01    0.2661375670E-04    0.1949337810E+00    0.6664087229E-04    0.4470740961E-04    0.4310610571E-02
    0.9000000000E+01    0.3119351149E-04    0.2320379152E+00    0.7717149441E-04    0.5584372761E-04    0.4338583862E-02
    0.1100000000E+02    0.3499670748E-04    0.2640179846E+00    0.8566827057E-04    0.6677236087E-04    0.4362629369E-02
    0.1300000000E+02    0.3819204548E-04    0.2918670516E+00    0.9262488675E-04    0.7754813990E-04    0.4383524437E-02
    0.1500000000E+02    0.4090470694E-04    0.3163371207E+00    0.9840000762E-04    0.8820712304E-04    0.4401845965E-02
    0.1700000000E+02    0.4322933373E-04    0.3380080992E+00    0.1032589986E-03    0.9877469843E-04    0.4418034814E-02
    0.1900000000E+02    0.4523864104E-04    0.3573343652E+00    0.1074012619E-03    0.1092696398E-03    0.4432434940E-02
    0.2100000000E+02    0.4698929122E-04    0.3746769911E+00    0.1109786588E-03    0.1197063539E-03    0.4445319138E-02
    0.2300000000E+02    0.4852599235E-04    0.3903265249E+00    0.1141082129E-03    0.1300962229E-03    0.4456906780E-02
    0.2500000000E+02    0.4988441536E-04    0.4045194079E+00    0.1168810448E-03    0.1404484531E-03    0.4467376396E-02
    0.2700000000E+02    0.5109330696E-04    0.4174500100E+00    0.1193687645E-03    0.1507706370E-03    0.4476874828E-02
    0.2900000000E+02    0.5217604395E-04    0.4292795891E+00    0.1216281140E-03    0.1610691395E-03    0.4485524002E-02
    0.3100000000E+02    0.5315179294E-04    0.4401430541E+00    0.1237043881E-03    0.1713493713E-03    0.4493426026E-02
    0.3300000000E+02    0.5403638651E-04    0.4501541363E+00    0.1256339828E-03    0.1816159885E-03    0.4500667074E-02
    0.3500000000E+02    0.5484299297E-04    0.4594093877E+00    0.1274463178E-03    0.1918730403E-03    0.4507320395E-02
    0.3700000000E+02    0.5558263376E-04    0.4679913070E+00    0.1291653004E-03    0.2021240815E-03    0.4513448657E-02
    0.3900000000E+02    0.5626458704E-04    0.4759708069E+00    0.1308104506E-03    0.2123722594E-03    0.4519105799E-02
    0.4100000000E+02    0.5689670527E-04    0.4834091790E+00    0.1323977741E-03    0.2226203815E-03    0.4524338504E-02
    0.4300000000E+02    0.5748566733E-04    0.4903596724E+00    0.1339404443E-03    0.2328709694E-03    0.4529187385E-02
    0.4500000000E+02    0.5803718012E-04    0.4968687704E+00    0.1354493391E-03    0.2431263024E-03    0.4533687947E-02
    0.4700000000E+02    0.5855614091E-04    0.5029772327E+00    0.1369334666E-03    0.2533884523E-03    0.4537871362E-02
    0.4900000000E+02    0.5904676903E-04    0.5087209498E+00    0.1384003051E-03    0.2636593126E-03    0.4541765121E-02
    0.1000000000E+02    0.3318042340E-04    0.2485997313E+00    0.8163947138E-04    0.6132999750E-04    0.4351043287E-02
    0.3000000000E+02    0.5267623298E-04    0.4348245330E+00    0.1226866773E-03    0.1662112325E-03    0.4489562687E-02
    0.5000000000E+02    0.5928261835E-04    0.5114660896E+00    0.1391292277E-03    0.2687985579E-03    0.4543611094E-02
    0.7000000000E+02    0.6317807382E-04    0.5532660678E+00    0.1538490318E-03    0.3724003698E-03    0.4569973473E-02
    0.9000000000E+02    0.6643677117E-04    0.5795843918E+00    0.1699721572E-03    0.4782631242E-03    0.4583564666E-02
    0.1100000000E+03    0.6966224452E-04    0.5976786518E+00    0.1879364149E-03    0.5871265046E-03    0.4590050423E-02
    0.1300000000E+03    0.7306507037E-04    0.6108829689E+00    0.2077073031E-03    0.6995395715E-03    0.4592059942E-02
    0.1500000000E+03    0.7672736242E-04    0.6209436977E+00    0.2291880776E-03    0.8159686955E-03    0.4590977894E-02
    0.1700000000E+03    0.8068441180E-04    0.6288640521E+00    0.2523034065E-03    0.9368450987E-03    0.4587598717E-02
    0.1900000000E+03    0.8495384462E-04    0.6352613998E+00    0.2770124086E-03    0.1062589746E-02    0.4582405932E-02
    0.2100000000E+03    0.8954711422E-04    0.6405364961E+00    0.3033061394E-03    0.1193628341E-02    0.4575705534E-02
    0.2300000000E+03    0.9447435353E-04    0.6449608270E+00    0.3312026721E-03    0.1330401567E-02    0.4567695338E-02
    0.2500000000E+03    0.9974653176E-04    0.6487248430E+00    0.3607428571E-03    0.1473372946E-02    0.4558503480E-02
    0.2700000000E+03    0.1053764612E-03    0.6519660958E+00    0.3919872764E-03    0.1623035518E-02    0.4548210925E-02
    0.2900000000E+03    0.1113793033E-03    0.6547864117E+00    0.4250142848E-03    0.1779918011E-02    0.4536865182E-02
    0.3100000000E+03    0.1177728622E-03    0.6572627838E+00    0.4599189240E-03    0.1944590919E-02    0.4524488916E-02
    0.3300000000E+03    0.1245777995E-03    0.6594545068E+00    0.4968125234E-03    0.2117672779E-02    0.4511085468E-02
    0.3500000000E+03    0.1318178339E-03    0.6614079865E+00    0.5358228517E-03    0.2299836846E-02    0.4496642427E-02
    0.3700000000E+03    0.1395199595E-03    0.6631600615E+00    0.5770947272E-03    0.2491818351E-02    0.4481133920E-02
    0.3900000000E+03    0.1477146997E-03    0.6647403475E+00    0.6207910304E-03    0.2694422515E-02    0.4464522034E-02
    0.4100000000E+03    0.1564364088E-03    0.6661729252E+00    0.6670940903E-03    0.2908533464E-02    0.4446757614E-02
    0.4300000000E+03    0.1657236276E-03    0.6674775755E+00    0.7162074343E-03    0.3135124237E-02    0.4427780602E-02
    0.4500000000E+03    0.1756195022E-03    0.6686706983E+00    0.7683579090E-03    0.3375268056E-02    0.4407520019E-02
    0.4700000000E+03    0.1861722724E-03    0.6697660050E+00    0.8237981895E-03    0.3630151052E-02    0.4385893650E-02
    0.4900000000E+03    0.1974358378E-03    0.6707750483E+00    0.8828097096E-03    0.3901086686E-02    0.4362807474E-02
    0.1000000000E+03    0.6803586213E-04    0.5893981632E+00    0.1787228326E-03    0.5322826681E-03    0.4587490061E-02
    0.3000000000E+03    0.1145260211E-03    0.6560635352E+00    0.4422253236E-03    0.1861243206E-02    0.4530805252E-02
    0.5000000000E+03    0.2033527185E-03    0.6712503434E+00    0.9137513195E-03    0.4043023492E-02    0.4350684157E-02
    0.7000000000E+03    0.3790136967E-03    0.6779752202E+00    0.1823824117E-02    0.8203687776E-02    0.3995782901E-02
    0.9000000000E+03    0.7769915751E-03    0.6817687626E+00    0.3874223786E-02    0.1757930642E-01    0.3232309806E-02
    0.1100000000E+04    0.1625641785E-02    0.6842042040E+00    0.8266927037E-02    0.3779524657E-01    0.1775511806E-02
    0.1300000000E+04    0.2395316030E-02    0.6858998672E+00    0.1233278143E-01    0.5687822250E-01    0.8062579424E-03
    0.1500000000E+04    0.2757562139E-02    0.6871482076E+00    0.1434829728E-01    0.6678744725E-01    0.6560630680E-03
    0.1700000000E+04    0.3019633852E-02    0.6881054901E+00    0.1587120629E-01    0.7455633230E-01    0.6467115089E-03
    0.1900000000E+04    0.3253570893E-02    0.6888627958E+00    0.1726969911E-01    0.8186184252E-01    0.6499547506E-03
    0.2100000000E+04    0.3468354923E-02    0.6894767989E+00    0.1858794724E-01    0.8889850363E-01    0.6538811243E-03
    0.2300000000E+04    0.3666110831E-02    0.6899846110E+00    0.1983474667E-01    0.9569818452E-01    0.6575275112E-03
    0.2500000000E+04    0.3848193383E-02    0.6904115505E+00    0.2101507813E-01    0.1022757647E+00    0.6608676083E-03
    0.2700000000E+04    0.4015785165E-02    0.6907754820E+00    0.2213321949E-01    0.1086435649E+00    0.6639440346E-03
    0.2900000000E+04    0.4169963387E-02    0.6910893710E+00    0.2319307997E-01    0.1148128474E+00    0.6667956442E-03
    0.3100000000E+04    0.4311714734E-02    0.6913628554E+00    0.2419826105E-01    0.1207940393E+00    0.6694536923E-03
    0.3300000000E+04    0.4441944346E-02    0.6916032484E+00    0.2515208762E-01    0.1265968202E+00    0.6719433541E-03
    0.3500000000E+04    0.4561483471E-02    0.6918161995E+00    0.2605763360E-01    0.1322301906E+00    0.6742851735E-03
    0.3700000000E+04    0.4671096305E-02    0.6920061421E+00    0.2691774455E-01    0.1377025304E+00    0.6764961311E-03
    0.3900000000E+04    0.4771486139E-02    0.6921766040E+00    0.2773505801E-01    0.1430216522E+00    0.6785904242E-03
    0.4100000000E+04    0.4863300876E-02    0.6923304272E+00    0.2851202168E-01    0.1481948493E+00    0.6805800447E-03
    0.4300000000E+04    0.4947137995E-02    0.6924699269E+00    0.2925090987E-01    0.1532289383E+00    0.6824752142E-03
    0.4500000000E+04    0.5023549019E-02    0.6925970080E+00    0.2995383819E-01    0.1581302979E+00    0.6842847170E-03
    0.4700000000E+04    0.5093043532E-02    0.6927132524E+00    0.3062277688E-01    0.1629049043E+00    0.6860161580E-03
    0.4900000000E+04    0.5156092807E-02    0.6928199844E+00    0.3125956277E-01    0.1675583622E+00    0.6876761655E-03
    0.1000000000E+04    0.1144630685E-02    0.6831062121E+00    0.5771834689E-02    0.2628642441E-01    0.2571302531E-02
    0.3000000000E+04    0.4242334031E-02    0.6912306613E+00    0.2370229146E-01    0.1178263330E+00    0.6681471665E-03
    0.5000000000E+04    0.5185338090E-02    0.6928701392E+00    0.3156643866E-01    0.1698413178E+00    0.6884812261E-03
    0.7000000000E+04    0.5521977396E-02    0.6935712484E+00    0.3637660965E-01    0.2102619951E+00    0.7019311138E-03
    0.9000000000E+04    0.5553005079E-02    0.6939591184E+00    0.3936185112E-01    0.2429670727E+00    0.7120497704E-03
    0.1100000000E+05    0.5427423192E-02    0.6942047028E+00    0.4119442832E-01    0.2702178713E+00    0.7201882874E-03
    0.1300000000E+05    0.5223222420E-02    0.6943737880E+00    0.4226889153E-01    0.2934322609E+00    0.7270094378E-03
    0.1500000000E+05    0.4982749702E-02    0.6944970638E+00    0.4282964982E-01    0.3135510584E+00    0.7328888488E-03
    0.1700000000E+05    0.4729488176E-02    0.6945907645E+00    0.4303466058E-01    0.3312274067E+00    0.7380604842E-03
    0.1900000000E+05    0.4476530553E-02    0.6946642787E+00    0.4298952494E-01    0.3469317389E+00    0.7426801627E-03
    0.2100000000E+05    0.4231074448E-02    0.6947234109E+00    0.4276680311E-01    0.3610133660E+00    0.7468569905E-03
    0.2300000000E+05    0.3996903153E-02    0.6947719413E+00    0.4241748014E-01    0.3737383686E+00    0.7506704020E-03
    0.2500000000E+05    0.3775798510E-02    0.6948124364E+00    0.4197804407E-01    0.3853138646E+00    0.7541800620E-03
    0.2700000000E+05    0.3568365906E-02    0.6948466996E+00    0.4147500304E-01    0.3959040926E+00    0.7574319476E-03
    0.2900000000E+05    0.3374525304E-02    0.6948760344E+00    0.4092785142E-01    0.4056413941E+00    0.7604622525E-03
    0.3100000000E+05    0.3193807554E-02    0.6949014064E+00    0.4035106601E-01    0.4146339085E+00    0.7632999894E-03
    0.3300000000E+05    0.3025534676E-02    0.6949235458E+00    0.3975547863E-01    0.4229710897E+00    0.7659687785E-03
    0.3500000000E+05    0.2868929781E-02    0.6949430148E+00    0.3914923794E-01    0.4307277412E+00    0.7684881114E-03
    0.3700000000E+05    0.2723183742E-02    0.6949602534E+00    0.3853849453E-01    0.4379670218E+00    0.7708742637E-03
    0.3900000000E+05    0.2587494994E-02    0.6949756105E+00    0.3792789632E-01    0.4447427203E+00    0.7731409686E-03
    0.4100000000E+05    0.2461092533E-02    0.6949893665E+00    0.3732095133E-01    0.4511010022E+00    0.7752999219E-03
    0.4300000000E+05    0.2343248400E-02    0.6950017491E+00    0.3672029654E-01    0.4570817690E+00    0.7773611681E-03
    0.4500000000E+05    0.2233283588E-02    0.6950129454E+00    0.3612789925E-01    0.4627197282E+00    0.7793333981E-03
    0.4700000000E+05    0.2130569893E-02    0.6950231101E+00    0.3554520915E-01    0.4680452452E+00    0.7812241831E-03
    0.4900000000E+05    0.2034529292E-02    0.6950323724E+00    0.3497327439E-01    0.4730850279E+00    0.7830401597E-03
    0.1000000000E+05    0.5503795378E-02    0.6940943510E+00    0.4039298883E-01    0.2571713705E+00    0.7163157012E-03
    0.3000000000E+05    0.3282565103E-02    0.6948891655E+00    0.4064241341E-01    0.4102247741E+00    0.7619036062E-03
    0.5000000000E+05    0.1988844006E-02    0.6950366999E+00    0.3469158033E-01    0.4755052539E+00    0.7839219504E-03
    0.7000000000E+05    0.1319486059E-02    0.6950950123E+00    0.2969897139E-01    0.5134203640E+00    0.7987460446E-03
    0.9000000000E+05    0.9364814772E-03    0.6951246367E+00    0.2581957886E-01    0.5385294639E+00    0.8099920752E-03
    0.1100000000E+06    0.6982656311E-03    0.6951417008E+00    0.2278384354E-01    0.5564796569E+00    0.8190813663E-03
    0.1300000000E+06    0.5403903842E-03    0.6951522622E+00    0.2036274346E-01    0.5699855734E+00    0.8267235423E-03
    0.1500000000E+06    0.4305029607E-03    0.6951590797E+00    0.1839401800E-01    0.5805306279E+00    0.8333252762E-03
    0.1700000000E+06    0.3509940716E-03    0.6951635774E+00    0.1676492843E-01    0.5889991453E+00    0.8391418206E-03
    0.1900000000E+06    0.2916338795E-03    0.6951665589E+00    0.1539616857E-01    0.5959529723E+00    0.8443441311E-03
    0.2100000000E+06    0.2461562990E-03    0.6951685084E+00    0.1423082798E-01    0.6017669797E+00    0.8490524292E-03
    0.2300000000E+06    0.2105517127E-03    0.6951697331E+00    0.1322720730E-01    0.6067012243E+00    0.8533545388E-03
    0.2500000000E+06    0.1821587438E-03    0.6951704359E+00    0.1235414333E-01    0.6109419516E+00    0.8573166078E-03
    0.2700000000E+06    0.1591551476E-03    0.6951707556E+00    0.1158792203E-01    0.6146261369E+00    0.8609897247E-03
    0.2900000000E+06    0.1402594668E-03    0.6951707894E+00    0.1091020063E-01    0.6178568155E+00    0.8644141834E-03
    0.3100000000E+06    0.1245494027E-03    0.6951706073E+00    0.1030658056E-01    0.6207130084E+00    0.8676223352E-03
    0.3300000000E+06    0.1113475267E-03    0.6951702607E+00    0.9765608513E-02    0.6232563495E+00    0.8706405554E-03
    0.3500000000E+06    0.1001472539E-03    0.6951697877E+00    0.9278064206E-02    0.6255356277E+00    0.8734906353E-03
    0.3700000000E+06    0.9056365654E-04    0.6951692173E+00    0.8836444111E-02    0.6275899735E+00    0.8761907900E-03
    0.3900000000E+06    0.8230003276E-04    0.6951685716E+00    0.8434581353E-02    0.6294511397E+00    0.8787564036E-03
    0.4100000000E+06    0.7512471826E-04    0.6951678678E+00    0.8067361886E-02    0.6311451645E+00    0.8812005891E-03
    0.4300000000E+06    0.6885470636E-04    0.6951671193E+00    0.7730509764E-02    0.6326936035E+00    0.8835346159E-03
    0.4500000000E+06    0.6334388483E-04    0.6951663366E+00    0.7420422734E-02    0.6341144552E+00    0.8857682418E-03
    0.4700000000E+06    0.5847446060E-04    0.6951655281E+00    0.7134044954E-02    0.6354228666E+00    0.8879099724E-03
    0.4900000000E+06    0.5415062202E-04    0.6951647005E+00    0.6868767441E-02    0.6366316768E+00    0.8899672676E-03
    0.1000000000E+06    0.8043762586E-03    0.6951342436E+00    0.2421227643E-01    0.5481892589E+00    0.8147520777E-03
    0.3000000000E+06    0.1320532934E-03    0.6951707217E+00    0.1059990330E-01    0.6193275243E+00    0.8660435277E-03
    0.5000000000E+06    0.5216817440E-04    0.6951642813E+00    0.6743328474E-02    0.6372022189E+00    0.8909663385E-03
    0.7000000000E+06    0.2792460735E-04    0.6951557575E+00    0.4935226474E-02    0.6453545678E+00    0.9077706645E-03
    0.9000000000E+06    0.1747689852E-04    0.6951477938E+00    0.3887918891E-02    0.6500199919E+00    0.9205275155E-03
    0.1100000000E+07    0.1203720280E-04    0.6951406501E+00    0.3205319962E-02    0.6530407793E+00    0.9308418117E-03
    0.1300000000E+07    0.8845908096E-05    0.6951342530E+00    0.2725449090E-02    0.6551558570E+00    0.9395160731E-03
    0.1500000000E+07    0.6812645835E-05    0.6951284880E+00    0.2369809924E-02    0.6567192246E+00    0.9470106426E-03
    0.1700000000E+07    0.5436313033E-05    0.6951232518E+00    0.2095768053E-02    0.6579217056E+00    0.9536146434E-03
    0.1900000000E+07    0.4460408824E-05    0.6951184599E+00    0.1878179595E-02    0.6588752430E+00    0.9595218050E-03
    0.2100000000E+07    0.3742550252E-05    0.6951140446E+00    0.1701260462E-02    0.6596498343E+00    0.9648684114E-03
    0.2300000000E+07    0.3198533088E-05    0.6951099516E+00    0.1554604054E-02    0.6602914924E+00    0.9697540474E-03
    0.2500000000E+07    0.2775958082E-05    0.6951061373E+00    0.1431072072E-02    0.6608317061E+00    0.9742537357E-03
    0.2700000000E+07    0.2440823492E-05    0.6951025659E+00    0.1325605536E-02    0.6612927503E+00    0.9784254290E-03
    0.2900000000E+07    0.2170278373E-05    0.6950992082E+00    0.1234519472E-02    0.6616908258E+00    0.9823148419E-03
    0.3100000000E+07    0.1948501147E-05    0.6950960397E+00    0.1155066350E-02    0.6620379974E+00    0.9859586828E-03
    0.3300000000E+07    0.1764252596E-05    0.6950930400E+00    0.1085155976E-02    0.6623434338E+00    0.9893868821E-03
    0.3500000000E+07    0.1609368486E-05    0.6950901917E+00    0.1023170115E-02    0.6626142275E+00    0.9926241706E-03
    0.3700000000E+07    0.1477800880E-05    0.6950874800E+00    0.9678364783E-03    0.6628559509E+00    0.9956912225E-03
    0.3900000000E+07    0.1364991136E-05    0.6950848922E+00    0.9181410186E-03    0.6630730425E+00    0.9986054997E-03
    0.4100000000E+07    0.1267449588E-05    0.6950824171E+00    0.8732656163E-03    0.6632690815E+00    0.1001381887E-02
    0.4300000000E+07    0.1182467525E-05    0.6950800452E+00    0.8325429666E-03    0.6634469858E+00    0.1004033178E-02
    0.4500000000E+07    0.1107915906E-05    0.6950777680E+00    0.7954233800E-03    0.6636091585E+00    0.1006570451E-02
    0.4700000000E+07    0.1042102180E-05    0.6950755781E+00    0.7614499793E-03    0.6637575958E+00    0.1009003360E-02
    0.4900000000E+07    0.9836667866E-06    0.6950734688E+00    0.7302399160E-03    0.6638939705E+00    0.1011340378E-02
    0.1000000000E+07    0.1436542944E-04    0.6951441217E+00    0.3514039968E-02    0.6516764058E+00    0.9259286672E-03
    0.3000000000E+07    0.2054082573E-05    0.6950976017E+00    0.1193482307E-02    0.6618701449E+00    0.9841654504E-03
    0.5000000000E+07    0.9568630459E-06    0.6950724426E+00    0.7155681239E-03    0.6639580842E+00    0.1012475296E-02
    0.7000000000E+07    0.6252290433E-06    0.6950550144E+00    0.5100217625E-03    0.6648567556E+00    0.1031565173E-02
    0.9000000000E+07    0.4748691775E-06    0.6950416097E+00    0.3958097736E-03    0.6653567403E+00    0.1046057656E-02
    0.1100000000E+08    0.3907947406E-06    0.6950306851E+00    0.3231833845E-03    0.6656750943E+00    0.1057775503E-02
    0.1300000000E+08    0.3373557753E-06    0.6950214473E+00    0.2729557046E-03    0.6658955435E+00    0.1067630260E-02
    0.1500000000E+08    0.3003432107E-06    0.6950134335E+00    0.2361633781E-03    0.6660572191E+00    0.1076144842E-02
    0.1700000000E+08    0.2730936650E-06    0.6950063495E+00    0.2080597102E-03    0.6661808555E+00    0.1083647682E-02
    0.1900000000E+08    0.2521023676E-06    0.6949999967E+00    0.1858968839E-03    0.6662784628E+00    0.1090358860E-02
    0.2100000000E+08    0.2353611847E-06    0.6949942344E+00    0.1679744010E-03    0.6663574778E+00    0.1096433199E-02
    0.2300000000E+08    0.2216405737E-06    0.6949889592E+00    0.1531837215E-03    0.6664227515E+00    0.1101983830E-02
    0.2500000000E+08    0.2101467687E-06    0.6949840930E+00    0.1407714172E-03    0.6664775826E+00    0.1107095984E-02
    0.2700000000E+08    0.2003446990E-06    0.6949795750E+00    0.1302075843E-03    0.6665242925E+00    0.1111835501E-02
