  Pressure (Pa) 22mC5-500 (mol/kg) 24mC5-500 (mol/kg) 2mC6-500 (mol/kg) 3mC6-500 (mol/kg) C7-500 (mol/kg)
    0.1000000000E+01    0.3426317176E-05    0.2487063854E+00    0.8687095057E-05    0.8379437629E-06    0.4177406105E-02
    0.3000000000E+01    0.5494020466E-05    0.4351250186E+00    0.1335680945E-04    0.2127795286E-05    0.4198216022E-02
    0.5000000000E+01    0.6232316347E-05    0.5118596349E+00    0.1536888573E-04    0.3309444722E-05    0.4205577256E-02
    0.7000000000E+01    0.6670872302E-05    0.5537090055E+00    0.1706699820E-04    0.4438542085E-05    0.4209465561E-02
    0.9000000000E+01    0.7020515162E-05    0.5800566277E+00    0.1877928853E-04    0.5533824608E-05    0.4211859964E-02
    0.1100000000E+02    0.7342751639E-05    0.5981697793E+00    0.2055455364E-04    0.6604662357E-05    0.4213463767E-02
    0.1300000000E+02    0.7658834207E-05    0.6113870720E+00    0.2238986345E-04    0.7656631283E-05    0.4214594792E-02
    0.1500000000E+02    0.7976643386E-05    0.6214571638E+00    0.2427356335E-04    0.8693405561E-05    0.4215418915E-02
    0.1700000000E+02    0.8299031190E-05    0.6293845477E+00    0.2619446679E-04    0.9717575886E-05    0.4216031647E-02
    0.1900000000E+02    0.8626820512E-05    0.6357873483E+00    0.2814354442E-04    0.1073105977E-04    0.4216492076E-02
    0.2100000000E+02    0.8959994943E-05    0.6410667922E+00    0.3011385824E-04    0.1173532929E-04    0.4216838833E-02
    0.2300000000E+02    0.9298202472E-05    0.6454946717E+00    0.3210015168E-04    0.1273154728E-04    0.4217098301E-02
    0.2500000000E+02    0.9640976854E-05    0.6492616432E+00    0.3409844724E-04    0.1372065360E-04    0.4217289147E-02
    0.2700000000E+02    0.9987835745E-05    0.6525054011E+00    0.3610572396E-04    0.1470342238E-04    0.4217424976E-02
    0.2900000000E+02    0.1033832283E-04    0.6553278736E+00    0.3811967472E-04    0.1568050134E-04    0.4217515955E-02
    0.3100000000E+02    0.1069202390E-04    0.6578061274E+00    0.4013852720E-04    0.1665243978E-04    0.4217569840E-02
    0.3300000000E+02    0.1104857084E-04    0.6599995125E+00    0.4216091254E-04    0.1761970887E-04    0.4217592661E-02
    0.3500000000E+02    0.1140764012E-04    0.6619544760E+00    0.4418576860E-04    0.1858271691E-04    0.4217589182E-02
    0.3700000000E+02    0.1176894899E-04    0.6637078883E+00    0.4621226826E-04    0.1954182077E-04    0.4217563217E-02
    0.3900000000E+02    0.1213225093E-04    0.6652893899E+00    0.4823976598E-04    0.2049733482E-04    0.4217517861E-02
    0.4100000000E+02    0.1249733120E-04    0.6667230812E+00    0.5026775742E-04    0.2144953796E-04    0.4217455653E-02
    0.4300000000E+02    0.1286400262E-04    0.6680287585E+00    0.5229584894E-04    0.2239867910E-04    0.4217378698E-02
    0.4500000000E+02    0.1323210181E-04    0.6692228344E+00    0.5432373408E-04    0.2334498168E-04    0.4217288754E-02
    0.4700000000E+02    0.1360148599E-04    0.6703190305E+00    0.5635117558E-04    0.2428864726E-04    0.4217187304E-02
    0.4900000000E+02    0.1397203010E-04    0.6713289077E+00    0.5837799123E-04    0.2522985855E-04    0.4217075608E-02
    0.1000000000E+02    0.7183251649E-05    0.5898807924E+00    0.1965881228E-04    0.6071891833E-05    0.4212735728E-02
    0.3000000000E+02    0.1051479570E-04    0.6566059685E+00    0.3912858197E-04    0.1616708204E-04    0.4217547123E-02
    0.5000000000E+02    0.1415770229E-04    0.6718046013E+00    0.5939111973E-04    0.2569959639E-04    0.4217016261E-02
    0.7000000000E+02    0.1791157633E-04    0.6785357366E+00    0.7960266729E-04    0.3499913948E-04    0.4215486225E-02
    0.9000000000E+02    0.2171274734E-04    0.6823337612E+00    0.9972068108E-04    0.4417880858E-04    0.4213575749E-02
    0.1100000000E+03    0.2554158924E-04    0.6847728211E+00    0.1197795004E-03    0.5329586007E-04    0.4211473711E-02
    0.1300000000E+03    0.2939181233E-04    0.6864715782E+00    0.1398175416E-03    0.6238481473E-04    0.4209258091E-02
    0.1500000000E+03    0.3326189490E-04    0.6877226500E+00    0.1598676442E-03    0.7146878395E-04    0.4206966980E-02
    0.1700000000E+03    0.3715219309E-04    0.6886823931E+00    0.1799567733E-03    0.8056438741E-04    0.4204621080E-02
    0.1900000000E+03    0.4106382897E-04    0.6894419462E+00    0.2001071326E-03    0.8968422454E-04    0.4202232481E-02
    0.2100000000E+03    0.4499822452E-04    0.6900580232E+00    0.2203372671E-03    0.9883824776E-04    0.4199808608E-02
    0.2300000000E+03    0.4895689624E-04    0.6905677640E+00    0.2406629332E-03    0.1080345843E-03    0.4197354174E-02
    0.2500000000E+03    0.5294136329E-04    0.6909965085E+00    0.2610977491E-03    0.1172800568E-03    0.4194872233E-02
    0.2700000000E+03    0.5695310769E-04    0.6913621380E+00    0.2816536776E-03    0.1265805281E-03    0.4192364780E-02
    0.2900000000E+03    0.6099355924E-04    0.6916776312E+00    0.3023413864E-03    0.1359411391E-03    0.4189833105E-02
    0.3100000000E+03    0.6506409216E-04    0.6919526367E+00    0.3231705190E-03    0.1453664770E-03    0.4187278022E-02
    0.3300000000E+03    0.6916602742E-04    0.6921944768E+00    0.3441499022E-03    0.1548606979E-03    0.4184700010E-02
    0.3500000000E+03    0.7330063743E-04    0.6924088084E+00    0.3652877072E-03    0.1644276185E-03    0.4182099308E-02
    0.3700000000E+03    0.7746915174E-04    0.6926000713E+00    0.3865915746E-03    0.1740707857E-03    0.4179475980E-02
    0.3900000000E+03    0.8167276276E-04    0.6927717986E+00    0.4080687149E-03    0.1837935302E-03    0.4176829963E-02
    0.4100000000E+03    0.8591263133E-04    0.6929268372E+00    0.4297259888E-03    0.1935990091E-03    0.4174161092E-02
    0.4300000000E+03    0.9018989184E-04    0.6930675062E+00    0.4515699721E-03    0.2034902394E-03    0.4171469133E-02
    0.4500000000E+03    0.9450565686E-04    0.6931957143E+00    0.4736070096E-03    0.2134701255E-03    0.4168753787E-02
    0.4700000000E+03    0.9886102141E-04    0.6933130463E+00    0.4958432592E-03    0.2235414812E-03    0.4166014714E-02
    0.4900000000E+03    0.1032570667E-03    0.6934208295E+00    0.5182847292E-03    0.2337070485E-03    0.4163251533E-02
    0.1000000000E+03    0.2362427009E-04    0.6836731004E+00    0.1097549870E-03    0.4874265149E-04    0.4212542429E-02
    0.3000000000E+03    0.6302498177E-04    0.6918196918E+00    0.3127377060E-03    0.1406454485E-03    0.4188558453E-02
    0.5000000000E+03    0.1054706796E-03    0.6934714972E+00    0.5295842665E-03    0.2388260026E-03    0.4161860775E-02
    0.7000000000E+03    0.1521391387E-03    0.6941814399E+00    0.7677576321E-03    0.3467927542E-03    0.4132667107E-02
    0.9000000000E+03    0.2041168548E-03    0.6945762560E+00    0.1033062344E-02    0.4671907140E-03    0.4100472679E-02
    0.1100000000E+04    0.2626034461E-03    0.6948275897E+00    0.1331730429E-02    0.6028620643E-03    0.4064635257E-02
    0.1300000000E+04    0.3290344134E-03    0.6950015928E+00    0.1671169828E-02    0.7571919140E-03    0.4024372657E-02
    0.1500000000E+04    0.4051940071E-03    0.6951291733E+00    0.2060573416E-02    0.9343871768E-03    0.3978716524E-02
    0.1700000000E+04    0.4933514298E-03    0.6952267065E+00    0.2511631215E-02    0.1139803468E-02    0.3926446298E-02
    0.1900000000E+04    0.5964427256E-03    0.6953036780E+00    0.3039474660E-02    0.1380379545E-02    0.3865999304E-02
    0.2100000000E+04    0.7183230425E-03    0.6953659616E+00    0.3663984851E-02    0.1665240321E-02    0.3795347367E-02
    0.2300000000E+04    0.8641214050E-03    0.6954173892E+00    0.4411633941E-02    0.2006547068E-02    0.3711826846E-02
    0.2500000000E+04    0.1040739331E-02    0.6954605667E+00    0.5318077614E-02    0.2420696840E-02    0.3611906639E-02
    0.2700000000E+04    0.1257538571E-02    0.6954973281E+00    0.6431740657E-02    0.2929985915E-02    0.3490881791E-02
    0.2900000000E+04    0.1527240170E-02    0.6955290015E+00    0.7818525657E-02    0.3564803926E-02    0.3342501744E-02
    0.3100000000E+04    0.1866944291E-02    0.6955565725E+00    0.9567205881E-02    0.4366169817E-02    0.3158616899E-02
    0.3300000000E+04    0.2298818136E-02    0.6955807874E+00    0.1179321385E-01    0.5387579736E-02    0.2929136953E-02
    0.3500000000E+04    0.2849058901E-02    0.6956022222E+00    0.1463369813E-01    0.6692920406E-02    0.2643090221E-02
    0.3700000000E+04    0.3541883542E-02    0.6956213282E+00    0.1821709571E-01    0.8342757035E-02    0.2292442226E-02
    0.3900000000E+04    0.4383658377E-02    0.6956384641E+00    0.2258172656E-01    0.1035716179E-01    0.1880767377E-02
    0.4100000000E+04    0.5337510438E-02    0.6956539186E+00    0.2754423797E-01    0.1265504240E-01    0.1435301108E-02
    0.4300000000E+04    0.6310271590E-02    0.6956679266E+00    0.3262948911E-01    0.1502070417E-01    0.1009705194E-02
    0.4500000000E+04    0.7187611499E-02    0.6956806813E+00    0.3724810130E-01    0.1718372309E-01    0.6611465132E-03
    0.4700000000E+04    0.7900534649E-02    0.6956923431E+00    0.4103914612E-01    0.1897614802E-01    0.4162713281E-03
    0.4900000000E+04    0.8449867346E-02    0.6957030459E+00    0.4400024168E-01    0.2039393217E-01    0.2643293453E-03
    0.1000000000E+04    0.2324636174E-03    0.6947144853E+00    0.1177797520E-02    0.5329215704E-03    0.4083054506E-02
    0.3000000000E+04    0.1687076919E-02    0.6955432485E+00    0.8641051721E-02    0.3941624800E-02    0.3255586669E-02
    0.5000000000E+04    0.8675201588E-02    0.6957080738E+00    0.4522990065E-01    0.2098931673E-01    0.2146228114E-03
    0.7000000000E+04    0.1122146188E-01    0.6957782437E+00    0.5998651756E-01    0.2851938178E-01    0.8016047070E-04
    0.9000000000E+04    0.1301432635E-01    0.6958169558E+00    0.7125627639E-01    0.3466321779E-01    0.8107559729E-04
    0.1100000000E+05    0.1444471292E-01    0.6958414142E+00    0.8091878911E-01    0.4022772488E-01    0.8198574557E-04
    0.1300000000E+05    0.1559361661E-01    0.6958582228E+00    0.8929190351E-01    0.4531590605E-01    0.8275138209E-04
    0.1500000000E+05    0.1652047223E-01    0.6958704570E+00    0.9661302191E-01    0.5000571189E-01    0.8341279542E-04
    0.1700000000E+05    0.1727000176E-01    0.6958797414E+00    0.1030644943E+00    0.5435804497E-01    0.8399555221E-04
    0.1900000000E+05    0.1787640025E-01    0.6958870145E+00    0.1087887129E+00    0.5842126337E-01    0.8451677696E-04
    0.2100000000E+05    0.1836618511E-01    0.6958928560E+00    0.1138984968E+00    0.6223431541E-01    0.8498851236E-04
    0.2300000000E+05    0.1876017898E-01    0.6958976432E+00    0.1184843991E+00    0.6582897089E-01    0.8541955593E-04
    0.2500000000E+05    0.1907491642E-01    0.6959016319E+00    0.1226199494E+00    0.6923144029E-01    0.8581653398E-04
    0.2700000000E+05    0.1932365921E-01    0.6959050020E+00    0.1263654816E+00    0.7246357005E-01    0.8618456425E-04
    0.2900000000E+05    0.1951714076E-01    0.6959078831E+00    0.1297709727E+00    0.7554373877E-01    0.8652768324E-04
    0.3100000000E+05    0.1966411948E-01    0.6959103713E+00    0.1328781791E+00    0.7848753863E-01    0.8684913180E-04
    0.3300000000E+05    0.1977179547E-01    0.6959125394E+00    0.1357222642E+00    0.8130830015E-01    0.8715155215E-04
    0.3500000000E+05    0.1984612802E-01    0.6959144431E+00    0.1383330541E+00    0.8401750103E-01    0.8743712729E-04
    0.3700000000E+05    0.1989208005E-01    0.6959161262E+00    0.1407360158E+00    0.8662508815E-01    0.8770768202E-04
    0.3900000000E+05    0.1991380818E-01    0.6959176233E+00    0.1429530288E+00    0.8913973359E-01    0.8796475751E-04
    0.4100000000E+05    0.1991481187E-01    0.6959189624E+00    0.1450029969E+00    0.9156904016E-01    0.8820966741E-04
    0.4300000000E+05    0.1989805146E-01    0.6959201658E+00    0.1469023397E+00    0.9391970766E-01    0.8844354074E-04
    0.4500000000E+05    0.1986604227E-01    0.6959212523E+00    0.1486653887E+00    0.9619766857E-01    0.8866735504E-04
    0.4700000000E+05    0.1982093016E-01    0.6959222371E+00    0.1503047110E+00    0.9840819949E-01    0.8888196241E-04
    0.4900000000E+05    0.1976455267E-01    0.6959231330E+00    0.1518313733E+00    0.1005560133E+00    0.8908811023E-04
    0.1000000000E+05    0.1376914766E-01    0.6958304298E+00    0.7626624480E-01    0.3751071264E-01    0.8155204182E-04
    0.3000000000E+05    0.1959596058E-01    0.6959091713E+00    0.1313595255E+00    0.7703180392E-01    0.8669093902E-04
    0.5000000000E+05    0.1973264177E-01    0.6959235511E+00    0.1525555595E+00    0.1016077391E+00    0.8918822085E-04
    0.7000000000E+05    0.1878729752E-01    0.6959291395E+00    0.1629906081E+00    0.1201780391E+00    0.9087211456E-04
    0.9000000000E+05    0.1763641694E-01    0.6959319226E+00    0.1686458598E+00    0.1354516976E+00    0.9215047458E-04
    0.1100000000E+06    0.1650714315E-01    0.6959334870E+00    0.1717766897E+00    0.1486052285E+00    0.9318409668E-04
    0.1300000000E+06    0.1546174157E-01    0.6959344257E+00    0.1734262768E+00    0.1602592695E+00    0.9405338719E-04
    0.1500000000E+06    0.1451244918E-01    0.6959350072E+00    0.1741439054E+00    0.1707839833E+00    0.9480446999E-04
    0.1700000000E+06    0.1365534199E-01    0.6959353696E+00    0.1742459655E+00    0.1804196096E+00    0.9546631425E-04
    0.1900000000E+06    0.1288165002E-01    0.6959355903E+00    0.1739270839E+00    0.1893319697E+00    0.9605833134E-04
    0.2100000000E+06    0.1218177102E-01    0.6959357158E+00    0.1733131337E+00    0.1976409989E+00    0.9659417690E-04
    0.2300000000E+06    0.1154668089E-01    0.6959357751E+00    0.1724887806E+00    0.2054366826E+00    0.9708382943E-04
    0.2500000000E+06    0.1096836308E-01    0.6959357876E+00    0.1715127910E+00    0.2127885534E+00    0.9753480637E-04
    0.2700000000E+06    0.1043986309E-01    0.6959357663E+00    0.1704270099E+00    0.2197516534E+00    0.9795291480E-04
    0.2900000000E+06    0.9955206428E-02    0.6959357203E+00    0.1692618657E+00    0.2263704408E+00    0.9834273552E-04
    0.3100000000E+06    0.9509275910E-02    0.6959356559E+00    0.1680398735E+00    0.2326814422E+00    0.9870794688E-04
    0.3300000000E+06    0.9097686533E-02    0.6959355781E+00    0.1667779347E+00    0.2387151091E+00    0.9905154813E-04
    0.3500000000E+06    0.8716671831E-02    0.6959354901E+00    0.1654888898E+00    0.2444971510E+00    0.9937601745E-04
    0.3700000000E+06    0.8362985781E-02    0.6959353947E+00    0.1641825898E+00    0.2500495146E+00    0.9968342655E-04
    0.3900000000E+06    0.8033820102E-02    0.6959352938E+00    0.1628666528E+00    0.2553911177E+00    0.9997552527E-04
    0.4100000000E+06    0.7726735331E-02    0.6959351888E+00    0.1615470061E+00    0.2605384080E+00    0.1002538052E-03
    0.4300000000E+06    0.7439603643E-02    0.6959350811E+00    0.1602282824E+00    0.2655057966E+00    0.1005195484E-03
    0.4500000000E+06    0.7170561478E-02    0.6959349714E+00    0.1589141131E+00    0.2703059971E+00    0.1007738649E-03
    0.4700000000E+06    0.6917970240E-02    0.6959348605E+00    0.1576073477E+00    0.2749502961E+00    0.1010177225E-03
    0.4900000000E+06    0.6680383622E-02    0.6959347490E+00    0.1563102208E+00    0.2794487698E+00    0.1012519698E-03
    0.1000000000E+06    0.1706332612E-01    0.6959328086E+00    0.1704451919E+00    0.1422466475E+00    0.9269173456E-04
    0.3000000000E+06    0.9727690219E-02    0.6959356900E+00    0.1686568088E+00    0.2295623868E+00    0.9852821611E-04
    0.5000000000E+06    0.6566810851E-02    0.6959346931E+00    0.1556658339E+00    0.2816461842E+00    0.1013657270E-03
    0.7000000000E+06    0.4838054286E-02    0.6959336080E+00    0.1435410378E+00    0.3197215745E+00    0.1032792274E-03
    0.9000000000E+06    0.3755722134E-02    0.6959326374E+00    0.1329913527E+00    0.3496891748E+00    0.1047319619E-03
    0.1100000000E+07    0.3020190045E-02    0.6959317835E+00    0.1238590317E+00    0.3742478096E+00    0.1059066036E-03
    0.1300000000E+07    0.2491880934E-02    0.6959310273E+00    0.1159066673E+00    0.3949088078E+00    0.1068945085E-03
    0.1500000000E+07    0.2096862683E-02    0.6959303508E+00    0.1089264716E+00    0.4126202881E+00    0.1077480850E-03
    0.1700000000E+07    0.1792318017E-02    0.6959297395E+00    0.1027512021E+00    0.4280221656E+00    0.1085002508E-03
    0.1900000000E+07    0.1551762852E-02    0.6959291822E+00    0.9724831008E-01    0.4415690056E+00    0.1091730638E-03
    0.2100000000E+07    0.1357964618E-02    0.6959286703E+00    0.9231243989E-01    0.4535961783E+00    0.1097820418E-03
    0.2300000000E+07    0.1199249533E-02    0.6959281968E+00    0.8785913314E-01    0.4643584635E+00    0.1103385240E-03
    0.2500000000E+07    0.1067445216E-02    0.6959277565E+00    0.8381999855E-01    0.4740539939E+00    0.1108510535E-03
    0.2700000000E+07    0.9566717033E-03    0.6959273449E+00    0.8013909177E-01    0.4828398281E+00    0.1113262293E-03
    0.2900000000E+07    0.8625991633E-03    0.6959269586E+00    0.7677020697E-01    0.4908424765E+00    0.1117692571E-03
    0.3100000000E+07    0.7819751013E-03    0.6959265944E+00    0.7367483789E-01    0.4981652422E+00    0.1121843173E-03
    0.3300000000E+07    0.7123136328E-03    0.6959262500E+00    0.7082062851E-01    0.5048934780E+00    0.1125748182E-03
    0.3500000000E+07    0.6516856902E-03    0.6959259233E+00    0.6818018335E-01    0.5110984354E+00    0.1129435762E-03
    0.3700000000E+07    0.5985740037E-03    0.6959256126E+00    0.6573014459E-01    0.5168401388E+00    0.1132929456E-03
    0.3900000000E+07    0.5517707605E-03    0.6959253163E+00    0.6345046867E-01    0.5221695656E+00    0.1136249150E-03
    0.4100000000E+07    0.5103040428E-03    0.6959250331E+00    0.6132385397E-01    0.5271303273E+00    0.1139411797E-03
    0.4300000000E+07    0.4733840759E-03    0.6959247619E+00    0.5933528375E-01    0.5317599801E+00    0.1142431966E-03
    0.4500000000E+07    0.4403633681E-03    0.6959245016E+00    0.5747165824E-01    0.5360910604E+00    0.1145322272E-03
    0.4700000000E+07    0.4107067517E-03    0.6959242515E+00    0.5572149597E-01    0.5401519110E+00    0.1148093713E-03
    0.4900000000E+07    0.3839685933E-03    0.6959240107E+00    0.5407468962E-01    0.5439673463E+00    0.1150755935E-03
    0.1000000000E+07    0.3355509797E-02    0.6959321970E+00    0.1282631512E+00    0.3625324457E+00    0.1053470646E-03
    0.3000000000E+07    0.8207765639E-03    0.6959267739E+00    0.7519048392E-01    0.4945831402E+00    0.1119800545E-03
    0.5000000000E+07    0.3715747579E-03    0.6959238936E+00    0.5328721194E-01    0.5457899580E+00    0.1152048787E-03
    0.7000000000E+07    0.2117625465E-03    0.6959219087E+00    0.4126065129E-01    0.5734872306E+00    0.1173795761E-03
    0.9000000000E+07    0.1367138685E-03    0.6959203863E+00    0.3365078065E-01    0.5908940525E+00    0.1190306142E-03
    0.1100000000E+08    0.9550772101E-04    0.6959191480E+00    0.2840125129E-01    0.6028556459E+00    0.1203655995E-03
    0.1300000000E+08    0.7046466508E-04    0.6959181024E+00    0.2456168703E-01    0.6115829724E+00    0.1214883578E-03
    0.1500000000E+08    0.5411401817E-04    0.6959171964E+00    0.2163171043E-01    0.6182315153E+00    0.1224584512E-03
    0.1700000000E+08    0.4285297795E-04    0.6959163964E+00    0.1932267044E-01    0.6234646120E+00    0.1233132909E-03
    0.1900000000E+08    0.3476940429E-04    0.6959156795E+00    0.1745634250E-01    0.6276904397E+00    0.1240779457E-03
    0.2100000000E+08    0.2877165883E-04    0.6959150298E+00    0.1591672779E-01    0.6311739945E+00    0.1247700515E-03
    0.2300000000E+08    0.2419960593E-04    0.6959144354E+00    0.1462507747E-01    0.6340948279E+00    0.1254024957E-03
    0.2500000000E+08    0.2063498700E-04    0.6959138875E+00    0.1352605371E-01    0.6365789200E+00    0.1259849872E-03
    0.2700000000E+08    0.1780236381E-04    0.6959133790E+00    0.1257963367E-01    0.6387172725E+00    0.1265250261E-03
