  Pressure (Pa) 22mC5-500 (mol/kg) 24mC5-500 (mol/kg) 2mC6-500 (mol/kg) 3mC6-500 (mol/kg) C7-500 (mol/kg)
    0.1000000000E+01    0.4846765363E-05    0.9949829937E-01    0.2890260862E-04    0.5107045275E-05    0.4146232524E-02
    0.3000000000E+01    0.1071534534E-04    0.2321061579E+00    0.6133807406E-04    0.1261648696E-04    0.4174192621E-02
    0.5000000000E+01    0.1409097540E-04    0.3164625030E+00    0.7876001801E-04    0.1943829409E-04    0.4183517383E-02
    0.7000000000E+01    0.1624083504E-04    0.3748511615E+00    0.8950970806E-04    0.2594061821E-04    0.4188661242E-02
    0.9000000000E+01    0.1771840096E-04    0.4176643942E+00    0.9698585788E-04    0.3224487479E-04    0.4191859301E-02
    0.1100000000E+02    0.1879928610E-04    0.4504016067E+00    0.1027622111E-03    0.3841106410E-04    0.4193933854E-02
    0.1300000000E+02    0.1963358970E-04    0.4762457144E+00    0.1076309790E-03    0.4447458318E-04    0.4195286703E-02
    0.1500000000E+02    0.2030864334E-04    0.4971666737E+00    0.1120151476E-03    0.5045859782E-04    0.4196144219E-02
    0.1700000000E+02    0.2087791149E-04    0.5144490388E+00    0.1161502469E-03    0.5637935227E-04    0.4196645607E-02
    0.1900000000E+02    0.2137547051E-04    0.5289662056E+00    0.1201712695E-03    0.6224881527E-04    0.4196881827E-02
    0.2100000000E+02    0.2182375743E-04    0.5413327333E+00    0.1241569427E-03    0.6807614111E-04    0.4196915067E-02
    0.2300000000E+02    0.2223794432E-04    0.5519936184E+00    0.1281534436E-03    0.7386853933E-04    0.4196789381E-02
    0.2500000000E+02    0.2262851892E-04    0.5612790035E+00    0.1321876329E-03    0.7963182348E-04    0.4196536887E-02
    0.2700000000E+02    0.2300286463E-04    0.5694389876E+00    0.1362746921E-03    0.8537077353E-04    0.4196181569E-02
    0.2900000000E+02    0.2336625879E-04    0.5766664988E+00    0.1404226526E-03    0.9108938433E-04    0.4195741699E-02
    0.3100000000E+02    0.2372252091E-04    0.5831127481E+00    0.1446351441E-03    0.9679104152E-04    0.4195231446E-02
    0.3300000000E+02    0.2407444360E-04    0.5888979273E+00    0.1489130920E-03    0.1024786492E-03    0.4194661961E-02
    0.3500000000E+02    0.2442408504E-04    0.5941187751E+00    0.1532557807E-03    0.1081547247E-03    0.4194042140E-02
    0.3700000000E+02    0.2477297123E-04    0.5988540320E+00    0.1576615264E-03    0.1138214708E-03    0.4193379162E-02
    0.3900000000E+02    0.2512223806E-04    0.6031684397E+00    0.1621281056E-03    0.1194808307E-03    0.4192678881E-02
    0.4100000000E+02    0.2547273252E-04    0.6071157205E+00    0.1666530275E-03    0.1251345316E-03    0.4191946119E-02
    0.4300000000E+02    0.2582508589E-04    0.6107408253E+00    0.1712337071E-03    0.1307841189E-03    0.4191184878E-02
    0.4500000000E+02    0.2617976714E-04    0.6140816543E+00    0.1758675738E-03    0.1364309843E-03    0.4190398504E-02
    0.4700000000E+02    0.2653712235E-04    0.6171703871E+00    0.1805521373E-03    0.1420763872E-03    0.4189589820E-02
    0.4900000000E+02    0.2689740412E-04    0.6200345225E+00    0.1852850263E-03    0.1477214741E-03    0.4188761218E-02
    0.1000000000E+02    0.1829708117E-04    0.4350562535E+00    0.1000251648E-03    0.3534263662E-04    0.4193006162E-02
    0.3000000000E+02    0.2354508672E-04    0.5799791432E+00    0.1425207256E-03    0.9394214058E-04    0.4195494613E-02
    0.5000000000E+02    0.2707870138E-04    0.6213898854E+00    0.1876688896E-03    0.1505442301E-03    0.4188340097E-02
    0.7000000000E+02    0.3087982629E-04    0.6410080705E+00    0.2374227138E-03    0.2071973372E-03    0.4179237368E-02
    0.9000000000E+02    0.3500599311E-04    0.6524531440E+00    0.2903262264E-03    0.2646361203E-03    0.4169331986E-02
    0.1100000000E+03    0.3942205478E-04    0.6599522031E+00    0.3457591455E-03    0.3232708546E-03    0.4158938723E-02
    0.1300000000E+03    0.4410037424E-04    0.6652459661E+00    0.4034884198E-03    0.3833865627E-03    0.4148163557E-02
    0.1500000000E+03    0.4902535674E-04    0.6691825376E+00    0.4634558238E-03    0.4452103257E-03    0.4137041275E-02
    0.1700000000E+03    0.5419019786E-04    0.6722245492E+00    0.5256901638E-03    0.5089404401E-03    0.4125577396E-02
    0.1900000000E+03    0.5959411872E-04    0.6746458178E+00    0.5902687356E-03    0.5747612334E-03    0.4113763610E-02
    0.2100000000E+03    0.6524058368E-04    0.6766187548E+00    0.6572993263E-03    0.6428515556E-03    0.4101584216E-02
    0.2300000000E+03    0.7113620761E-04    0.6782573314E+00    0.7269114760E-03    0.7133901673E-03    0.4089019025E-02
    0.2500000000E+03    0.7729009417E-04    0.6796399059E+00    0.7992522349E-03    0.7865594897E-03    0.4076044725E-02
    0.2700000000E+03    0.8371344152E-04    0.6808221256E+00    0.8744842552E-03    0.8625484523E-03    0.4062635522E-02
    0.2900000000E+03    0.9041931730E-04    0.6818445993E+00    0.9527851838E-03    0.9415548367E-03    0.4048763409E-02
    0.3100000000E+03    0.9742254486E-04    0.6827376558E+00    0.1034347831E-02    0.1023787347E-02    0.4034398233E-02
    0.3300000000E+03    0.1047396657E-03    0.6835244032E+00    0.1119380845E-02    0.1109467552E-02    0.4019507648E-02
    0.3500000000E+03    0.1123889572E-03    0.6842227574E+00    0.1208109752E-02    0.1198831790E-02    0.4004056994E-02
    0.3700000000E+03    0.1203904922E-03    0.6848468225E+00    0.1300778280E-02    0.1292133111E-02    0.3988009125E-02
    0.3900000000E+03    0.1287662340E-03    0.6854078535E+00    0.1397649937E-02    0.1389643299E-02    0.3971324192E-02
    0.4100000000E+03    0.1375401606E-03    0.6859149412E+00    0.1499009833E-02    0.1491655025E-02    0.3953959402E-02
    0.4300000000E+03    0.1467384176E-03    0.6863755084E+00    0.1605166733E-02    0.1598484165E-02    0.3935868737E-02
    0.4500000000E+03    0.1563894973E-03    0.6867956759E+00    0.1716455372E-02    0.1710472314E-02    0.3917002645E-02
    0.4700000000E+03    0.1665244464E-03    0.6871805355E+00    0.1833239033E-02    0.1827989538E-02    0.3897307695E-02
    0.4900000000E+03    0.1771771005E-03    0.6875343583E+00    0.1955912422E-02    0.1951437396E-02    0.3876726205E-02
    0.1000000000E+03    0.3717982753E-04    0.6565563424E+00    0.3177467654E-03    0.2937843178E-03    0.4164187216E-02
    0.3000000000E+03    0.9388276851E-04    0.6823057188E+00    0.9931461339E-03    0.9822543020E-03    0.4041644423E-02
    0.5000000000E+03    0.1827089678E-03    0.6877007808E+00    0.2019590479E-02    0.2015520223E-02    0.3866083716E-02
    0.7000000000E+03    0.3319564101E-03    0.6900391579E+00    0.3734936316E-02    0.3743165443E-02    0.3587784453E-02
    0.9000000000E+03    0.6111051280E-03    0.6913450741E+00    0.6944179592E-02    0.6983418278E-02    0.3096525486E-02
    0.1100000000E+04    0.1172106383E-02    0.6921786230E+00    0.1341573361E-01    0.1354481580E-01    0.2182196598E-02
    0.1300000000E+04    0.2060963760E-02    0.6927568183E+00    0.2375338246E-01    0.2411247244E-01    0.9208008928E-03
    0.1500000000E+04    0.2737977659E-02    0.6931813962E+00    0.3179289730E-01    0.3249617024E-01    0.2431654706E-03
    0.1700000000E+04    0.3105189487E-02    0.6935063863E+00    0.3633454570E-01    0.3741100483E-01    0.1013992200E-03
    0.1900000000E+04    0.3377957764E-02    0.6937631403E+00    0.3982853023E-01    0.4130912429E-01    0.8067134995E-04
    0.2100000000E+04    0.3620947084E-02    0.6939711005E+00    0.4301585399E-01    0.4493779734E-01    0.7809674118E-04
    0.2300000000E+04    0.3846138000E-02    0.6941429639E+00    0.4603154376E-01    0.4843130686E-01    0.7806711281E-04
    0.2500000000E+04    0.4056332843E-02    0.6942873744E+00    0.4890451137E-01    0.5181598763E-01    0.7837546293E-04
    0.2700000000E+04    0.4252828241E-02    0.6944104201E+00    0.5164643548E-01    0.5510076457E-01    0.7871036059E-04
    0.2900000000E+04    0.4436616043E-02    0.6945165130E+00    0.5426574826E-01    0.5829148084E-01    0.7902953639E-04
    0.3100000000E+04    0.4608575207E-02    0.6946089286E+00    0.5676985765E-01    0.6139316748E-01    0.7932924526E-04
    0.3300000000E+04    0.4769507963E-02    0.6946901500E+00    0.5916554393E-01    0.6441043070E-01    0.7961100634E-04
    0.3500000000E+04    0.4920151158E-02    0.6947620933E+00    0.6145906588E-01    0.6734754026E-01    0.7987677770E-04
    0.3700000000E+04    0.5061183085E-02    0.6948262611E+00    0.6365621646E-01    0.7020846733E-01    0.8012830251E-04
    0.3900000000E+04    0.5193229043E-02    0.6948838482E+00    0.6576236609E-01    0.7299691178E-01    0.8036706629E-04
    0.4100000000E+04    0.5316866226E-02    0.6949358167E+00    0.6778250037E-01    0.7571632545E-01    0.8059433437E-04
    0.4300000000E+04    0.5432628068E-02    0.6949829496E+00    0.6972125371E-01    0.7836993305E-01    0.8081119168E-04
    0.4500000000E+04    0.5541008149E-02    0.6950258913E+00    0.7158293945E-01    0.8096075074E-01    0.8101857528E-04
    0.4700000000E+04    0.5642463688E-02    0.6950651762E+00    0.7337157695E-01    0.8349160307E-01    0.8121730016E-04
    0.4900000000E+04    0.5737418695E-02    0.6951012518E+00    0.7509091608E-01    0.8596513818E-01    0.8140807958E-04
    0.1000000000E+04    0.8438706315E-03    0.6918032865E+00    0.9625412692E-02    0.9697631721E-02    0.2706712068E-02
    0.3000000000E+04    0.4524022438E-02    0.6945642598E+00    0.5553176658E-01    0.5985315650E-01    0.7918175761E-04
    0.5000000000E+04    0.5782582620E-02    0.6951182064E+00    0.7592570234E-01    0.8718119451E-01    0.8150068892E-04
    0.7000000000E+04    0.6426460441E-02    0.6953554579E+00    0.8972156639E-01    0.1090226886E+00    0.8305520419E-04
    0.9000000000E+04    0.6731357596E-02    0.6954870853E+00    0.9944223586E-01    0.1272076407E+00    0.8423213699E-04
    0.1100000000E+05    0.6839958113E-02    0.6955707099E+00    0.1064855146E+00    0.1428009897E+00    0.8518226527E-04
    0.1300000000E+05    0.6831342107E-02    0.6956284988E+00    0.1116856624E+00    0.1564696842E+00    0.8598053076E-04
    0.1500000000E+05    0.6751642130E-02    0.6956707959E+00    0.1155699405E+00    0.1686557842E+00    0.8666976203E-04
    0.1700000000E+05    0.6628837777E-02    0.6957030762E+00    0.1184870752E+00    0.1796658107E+00    0.8727678997E-04
    0.1900000000E+05    0.6480407630E-02    0.6957285082E+00    0.1206763834E+00    0.1897202582E+00    0.8781955987E-04
    0.2100000000E+05    0.6317512975E-02    0.6957490528E+00    0.1223071933E+00    0.1989826505E+00    0.8831067827E-04
    0.2300000000E+05    0.6147391556E-02    0.6957659879E+00    0.1235024288E+00    0.2075774179E+00    0.8875934692E-04
    0.2500000000E+05    0.5974779873E-02    0.6957801825E+00    0.1243532981E+00    0.2156013440E+00    0.8917249197E-04
    0.2700000000E+05    0.5802785509E-02    0.6957922474E+00    0.1249287615E+00    0.2231311475E+00    0.8955545979E-04
    0.2900000000E+05    0.5633436736E-02    0.6958026249E+00    0.1252818157E+00    0.2302286536E+00    0.8991246525E-04
    0.3100000000E+05    0.5468036825E-02    0.6958116429E+00    0.1254537758E+00    0.2369444123E+00    0.9024689109E-04
    0.3300000000E+05    0.5307396989E-02    0.6958195497E+00    0.1254772572E+00    0.2433202877E+00    0.9056149429E-04
    0.3500000000E+05    0.5151992117E-02    0.6958265367E+00    0.1253782968E+00    0.2493913486E+00    0.9085855203E-04
    0.3700000000E+05    0.5002066390E-02    0.6958327538E+00    0.1251778866E+00    0.2551872727E+00    0.9113996730E-04
    0.3900000000E+05    0.4857705777E-02    0.6958383201E+00    0.1248931024E+00    0.2607334079E+00    0.9140734698E-04
    0.4100000000E+05    0.4718888292E-02    0.6958433315E+00    0.1245379450E+00    0.2660515840E+00    0.9166206046E-04
    0.4300000000E+05    0.4585519112E-02    0.6958478658E+00    0.1241239768E+00    0.2711607438E+00    0.9190528443E-04
    0.4500000000E+05    0.4457455265E-02    0.6958519871E+00    0.1236608082E+00    0.2760774384E+00    0.9213803755E-04
    0.4700000000E+05    0.4334523050E-02    0.6958557486E+00    0.1231564738E+00    0.2808162202E+00    0.9236120767E-04
    0.4900000000E+05    0.4216530359E-02    0.6958591946E+00    0.1226177263E+00    0.2853899584E+00    0.9257557336E-04
    0.1000000000E+05    0.6804231150E-02    0.6955330969E+00    0.1032370876E+00    0.1352798528E+00    0.8472981859E-04
    0.3000000000E+05    0.5550183061E-02    0.6958072868E+00    0.1253882184E+00    0.2336314562E+00    0.9008231559E-04
    0.5000000000E+05    0.4159323463E-02    0.6958608112E+00    0.1223372654E+00    0.2876185614E+00    0.9267967230E-04
    0.7000000000E+05    0.3225921906E-02    0.6958831795E+00    0.1159202058E+00    0.3257422630E+00    0.9443044263E-04
    0.9000000000E+05    0.2583483047E-02    0.6958952830E+00    0.1092129002E+00    0.3552538159E+00    0.9575936663E-04
    0.1100000000E+06    0.2122059865E-02    0.6959027762E+00    0.1029019917E+00    0.3792286897E+00    0.9683377794E-04
    0.1300000000E+06    0.1778290327E-02    0.6959078171E+00    0.9713578844E-01    0.3993034526E+00    0.9773732200E-04
    0.1500000000E+06    0.1514444009E-02    0.6959114048E+00    0.9191221983E-01    0.4164693982E+00    0.9851797022E-04
    0.1700000000E+06    0.1306972951E-02    0.6959140643E+00    0.8718591403E-01    0.4313792591E+00    0.9920584772E-04
    0.1900000000E+06    0.1140532924E-02    0.6959160969E+00    0.8290216573E-01    0.4444885555E+00    0.9982113826E-04
    0.2100000000E+06    0.1004748217E-02    0.6959176876E+00    0.7900821381E-01    0.4561290478E+00    0.1003780397E-03
    0.2300000000E+06    0.8923786592E-03    0.6959189563E+00    0.7545670657E-01    0.4665503886E+00    0.1008869261E-03
    0.2500000000E+06    0.7982347719E-03    0.6959199836E+00    0.7220634388E-01    0.4759453609E+00    0.1013556126E-03
    0.2700000000E+06    0.7185102368E-03    0.6959208257E+00    0.6922151543E-01    0.4844659867E+00    0.1017901359E-03
    0.2900000000E+06    0.6503569079E-03    0.6959215231E+00    0.6647162991E-01    0.4922342475E+00    0.1021952577E-03
    0.3100000000E+06    0.5916060421E-03    0.6959221056E+00    0.6393040301E-01    0.4993494666E+00    0.1025748018E-03
    0.3300000000E+06    0.5405805915E-03    0.6959225954E+00    0.6157520204E-01    0.5058935411E+00    0.1029318856E-03
    0.3500000000E+06    0.4959658520E-03    0.6959230096E+00    0.5938647631E-01    0.5119347399E+00    0.1032690851E-03
    0.3700000000E+06    0.4567184788E-03    0.6959233615E+00    0.5734727487E-01    0.5175305192E+00    0.1035885536E-03
    0.3900000000E+06    0.4220013031E-03    0.6959236614E+00    0.5544284325E-01    0.5227296473E+00    0.1038921100E-03
    0.4100000000E+06    0.3911358578E-03    0.6959239178E+00    0.5366028797E-01    0.5275738329E+00    0.1041813046E-03
    0.4300000000E+06    0.3635672837E-03    0.6959241372E+00    0.5198829775E-01    0.5320989915E+00    0.1044574699E-03
    0.4500000000E+06    0.3388380342E-03    0.6959243252E+00    0.5041691158E-01    0.5363362417E+00    0.1047217596E-03
    0.4700000000E+06    0.3165679293E-03    0.6959244863E+00    0.4893732539E-01    0.5403126982E+00    0.1049751796E-03
    0.4900000000E+06    0.2964388542E-03    0.6959246242E+00    0.4754173023E-01    0.5440521094E+00    0.1052186119E-03
    0.1000000000E+06    0.2334895072E-02    0.6958994302E+00    0.1059928810E+00    0.3678103888E+00    0.9632199510E-04
    0.3000000000E+06    0.6199207648E-03    0.6959218272E+00    0.6517642714E-01    0.4958680105E+00    0.1023880178E-03
    0.5000000000E+06    0.2870917882E-03    0.6959246854E+00    0.4687322724E-01    0.5458395529E+00    0.1053368295E-03
    0.7000000000E+06    0.1655178908E-03    0.6959252273E+00    0.3657338451E-01    0.5731019176E+00    0.1073253410E-03
    0.9000000000E+06    0.1076350845E-03    0.6959251449E+00    0.2997082769E-01    0.5903420584E+00    0.1088350090E-03
    0.1100000000E+07    0.7557686964E-04    0.6959248455E+00    0.2537847781E-01    0.6022429767E+00    0.1100556788E-03
    0.1300000000E+07    0.5597515990E-04    0.6959244654E+00    0.2200023203E-01    0.6109559386E+00    0.1110822909E-03
    0.1500000000E+07    0.4311946562E-04    0.6959240586E+00    0.1941130894E-01    0.6176114327E+00    0.1119693093E-03
    0.1700000000E+07    0.3423445198E-04    0.6959236487E+00    0.1736434415E-01    0.6228613601E+00    0.1127509425E-03
    0.1900000000E+07    0.2783850742E-04    0.6959232466E+00    0.1570552047E-01    0.6271083397E+00    0.1134501132E-03
    0.2100000000E+07    0.2308188510E-04    0.6959228569E+00    0.1433416969E-01    0.6306145624E+00    0.1140829474E-03
    0.2300000000E+07    0.1944881084E-04    0.6959224818E+00    0.1318164569E-01    0.6335581397E+00    0.1146612290E-03
    0.2500000000E+07    0.1661148435E-04    0.6959221216E+00    0.1219953270E-01    0.6360643189E+00    0.1151938355E-03
    0.2700000000E+07    0.1435347571E-04    0.6959217762E+00    0.1135270636E-01    0.6382237462E+00    0.1156876249E-03
    0.2900000000E+07    0.1252722043E-04    0.6959214451E+00    0.1061506715E-01    0.6401036452E+00    0.1161480068E-03
    0.3100000000E+07    0.1102930535E-04    0.6959211274E+00    0.9966817848E-02    0.6417549234E+00    0.1165793253E-03
    0.3300000000E+07    0.9785516102E-05    0.6959208224E+00    0.9392670357E-02    0.6432168394E+00    0.1169851223E-03
    0.3500000000E+07    0.8741475754E-05    0.6959205293E+00    0.8880631655E-02    0.6445201539E+00    0.1173683246E-03
    0.3700000000E+07    0.7856606594E-05    0.6959202473E+00    0.8421161853E-02    0.6456893111E+00    0.1177313788E-03
    0.3900000000E+07    0.7100132234E-05    0.6959199757E+00    0.8006577800E-02    0.6467439799E+00    0.1180763513E-03
    0.4100000000E+07    0.6448368478E-05    0.6959197139E+00    0.7630622552E-02    0.6477001662E+00    0.1184050039E-03
    0.4300000000E+07    0.5882849139E-05    0.6959194611E+00    0.7288149299E-02    0.6485710268E+00    0.1187188505E-03
    0.4500000000E+07    0.5389005166E-05    0.6959192168E+00    0.6974885750E-02    0.6493674765E+00    0.1190192021E-03
    0.4700000000E+07    0.4955217981E-05    0.6959189806E+00    0.6687256062E-02    0.6500986460E+00    0.1193072015E-03
    0.4900000000E+07    0.4572130593E-05    0.6959187518E+00    0.6422244570E-02    0.6507722318E+00    0.1195838512E-03
    0.1000000000E+07    0.8948896287E-04    0.6959250108E+00    0.2748541825E-01    0.5967914082E+00    0.1094742150E-03
    0.3000000000E+07    0.1174241303E-04    0.6959212846E+00    0.1028081351E-01    0.6409551779E+00    0.1163670613E-03
    0.5000000000E+07    0.4397165767E-05    0.6959186400E+00    0.6297404963E-02    0.6510895118E+00    0.1197182003E-03
    0.7000000000E+07    0.2295405523E-05    0.6959167071E+00    0.4530857723E-02    0.6555776126E+00    0.1219780753E-03
    0.9000000000E+07    0.1414879209E-05    0.6959151840E+00    0.3534830153E-02    0.6581072874E+00    0.1236937788E-03
    0.1100000000E+08    0.9641221839E-06    0.6959139253E+00    0.2895984876E-02    0.6597297828E+00    0.1250810496E-03
    0.1300000000E+08    0.7026894573E-06    0.6959128509E+00    0.2451641461E-02    0.6608584207E+00    0.1262477807E-03
    0.1500000000E+08    0.5375133569E-06    0.6959119125E+00    0.2124833600E-02    0.6616886525E+00    0.1272558673E-03
    0.1700000000E+08    0.4264264770E-06    0.6959110788E+00    0.1874445118E-02    0.6623248650E+00    0.1281441859E-03
    0.1900000000E+08    0.3480697460E-06    0.6959103280E+00    0.1676521231E-02    0.6628278682E+00    0.1289387873E-03
    0.2100000000E+08    0.2906825166E-06    0.6959096447E+00    0.1516164383E-02    0.6632354788E+00    0.1296579981E-03
    0.2300000000E+08    0.2473545649E-06    0.6959090174E+00    0.1383625101E-02    0.6635724456E+00    0.1303152106E-03
    0.2500000000E+08    0.2138085769E-06    0.6959084373E+00    0.1272256086E-02    0.6638556433E+00    0.1309205139E-03
    0.2700000000E+08    0.1872813909E-06    0.6959078976E+00    0.1177369862E-02    0.6640969723E+00    0.1314817018E-03
