  Pressure (Pa) 22mC5-500 (mol/kg) 24mC5-500 (mol/kg) 2mC6-500 (mol/kg) 3mC6-500 (mol/kg) C7-500 (mol/kg)
    0.1000000000E+01    0.3696526315E-05    0.2142767348E+00    0.2340326523E-05    0.3091173973E-05    0.4196408997E-02
    0.3000000000E+01    0.6298039853E-05    0.3978345316E+00    0.3783394938E-05    0.7939662816E-05    0.4230188213E-02
    0.5000000000E+01    0.7263632674E-05    0.4800871421E+00    0.4338743156E-05    0.1240470598E-04    0.4244781806E-02
    0.7000000000E+01    0.7788037083E-05    0.5267623895E+00    0.4736216462E-05    0.1668323822E-04    0.4253130752E-02
    0.9000000000E+01    0.8159135435E-05    0.5568386891E+00    0.5111243917E-05    0.2084198035E-04    0.4258563979E-02
    0.1100000000E+02    0.8471386498E-05    0.5778338131E+00    0.5494710220E-05    0.2491440261E-04    0.4262383494E-02
    0.1300000000E+02    0.8761390847E-05    0.5933212007E+00    0.5892784462E-05    0.2892046375E-04    0.4265209737E-02
    0.1500000000E+02    0.9044748158E-05    0.6052168295E+00    0.6305114246E-05    0.3287333522E-04    0.4267377835E-02
    0.1700000000E+02    0.9328427146E-05    0.6146403354E+00    0.6729754503E-05    0.3678231536E-04    0.4269085484E-02
    0.1900000000E+02    0.9615541864E-05    0.6222898010E+00    0.7164602358E-05    0.4065429305E-04    0.4270457237E-02
    0.2100000000E+02    0.9907388495E-05    0.6286230859E+00    0.7607796454E-05    0.4449456119E-04    0.4271575684E-02
    0.2300000000E+02    0.1020437919E-04    0.6339529728E+00    0.8057792511E-05    0.4830730381E-04    0.4272497879E-02
    0.2500000000E+02    0.1050649360E-04    0.6385004114E+00    0.8513340248E-05    0.5209590486E-04    0.4273264581E-02
    0.2700000000E+02    0.1081350545E-04    0.6424259158E+00    0.8973435932E-05    0.5586315313E-04    0.4273905734E-02
    0.2900000000E+02    0.1112509909E-04    0.6458489060E+00    0.9437274782E-05    0.5961138340E-04    0.4274443867E-02
    0.3100000000E+02    0.1144092981E-04    0.6488600674E+00    0.9904210142E-05    0.6334257661E-04    0.4274896282E-02
    0.3300000000E+02    0.1176065486E-04    0.6515295031E+00    0.1037372046E-04    0.6705843299E-04    0.4275276499E-02
    0.3500000000E+02    0.1208394876E-04    0.6539122596E+00    0.1084538324E-04    0.7076042645E-04    0.4275595252E-02
    0.3700000000E+02    0.1241051010E-04    0.6560521633E+00    0.1131885463E-04    0.7444984601E-04    0.4275861178E-02
    0.3900000000E+02    0.1274006384E-04    0.6579845401E+00    0.1179385358E-04    0.7812782780E-04    0.4276081316E-02
    0.4100000000E+02    0.1307236115E-04    0.6597381816E+00    0.1227014935E-04    0.8179538014E-04    0.4276261461E-02
    0.4300000000E+02    0.1340717806E-04    0.6613367889E+00    0.1274755186E-04    0.8545340355E-04    0.4276406432E-02
    0.4500000000E+02    0.1374431352E-04    0.6628000500E+00    0.1322590395E-04    0.8910270674E-04    0.4276520276E-02
    0.4700000000E+02    0.1408358731E-04    0.6641444546E+00    0.1370507531E-04    0.9274401975E-04    0.4276606413E-02
    0.4900000000E+02    0.1442483793E-04    0.6653839184E+00    0.1418495768E-04    0.9637800465E-04    0.4276667762E-02
    0.1000000000E+02    0.8319598171E-05    0.5681933526E+00    0.5301279429E-05    0.2288752453E-04    0.4260627258E-02
    0.3000000000E+02    0.1128250652E-04    0.6474011762E+00    0.9670390590E-05    0.6147899751E-04    0.4274679869E-02
    0.5000000000E+02    0.1459615872E-04    0.6659680636E+00    0.1442513670E-04    0.9819243959E-04    0.4276689936E-02
    0.7000000000E+02    0.1809834283E-04    0.6742548987E+00    0.1925086265E-04    0.1342185543E-03    0.4276287112E-02
    0.9000000000E+02    0.2170035607E-04    0.6789481253E+00    0.2410288770E-04    0.1699687442E-03    0.4274919782E-02
    0.1100000000E+03    0.2536903229E-04    0.6819686826E+00    0.2897685219E-04    0.2056533740E-03    0.4273044695E-02
    0.1300000000E+03    0.2909069097E-04    0.6840754762E+00    0.3387640305E-04    0.2414010720E-03    0.4270856485E-02
    0.1500000000E+03    0.3285952533E-04    0.6856286319E+00    0.3880669717E-04    0.2772995637E-03    0.4268453473E-02
    0.1700000000E+03    0.3667329687E-04    0.6868210132E+00    0.4377283994E-04    0.3134134007E-03    0.4265891092E-02
    0.1900000000E+03    0.4053152499E-04    0.6877652249E+00    0.4877952502E-04    0.3497928707E-03    0.4263203059E-02
    0.2100000000E+03    0.4443465001E-04    0.6885314280E+00    0.5383100058E-04    0.3864789479E-03    0.4260411042E-02
    0.2300000000E+03    0.4838361774E-04    0.6891656146E+00    0.5893112257E-04    0.4235062563E-03    0.4257529531E-02
    0.2500000000E+03    0.5237966215E-04    0.6896991902E+00    0.6408342395E-04    0.4609049484E-03    0.4254568508E-02
    0.2700000000E+03    0.5642418701E-04    0.6901543309E+00    0.6929117905E-04    0.4987019522E-03    0.4251534985E-02
    0.2900000000E+03    0.6051869995E-04    0.6905471423E+00    0.7455745818E-04    0.5369218308E-03    0.4248433949E-02
    0.3100000000E+03    0.6466477508E-04    0.6908896031E+00    0.7988517240E-04    0.5755873950E-03    0.4245268963E-02
    0.3300000000E+03    0.6886403190E-04    0.6911908077E+00    0.8527710998E-04    0.6147201517E-03    0.4242042557E-02
    0.3500000000E+03    0.7311812374E-04    0.6914577847E+00    0.9073596604E-04    0.6543406402E-03    0.4238756493E-02
    0.3700000000E+03    0.7742873181E-04    0.6916960522E+00    0.9626436674E-04    0.6944686903E-03    0.4235411955E-02
    0.3900000000E+03    0.8179756262E-04    0.6919100027E+00    0.1018648894E-03    0.7351236246E-03    0.4232009676E-02
    0.4100000000E+03    0.8622634759E-04    0.6921031762E+00    0.1075400791E-03    0.7763244200E-03    0.4228550035E-02
    0.4300000000E+03    0.9071684377E-04    0.6922784576E+00    0.1132924628E-03    0.8180898383E-03    0.4225033126E-02
    0.4500000000E+03    0.9527083557E-04    0.6924382210E+00    0.1191245615E-03    0.8604385352E-03    0.4221458810E-02
    0.4700000000E+03    0.9989013677E-04    0.6925844389E+00    0.1250389004E-03    0.9033891510E-03    0.4217826755E-02
    0.4900000000E+03    0.1045765930E-03    0.6927187625E+00    0.1310380183E-03    0.9469603891E-03    0.4214136465E-02
    0.1000000000E+03    0.2352748110E-04    0.6806061391E+00    0.2653696977E-04    0.1878099494E-03    0.4274030254E-02
    0.3000000000E+03    0.6258519192E-04    0.6907240417E+00    0.7721345913E-04    0.5561975318E-03    0.4246859271E-02
    0.5000000000E+03    0.1069455903E-03    0.6927819083E+00    0.1340701684E-03    0.9689846201E-03    0.4212269287E-02
    0.7000000000E+03    0.1583368414E-03    0.6936667686E+00    0.1998147951E-03    0.1446829160E-02    0.4171649463E-02
    0.9000000000E+03    0.2189410189E-03    0.6941588561E+00    0.2773370413E-03    0.2010932017E-02    0.4123844635E-02
    0.1100000000E+04    0.2916392054E-03    0.6944720554E+00    0.3703714049E-03    0.2688660477E-02    0.4066920316E-02
    0.1300000000E+04    0.3804165918E-03    0.6946888325E+00    0.4840618135E-03    0.3517745737E-02    0.3998096744E-02
    0.1500000000E+04    0.4909686477E-03    0.6948477258E+00    0.6257558024E-03    0.4552140597E-02    0.3913394945E-02
    0.1700000000E+04    0.6316661368E-03    0.6949691557E+00    0.8062584016E-03    0.5871276280E-02    0.3807024671E-02
    0.1900000000E+04    0.8151237055E-03    0.6950649512E+00    0.1041870631E-02    0.7595142721E-02    0.3670400082E-02
    0.2100000000E+04    0.1060715968E-02    0.6951424374E+00    0.1357668459E-02    0.9908622088E-02    0.3490627797E-02
    0.2300000000E+04    0.1398282632E-02    0.6952063926E+00    0.1792360594E-02    0.1309775273E-01    0.3248483632E-02
    0.2500000000E+04    0.1871946061E-02    0.6952600665E+00    0.2403395643E-02    0.1758858019E-01    0.2917019055E-02
    0.2700000000E+04    0.2536901040E-02    0.6953057458E+00    0.3263205071E-02    0.2392232087E-01    0.2466330413E-02
    0.2900000000E+04    0.3425861083E-02    0.6953450866E+00    0.4416462553E-02    0.3244518619E-01    0.1890020991E-02
    0.3100000000E+04    0.4462548523E-02    0.6953793172E+00    0.5768250789E-02    0.4248484186E-01    0.1261984140E-02
    0.3300000000E+04    0.5428587793E-02    0.6954093684E+00    0.7038701816E-02    0.5199799049E-01    0.7396890364E-03
    0.3500000000E+04    0.6152824335E-02    0.6954359578E+00    0.8004970307E-02    0.5933244244E-01    0.4202669026E-03
    0.3700000000E+04    0.6650957203E-02    0.6954596481E+00    0.8684010229E-02    0.6458934714E-01    0.2663744667E-03
    0.3900000000E+04    0.7014589150E-02    0.6954808862E+00    0.9192182381E-02    0.6861106726E-01    0.2016341895E-03
    0.4100000000E+04    0.7311344589E-02    0.6955000319E+00    0.9616178120E-02    0.7203096190E-01    0.1761270192E-03
    0.4300000000E+04    0.7575245224E-02    0.6955173779E+00    0.9999786594E-02    0.7517027710E-01    0.1664516403E-03
    0.4500000000E+04    0.7821211852E-02    0.6955331648E+00    0.1036223368E-01    0.7817027868E-01    0.1629523447E-03
    0.4700000000E+04    0.8055524584E-02    0.6955475924E+00    0.1071158310E-01    0.8109007580E-01    0.1618315210E-03
    0.4900000000E+04    0.8280855265E-02    0.6955608276E+00    0.1105122095E-01    0.8395422645E-01    0.1616200568E-03
    0.1000000000E+04    0.2535609719E-03    0.6943311194E+00    0.3216344247E-03    0.2333534392E-02    0.4096673282E-02
    0.3000000000E+04    0.3937205994E-02    0.6953627767E+00    0.5082132959E-02    0.3738120470E-01    0.1573472131E-02
    0.5000000000E+04    0.8390558043E-02    0.6955670430E+00    0.1121789840E-01    0.8536897754E-01    0.1616614735E-03
    0.7000000000E+04    0.1024589231E-01    0.6956535964E+00    0.1419385338E-01    0.1117448671E+00    0.1644835487E-03
    0.9000000000E+04    0.1158373669E-01    0.6957011152E+00    0.1660796919E-01    0.1350525750E+00    0.1668024369E-03
    0.1100000000E+05    0.1253840484E-01    0.6957309873E+00    0.1858438989E-01    0.1558792705E+00    0.1686764631E-03
    0.1300000000E+05    0.1320546722E-01    0.6957514102E+00    0.2021382842E-01    0.1746621672E+00    0.1702520370E-03
    0.1500000000E+05    0.1365444047E-01    0.6957661959E+00    0.2156429145E-01    0.1917362537E+00    0.1716130566E-03
    0.1700000000E+05    0.1393670624E-01    0.6957773552E+00    0.2268769515E-01    0.2073628974E+00    0.1728121725E-03
    0.1900000000E+05    0.1409077210E-01    0.6957860478E+00    0.2362431041E-01    0.2217493374E+00    0.1738846427E-03
    0.2100000000E+05    0.1414584639E-01    0.6957929889E+00    0.2440582089E-01    0.2350622790E+00    0.1748552598E-03
    0.2300000000E+05    0.1412431658E-01    0.6957986434E+00    0.2505747117E-01    0.2474375692E+00    0.1757421338E-03
    0.2500000000E+05    0.1404349843E-01    0.6958033261E+00    0.2559960451E-01    0.2589872111E+00    0.1765589042E-03
    0.2700000000E+05    0.1391689034E-01    0.6958072574E+00    0.2604878225E-01    0.2698045343E+00    0.1773161049E-03
    0.2900000000E+05    0.1375508613E-01    0.6958105967E+00    0.2641861152E-01    0.2799680626E+00    0.1780220436E-03
    0.3100000000E+05    0.1356644774E-01    0.6958134616E+00    0.2672036570E-01    0.2895444484E+00    0.1786833904E-03
    0.3300000000E+05    0.1335760710E-01    0.6958159407E+00    0.2696345558E-01    0.2985907265E+00    0.1793055831E-03
    0.3500000000E+05    0.1313384449E-01    0.6958181024E+00    0.2715579142E-01    0.3071560651E+00    0.1798931142E-03
    0.3700000000E+05    0.1289937664E-01    0.6958199997E+00    0.2730406411E-01    0.3152831415E+00    0.1804497389E-03
    0.3900000000E+05    0.1265757809E-01    0.6958216749E+00    0.2741396577E-01    0.3230092324E+00    0.1809786289E-03
    0.4100000000E+05    0.1241115260E-01    0.6958231618E+00    0.2749036439E-01    0.3303670880E+00    0.1814824873E-03
    0.4300000000E+05    0.1216226704E-01    0.6958244876E+00    0.2753744331E-01    0.3373856362E+00    0.1819636376E-03
    0.4500000000E+05    0.1191265649E-01    0.6958256749E+00    0.2755881351E-01    0.3440905571E+00    0.1824240911E-03
    0.4700000000E+05    0.1166370748E-01    0.6958267421E+00    0.2755760467E-01    0.3505047529E+00    0.1828656013E-03
    0.4900000000E+05    0.1141652414E-01    0.6958277046E+00    0.2753653954E-01    0.3566487371E+00    0.1832897061E-03
    0.1000000000E+05    0.1210226707E-01    0.6957175904E+00    0.1764459254E-01    0.1457459106E+00    0.1677838682E-03
    0.3000000000E+05    0.1366367111E-01    0.6958120824E+00    0.2657737086E-01    0.2848258809E+00    0.1783579261E-03
    0.5000000000E+05    0.1129387565E-01    0.6958281508E+00    0.2751931574E-01    0.3596252378E+00    0.1834956616E-03
    0.7000000000E+05    0.9064028240E-02    0.6958338512E+00    0.2657338369E-01    0.4086073138E+00    0.1869598533E-03
    0.9000000000E+05    0.7324332646E-02    0.6958363545E+00    0.2511923570E-01    0.4437250385E+00    0.1895897106E-03
    0.1100000000E+06    0.6001493142E-02    0.6958375211E+00    0.2358273804E-01    0.4703008304E+00    0.1917160657E-03
    0.1300000000E+06    0.4989785911E-02    0.6958380308E+00    0.2210985592E-01    0.4911711222E+00    0.1935043457E-03
    0.1500000000E+06    0.4205305264E-02    0.6958381842E+00    0.2074831660E-01    0.5080177418E+00    0.1950494431E-03
    0.1700000000E+06    0.3587609039E-02    0.6958381318E+00    0.1950826803E-01    0.5219116138E+00    0.1964109563E-03
    0.1900000000E+06    0.3093938679E-02    0.6958379556E+00    0.1838522630E-01    0.5335708629E+00    0.1976288201E-03
    0.2100000000E+06    0.2693906715E-02    0.6958377031E+00    0.1736941424E-01    0.5434965545E+00    0.1987311275E-03
    0.2300000000E+06    0.2365652088E-02    0.6958374032E+00    0.1644969348E-01    0.5520495905E+00    0.1997384070E-03
    0.2500000000E+06    0.2093216009E-02    0.6958370742E+00    0.1561520771E-01    0.5594968097E+00    0.2006661236E-03
    0.2700000000E+06    0.1864772558E-02    0.6958367281E+00    0.1485601948E-01    0.5660398989E+00    0.2015262237E-03
    0.2900000000E+06    0.1671430457E-02    0.6958363726E+00    0.1416329820E-01    0.5718342043E+00    0.2023281311E-03
    0.3100000000E+06    0.1506412830E-02    0.6958360131E+00    0.1352931130E-01    0.5770013546E+00    0.2030794130E-03
    0.3300000000E+06    0.1364488170E-02    0.6958356531E+00    0.1294733504E-01    0.5816379576E+00    0.2037862393E-03
    0.3500000000E+06    0.1241569984E-02    0.6958352951E+00    0.1241153903E-01    0.5858217307E+00    0.2044537081E-03
    0.3700000000E+06    0.1134431152E-02    0.6958349408E+00    0.1191686904E-01    0.5896159089E+00    0.2050860815E-03
    0.3900000000E+06    0.1040497363E-02    0.6958345913E+00    0.1145893843E-01    0.5930724717E+00    0.2056869590E-03
    0.4100000000E+06    0.9576958029E-03    0.6958342474E+00    0.1103393211E-01    0.5962345430E+00    0.2062594093E-03
    0.4300000000E+06    0.8843429710E-03    0.6958339095E+00    0.1063852339E-01    0.5991382008E+00    0.2068060697E-03
    0.4500000000E+06    0.8190605507E-03    0.6958335779E+00    0.1026980304E-01    0.6018138607E+00    0.2073292237E-03
    0.4700000000E+06    0.7607116442E-03    0.6958332528E+00    0.9925219052E-02    0.6042873455E+00    0.2078308622E-03
    0.4900000000E+06    0.7083519568E-03    0.6958329342E+00    0.9602525815E-02    0.6065807202E+00    0.2083127310E-03
    0.1000000000E+06    0.6617766371E-02    0.6958370489E+00    0.2434867870E-01    0.4578666872E+00    0.1907031867E-03
    0.3000000000E+06    0.1585738913E-02    0.6958361931E+00    0.1383940553E-01    0.5744896314E+00    0.2027096862E-03
    0.5000000000E+06    0.6841661791E-03    0.6958327773E+00    0.9448759526E-02    0.6076658995E+00    0.2085467403E-03
    0.7000000000E+06    0.3780666327E-03    0.6958299568E+00    0.7146844868E-02    0.6233654120E+00    0.2124829754E-03
    0.9000000000E+06    0.2390971892E-03    0.6958276312E+00    0.5738568274E-02    0.6325150656E+00    0.2154713591E-03
    0.1100000000E+07    0.1646093087E-03    0.6958256640E+00    0.4790218037E-02    0.6385046609E+00    0.2178876753E-03
    0.1300000000E+07    0.1201369317E-03    0.6958239616E+00    0.4108838932E-02    0.6427294349E+00    0.2199198548E-03
    0.1500000000E+07    0.9149314003E-04    0.6958224616E+00    0.3595928623E-02    0.6458688098E+00    0.2216757081E-03
    0.1700000000E+07    0.7197587999E-04    0.6958211205E+00    0.3196045742E-02    0.6482932064E+00    0.2232229504E-03
    0.1900000000E+07    0.5808640979E-04    0.6958199077E+00    0.2875630985E-02    0.6502217536E+00    0.2246069573E-03
    0.2100000000E+07    0.4785405645E-04    0.6958188004E+00    0.2613194089E-02    0.6517923604E+00    0.2258596501E-03
    0.2300000000E+07    0.4010038313E-04    0.6958177815E+00    0.2394341772E-02    0.6530961492E+00    0.2270043554E-03
    0.2500000000E+07    0.3408575081E-04    0.6958168375E+00    0.2209074442E-02    0.6541957416E+00    0.2280586463E-03
    0.2700000000E+07    0.2932698903E-04    0.6958159581E+00    0.2050230116E-02    0.6551355912E+00    0.2290360981E-03
    0.2900000000E+07    0.2549767717E-04    0.6958151348E+00    0.1912545449E-02    0.6559481258E+00    0.2299474195E-03
    0.3100000000E+07    0.2237088127E-04    0.6958143606E+00    0.1792066215E-02    0.6566575551E+00    0.2308012094E-03
    0.3300000000E+07    0.1978488264E-04    0.6958136300E+00    0.1685764464E-02    0.6572823190E+00    0.2316044793E-03
    0.3500000000E+07    0.1762192506E-04    0.6958129382E+00    0.1591282513E-02    0.6578367089E+00    0.2323630227E-03
    0.3700000000E+07    0.1579462198E-04    0.6958122811E+00    0.1506757362E-02    0.6583319723E+00    0.2330816826E-03
    0.3900000000E+07    0.1423702432E-04    0.6958116554E+00    0.1430697514E-02    0.6587770822E+00    0.2337645498E-03
    0.4100000000E+07    0.1289860857E-04    0.6958110581E+00    0.1361894845E-02    0.6591792837E+00    0.2344151115E-03
    0.4300000000E+07    0.1174014313E-04    0.6958104868E+00    0.1299360405E-02    0.6595444913E+00    0.2350363645E-03
    0.4500000000E+07    0.1073079113E-04    0.6958099391E+00    0.1242276909E-02    0.6598775806E+00    0.2356309042E-03
    0.4700000000E+07    0.9846044597E-05    0.6958094131E+00    0.1189963071E-02    0.6601826068E+00    0.2362009928E-03
    0.4900000000E+07    0.9066228016E-05    0.6958089072E+00    0.1141846461E-02    0.6604629701E+00    0.2367486144E-03
    0.1000000000E+07    0.1966868982E-03    0.6958266095E+00    0.5222146563E-02    0.6357929751E+00    0.2167366674E-03
    0.3000000000E+07    0.2385780442E-04    0.6958147419E+00    0.1850362629E-02    0.6563144630E+00    0.2303810354E-03
    0.5000000000E+07    0.8710564533E-05    0.6958086613E+00    0.1119207757E-02    0.6605948187E+00    0.2370145552E-03
    0.7000000000E+07    0.4466627423E-05    0.6958045047E+00    0.8007537471E-03    0.6624457363E+00    0.2414879117E-03
    0.9000000000E+07    0.2709101228E-05    0.6958013280E+00    0.6227549399E-03    0.6634778072E+00    0.2448840818E-03
    0.1100000000E+08    0.1816815567E-05    0.6957987491E+00    0.5091744468E-03    0.6641358023E+00    0.2476301226E-03
    0.1300000000E+08    0.1302831335E-05    0.6957965742E+00    0.4304439271E-03    0.6645918109E+00    0.2499396082E-03
    0.1500000000E+08    0.9800796136E-06    0.6957946911E+00    0.3726795447E-03    0.6649264205E+00    0.2519350601E-03
    0.1700000000E+08    0.7642730211E-06    0.6957930290E+00    0.3285030913E-03    0.6651823903E+00    0.2536934341E-03
    0.1900000000E+08    0.6129076529E-06    0.6957915404E+00    0.2936324336E-03    0.6653845133E+00    0.2552662974E-03
    0.2100000000E+08    0.5026686141E-06    0.6957901915E+00    0.2654123526E-03    0.6655481543E+00    0.2566899275E-03
    0.2300000000E+08    0.4199024655E-06    0.6957889577E+00    0.2421092473E-03    0.6656833418E+00    0.2579908339E-03
    0.2500000000E+08    0.3561836639E-06    0.6957878205E+00    0.2225433769E-03    0.6657968990E+00    0.2591889881E-03
    0.2700000000E+08    0.3060847206E-06    0.6957867653E+00    0.2058841369E-03    0.6658936297E+00    0.2602998176E-03
