  Pressure (Pa) 22mC5-500 (mol/kg) 24mC5-500 (mol/kg) 2mC6-500 (mol/kg) 3mC6-500 (mol/kg) C7-500 (mol/kg)
    0.1000000000E+01    0.5721497233E-05    0.2142834538E+00    0.4967221193E-05    0.6125899666E-05    0.4145194505E-02
    0.3000000000E+01    0.9828225287E-05    0.3978588680E+00    0.8185027463E-05    0.1512281405E-04    0.4168386374E-02
    0.5000000000E+01    0.1144995569E-04    0.4801238050E+00    0.9577104942E-05    0.2328460867E-04    0.4173642550E-02
    0.7000000000E+01    0.1239635346E-04    0.5268076506E+00    0.1063161118E-04    0.3105405799E-04    0.4175704198E-02
    0.9000000000E+01    0.1310476856E-04    0.5568902683E+00    0.1162833411E-04    0.3857735919E-04    0.4176566465E-02
    0.1100000000E+02    0.1371953968E-04    0.5778902468E+00    0.1263332073E-04    0.4592682542E-04    0.4176843531E-02
    0.1300000000E+02    0.1429709544E-04    0.5933814971E+00    0.1366137383E-04    0.5314514938E-04    0.4176791480E-02
    0.1500000000E+02    0.1486181623E-04    0.6052802853E+00    0.1471337115E-04    0.6026028750E-04    0.4176536754E-02
    0.1700000000E+02    0.1542483190E-04    0.6147064331E+00    0.1578651462E-04    0.6729185106E-04    0.4176149054E-02
    0.1900000000E+02    0.1599130521E-04    0.6223581478E+00    0.1687739223E-04    0.7425429273E-04    0.4175669928E-02
    0.2100000000E+02    0.1656355187E-04    0.6286933761E+00    0.1798288108E-04    0.8115866684E-04    0.4175125639E-02
    0.2300000000E+02    0.1714247945E-04    0.6340249637E+00    0.1910036007E-04    0.8801367790E-04    0.4174533564E-02
    0.2500000000E+02    0.1772828844E-04    0.6385739063E+00    0.2022770198E-04    0.9482634236E-04    0.4173905626E-02
    0.2700000000E+02    0.1832082771E-04    0.6425007532E+00    0.2136320375E-04    0.1016024259E-03    0.4173250259E-02
    0.2900000000E+02    0.1891977983E-04    0.6459249513E+00    0.2250550823E-04    0.1083467433E-03    0.4172573575E-02
    0.3100000000E+02    0.1952475904E-04    0.6489372072E+00    0.2365353455E-04    0.1150633712E-03    0.4171880098E-02
    0.3300000000E+02    0.2013536309E-04    0.6516076408E+00    0.2480642070E-04    0.1217558021E-03    0.4171173239E-02
    0.3500000000E+02    0.2075120011E-04    0.6539913122E+00    0.2596347771E-04    0.1284270589E-03    0.4170455607E-02
    0.3700000000E+02    0.2137190185E-04    0.6561320588E+00    0.2712415374E-04    0.1350797824E-03    0.4169729226E-02
    0.3900000000E+02    0.2199712935E-04    0.6580652157E+00    0.2828800592E-04    0.1417162977E-03    0.4168995684E-02
    0.4100000000E+02    0.2262657446E-04    0.6598195820E+00    0.2945467837E-04    0.1483386672E-03    0.4168256239E-02
    0.4300000000E+02    0.2325995924E-04    0.6614188653E+00    0.3062388499E-04    0.1549487319E-03    0.4167511895E-02
    0.4500000000E+02    0.2389703414E-04    0.6628827589E+00    0.3179539589E-04    0.1615481448E-03    0.4166763463E-02
    0.4700000000E+02    0.2453757576E-04    0.6642277571E+00    0.3296902665E-04    0.1681383984E-03    0.4166011600E-02
    0.4900000000E+02    0.2518138446E-04    0.6654677797E+00    0.3414462989E-04    0.1747208463E-03    0.4165256840E-02
    0.1000000000E+02    0.1341921901E-04    0.5682475068E+00    0.1212832732E-04    0.4227069698E-04    0.4176757691E-02
    0.3000000000E+02    0.1922154121E-04    0.6474777818E+00    0.2307886458E-04    0.1117082880E-03    0.4172228700E-02
    0.5000000000E+02    0.2550445747E-04    0.6660521922E+00    0.3473313354E-04    0.1780095330E-03    0.4164878514E-02
    0.7000000000E+02    0.3210333256E-04    0.6743431694E+00    0.4658927666E-04    0.2436239517E-03    0.4157232556E-02
    0.9000000000E+02    0.3891221209E-04    0.6790391548E+00    0.5860207389E-04    0.3093994752E-03    0.4149511066E-02
    0.1100000000E+03    0.4589646878E-04    0.6820617457E+00    0.7078760143E-04    0.3757821187E-03    0.4141740554E-02
    0.1300000000E+03    0.5304627535E-04    0.6841701346E+00    0.8317081126E-04    0.4430583747E-03    0.4133912975E-02
    0.1500000000E+03    0.6036164941E-04    0.6857245961E+00    0.9577652203E-04    0.5114371602E-03    0.4126013214E-02
    0.1700000000E+03    0.6784703018E-04    0.6869180787E+00    0.1086279714E-03    0.5810851124E-03    0.4118025371E-02
    0.1900000000E+03    0.7550907380E-04    0.6878632408E+00    0.1217469231E-03    0.6521442528E-03    0.4109934261E-02
    0.2100000000E+03    0.8335568189E-04    0.6886302785E+00    0.1351540599E-03    0.7247418121E-03    0.4101725653E-02
    0.2300000000E+03    0.9139555281E-04    0.6892652085E+00    0.1488693742E-03    0.7989961539E-03    0.4093386157E-02
    0.2500000000E+03    0.9963797233E-04    0.6897994536E+00    0.1629124967E-03    0.8750205909E-03    0.4084903039E-02
    0.2700000000E+03    0.1080927211E-03    0.6902552032E+00    0.1773029649E-03    0.9529259893E-03    0.4076264026E-02
    0.2900000000E+03    0.1167700425E-03    0.6906485726E+00    0.1920604419E-03    0.1032822641E-02    0.4067457144E-02
    0.3100000000E+03    0.1256806424E-03    0.6909915484E+00    0.2072048994E-03    0.1114821679E-02    0.4058470572E-02
    0.3300000000E+03    0.1348357079E-03    0.6912932309E+00    0.2227567744E-03    0.1199036197E-02    0.4049292524E-02
    0.3500000000E+03    0.1442469369E-03    0.6915606539E+00    0.2387371070E-03    0.1285582181E-02    0.4039911140E-02
    0.3700000000E+03    0.1539265748E-03    0.6917993392E+00    0.2551676663E-03    0.1374579313E-02    0.4030314397E-02
    0.3900000000E+03    0.1638874566E-03    0.6920136827E+00    0.2720710680E-03    0.1466151694E-02    0.4020490030E-02
    0.4100000000E+03    0.1741430530E-03    0.6922072273E+00    0.2894708872E-03    0.1560428519E-02    0.4010425454E-02
    0.4300000000E+03    0.1847075206E-03    0.6923828599E+00    0.3073917694E-03    0.1657544728E-02    0.4000107696E-02
    0.4500000000E+03    0.1955957550E-03    0.6925429571E+00    0.3258595421E-03    0.1757641642E-02    0.3989523329E-02
    0.4700000000E+03    0.2068234485E-03    0.6926894925E+00    0.3449013274E-03    0.1860867606E-02    0.3978658410E-02
    0.4900000000E+03    0.2184071513E-03    0.6928241193E+00    0.3645456591E-03    0.1967378642E-02    0.3967498413E-02
    0.1000000000E+03    0.4238336545E-04    0.6806982534E+00    0.6467172404E-04    0.3424945706E-03    0.4145632134E-02
    0.3000000000E+03    0.1211954950E-03    0.6908257345E+00    0.1995830333E-03    0.1073552351E-02    0.4062987055E-02
    0.5000000000E+03    0.2243379287E-03    0.6928874115E+00    0.3746031123E-03    0.2021917086E-02    0.3961803048E-02
    0.7000000000E+03    0.3666031959E-03    0.6937746762E+00    0.6158944194E-03    0.3331671773E-02    0.3828193260E-02
    0.9000000000E+03    0.5740532872E-03    0.6942685265E+00    0.9681003739E-03    0.5247060448E-02    0.3640618737E-02
    0.1100000000E+04    0.8961528430E-03    0.6945831205E+00    0.1515875174E-02    0.8232117830E-02    0.3360351929E-02
    0.1300000000E+04    0.1429339919E-02    0.6948010530E+00    0.2424751821E-02    0.1319730025E-01    0.2916482889E-02
    0.1500000000E+04    0.2335780790E-02    0.6949609336E+00    0.3975204455E-02    0.2169679900E-01    0.2205087092E-02
    0.1700000000E+04    0.3683438941E-02    0.6950832262E+00    0.6293916258E-02    0.3448137022E-01    0.1242775143E-02
    0.1900000000E+04    0.4997897233E-02    0.6951797880E+00    0.8582430533E-02    0.4724459844E-01    0.4647797996E-03
    0.2100000000E+04    0.5834068041E-02    0.6952579641E+00    0.1007394549E-01    0.5575456160E-01    0.1437456092E-03
    0.2300000000E+04    0.6370065320E-02    0.6953225468E+00    0.1106248007E-01    0.6156677593E-01    0.5713860942E-04
    0.2500000000E+04    0.6798134237E-02    0.6953767963E+00    0.1187371106E-01    0.6645023815E-01    0.3700572091E-04
    0.2700000000E+04    0.7184308369E-02    0.6954230076E+00    0.1262001842E-01    0.7101844513E-01    0.3254662689E-04
    0.2900000000E+04    0.7546460339E-02    0.6954628427E+00    0.1333162132E-01    0.7543560027E-01    0.3163135300E-04
    0.3100000000E+04    0.7889634301E-02    0.6954975354E+00    0.1401673767E-01    0.7974493400E-01    0.3151096900E-04
    0.3300000000E+04    0.8215697768E-02    0.6955280203E+00    0.1467813012E-01    0.8395961292E-01    0.3156633912E-04
    0.3500000000E+04    0.8525717422E-02    0.6955550185E+00    0.1531720157E-01    0.8808536711E-01    0.3165754927E-04
    0.3700000000E+04    0.8820532336E-02    0.6955790953E+00    0.1593498735E-01    0.9212599550E-01    0.3175302599E-04
    0.3900000000E+04    0.9100893596E-02    0.6956007000E+00    0.1653239664E-01    0.9608470675E-01    0.3184586565E-04
    0.4100000000E+04    0.9367500052E-02    0.6956201945E+00    0.1711027323E-01    0.9996445218E-01    0.3193480042E-04
    0.4300000000E+04    0.9621008986E-02    0.6956378731E+00    0.1766941243E-01    0.1037680140E+00    0.3201983011E-04
    0.4500000000E+04    0.9862040603E-02    0.6956539779E+00    0.1821056734E-01    0.1074980334E+00    0.3210121436E-04
    0.4700000000E+04    0.1009118087E-01    0.6956687100E+00    0.1873445223E-01    0.1111570235E+00    0.3217924200E-04
    0.4900000000E+04    0.1030898383E-01    0.6956822373E+00    0.1924174518E-01    0.1147473782E+00    0.3225418151E-04
    0.1000000000E+04    0.7162137478E-03    0.6944415231E+00    0.1209732719E-02    0.6563014643E-02    0.3515542690E-02
    0.3000000000E+04    0.7720271173E-02    0.6954807677E+00    0.1367726346E-01    0.7760262387E-01    0.3153027795E-04
    0.5000000000E+04    0.1041379873E-01    0.6956885944E+00    0.1948937224E-01    0.1165175345E+00    0.3229056941E-04
    0.7000000000E+04    0.1202819614E-01    0.6957775229E+00    0.2371138505E-01    0.1488189746E+00    0.3290222056E-04
    0.9000000000E+04    0.1295932459E-01    0.6958268345E+00    0.2684012743E-01    0.1762971558E+00    0.3336616162E-04
    0.1100000000E+05    0.1344592159E-01    0.6958581510E+00    0.2918944272E-01    0.2001218451E+00    0.3374109617E-04
    0.1300000000E+05    0.1363791147E-01    0.6958797856E+00    0.3096684571E-01    0.2210935026E+00    0.3405632073E-04
    0.1500000000E+05    0.1363248010E-01    0.6958956164E+00    0.3231467349E-01    0.2397805293E+00    0.3432862027E-04
    0.1700000000E+05    0.1349425062E-01    0.6959076951E+00    0.3333358733E-01    0.2565993228E+00    0.3456852828E-04
    0.1900000000E+05    0.1326707898E-01    0.6959172092E+00    0.3409663427E-01    0.2718631471E+00    0.3478309868E-04
    0.2100000000E+05    0.1298121240E-01    0.6959248932E+00    0.3465799943E-01    0.2858131408E+00    0.3497729159E-04
    0.2300000000E+05    0.1265777377E-01    0.6959312260E+00    0.3505864177E-01    0.2986386574E+00    0.3515473020E-04
    0.2500000000E+05    0.1231164861E-01    0.6959365328E+00    0.3533003167E-01    0.3104910011E+00    0.3531814334E-04
    0.2700000000E+05    0.1195338784E-01    0.6959410425E+00    0.3549669463E-01    0.3214929422E+00    0.3546963845E-04
    0.2900000000E+05    0.1159048802E-01    0.6959449208E+00    0.3557798252E-01    0.3317454605E+00    0.3561087765E-04
    0.3100000000E+05    0.1122826822E-01    0.6959482903E+00    0.3558933218E-01    0.3413326211E+00    0.3574319540E-04
    0.3300000000E+05    0.1087048007E-01    0.6959512441E+00    0.3554317619E-01    0.3503251659E+00    0.3586767961E-04
    0.3500000000E+05    0.1051973820E-01    0.6959538537E+00    0.3544961279E-01    0.3587832022E+00    0.3598522910E-04
    0.3700000000E+05    0.1017782753E-01    0.6959561754E+00    0.3531690598E-01    0.3667582467E+00    0.3609659518E-04
    0.3900000000E+05    0.9845924955E-02    0.6959582536E+00    0.3515186379E-01    0.3742948000E+00    0.3620241236E-04
    0.4100000000E+05    0.9524760874E-02    0.6959601243E+00    0.3496012800E-01    0.3814315753E+00    0.3630322149E-04
    0.4300000000E+05    0.9214737710E-02    0.6959618166E+00    0.3474639836E-01    0.3882024680E+00    0.3639948738E-04
    0.4500000000E+05    0.8916017509E-02    0.6959633545E+00    0.3451460804E-01    0.3946373301E+00    0.3649161248E-04
    0.4700000000E+05    0.8628587049E-02    0.6959647578E+00    0.3426806209E-01    0.4007625927E+00    0.3657994758E-04
    0.4900000000E+05    0.8352306439E-02    0.6959660431E+00    0.3400954768E-01    0.4066017731E+00    0.3666480037E-04
    0.1000000000E+05    0.1324726431E-01    0.6958440666E+00    0.2809734866E-01    0.1886094798E+00    0.3356251542E-04
    0.3000000000E+05    0.1140902766E-01    0.6959466628E+00    0.3559156101E-01    0.3366175121E+00    0.3567807870E-04
    0.5000000000E+05    0.8218278135E-02    0.6959666461E+00    0.3387655380E-01    0.4094207386E+00    0.3670600695E-04
    0.7000000000E+05    0.6044664479E-02    0.6959749807E+00    0.3099964677E-01    0.4548813834E+00    0.3739910819E-04
    0.9000000000E+05    0.4595299473E-02    0.6959794814E+00    0.2820436600E-01    0.4863901291E+00    0.3792528245E-04
    0.1100000000E+06    0.3598695114E-02    0.6959822618E+00    0.2572707537E-01    0.5096331728E+00    0.3835071947E-04
    0.1300000000E+06    0.2889250113E-02    0.6959841278E+00    0.2358183487E-01    0.5275273103E+00    0.3870851647E-04
    0.1500000000E+06    0.2368199370E-02    0.6959854527E+00    0.2173069070E-01    0.5417454738E+00    0.3901765881E-04
    0.1700000000E+06    0.1975066016E-02    0.6959864322E+00    0.2012806414E-01    0.5533227468E+00    0.3929007052E-04
    0.1900000000E+06    0.1671528357E-02    0.6959871786E+00    0.1873258985E-01    0.5629363323E+00    0.3953374145E-04
    0.2100000000E+06    0.1432481884E-02    0.6959877610E+00    0.1750956121E-01    0.5710488930E+00    0.3975429232E-04
    0.2300000000E+06    0.1240975916E-02    0.6959882240E+00    0.1643063108E-01    0.5779877055E+00    0.3995583031E-04
    0.2500000000E+06    0.1085253078E-02    0.6959885974E+00    0.1547282715E-01    0.5839910118E+00    0.4014144961E-04
    0.2700000000E+06    0.9569614174E-03    0.6959889024E+00    0.1461752580E-01    0.5892364727E+00    0.4031354039E-04
    0.2900000000E+06    0.8500412743E-03    0.6959891539E+00    0.1384956583E-01    0.5938593298E+00    0.4047398810E-04
    0.3100000000E+06    0.7600126361E-03    0.6959893629E+00    0.1315653162E-01    0.5979643836E+00    0.4062430676E-04
    0.3300000000E+06    0.6835071893E-03    0.6959895377E+00    0.1252818814E-01    0.6016341210E+00    0.4076573083E-04
    0.3500000000E+06    0.6179539342E-03    0.6959896848E+00    0.1195603993E-01    0.6049343647E+00    0.4089928032E-04
    0.3700000000E+06    0.5613635494E-03    0.6959898088E+00    0.1143298745E-01    0.6079182859E+00    0.4102580794E-04
    0.3900000000E+06    0.5121776836E-03    0.6959899139E+00    0.1095305853E-01    0.6106293090E+00    0.4114603392E-04
    0.4100000000E+06    0.4691618127E-03    0.6959900029E+00    0.1051119764E-01    0.6131032501E+00    0.4126057219E-04
    0.4300000000E+06    0.4313278721E-03    0.6959900784E+00    0.1010309954E-01    0.6153699148E+00    0.4136995043E-04
    0.4500000000E+06    0.3978775879E-03    0.6959901424E+00    0.9725077074E-02    0.6174543100E+00    0.4147462553E-04
    0.4700000000E+06    0.3681604228E-03    0.6959901966E+00    0.9373955588E-02    0.6193775728E+00    0.4157499579E-04
    0.4900000000E+06    0.3416419894E-03    0.6959902424E+00    0.9046987838E-02    0.6211576919E+00    0.4167141056E-04
    0.1000000000E+06    0.4052762815E-02    0.6959810210E+00    0.2692291670E-01    0.4988225283E+00    0.3814806436E-04
    0.3000000000E+06    0.8031478204E-03    0.6959892631E+00    0.1349436810E-01    0.5959709795E+00    0.4055033073E-04
    0.5000000000E+06    0.3294410354E-03    0.6959902624E+00    0.8891802757E-02    0.6219989748E+00    0.4171823235E-04
    0.7000000000E+06    0.1778560724E-03    0.6959904169E+00    0.6613806429E-02    0.6340968763E+00    0.4250581811E-04
    0.9000000000E+06    0.1109881902E-03    0.6959903490E+00    0.5259010999E-02    0.6410857610E+00    0.4310375619E-04
    0.1100000000E+07    0.7575537980E-04    0.6959902065E+00    0.4361983155E-02    0.6456367893E+00    0.4358723337E-04
    0.1300000000E+07    0.5495805517E-04    0.6959900384E+00    0.3724716567E-02    0.6488355362E+00    0.4399385104E-04
    0.1500000000E+07    0.4167127527E-04    0.6959898637E+00    0.3248874260E-02    0.6512064415E+00    0.4434518007E-04
    0.1700000000E+07    0.3267289323E-04    0.6959896903E+00    0.2880138152E-02    0.6530338620E+00    0.4465476914E-04
    0.1900000000E+07    0.2629940271E-04    0.6959895217E+00    0.2586076225E-02    0.6544853343E+00    0.4493169709E-04
    0.2100000000E+07    0.2162176455E-04    0.6959893594E+00    0.2346136091E-02    0.6556659704E+00    0.4518235090E-04
    0.2300000000E+07    0.1808815007E-04    0.6959892039E+00    0.2146665742E-02    0.6566450504E+00    0.4541139781E-04
    0.2500000000E+07    0.1535409270E-04    0.6959890550E+00    0.1978243775E-02    0.6574700896E+00    0.4562235396E-04
    0.2700000000E+07    0.1319558383E-04    0.6959889127E+00    0.1834159531E-02    0.6581747614E+00    0.4581793554E-04
    0.2900000000E+07    0.1146186234E-04    0.6959887765E+00    0.1709504224E-02    0.6587835948E+00    0.4600028521E-04
    0.3100000000E+07    0.1004845604E-04    0.6959886460E+00    0.1600604610E-02    0.6593148804E+00    0.4617112350E-04
    0.3300000000E+07    0.8881123972E-05    0.6959885209E+00    0.1504657515E-02    0.6597825346E+00    0.4633185331E-04
    0.3500000000E+07    0.7905939315E-05    0.6959884009E+00    0.1419486791E-02    0.6601973333E+00    0.4648363382E-04
    0.3700000000E+07    0.7082969149E-05    0.6959882854E+00    0.1343377398E-02    0.6605677503E+00    0.4662743409E-04
    0.3900000000E+07    0.6382134242E-05    0.6959881744E+00    0.1274959495E-02    0.6609005405E+00    0.4676407261E-04
    0.4100000000E+07    0.5780430121E-05    0.6959880673E+00    0.1213125804E-02    0.6612011550E+00    0.4689424710E-04
    0.4300000000E+07    0.5260021043E-05    0.6959879641E+00    0.1156971624E-02    0.6614740407E+00    0.4701855724E-04
    0.4500000000E+07    0.4806907061E-05    0.6959878643E+00    0.1105750559E-02    0.6617228616E+00    0.4713752229E-04
    0.4700000000E+07    0.4409975440E-05    0.6959877679E+00    0.1058841367E-02    0.6619506636E+00    0.4725159489E-04
    0.4900000000E+07    0.4060314805E-05    0.6959876745E+00    0.1015722799E-02    0.6621599998E+00    0.4736117207E-04
    0.1000000000E+07    0.9087051055E-04    0.6959902829E+00    0.4769057145E-02    0.6435787314E+00    0.4335692958E-04
    0.3000000000E+07    0.1072033000E-04    0.6959887106E+00    0.1653277236E-02    0.6590579756E+00    0.4608704914E-04
    0.5000000000E+07    0.3900901604E-05    0.6959876289E+00    0.9954446011E-03    0.6622584302E+00    0.4741438594E-04
    0.7000000000E+07    0.2001897067E-05    0.6959868410E+00    0.7107995182E-03    0.6636391335E+00    0.4830949399E-04
    0.9000000000E+07    0.1217254173E-05    0.6959862205E+00    0.5521871986E-03    0.6644080993E+00    0.4898906496E-04
    0.1100000000E+08    0.8192243304E-06    0.6959857074E+00    0.4511595382E-03    0.6648979877E+00    0.4953854893E-04
    0.1300000000E+08    0.5899657723E-06    0.6959852693E+00    0.3812134358E-03    0.6652373174E+00    0.5000068035E-04
    0.1500000000E+08    0.4459514284E-06    0.6959848863E+00    0.3299374217E-03    0.6654862138E+00    0.5039997489E-04
    0.1700000000E+08    0.3495909768E-06    0.6959845457E+00    0.2907477738E-03    0.6656765569E+00    0.5075183090E-04
    0.1900000000E+08    0.2819424332E-06    0.6959842388E+00    0.2598285622E-03    0.6658268220E+00    0.5106656670E-04
    0.2100000000E+08    0.2326199655E-06    0.6959839593E+00    0.2348160656E-03    0.6659484536E+00    0.5135144124E-04
    0.2300000000E+08    0.1955429078E-06    0.6959837024E+00    0.2141682505E-03    0.6660489191E+00    0.5161175894E-04
    0.2500000000E+08    0.1669591555E-06    0.6959834647E+00    0.1968364298E-03    0.6661332976E+00    0.5185151601E-04
    0.2700000000E+08    0.1444516031E-06    0.6959832434E+00    0.1820826695E-03    0.6662051643E+00    0.5207379946E-04
