  Pressure (Pa) 22mC5-500 (mol/kg) 24mC5-500 (mol/kg) 2mC6-500 (mol/kg) 3mC6-500 (mol/kg) C7-500 (mol/kg)
    0.1000000000E+01    0.6404917532E-05    0.1513981162E+00    0.1923290256E-04    0.8001562491E-06    0.4191433705E-02
    0.3000000000E+01    0.1247871271E-04    0.3164690077E+00    0.3559865250E-04    0.2045863984E-05    0.4230085910E-02
    0.5000000000E+01    0.1524897768E-04    0.4047270912E+00    0.4248557552E-04    0.3191097946E-05    0.4249478459E-02
    0.7000000000E+01    0.1678986927E-04    0.4596692279E+00    0.4647097473E-04    0.4287706515E-05    0.4261510037E-02
    0.9000000000E+01    0.1778218727E-04    0.4971652118E+00    0.4944909655E-04    0.5353200410E-05    0.4269739973E-02
    0.1100000000E+02    0.1850249694E-04    0.5243864882E+00    0.5208199077E-04    0.6396347934E-05    0.4275726856E-02
    0.1300000000E+02    0.1907910663E-04    0.5450475438E+00    0.5462614238E-04    0.7422370807E-05    0.4280272054E-02
    0.1500000000E+02    0.1957717083E-04    0.5612649148E+00    0.5718509879E-04    0.8434711354E-05    0.4283832275E-02
    0.1700000000E+02    0.2003196936E-04    0.5743330434E+00    0.5979953145E-04    0.9435797522E-05    0.4286687777E-02
    0.1900000000E+02    0.2046351261E-04    0.5850880979E+00    0.6248291923E-04    0.1042742674E-04    0.4289020496E-02
    0.2100000000E+02    0.2088353114E-04    0.5940942894E+00    0.6523677474E-04    0.1141097911E-04    0.4290953911E-02
    0.2300000000E+02    0.2129905393E-04    0.6017461248E+00    0.6805747934E-04    0.1238754496E-04    0.4292574909E-02
    0.2500000000E+02    0.2171434148E-04    0.6083277499E+00    0.7093944512E-04    0.1335800568E-04    0.4293946486E-02
    0.2700000000E+02    0.2213197678E-04    0.6140490189E+00    0.7387659029E-04    0.1432308730E-04    0.4295115483E-02
    0.2900000000E+02    0.2255350366E-04    0.6190682847E+00    0.7686301296E-04    0.1528339742E-04    0.4296117493E-02
    0.3100000000E+02    0.2297981164E-04    0.6235072851E+00    0.7989327654E-04    0.1623945136E-04    0.4296980067E-02
    0.3300000000E+02    0.2341137366E-04    0.6274611474E+00    0.8296250585E-04    0.1719169130E-04    0.4297724886E-02
    0.3500000000E+02    0.2384839610E-04    0.6310052827E+00    0.8606639261E-04    0.1814050042E-04    0.4298369255E-02
    0.3700000000E+02    0.2429091499E-04    0.6342002424E+00    0.8920115986E-04    0.1908621379E-04    0.4298927168E-02
    0.3900000000E+02    0.2473885860E-04    0.6370952063E+00    0.9236351012E-04    0.2002912665E-04    0.4299410068E-02
    0.4100000000E+02    0.2519208844E-04    0.6397305326E+00    0.9555056968E-04    0.2096950101E-04    0.4299827410E-02
    0.4300000000E+02    0.2565042645E-04    0.6421396511E+00    0.9875983510E-04    0.2190757080E-04    0.4300187079E-02
    0.4500000000E+02    0.2611367299E-04    0.6443504885E+00    0.1019891243E-03    0.2284354612E-04    0.4300495707E-02
    0.4700000000E+02    0.2658161880E-04    0.6463865563E+00    0.1052365330E-03    0.2377761659E-04    0.4300758914E-02
    0.4900000000E+02    0.2705405275E-04    0.6482677900E+00    0.1085003971E-03    0.2470995418E-04    0.4300981498E-02
    0.1000000000E+02    0.1816623609E-04    0.5117768077E+00    0.5078737048E-04    0.5877186159E-05    0.4272952628E-02
    0.3000000000E+02    0.2276602278E-04    0.6213538417E+00    0.7837298285E-04    0.1576192725E-04    0.4296564737E-02
    0.5000000000E+02    0.2729188762E-04    0.6491557603E+00    0.1101380374E-03    0.2517552263E-04    0.4301078866E-02
    0.7000000000E+02    0.3223834074E-04    0.6618479152E+00    0.1434844520E-03    0.3442764450E-04    0.4301643860E-02
    0.9000000000E+02    0.3745479824E-04    0.6691159842E+00    0.1775747673E-03    0.4362521627E-04    0.4300644296E-02
    0.1100000000E+03    0.4285903464E-04    0.6738247728E+00    0.2121583270E-03    0.5282306626E-04    0.4298832200E-02
    0.1300000000E+03    0.4840869033E-04    0.6771236500E+00    0.2471574171E-03    0.6205491134E-04    0.4296525960E-02
    0.1500000000E+03    0.5408108692E-04    0.6795633615E+00    0.2825546876E-03    0.7134393994E-04    0.4293885218E-02
    0.1700000000E+03    0.5986377080E-04    0.6814408556E+00    0.3183562908E-03    0.8070739991E-04    0.4290999344E-02
    0.1900000000E+03    0.6574994928E-04    0.6829303756E+00    0.3545780766E-03    0.9015890116E-04    0.4287922370E-02
    0.2100000000E+03    0.7173614783E-04    0.6841409053E+00    0.3912399394E-03    0.9970969406E-04    0.4284688830E-02
    0.2300000000E+03    0.7782093579E-04    0.6851441054E+00    0.4283633754E-03    0.1093694343E-03    0.4281321725E-02
    0.2500000000E+03    0.8400419789E-04    0.6859890307E+00    0.4659704075E-03    0.1191466678E-03    0.4277836835E-02
    0.2700000000E+03    0.9028670016E-04    0.6867103922E+00    0.5040831267E-03    0.1290491530E-03    0.4274245217E-02
    0.2900000000E+03    0.9666982228E-04    0.6873334431E+00    0.5427235210E-03    0.1390840830E-03    0.4270554715E-02
    0.3100000000E+03    0.1031553878E-03    0.6878769940E+00    0.5819134405E-03    0.1492582450E-03    0.4266770920E-02
    0.3300000000E+03    0.1097455540E-03    0.6883553446E+00    0.6216746267E-03    0.1595781365E-03    0.4262897790E-02
    0.3500000000E+03    0.1164427393E-03    0.6887795594E+00    0.6620287710E-03    0.1700500539E-03    0.4258938080E-02
    0.3700000000E+03    0.1232495747E-03    0.6891583335E+00    0.7029975837E-03    0.1806801603E-03    0.4254893629E-02
    0.3900000000E+03    0.1301688715E-03    0.6894985945E+00    0.7446028666E-03    0.1914745397E-03    0.4250765566E-02
    0.4100000000E+03    0.1372035992E-03    0.6898059302E+00    0.7868665838E-03    0.2024392407E-03    0.4246554462E-02
    0.4300000000E+03    0.1443568717E-03    0.6900848973E+00    0.8298109300E-03    0.2135803119E-03    0.4242260438E-02
    0.4500000000E+03    0.1516319380E-03    0.6903392487E+00    0.8734583943E-03    0.2249038325E-03    0.4237883244E-02
    0.4700000000E+03    0.1590321769E-03    0.6905721035E+00    0.9178318221E-03    0.2364159386E-03    0.4233422320E-02
    0.4900000000E+03    0.1665610947E-03    0.6907860753E+00    0.9629544723E-03    0.2481228454E-03    0.4228876844E-02
    0.1000000000E+03    0.4013671690E-04    0.6716976515E+00    0.1948118834E-03    0.4822167300E-04    0.4299814484E-02
    0.3000000000E+03    0.9989967161E-04    0.6876141740E+00    0.5622484293E-03    0.1441533483E-03    0.4268674199E-02
    0.5000000000E+03    0.1703749385E-03    0.6908866831E+00    0.9858041512E-03    0.2540513181E-03    0.4226572078E-02
    0.7000000000E+03    0.2543773468E-03    0.6922978575E+00    0.1488309313E-02    0.3844819522E-03    0.4175675794E-02
    0.9000000000E+03    0.3564250946E-03    0.6930838104E+00    0.2098017565E-02    0.5428932902E-03    0.4114045727E-02
    0.1100000000E+04    0.4829651201E-03    0.6935845423E+00    0.2854022734E-02    0.7395288691E-03    0.4038322794E-02
    0.1300000000E+04    0.6434634603E-03    0.6939313772E+00    0.3813375166E-02    0.9893371660E-03    0.3943454970E-02
    0.1500000000E+04    0.8522500218E-03    0.6941857560E+00    0.5062363289E-02    0.1314950016E-02    0.3821843822E-02
    0.1700000000E+04    0.1131611154E-02    0.6943802608E+00    0.6735290495E-02    0.1751642062E-02    0.3661880465E-02
    0.1900000000E+04    0.1516805647E-02    0.6945337771E+00    0.9044998009E-02    0.2355422058E-02    0.3445692624E-02
    0.2100000000E+04    0.2063015235E-02    0.6946580058E+00    0.1232553387E-01    0.3214443288E-02    0.3146474190E-02
    0.2300000000E+04    0.2849059590E-02    0.6947605829E+00    0.1705657415E-01    0.4455942069E-02    0.2728915297E-02
    0.2500000000E+04    0.3952293234E-02    0.6948467029E+00    0.2371645610E-01    0.6208732556E-02    0.2166903049E-02
    0.2700000000E+04    0.5339331147E-02    0.6949200227E+00    0.3212755904E-01    0.8432220737E-02    0.1503166044E-02
    0.2900000000E+04    0.6736594912E-02    0.6949831909E+00    0.4066488482E-01    0.1070558397E-01    0.9004944550E-03
    0.3100000000E+04    0.7825830481E-02    0.6950381732E+00    0.4740790861E-01    0.1252363448E-01    0.5111536594E-03
    0.3300000000E+04    0.8567658752E-02    0.6950864586E+00    0.5209600491E-01    0.1381199436E-01    0.3224633919E-03
    0.3500000000E+04    0.9094001698E-02    0.6951291961E+00    0.5550697483E-01    0.1477066542E-01    0.2451324226E-03
    0.3700000000E+04    0.9514516271E-02    0.6951672862E+00    0.5829513769E-01    0.1556993242E-01    0.2158299201E-03
    0.3900000000E+04    0.9884332980E-02    0.6952014447E+00    0.6079090358E-01    0.1629617006E-01    0.2052002397E-03
    0.4100000000E+04    0.1022695725E-01    0.6952322477E+00    0.6313527177E-01    0.1698628355E-01    0.2015681957E-03
    0.4300000000E+04    0.1055200329E-01    0.6952601641E+00    0.6538565318E-01    0.1765524474E-01    0.2005286004E-03
    0.4500000000E+04    0.1086350191E-01    0.6952855795E+00    0.6756574984E-01    0.1830915024E-01    0.2004437011E-03
    0.4700000000E+04    0.1116329553E-01    0.6953088137E+00    0.6968602891E-01    0.1895060491E-01    0.2007052550E-03
    0.4900000000E+04    0.1145236649E-01    0.6953301344E+00    0.7175176357E-01    0.1958084408E-01    0.2010867040E-03
    0.1000000000E+04    0.4161297254E-03    0.6933591672E+00    0.2454693279E-02    0.6356368054E-03    0.4078214468E-02
    0.3000000000E+04    0.7329441417E-02    0.6950116029E+00    0.4432064877E-01    0.1168762098E-01    0.6762153129E-03
    0.5000000000E+04    0.1159308671E-01    0.6953401491E+00    0.7276521775E-01    0.1989198474E-01    0.2012933581E-03
    0.7000000000E+04    0.1395475531E-01    0.6954798130E+00    0.9069666260E-01    0.2563127017E-01    0.2050792117E-03
    0.9000000000E+04    0.1565165122E-01    0.6955567298E+00    0.1050865351E+00    0.3062007801E-01    0.2079753263E-03
    0.1100000000E+05    0.1688694484E-01    0.6956052345E+00    0.1168895807E+00    0.3503962596E-01    0.2103149479E-03
    0.1300000000E+05    0.1779222487E-01    0.6956385022E+00    0.1267439885E+00    0.3901424522E-01    0.2122814936E-03
    0.1500000000E+05    0.1845594528E-01    0.6956626658E+00    0.1350929501E+00    0.4263250874E-01    0.2139799586E-03
    0.1700000000E+05    0.1893939717E-01    0.6956809638E+00    0.1422539879E+00    0.4595946895E-01    0.2154761926E-03
    0.1900000000E+05    0.1928614633E-01    0.6956952661E+00    0.1484606515E+00    0.4904414796E-01    0.2168142737E-03
    0.2100000000E+05    0.1952783775E-01    0.6957067269E+00    0.1538886321E+00    0.5192430848E-01    0.2180251859E-03
    0.2300000000E+05    0.1968788943E-01    0.6957160970E+00    0.1586726914E+00    0.5462959758E-01    0.2191315559E-03
    0.2500000000E+05    0.1978391316E-01    0.6957238854E+00    0.1629179668E+00    0.5718367984E-01    0.2201504214E-03
    0.2700000000E+05    0.1982934198E-01    0.6957304493E+00    0.1667077199E+00    0.5960572210E-01    0.2210949383E-03
    0.2900000000E+05    0.1983454914E-01    0.6957360466E+00    0.1701087692E+00    0.6191145036E-01    0.2219754809E-03
    0.3100000000E+05    0.1980763293E-01    0.6957408681E+00    0.1731753771E+00    0.6411391726E-01    0.2228003773E-03
    0.3300000000E+05    0.1975497699E-01    0.6957450578E+00    0.1759520811E+00    0.6622406936E-01    0.2235764164E-03
    0.3500000000E+05    0.1968165663E-01    0.6957487266E+00    0.1784757903E+00    0.6825117314E-01    0.2243092063E-03
    0.3700000000E+05    0.1959173782E-01    0.6957519610E+00    0.1807773606E+00    0.7020313961E-01    0.2250034346E-03
    0.3900000000E+05    0.1948850008E-01    0.6957548298E+00    0.1828827933E+00    0.7208677488E-01    0.2256630598E-03
    0.4100000000E+05    0.1937460450E-01    0.6957573879E+00    0.1848141595E+00    0.7390797588E-01    0.2262914558E-03
    0.4300000000E+05    0.1925222193E-01    0.6957596801E+00    0.1865903199E+00    0.7567188495E-01    0.2268915222E-03
    0.4500000000E+05    0.1912313152E-01    0.6957617430E+00    0.1882274914E+00    0.7738301318E-01    0.2274657690E-03
    0.4700000000E+05    0.1898879747E-01    0.6957636068E+00    0.1897396979E+00    0.7904533965E-01    0.2280163845E-03
    0.4900000000E+05    0.1885042898E-01    0.6957652969E+00    0.1911391305E+00    0.8066239207E-01    0.2285452876E-03
    0.1000000000E+05    0.1631751170E-01    0.6955834625E+00    0.1112658723E+00    0.3289221138E-01    0.2092006752E-03
    0.3000000000E+05    0.1982467267E-01    0.6957385444E+00    0.1716808944E+00    0.6302486352E-01    0.2223944293E-03
    0.5000000000E+05    0.1878005186E-01    0.6957660836E+00    0.1917999383E+00    0.8145493599E-01    0.2288021337E-03
    0.7000000000E+05    0.1732890470E-01    0.6957764222E+00    0.2010865008E+00    0.9553865548E-01    0.2331221458E-03
    0.9000000000E+05    0.1597551926E-01    0.6957813454E+00    0.2058838790E+00    0.1072653221E+00    0.2364015388E-03
    0.1100000000E+06    0.1478838485E-01    0.6957839507E+00    0.2084024029E+00    0.1174737736E+00    0.2390529959E-03
    0.1300000000E+06    0.1375751296E-01    0.6957853855E+00    0.2096187967E+00    0.1266034089E+00    0.2412828490E-03
    0.1500000000E+06    0.1285962741E-01    0.6957861648E+00    0.2100318453E+00    0.1349164338E+00    0.2432094464E-03
    0.1700000000E+06    0.1207229164E-01    0.6957865504E+00    0.2099224562E+00    0.1425835609E+00    0.2449071145E-03
    0.1900000000E+06    0.1137667633E-01    0.6957866876E+00    0.2094604146E+00    0.1497230829E+00    0.2464256552E-03
    0.2100000000E+06    0.1075756984E-01    0.6957866626E+00    0.2087539611E+00    0.1564208938E+00    0.2478001019E-03
    0.2300000000E+06    0.1020278767E-01    0.6957865287E+00    0.2078750247E+00    0.1627416716E+00    0.2490560540E-03
    0.2500000000E+06    0.9702547205E-02    0.6957863208E+00    0.2068730121E+00    0.1687355554E+00    0.2502127965E-03
    0.2700000000E+06    0.9248941795E-02    0.6957860618E+00    0.2057827814E+00    0.1744423474E+00    0.2512852264E-03
    0.2900000000E+06    0.8835527899E-02    0.6957857678E+00    0.2046294734E+00    0.1798942751E+00    0.2522850949E-03
    0.3100000000E+06    0.8457008387E-02    0.6957854499E+00    0.2034315527E+00    0.1851178726E+00    0.2532218380E-03
    0.3300000000E+06    0.8108990972E-02    0.6957851158E+00    0.2022027866E+00    0.1901353005E+00    0.2541031493E-03
    0.3500000000E+06    0.7787803533E-02    0.6957847714E+00    0.2009535687E+00    0.1949652979E+00    0.2549353859E-03
    0.3700000000E+06    0.7490352102E-02    0.6957844207E+00    0.1996918264E+00    0.1996238827E+00    0.2557238621E-03
    0.3900000000E+06    0.7214010818E-02    0.6957840669E+00    0.1984236559E+00    0.2041248776E+00    0.2564730666E-03
    0.4100000000E+06    0.6956535959E-02    0.6957837122E+00    0.1971537757E+00    0.2084803127E+00    0.2571868255E-03
    0.4300000000E+06    0.6715998201E-02    0.6957833583E+00    0.1958858546E+00    0.2127007373E+00    0.2578684274E-03
    0.4500000000E+06    0.6490728807E-02    0.6957830065E+00    0.1946227541E+00    0.2167954649E+00    0.2585207198E-03
    0.4700000000E+06    0.6279276527E-02    0.6957826575E+00    0.1933667081E+00    0.2207727692E+00    0.2591461849E-03
    0.4900000000E+06    0.6080372820E-02    0.6957823123E+00    0.1921194594E+00    0.2246400407E+00    0.2597469998E-03
    0.1000000000E+06    0.1536115590E-01    0.6957828437E+00    0.2073508207E+00    0.1125261563E+00    0.2377899944E-03
    0.3000000000E+06    0.8642199667E-02    0.6957856113E+00    0.2040351371E+00    0.1825331402E+00    0.2527608409E-03
    0.5000000000E+06    0.5985273152E-02    0.6957821411E+00    0.1914995703E+00    0.2265345143E+00    0.2600387724E-03
    0.7000000000E+06    0.4531786560E-02    0.6957789706E+00    0.1797608348E+00    0.2599567513E+00    0.2649466191E-03
    0.9000000000E+06    0.3608545165E-02    0.6957762679E+00    0.1693633145E+00    0.2871356571E+00    0.2686726298E-03
    0.1100000000E+07    0.2969547622E-02    0.6957739433E+00    0.1601755705E+00    0.3100632520E+00    0.2716853589E-03
    0.1300000000E+07    0.2501720619E-02    0.6957719115E+00    0.1520077770E+00    0.3298617736E+00    0.2742191300E-03
    0.1500000000E+07    0.2145277581E-02    0.6957701093E+00    0.1446941006E+00    0.3472412650E+00    0.2764083666E-03
    0.1700000000E+07    0.1865453882E-02    0.6957684905E+00    0.1381002305E+00    0.3626861399E+00    0.2783374997E-03
    0.1900000000E+07    0.1640589564E-02    0.6957670214E+00    0.1321186322E+00    0.3765448296E+00    0.2800631054E-03
    0.2100000000E+07    0.1456461396E-02    0.6957656764E+00    0.1266627676E+00    0.3890779536E+00    0.2816249846E-03
    0.2300000000E+07    0.1303334780E-02    0.6957644361E+00    0.1216623061E+00    0.4004864040E+00    0.2830522217E-03
    0.2500000000E+07    0.1174320242E-02    0.6957632850E+00    0.1170594669E+00    0.4109287706E+00    0.2843667276E-03
    0.2700000000E+07    0.1064404964E-02    0.6957622111E+00    0.1128062789E+00    0.4205326969E+00    0.2855854285E-03
    0.2900000000E+07    0.9698556327E-03    0.6957612044E+00    0.1088625245E+00    0.4294025811E+00    0.2867216761E-03
    0.3100000000E+07    0.8878359965E-03    0.6957602569E+00    0.1051941847E+00    0.4376249725E+00    0.2877861922E-03
    0.3300000000E+07    0.8161539659E-03    0.6957593619E+00    0.1017722504E+00    0.4452724573E+00    0.2887877187E-03
    0.3500000000E+07    0.7530896861E-03    0.6957585137E+00    0.9857180256E-01    0.4524065242E+00    0.2897334790E-03
    0.3700000000E+07    0.6972758298E-03    0.6957577076E+00    0.9557129245E-01    0.4590797194E+00    0.2906295118E-03
    0.3900000000E+07    0.6476124773E-03    0.6957569395E+00    0.9275197277E-01    0.4653372964E+00    0.2914809175E-03
    0.4100000000E+07    0.6032054574E-03    0.6957562060E+00    0.9009744291E-01    0.4712184973E+00    0.2922920439E-03
    0.4300000000E+07    0.5633209346E-03    0.6957555039E+00    0.8759328218E-01    0.4767575630E+00    0.2930666278E-03
    0.4500000000E+07    0.5273514644E-03    0.6957548306E+00    0.8522675158E-01    0.4819845380E+00    0.2938079049E-03
    0.4700000000E+07    0.4947902764E-03    0.6957541839E+00    0.8298654905E-01    0.4869259191E+00    0.2945186958E-03
    0.4900000000E+07    0.4652115542E-03    0.6957535615E+00    0.8086260735E-01    0.4916051826E+00    0.2952014746E-03
    0.1000000000E+07    0.3262361554E-02    0.6957750642E+00    0.1646303543E+00    0.2990477652E+00    0.2702502518E-03
    0.3000000000E+07    0.9274293811E-03    0.6957607237E+00    0.1069958463E+00    0.4335898872E+00    0.2872623140E-03
    0.5000000000E+07    0.4514258511E-03    0.6957532589E+00    0.7984138398E-01    0.4938531391E+00    0.2955330515E-03
    0.7000000000E+07    0.2685568547E-03    0.6957481386E+00    0.6376862842E-01    0.5290868354E+00    0.3011104562E-03
    0.9000000000E+07    0.1783850033E-03    0.6957442201E+00    0.5309605375E-01    0.5523520393E+00    0.3053448091E-03
    0.1100000000E+08    0.1271699747E-03    0.6957410368E+00    0.4548212453E-01    0.5688969124E+00    0.3087685728E-03
    0.1300000000E+08    0.9525907998E-04    0.6957383512E+00    0.3977352356E-01    0.5812762201E+00    0.3116480352E-03
    0.1500000000E+08    0.7402270149E-04    0.6957360256E+00    0.3533363145E-01    0.5908906595E+00    0.3141359579E-03
    0.1700000000E+08    0.5917402595E-04    0.6957339728E+00    0.3178156107E-01    0.5985746002E+00    0.3163282902E-03
    0.1900000000E+08    0.4838363163E-04    0.6957321343E+00    0.2887521755E-01    0.6048567546E+00    0.3182893268E-03
    0.2100000000E+08    0.4029586290E-04    0.6957304684E+00    0.2645326679E-01    0.6100886693E+00    0.3200642990E-03
    0.2300000000E+08    0.3407773540E-04    0.6957289447E+00    0.2440401522E-01    0.6145133061E+00    0.3216862588E-03
    0.2500000000E+08    0.2919431143E-04    0.6957275404E+00    0.2264766620E-01    0.6183040076E+00    0.3231801068E-03
    0.2700000000E+08    0.2528922768E-04    0.6957262376E+00    0.2112568602E-01    0.6215877878E+00    0.3245650784E-03
