  Pressure (Pa) 22mC5-500 (mol/kg) 24mC5-500 (mol/kg) 2mC6-500 (mol/kg) 3mC6-500 (mol/kg) C7-500 (mol/kg)
    0.1000000000E+01    0.7984185907E-05    0.3665976515E-01    0.7009146019E-05    0.8008178108E-05    0.4197032157E-02
    0.3000000000E+01    0.2108589443E-04    0.9948422619E-01    0.1809519786E-04    0.2050465350E-04    0.4264687217E-02
    0.5000000000E+01    0.3144813211E-04    0.1513630884E+00    0.2654625982E-04    0.3202536542E-04    0.4317887492E-02
    0.7000000000E+01    0.3980407657E-04    0.1949278598E+00    0.3313203101E-04    0.4308620515E-04    0.4362326637E-02
    0.9000000000E+01    0.4664741118E-04    0.2320290662E+00    0.3835504639E-04    0.5386094092E-04    0.4400154928E-02
    0.1100000000E+02    0.5232649664E-04    0.2640059673E+00    0.4256212207E-04    0.6443641157E-04    0.4432780239E-02
    0.1300000000E+02    0.5709418109E-04    0.2918517181E+00    0.4599975523E-04    0.7486425036E-04    0.4461217219E-02
    0.1500000000E+02    0.6113810642E-04    0.3163183896E+00    0.4884705442E-04    0.8517845508E-04    0.4486226237E-02
    0.1700000000E+02    0.6460014459E-04    0.3379859376E+00    0.5123654555E-04    0.9540298544E-04    0.4508391222E-02
    0.1900000000E+02    0.6758930116E-04    0.3573087754E+00    0.5326781342E-04    0.1055555712E-03    0.4528169041E-02
    0.2100000000E+02    0.7019051751E-04    0.3746480008E+00    0.5501669857E-04    0.1156498247E-03    0.4545922680E-02
    0.2300000000E+02    0.7247081392E-04    0.3902941804E+00    0.5654164081E-04    0.1256965039E-03    0.4561944390E-02
    0.2500000000E+02    0.7448366228E-04    0.4044837687E+00    0.5788814133E-04    0.1357043113E-03    0.4576472218E-02
    0.2700000000E+02    0.7627215352E-04    0.4174111445E+00    0.5909195543E-04    0.1456804242E-03    0.4589702087E-02
    0.2900000000E+02    0.7787132788E-04    0.4292375721E+00    0.6018141200E-04    0.1556308581E-03    0.4601796760E-02
    0.3100000000E+02    0.7930991345E-04    0.4400979643E+00    0.6117912171E-04    0.1655607255E-03    0.4612892602E-02
    0.3300000000E+02    0.8061163990E-04    0.4501060546E+00    0.6210325058E-04    0.1754744237E-03    0.4623104744E-02
    0.3500000000E+02    0.8179624256E-04    0.4593583960E+00    0.6296848007E-04    0.1853757747E-03    0.4632531077E-02
    0.3700000000E+02    0.8288023816E-04    0.4679374873E+00    0.6378673843E-04    0.1952681315E-03    0.4641255378E-02
    0.3900000000E+02    0.8387752991E-04    0.4759142404E+00    0.6456776282E-04    0.2051544601E-03    0.4649349773E-02
    0.4100000000E+02    0.8479988373E-04    0.4833499457E+00    0.6531953528E-04    0.2150374038E-03    0.4656876701E-02
    0.4300000000E+02    0.8565730616E-04    0.4902978507E+00    0.6604862343E-04    0.2249193341E-03    0.4663890499E-02
    0.4500000000E+02    0.8645834665E-04    0.4968044369E+00    0.6676044869E-04    0.2348023918E-03    0.4670438675E-02
    0.4700000000E+02    0.8721034096E-04    0.5029104619E+00    0.6745949892E-04    0.2446885204E-03    0.4676562956E-02
    0.4900000000E+02    0.8791960857E-04    0.5086518139E+00    0.6814949801E-04    0.2545794932E-03    0.4682300143E-02
    0.1000000000E+02    0.4961486614E-04    0.2485893218E+00    0.4056828121E-04    0.5916981235E-04    0.4417047384E-02
    0.3000000000E+02    0.7860910706E-04    0.4347809696E+00    0.6069050821E-04    0.1605980729E-03    0.4607461893E-02
    0.5000000000E+02    0.8825995709E-04    0.5113957975E+00    0.6849209225E-04    0.2595273095E-03    0.4685033907E-02
    0.7000000000E+02    0.9382073886E-04    0.5531758950E+00    0.7539022761E-04    0.3590728774E-03    0.4725616267E-02
    0.9000000000E+02    0.9839560607E-04    0.5794791631E+00    0.8293664521E-04    0.4603892098E-03    0.4749197771E-02
    0.1100000000E+03    0.1028845315E-03    0.5975616989E+00    0.9134170214E-04    0.5641430320E-03    0.4763394189E-02
    0.1300000000E+03    0.1075985343E-03    0.6107566462E+00    0.1005802316E-03    0.6708137257E-03    0.4771754307E-02
    0.1500000000E+03    0.1126559331E-03    0.6208097184E+00    0.1105958190E-03    0.7807957452E-03    0.4776158692E-02
    0.1700000000E+03    0.1181045660E-03    0.6287236965E+00    0.1213422647E-03    0.8944434098E-03    0.4777696495E-02
    0.1900000000E+03    0.1239653770E-03    0.6351156486E+00    0.1327898754E-03    0.1012093974E-02    0.4777040200E-02
    0.2100000000E+03    0.1302495419E-03    0.6403861161E+00    0.1449240296E-03    0.1134081121E-02    0.4774624877E-02
    0.2300000000E+03    0.1369656453E-03    0.6448064290E+00    0.1577425548E-03    0.1260743777E-02    0.4770741551E-02
    0.2500000000E+03    0.1441228158E-03    0.6485669213E+00    0.1712534421E-03    0.1392432492E-02    0.4765589206E-02
    0.2700000000E+03    0.1517321301E-03    0.6518050559E+00    0.1854731460E-03    0.1529514514E-02    0.4759305332E-02
    0.2900000000E+03    0.1598072566E-03    0.6546225905E+00    0.2004254091E-03    0.1672378178E-02    0.4751984677E-02
    0.3100000000E+03    0.1683647662E-03    0.6570964643E+00    0.2161404998E-03    0.1821436988E-02    0.4743691161E-02
    0.3300000000E+03    0.1774243086E-03    0.6592859291E+00    0.2326547635E-03    0.1977133608E-02    0.4734465675E-02
    0.3500000000E+03    0.1870087458E-03    0.6612373561E+00    0.2500104148E-03    0.2139943950E-02    0.4724331287E-02
    0.3700000000E+03    0.1971442903E-03    0.6629875555E+00    0.2682555182E-03    0.2310381458E-02    0.4713296774E-02
    0.3900000000E+03    0.2078606693E-03    0.6645661199E+00    0.2874441232E-03    0.2489001719E-02    0.4701359033E-02
    0.4100000000E+03    0.2191913275E-03    0.6659971106E+00    0.3076365305E-03    0.2676407467E-02    0.4688504716E-02
    0.4300000000E+03    0.2311736767E-03    0.6673002923E+00    0.3288996777E-03    0.2873254098E-02    0.4674711313E-02
    0.4500000000E+03    0.2438493954E-03    0.6684920513E+00    0.3513076361E-03    0.3080255772E-02    0.4659947836E-02
    0.4700000000E+03    0.2572647858E-03    0.6695860874E+00    0.3749422191E-03    0.3298192195E-02    0.4644175189E-02
    0.4900000000E+03    0.2714711904E-03    0.6705939432E+00    0.3998937039E-03    0.3527916214E-02    0.4627346303E-02
    0.1000000000E+03    0.1006244200E-03    0.5892867268E+00    0.8703168548E-04    0.5119287126E-03    0.4757191917E-02
    0.3000000000E+03    0.1640245592E-03    0.6558984324E+00    0.2081854684E-03    0.1746106254E-02    0.4747956502E-02
    0.5000000000E+03    0.2788885635E-03    0.6710686731E+00    0.4128940147E-03    0.3647487153E-02    0.4618518867E-02
    0.7000000000E+03    0.4871065900E-03    0.6777850535E+00    0.7739254612E-03    0.6954019333E-02    0.4367481049E-02
    0.9000000000E+03    0.9086324355E-03    0.6815732223E+00    0.1498800331E-02    0.1358336366E-01    0.3868344331E-02
    0.1100000000E+04    0.1842828738E-02    0.6840048511E+00    0.3106468283E-02    0.2833742817E-01    0.2829848957E-02
    0.1300000000E+04    0.3289853042E-02    0.6856976072E+00    0.5620781608E-02    0.5164623999E-01    0.1448056935E-02
    0.1500000000E+04    0.4165784091E-02    0.6869436195E+00    0.7190667721E-02    0.6662661998E-01    0.9325713772E-03
    0.1700000000E+04    0.4633029458E-02    0.6878989706E+00    0.8073733707E-02    0.7545340820E-01    0.8685091957E-03
    0.1900000000E+04    0.5010884936E-02    0.6886546310E+00    0.8813429194E-02    0.8306930189E-01    0.8670595294E-03
    0.2100000000E+04    0.5354616553E-02    0.6892672038E+00    0.9503868284E-02    0.9033181101E-01    0.8716680572E-03
    0.2300000000E+04    0.5672378744E-02    0.6897737521E+00    0.1015815666E-01    0.9735428936E-01    0.8764591050E-03
    0.2500000000E+04    0.5966644807E-02    0.6901995602E+00    0.1077962355E-01    0.1041600771E+00    0.8809025308E-03
    0.2700000000E+04    0.6239126172E-02    0.6905624679E+00    0.1137035063E-01    0.1107614742E+00    0.8850013069E-03
    0.2900000000E+04    0.6491336410E-02    0.6908754222E+00    0.1193215225E-01    0.1171688465E+00    0.8888012540E-03
    0.3100000000E+04    0.6724664488E-02    0.6911480465E+00    0.1246669786E-01    0.1233917275E+00    0.8923433490E-03
    0.3300000000E+04    0.6940391931E-02    0.6913876430E+00    0.1297553584E-01    0.1294389978E+00    0.8956610621E-03
    0.3500000000E+04    0.7139702828E-02    0.6915998523E+00    0.1346010525E-01    0.1353189515E+00    0.8987817606E-03
    0.3700000000E+04    0.7323692272E-02    0.6917891008E+00    0.1392174508E-01    0.1410393465E+00    0.9017280715E-03
    0.3900000000E+04    0.7493373946E-02    0.6919589102E+00    0.1436170267E-01    0.1466074468E+00    0.9045189140E-03
    0.4100000000E+04    0.7649686993E-02    0.6921121179E+00    0.1478114119E-01    0.1520300621E+00    0.9071702683E-03
    0.4300000000E+04    0.7793502249E-02    0.6922510348E+00    0.1518114648E-01    0.1573135831E+00    0.9096957560E-03
    0.4500000000E+04    0.7925627891E-02    0.6923775626E+00    0.1556273319E-01    0.1624640133E+00    0.9121070828E-03
    0.4700000000E+04    0.8046814568E-02    0.6924932801E+00    0.1592685041E-01    0.1674869984E+00    0.9144143833E-03
    0.4900000000E+04    0.8157760055E-02    0.6925995092E+00    0.1627438677E-01    0.1723878531E+00    0.9166264903E-03
    0.1000000000E+04    0.1285712116E-02    0.6829086227E+00    0.2146936344E-02    0.1952164351E-01    0.3438002252E-02
    0.3000000000E+04    0.6610278234E-02    0.6910162738E+00    0.1220273260E-01    0.1203027790E+00    0.8906022798E-03
    0.5000000000E+04    0.8209597000E-02    0.6926494209E+00    0.1644219944E-01    0.1747940577E+00    0.9176993042E-03
    0.7000000000E+04    0.8844117382E-02    0.6933465266E+00    0.1910463240E-01    0.2175813554E+00    0.9356223791E-03
    0.9000000000E+04    0.8970012704E-02    0.6937314350E+00    0.2079669991E-01    0.2524061983E+00    0.9491062007E-03
    0.1100000000E+05    0.8823188006E-02    0.6939746541E+00    0.2186138085E-01    0.2815091565E+00    0.9599512641E-03
    0.1300000000E+05    0.8531845041E-02    0.6941417628E+00    0.2250534986E-01    0.3063241895E+00    0.9690407963E-03
    0.1500000000E+05    0.8168079281E-02    0.6942633366E+00    0.2285947129E-01    0.3278185923E+00    0.9768753659E-03
    0.1700000000E+05    0.7773300813E-02    0.6943555400E+00    0.2300991804E-01    0.3466731577E+00    0.9837667573E-03
    0.1900000000E+05    0.7371498428E-02    0.6944277158E+00    0.2301524574E-01    0.3633839906E+00    0.9899226167E-03
    0.2100000000E+05    0.6976486248E-02    0.6944856368E+00    0.2291627030E-01    0.3783231916E+00    0.9954883402E-03
    0.2300000000E+05    0.6596012546E-02    0.6945330600E+00    0.2274204001E-01    0.3917766852E+00    0.1000569782E-02
    0.2500000000E+05    0.6234160470E-02    0.6945725350E+00    0.2251358322E-01    0.4039687235E+00    0.1005246453E-02
    0.2700000000E+05    0.5892785031E-02    0.6946058517E+00    0.2224633594E-01    0.4150782938E+00    0.1009579621E-02
    0.2900000000E+05    0.5572389772E-02    0.6946343035E+00    0.2195175774E-01    0.4252504255E+00    0.1013617517E-02
    0.3100000000E+05    0.5272669359E-02    0.6946588475E+00    0.2163843304E-01    0.4346041819E+00    0.1017398805E-02
    0.3300000000E+05    0.4992848762E-02    0.6946802073E+00    0.2131283718E-01    0.4432384369E+00    0.1020954959E-02
    0.3500000000E+05    0.4731896382E-02    0.6946989396E+00    0.2097987904E-01    0.4512361327E+00    0.1024311955E-02
    0.3700000000E+05    0.4488657961E-02    0.6947154795E+00    0.2064329143E-01    0.4586674737E+00    0.1027491480E-02
    0.3900000000E+05    0.4261940157E-02    0.6947301722E+00    0.2030591600E-01    0.4655923618E+00    0.1030511836E-02
    0.4100000000E+05    0.4050561854E-02    0.6947432948E+00    0.1996991369E-01    0.4720622772E+00    0.1033388608E-02
    0.4300000000E+05    0.3853384729E-02    0.6947550721E+00    0.1963692192E-01    0.4781217520E+00    0.1036135180E-02
    0.4500000000E+05    0.3669330426E-02    0.6947656885E+00    0.1930817319E-01    0.4838095361E+00    0.1038763135E-02
    0.4700000000E+05    0.3497389138E-02    0.6947752968E+00    0.1898458532E-01    0.4891595308E+00    0.1041282561E-02
    0.4900000000E+05    0.3336622726E-02    0.6947840243E+00    0.1866683065E-01    0.4942015426E+00    0.1043702302E-02
    0.1000000000E+05    0.8920937645E-02    0.6938654265E+00    0.2139226042E-01    0.2675694451E+00    0.9547908198E-03
    0.3000000000E+05    0.5419985615E-02    0.6946470142E+00    0.2179699180E-01    0.4300230038E+00    0.1015538124E-02
    0.5000000000E+05    0.3260156493E-02    0.6947880918E+00    0.1851029717E-01    0.4966154032E+00    0.1044877264E-02
    0.7000000000E+05    0.2142306789E-02    0.6948420188E+00    0.1573923544E-01    0.5337419640E+00    0.1064629796E-02
    0.9000000000E+05    0.1507409579E-02    0.6948682957E+00    0.1359940315E-01    0.5575318966E+00    0.1079614502E-02
    0.1100000000E+06    0.1115814698E-02    0.6948826420E+00    0.1193793053E-01    0.5741028575E+00    0.1091725351E-02
    0.1300000000E+06    0.8582985264E-03    0.6948909102E+00    0.1062267395E-01    0.5863155139E+00    0.1101907936E-02
    0.1500000000E+06    0.6802849363E-03    0.6948957410E+00    0.9560264582E-02    0.5956921854E+00    0.1110704155E-02
    0.1700000000E+06    0.5522533998E-03    0.6948984842E+00    0.8686260134E-02    0.6031190478E+00    0.1118454132E-02
    0.1900000000E+06    0.4571647550E-03    0.6948998933E+00    0.7955665938E-02    0.6091474631E+00    0.1125385666E-02
    0.2100000000E+06    0.3846462324E-03    0.6949004173E+00    0.7336429343E-02    0.6141386308E+00    0.1131658950E-02
    0.2300000000E+06    0.3280982728E-03    0.6949003375E+00    0.6805225433E-02    0.6183391345E+00    0.1137391008E-02
    0.2500000000E+06    0.2831633246E-03    0.6948998373E+00    0.6344732500E-02    0.6219230946E+00    0.1142669981E-02
    0.2700000000E+06    0.2468719752E-03    0.6948990404E+00    0.5941845138E-02    0.6250169805E+00    0.1147563943E-02
    0.2900000000E+06    0.2171450865E-03    0.6948980321E+00    0.5586479380E-02    0.6277148745E+00    0.1152126584E-02
    0.3100000000E+06    0.1924921468E-03    0.6948968728E+00    0.5270757357E-02    0.6300882199E+00    0.1156401012E-02
    0.3300000000E+06    0.1718223101E-03    0.6948956061E+00    0.4988439885E-02    0.6321922460E+00    0.1160422369E-02
    0.3500000000E+06    0.1543225164E-03    0.6948942635E+00    0.4734524199E-02    0.6340703219E+00    0.1164219693E-02
    0.3700000000E+06    0.1393768240E-03    0.6948928687E+00    0.4504953854E-02    0.6357569788E+00    0.1167817253E-02
    0.3900000000E+06    0.1265117799E-03    0.6948914391E+00    0.4296406174E-02    0.6372800526E+00    0.1171235549E-02
    0.4100000000E+06    0.1153586556E-03    0.6948899880E+00    0.4106134243E-02    0.6386622315E+00    0.1174492052E-02
    0.4300000000E+06    0.1056268547E-03    0.6948885254E+00    0.3931847861E-02    0.6399221937E+00    0.1177601779E-02
    0.4500000000E+06    0.9708487230E-04    0.6948870590E+00    0.3771622755E-02    0.6410754559E+00    0.1180577731E-02
    0.4700000000E+06    0.8954645143E-04    0.6948855947E+00    0.3623830536E-02    0.6421350150E+00    0.1183431241E-02
    0.4900000000E+06    0.8286037852E-04    0.6948841367E+00    0.3487084107E-02    0.6431118397E+00    0.1186172249E-02
    0.1000000000E+06    0.1289853066E-02    0.6948764806E+00    0.1271811492E-01    0.5664965552E+00    0.1085956889E-02
    0.3000000000E+06    0.2042602402E-03    0.6948974683E+00    0.5424085890E-02    0.6289383429E+00    0.1154297466E-02
    0.5000000000E+06    0.7979738487E-04    0.6948834113E+00    0.3422474808E-02    0.6435721953E+00    0.1187503345E-02
    0.7000000000E+06    0.4248496226E-04    0.6948697272E+00    0.2494959528E-02    0.6501017603E+00    0.1209892138E-02
    0.9000000000E+06    0.2650561525E-04    0.6948578350E+00    0.1960975694E-02    0.6537981415E+00    0.1226888156E-02
    0.1100000000E+07    0.1821761377E-04    0.6948475087E+00    0.1614245007E-02    0.6561760625E+00    0.1240629802E-02
    0.1300000000E+07    0.1336789548E-04    0.6948384313E+00    0.1371110073E-02    0.6578339293E+00    0.1252186345E-02
    0.1500000000E+07    0.1028379251E-04    0.6948303480E+00    0.1191250186E-02    0.6590556618E+00    0.1262171136E-02
    0.1700000000E+07    0.8199100613E-05    0.6948230671E+00    0.1052849784E-02    0.6599932796E+00    0.1270969394E-02
    0.1900000000E+07    0.6722573936E-05    0.6948164448E+00    0.9430799859E-03    0.6607355201E+00    0.1278839235E-02
    0.2100000000E+07    0.5637442323E-05    0.6948103718E+00    0.8539054382E-03    0.6613376596E+00    0.1285962239E-02
    0.2300000000E+07    0.4815702710E-05    0.6948047633E+00    0.7800378222E-03    0.6618359245E+00    0.1292471086E-02
    0.2500000000E+07    0.4177798645E-05    0.6947995524E+00    0.7178549804E-03    0.6622550457E+00    0.1298465733E-02
    0.2700000000E+07    0.3672159287E-05    0.6947946858E+00    0.6647929875E-03    0.6626124829E+00    0.1304023392E-02
    0.2900000000E+07    0.3264156570E-05    0.6947901200E+00    0.6189862044E-03    0.6629209129E+00    0.1309204969E-02
    0.3100000000E+07    0.2929832610E-05    0.6947858194E+00    0.5790448392E-03    0.6631897628E+00    0.1314059373E-02
    0.3300000000E+07    0.2652179449E-05    0.6947817542E+00    0.5439124156E-03    0.6634261880E+00    0.1318626481E-02
    0.3500000000E+07    0.2418849450E-05    0.6947778995E+00    0.5127715575E-03    0.6636357177E+00    0.1322939241E-02
    0.3700000000E+07    0.2220700288E-05    0.6947742340E+00    0.4849800095E-03    0.6638226920E+00    0.1327025198E-02
    0.3900000000E+07    0.2050844016E-05    0.6947707397E+00    0.4600261495E-03    0.6639905650E+00    0.1330907617E-02
    0.4100000000E+07    0.1904009994E-05    0.6947674009E+00    0.4374974029E-03    0.6641421201E+00    0.1334606329E-02
    0.4300000000E+07    0.1776108587E-05    0.6947642040E+00    0.4170573941E-03    0.6642796250E+00    0.1338138379E-02
    0.4500000000E+07    0.1663926411E-05    0.6947611372E+00    0.3984291426E-03    0.6644049460E+00    0.1341518525E-02
    0.4700000000E+07    0.1564909645E-05    0.6947581900E+00    0.3813825152E-03    0.6645196329E+00    0.1344759633E-02
    0.4900000000E+07    0.1477007469E-05    0.6947553532E+00    0.3657247301E-03    0.6646249837E+00    0.1347872987E-02
    0.1000000000E+07    0.2176187681E-04    0.6948524970E+00    0.1770933659E-02    0.6551035340E+00    0.1234084079E-02
    0.3000000000E+07    0.3088978647E-05    0.6947879385E+00    0.5983549007E-03    0.6630597937E+00    0.1311670392E-02
    0.5000000000E+07    0.1436692113E-05    0.6947539736E+00    0.3583647956E-03    0.6646745069E+00    0.1349384913E-02
    0.7000000000E+07    0.9381431138E-06    0.6947305980E+00    0.2553060389E-03    0.6653683539E+00    0.1374816016E-02
    0.9000000000E+07    0.7122896013E-06    0.6947126741E+00    0.1980826989E-03    0.6657541913E+00    0.1394122293E-02
    0.1100000000E+08    0.5860636934E-06    0.6946980933E+00    0.1617102575E-03    0.6659998349E+00    0.1409732139E-02
    0.1300000000E+08    0.5058584294E-06    0.6946857793E+00    0.1365624371E-03    0.6661699413E+00    0.1422859960E-02
    0.1500000000E+08    0.4503198373E-06    0.6946751067E+00    0.1181450131E-03    0.6662947107E+00    0.1434202401E-02
    0.1700000000E+08    0.4094379088E-06    0.6946656793E+00    0.1040790077E-03    0.6663901396E+00    0.1444197014E-02
    0.1900000000E+08    0.3779491919E-06    0.6946572298E+00    0.9298768258E-04    0.6664654918E+00    0.1453136989E-02
    0.2100000000E+08    0.3528385709E-06    0.6946495695E+00    0.8401924066E-04    0.6665265031E+00    0.1461228585E-02
    0.2300000000E+08    0.3322602875E-06    0.6946425596E+00    0.7661850771E-04    0.6665769145E+00    0.1468622515E-02
    0.2500000000E+08    0.3150229400E-06    0.6946360955E+00    0.7040821274E-04    0.6666192701E+00    0.1475432325E-02
    0.2700000000E+08    0.3003235160E-06    0.6946300959E+00    0.6512304594E-04    0.6666553601E+00    0.1481745724E-02
