  Pressure (Pa) 22mC5-500 (mol/kg) 24mC5-500 (mol/kg) 2mC6-500 (mol/kg) 3mC6-500 (mol/kg) C7-500 (mol/kg)
    0.1000000000E+01    0.7682484205E-05    0.6965282738E-01    0.1363872841E-04    0.1021777244E-04    0.4146177807E-02
    0.3000000000E+01    0.1838528801E-04    0.1740980029E+00    0.3153636390E-04    0.2525782758E-04    0.4175639000E-02
    0.5000000000E+01    0.2548274684E-04    0.2486778241E+00    0.4274531185E-04    0.3893768093E-04    0.4186854918E-02
    0.7000000000E+01    0.3046511146E-04    0.3046004928E+00    0.5027835179E-04    0.5199223563E-04    0.4193772293E-02
    0.9000000000E+01    0.3411893707E-04    0.3480892118E+00    0.5565307841E-04    0.6466362283E-04    0.4198518604E-02
    0.1100000000E+02    0.3689681204E-04    0.3828763212E+00    0.5970467013E-04    0.7707141786E-04    0.4201913844E-02
    0.1300000000E+02    0.3907537285E-04    0.4113361790E+00    0.6292044726E-04    0.8928613355E-04    0.4204384920E-02
    0.1500000000E+02    0.4083179153E-04    0.4350512910E+00    0.6559758897E-04    0.1013539078E-03    0.4206187663E-02
    0.1700000000E+02    0.4228387162E-04    0.4551170177E+00    0.6792370483E-04    0.1133070936E-03    0.4207488307E-02
    0.1900000000E+02    0.4351239240E-04    0.4723156322E+00    0.7002055047E-04    0.1251695348E-03    0.4208400816E-02
    0.2100000000E+02    0.4457419098E-04    0.4872207252E+00    0.7196891540E-04    0.1369594768E-03    0.4209006423E-02
    0.2300000000E+02    0.4551014190E-04    0.5002624425E+00    0.7382336485E-04    0.1486912998E-03    0.4209364803E-02
    0.2500000000E+02    0.4635019599E-04    0.5117696889E+00    0.7562126757E-04    0.1603766107E-03    0.4209520873E-02
    0.2700000000E+02    0.4711665826E-04    0.5219982598E+00    0.7738848367E-04    0.1720249651E-03    0.4209509135E-02
    0.2900000000E+02    0.4782637593E-04    0.5311500856E+00    0.7914303675E-04    0.1836443611E-03    0.4209356545E-02
    0.3100000000E+02    0.4849223232E-04    0.5393867020E+00    0.8089753562E-04    0.1952415893E-03    0.4209084485E-02
    0.3300000000E+02    0.4912418744E-04    0.5468388699E+00    0.8266080116E-04    0.2068224866E-03    0.4208710131E-02
    0.3500000000E+02    0.4973001579E-04    0.5536135712E+00    0.8443897714E-04    0.2183921248E-03    0.4208247444E-02
    0.3700000000E+02    0.5031583783E-04    0.5597991793E+00    0.8623629960E-04    0.2299549533E-03    0.4207707884E-02
    0.3900000000E+02    0.5088650845E-04    0.5654693364E+00    0.8805563645E-04    0.2415149092E-03    0.4207100948E-02
    0.4100000000E+02    0.5144590445E-04    0.5706859007E+00    0.8989887003E-04    0.2530755032E-03    0.4206434571E-02
    0.4300000000E+02    0.5199714000E-04    0.5755012124E+00    0.9176717109E-04    0.2646398880E-03    0.4205715431E-02
    0.4500000000E+02    0.5254272970E-04    0.5799598569E+00    0.9366119651E-04    0.2762109127E-03    0.4204949189E-02
    0.4700000000E+02    0.5308471334E-04    0.5841000497E+00    0.9558123300E-04    0.2877911675E-03    0.4204140672E-02
    0.4900000000E+02    0.5362475206E-04    0.5879547347E+00    0.9752730227E-04    0.2993830199E-03    0.4203294021E-02
    0.1000000000E+02    0.3559709656E-04    0.3663986240E+00    0.5780802824E-04    0.7089530699E-04    0.4200352933E-02
    0.3000000000E+02    0.4816410561E-04    0.5353739936E+00    0.8001966790E-04    0.1894453615E-03    0.4209234290E-02
    0.5000000000E+02    0.5389447644E-04    0.5897840852E+00    0.9851005296E-04    0.3051839818E-03    0.4202857531E-02
    0.7000000000E+02    0.5940992915E-04    0.6166462944E+00    0.1194443901E-03    0.4222624939E-03    0.4192777336E-02
    0.9000000000E+02    0.6538388404E-04    0.6326561955E+00    0.1425064060E-03    0.5422464291E-03    0.4181045620E-02
    0.1100000000E+03    0.7190215907E-04    0.6432852951E+00    0.1673646560E-03    0.6660777148E-03    0.4168283414E-02
    0.1300000000E+03    0.7896349470E-04    0.6508560854E+00    0.1938537509E-03    0.7944692962E-03    0.4154720143E-02
    0.1500000000E+03    0.8655917650E-04    0.6565225520E+00    0.2219152657E-03    0.9280394862E-03    0.4140442280E-02
    0.1700000000E+03    0.9468751468E-04    0.6609229580E+00    0.2515552297E-03    0.1067371423E-02    0.4125473355E-02
    0.1900000000E+03    0.1033556416E-03    0.6644389933E+00    0.2828209954E-03    0.1213044680E-02    0.4109804778E-02
    0.2100000000E+03    0.1125788418E-03    0.6673129268E+00    0.3157890556E-03    0.1365654858E-02    0.4093409198E-02
    0.2300000000E+03    0.1223796563E-03    0.6697059389E+00    0.3505587155E-03    0.1525827549E-02    0.4076246724E-02
    0.2500000000E+03    0.1327872301E-03    0.6717294281E+00    0.3872489936E-03    0.1694229609E-02    0.4058267902E-02
    0.2700000000E+03    0.1438369555E-03    0.6734628532E+00    0.4259974001E-03    0.1871579266E-02    0.4039415081E-02
    0.2900000000E+03    0.1555703745E-03    0.6749644147E+00    0.4669598934E-03    0.2058655910E-02    0.4019622901E-02
    0.3100000000E+03    0.1680352965E-03    0.6762777185E+00    0.5103116411E-03    0.2256310154E-02    0.3998818262E-02
    0.3300000000E+03    0.1812860983E-03    0.6774360809E+00    0.5562483903E-03    0.2465474536E-02    0.3976919962E-02
    0.3500000000E+03    0.1953841865E-03    0.6784653947E+00    0.6049883516E-03    0.2687175195E-02    0.3953838079E-02
    0.3700000000E+03    0.2103986100E-03    0.6793860873E+00    0.6567745544E-03    0.2922544821E-02    0.3929473163E-02
    0.3900000000E+03    0.2264068234E-03    0.6802144912E+00    0.7118776726E-03    0.3172837141E-02    0.3903715234E-02
    0.4100000000E+03    0.2434956022E-03    0.6809638203E+00    0.7705993384E-03    0.3439443236E-02    0.3876442620E-02
    0.4300000000E+03    0.2617621200E-03    0.6816448811E+00    0.8332759818E-03    0.3723909981E-02    0.3847520609E-02
    0.4500000000E+03    0.2813151990E-03    0.6822665965E+00    0.9002832426E-03    0.4027960912E-02    0.3816799919E-02
    0.4700000000E+03    0.3022767493E-03    0.6828363994E+00    0.9720410123E-03    0.4353519851E-02    0.3784114981E-02
    0.4900000000E+03    0.3247834110E-03    0.6833605311E+00    0.1049019164E-02    0.4702737600E-02    0.3749282018E-02
    0.1000000000E+03    0.6857452418E-04    0.6384582403E+00    0.1547245184E-03    0.6036333625E-03    0.4174774083E-02
    0.3000000000E+03    0.1617081576E-03    0.6756423144E+00    0.4883253783E-03    0.2156104600E-02    0.4009352018E-02
    0.5000000000E+03    0.3366633398E-03    0.6836071525E+00    0.1089627964E-02    0.4886960045E-02    0.3730997100E-02
    0.7000000000E+03    0.7066973711E-03    0.6870787226E+00    0.2351996274E-02    0.1061936702E-01    0.3186421534E-02
    0.9000000000E+03    0.1584909261E-02    0.6890226913E+00    0.5354982707E-02    0.2431885958E-01    0.2015636685E-02
    0.1100000000E+04    0.2918940898E-02    0.6902654824E+00    0.9970714908E-02    0.4562950384E-01    0.5667875681E-03
    0.1300000000E+04    0.3661811242E-02    0.6911284738E+00    0.1263586262E-01    0.5835821695E-01    0.1563082588E-03
    0.1500000000E+04    0.4104605066E-02    0.6917626726E+00    0.1430517375E-01    0.6668646420E-01    0.1153129057E-03
    0.1700000000E+04    0.4482852909E-02    0.6922484016E+00    0.1577651417E-01    0.7422597624E-01    0.1125999575E-03
    0.1900000000E+04    0.4828059036E-02    0.6926323244E+00    0.1715530949E-01    0.8144954966E-01    0.1130378457E-03
    0.2100000000E+04    0.5145364013E-02    0.6929434043E+00    0.1845675863E-01    0.8841737767E-01    0.1136761664E-03
    0.2300000000E+04    0.5437202867E-02    0.6932005703E+00    0.1968694776E-01    0.9514844060E-01    0.1142781056E-03
    0.2500000000E+04    0.5705583090E-02    0.6934167158E+00    0.2085071313E-01    0.1016567608E+00    0.1148322148E-03
    0.2700000000E+04    0.5952313880E-02    0.6936009268E+00    0.2195241735E-01    0.1079549329E+00    0.1153443794E-03
    0.2900000000E+04    0.6179043618E-02    0.6937597905E+00    0.2299605818E-01    0.1140545523E+00    0.1158205275E-03
    0.3100000000E+04    0.6387277669E-02    0.6938981991E+00    0.2398531037E-01    0.1199663387E+00    0.1162655022E-03
    0.3300000000E+04    0.6578392755E-02    0.6940198622E+00    0.2492355748E-01    0.1257002196E+00    0.1166832337E-03
    0.3500000000E+04    0.6753649583E-02    0.6941276434E+00    0.2581391969E-01    0.1312654038E+00    0.1170769487E-03
    0.3700000000E+04    0.6914204082E-02    0.6942237888E+00    0.2665927849E-01    0.1366704459E+00    0.1174493283E-03
    0.3900000000E+04    0.7061117400E-02    0.6943100848E+00    0.2746229863E-01    0.1419233036E+00    0.1178026252E-03
    0.4100000000E+04    0.7195364831E-02    0.6943879698E+00    0.2822544780E-01    0.1470313898E+00    0.1181387502E-03
    0.4300000000E+04    0.7317843789E-02    0.6944586154E+00    0.2895101417E-01    0.1520016189E+00    0.1184593387E-03
    0.4500000000E+04    0.7429380935E-02    0.6945229852E+00    0.2964112213E-01    0.1568404486E+00    0.1187658011E-03
    0.4700000000E+04    0.7530738577E-02    0.6945818790E+00    0.3029774644E-01    0.1615539175E+00    0.1190593625E-03
    0.4900000000E+04    0.7622620394E-02    0.6946359663E+00    0.3092272494E-01    0.1661476790E+00    0.1193410941E-03
    0.1000000000E+04    0.2275585999E-02    0.6897056763E+00    0.7732373286E-02    0.3524001724E-01    0.1200984279E-02
    0.3000000000E+04    0.6285383699E-02    0.6938312967E+00    0.2349726490E-01    0.1170332865E+00    0.1160466472E-03
    0.5000000000E+04    0.7665213019E-02    0.6946613875E+00    0.3122388674E-01    0.1684013385E+00    0.1194778225E-03
    0.7000000000E+04    0.8153452177E-02    0.6950172320E+00    0.3594483344E-01    0.2083156471E+00    0.1217702444E-03
    0.9000000000E+04    0.8195859900E-02    0.6952147647E+00    0.3888075086E-01    0.2406568513E+00    0.1235031647E-03
    0.1100000000E+05    0.8010752886E-02    0.6953403123E+00    0.4069200642E-01    0.2676601992E+00    0.1249008814E-03
    0.1300000000E+05    0.7711623819E-02    0.6954271022E+00    0.4176364397E-01    0.2907162139E+00    0.1260745090E-03
    0.1500000000E+05    0.7359863557E-02    0.6954906453E+00    0.4233334405E-01    0.3107430417E+00    0.1270874166E-03
    0.1700000000E+05    0.6989461147E-02    0.6955391532E+00    0.4255449687E-01    0.3283763153E+00    0.1279792463E-03
    0.1900000000E+05    0.6619368895E-02    0.6955773800E+00    0.4252965843E-01    0.3440732901E+00    0.1287764843E-03
    0.2100000000E+05    0.6260024022E-02    0.6956082677E+00    0.4232937959E-01    0.3581734528E+00    0.1294977223E-03
    0.2300000000E+05    0.5916934177E-02    0.6956337346E+00    0.4200333252E-01    0.3709355784E+00    0.1301565220E-03
    0.2500000000E+05    0.5592715093E-02    0.6956550848E+00    0.4158715901E-01    0.3825613495E+00    0.1307630863E-03
    0.2700000000E+05    0.5288279336E-02    0.6956732356E+00    0.4110683342E-01    0.3932109557E+00    0.1313252874E-03
    0.2900000000E+05    0.5003543949E-02    0.6956888510E+00    0.4058152545E-01    0.4030137184E+00    0.1318493296E-03
    0.3100000000E+05    0.4737857918E-02    0.6957024233E+00    0.4002552700E-01    0.4120755231E+00    0.1323401905E-03
    0.3300000000E+05    0.4490262749E-02    0.6957143255E+00    0.3944957791E-01    0.4204841426E+00    0.1328019261E-03
    0.3500000000E+05    0.4259651798E-02    0.6957248450E+00    0.3886179614E-01    0.4283131300E+00    0.1332378855E-03
    0.3700000000E+05    0.4044867284E-02    0.6957342072E+00    0.3826834138E-01    0.4356247177E+00    0.1336508672E-03
    0.3900000000E+05    0.3844758513E-02    0.6957425909E+00    0.3767389582E-01    0.4424720134E+00    0.1340432337E-03
    0.4100000000E+05    0.3658215804E-02    0.6957501400E+00    0.3708201703E-01    0.4489006878E+00    0.1344169981E-03
    0.4300000000E+05    0.3484189145E-02    0.6957569718E+00    0.3649540010E-01    0.4549502887E+00    0.1347738899E-03
    0.4500000000E+05    0.3321697264E-02    0.6957631824E+00    0.3591607446E-01    0.4606552778E+00    0.1351154062E-03
    0.4700000000E+05    0.3169830749E-02    0.6957688516E+00    0.3534555302E-01    0.4660458565E+00    0.1354428516E-03
    0.4900000000E+05    0.3027751536E-02    0.6957740462E+00    0.3478494620E-01    0.4711486309E+00    0.1357573703E-03
    0.1000000000E+05    0.8123009588E-02    0.6952838372E+00    0.3989839166E-01    0.2547246644E+00    0.1242354172E-03
    0.3000000000E+05    0.4868374709E-02    0.6956958669E+00    0.4030662050E-01    0.4076313815E+00    0.1320986355E-03
    0.5000000000E+05    0.2960139152E-02    0.6957764835E+00    0.3450861974E-01    0.4735995579E+00    0.1359101019E-03
    0.7000000000E+05    0.1967449827E-02    0.6958102323E+00    0.2959201930E-01    0.5120210217E+00    0.1384785485E-03
    0.9000000000E+05    0.1397633338E-02    0.6958285233E+00    0.2575236971E-01    0.5374714778E+00    0.1404278852E-03
    0.1100000000E+06    0.1042545579E-02    0.6958398646E+00    0.2273906028E-01    0.5556558897E+00    0.1420037754E-03
    0.1300000000E+06    0.8069271909E-03    0.6958475062E+00    0.2033147990E-01    0.5693276577E+00    0.1433289847E-03
    0.1500000000E+06    0.6427957001E-03    0.6958529535E+00    0.1837135935E-01    0.5799938177E+00    0.1444739079E-03
    0.1700000000E+06    0.5239745350E-03    0.6958569980E+00    0.1674799551E-01    0.5885532073E+00    0.1454827465E-03
    0.1900000000E+06    0.4352320611E-03    0.6958600944E+00    0.1538318842E-01    0.5955768463E+00    0.1463851126E-03
    0.2100000000E+06    0.3672273472E-03    0.6958625220E+00    0.1422066220E-01    0.6014455875E+00    0.1472018352E-03
    0.2300000000E+06    0.3139778836E-03    0.6958644616E+00    0.1321909858E-01    0.6064235060E+00    0.1479481327E-03
    0.2500000000E+06    0.2715100863E-03    0.6958660352E+00    0.1234757238E-01    0.6106996207E+00    0.1486354690E-03
    0.2700000000E+06    0.2371018035E-03    0.6958673279E+00    0.1158252334E-01    0.6144128672E+00    0.1492726992E-03
    0.2900000000E+06    0.2088379395E-03    0.6958684008E+00    0.1090571098E-01    0.6176676967E+00    0.1498668079E-03
    0.3100000000E+06    0.1853396945E-03    0.6958692990E+00    0.1030280656E-01    0.6205441728E+00    0.1504234036E-03
    0.3300000000E+06    0.1655940717E-03    0.6958700562E+00    0.9762405520E-02    0.6231047103E+00    0.1509470589E-03
    0.3500000000E+06    0.1488433863E-03    0.6958706984E+00    0.9275322322E-02    0.6253986919E+00    0.1514415520E-03
    0.3700000000E+06    0.1345118143E-03    0.6958712455E+00    0.8834078633E-02    0.6274657061E+00    0.1519100412E-03
    0.3900000000E+06    0.1221554508E-03    0.6958717135E+00    0.8432526156E-02    0.6293378635E+00    0.1523551942E-03
    0.4100000000E+06    0.1114276579E-03    0.6958721149E+00    0.8065564744E-02    0.6310414851E+00    0.1527792849E-03
    0.4300000000E+06    0.1020545800E-03    0.6958724599E+00    0.7728928990E-02    0.6325983519E+00    0.1531842674E-03
    0.4500000000E+06    0.9381755687E-04    0.6958727568E+00    0.7419024729E-02    0.6340266445E+00    0.1535718339E-03
    0.4700000000E+06    0.8654029945E-04    0.6958730125E+00    0.7132802396E-02    0.6353416576E+00    0.1539434597E-03
    0.4900000000E+06    0.8007941086E-04    0.6958732326E+00    0.6867657929E-02    0.6365563517E+00    0.1543004383E-03
    0.1000000000E+06    0.1200780282E-02    0.6958347981E+00    0.2415776998E-01    0.5472589109E+00    0.1412531301E-03
    0.3000000000E+06    0.1965634817E-03    0.6958688694E+00    0.1059579221E-01    0.6191489766E+00    0.1501494880E-03
    0.5000000000E+06    0.7711750363E-04    0.6958733308E+00    0.6742278336E-02    0.6371295986E+00    0.1544737969E-03
    0.7000000000E+06    0.4092558898E-04    0.6958742445E+00    0.4934808692E-02    0.6453154071E+00    0.1573897992E-03
    0.9000000000E+06    0.2536261499E-04    0.6958741898E+00    0.3887709017E-02    0.6499954817E+00    0.1596035888E-03
    0.1100000000E+07    0.1728010331E-04    0.6958737918E+00    0.3205198023E-02    0.6530239462E+00    0.1613935769E-03
    0.1300000000E+07    0.1255170455E-04    0.6958732617E+00    0.2725370788E-02    0.6551435339E+00    0.1628989921E-03
    0.1500000000E+07    0.9548339756E-05    0.6958726840E+00    0.2369755822E-02    0.6567097693E+00    0.1641997038E-03
    0.1700000000E+07    0.7522014440E-05    0.6958720963E+00    0.2095728523E-02    0.6579141832E+00    0.1653458769E-03
    0.1900000000E+07    0.6090234311E-05    0.6958715161E+00    0.1878149410E-02    0.6588690824E+00    0.1663711260E-03
    0.2100000000E+07    0.5040906367E-05    0.6958709515E+00    0.1701236583E-02    0.6596446676E+00    0.1672990990E-03
    0.2300000000E+07    0.4248743824E-05    0.6958704061E+00    0.1554584607E-02    0.6602870718E+00    0.1681470759E-03
    0.2500000000E+07    0.3635876238E-05    0.6958698812E+00    0.1431055850E-02    0.6608278587E+00    0.1689280750E-03
    0.2700000000E+07    0.3151837496E-05    0.6958693769E+00    0.1325591730E-02    0.6612893519E+00    0.1696521528E-03
    0.2900000000E+07    0.2762756414E-05    0.6958688924E+00    0.1234507520E-02    0.6616877851E+00    0.1703272422E-03
    0.3100000000E+07    0.2445213297E-05    0.6958684270E+00    0.1155055852E-02    0.6620352455E+00    0.1709597132E-03
    0.3300000000E+07    0.2182595024E-05    0.6958679796E+00    0.1085146641E-02    0.6623409179E+00    0.1715547598E-03
    0.3500000000E+07    0.1962851396E-05    0.6958675492E+00    0.1023161726E-02    0.6626119066E+00    0.1721166738E-03
    0.3700000000E+07    0.1777069288E-05    0.6958671347E+00    0.9678288689E-03    0.6628537925E+00    0.1726490429E-03
    0.3900000000E+07    0.1618540849E-05    0.6958667351E+00    0.9181340607E-03    0.6630710206E+00    0.1731548974E-03
    0.4100000000E+07    0.1482139361E-05    0.6958663494E+00    0.8732592093E-03    0.6632671750E+00    0.1736368206E-03
    0.4300000000E+07    0.1363891920E-05    0.6958659769E+00    0.8325370303E-03    0.6634451776E+00    0.1740970325E-03
    0.4500000000E+07    0.1260681050E-05    0.6958656167E+00    0.7954178499E-03    0.6636074343E+00    0.1745374557E-03
    0.4700000000E+07    0.1170032645E-05    0.6958652680E+00    0.7614448025E-03    0.6637559439E+00    0.1749597659E-03
    0.4900000000E+07    0.1089962819E-05    0.6958649301E+00    0.7302350491E-03    0.6638923809E+00    0.1753654332E-03
    0.1000000000E+07    0.2073682512E-04    0.6958740160E+00    0.3513882335E-02    0.6516562838E+00    0.1605409207E-03
    0.3000000000E+07    0.2596209117E-05    0.6958686574E+00    0.1193471125E-02    0.6618672560E+00    0.1706484564E-03
    0.5000000000E+07    0.1053380702E-05    0.6958647650E+00    0.7155633980E-03    0.6639565226E+00    0.1755624368E-03
    0.7000000000E+07    0.6115083990E-06    0.6958619026E+00    0.5100187356E-03    0.6648554871E+00    0.1788762110E-03
    0.9000000000E+07    0.4221362154E-06    0.6958596389E+00    0.3958075106E-03    0.6653555419E+00    0.1813920280E-03
    0.1100000000E+08    0.3220035886E-06    0.6958577630E+00    0.3231815596E-03    0.6656738942E+00    0.1834262428E-03
    0.1300000000E+08    0.2616890079E-06    0.6958561584E+00    0.2729541666E-03    0.6658943138E+00    0.1851370666E-03
    0.1500000000E+08    0.2219791471E-06    0.6958547544E+00    0.2361620442E-03    0.6660559481E+00    0.1866152607E-03
    0.1700000000E+08    0.1940913467E-06    0.6958535050E+00    0.2080585295E-03    0.6661795382E+00    0.1879178322E-03
    0.1900000000E+08    0.1735242490E-06    0.6958523783E+00    0.1858958230E-03    0.6662770972E+00    0.1890829810E-03
    0.2100000000E+08    0.1577647756E-06    0.6958513516E+00    0.1679734366E-03    0.6663560637E+00    0.1901375809E-03
    0.2300000000E+08    0.1453133864E-06    0.6958504078E+00    0.1531828366E-03    0.6664212891E+00    0.1911012694E-03
    0.2500000000E+08    0.1352263347E-06    0.6958495342E+00    0.1407705990E-03    0.6664760729E+00    0.1919888410E-03
    0.2700000000E+08    0.1268831399E-06    0.6958487205E+00    0.1302068231E-03    0.6665227365E+00    0.1928117242E-03
