  Pressure (Pa) 22mC5-500 (mol/kg) 24mC5-500 (mol/kg) 2mC6-500 (mol/kg) 3mC6-500 (mol/kg) C7-500 (mol/kg)
    0.1000000000E+01    0.5269449457E-05    0.2487101573E+00    0.9108689790E-05    0.2041088276E-05    0.4145280944E-02
    0.3000000000E+01    0.8518247247E-05    0.4351370012E+00    0.1425631324E-04    0.5035053103E-05    0.4167987833E-02
    0.5000000000E+01    0.9749509055E-05    0.5118766547E+00    0.1667048439E-04    0.7747122787E-05    0.4173070027E-02
    0.7000000000E+01    0.1052082014E-04    0.5537293230E+00    0.1873727521E-04    0.1032523541E-04    0.4175151809E-02
    0.9000000000E+01    0.1115251327E-04    0.5800792852E+00    0.2079807194E-04    0.1281830693E-04    0.4176139699E-02
    0.1100000000E+02    0.1173880894E-04    0.5981941979E+00    0.2290801408E-04    0.1525056096E-04    0.4176603412E-02
    0.1300000000E+02    0.1231271616E-04    0.6114128744E+00    0.2506782865E-04    0.1763631341E-04    0.4176775563E-02
    0.1500000000E+02    0.1288678203E-04    0.6214840894E+00    0.2726821126E-04    0.1998494699E-04    0.4176769322E-02
    0.1700000000E+02    0.1346578603E-04    0.6294124084E+00    0.2949959850E-04    0.2230304858E-04    0.4176646432E-02
    0.1900000000E+02    0.1405132709E-04    0.6358160032E+00    0.3175414121E-04    0.2459547537E-04    0.4176443433E-02
    0.2100000000E+02    0.1464365612E-04    0.6410961329E+00    0.3402579347E-04    0.2686594427E-04    0.4176183312E-02
    0.2300000000E+02    0.1524245974E-04    0.6455246126E+00    0.3630999378E-04    0.2911738309E-04    0.4175881235E-02
    0.2500000000E+02    0.1584720992E-04    0.6492921154E+00    0.3860331953E-04    0.3135215235E-04    0.4175547595E-02
    0.2700000000E+02    0.1645732267E-04    0.6525363482E+00    0.4090320177E-04    0.3357219189E-04    0.4175189739E-02
    0.2900000000E+02    0.1707222909E-04    0.6553592488E+00    0.4320770773E-04    0.3577912157E-04    0.4174813001E-02
    0.3100000000E+02    0.1769140495E-04    0.6578378913E+00    0.4551537968E-04    0.3797431254E-04    0.4174421335E-02
    0.3300000000E+02    0.1831438066E-04    0.6600316316E+00    0.4782511634E-04    0.4015893904E-04    0.4174017732E-02
    0.3500000000E+02    0.1894074193E-04    0.6619869215E+00    0.5013608563E-04    0.4233401700E-04    0.4173604489E-02
    0.3700000000E+02    0.1957012620E-04    0.6637406353E+00    0.5244766013E-04    0.4450043324E-04    0.4173183395E-02
    0.3900000000E+02    0.2020221767E-04    0.6653224167E+00    0.5475936906E-04    0.4665896799E-04    0.4172755862E-02
    0.4100000000E+02    0.2083674174E-04    0.6667563685E+00    0.5707086222E-04    0.4881031260E-04    0.4172323016E-02
    0.4300000000E+02    0.2147345984E-04    0.6680622894E+00    0.5938188279E-04    0.5095508350E-04    0.4171885764E-02
    0.4500000000E+02    0.2211216461E-04    0.6692565937E+00    0.6169224654E-04    0.5309383350E-04    0.4171444840E-02
    0.4700000000E+02    0.2275267570E-04    0.6703530048E+00    0.6400182597E-04    0.5522706093E-04    0.4171000849E-02
    0.4900000000E+02    0.2339483611E-04    0.6713630849E+00    0.6631053800E-04    0.5735521710E-04    0.4170554286E-02
    0.1000000000E+02    0.1144854121E-04    0.5899043875E+00    0.2184639352E-04    0.1404098865E-04    0.4176418412E-02
    0.3000000000E+02    0.1738131400E-04    0.6566375426E+00    0.4436122399E-04    0.3687810690E-04    0.4174618828E-02
    0.5000000000E+02    0.2371649131E-04    0.6718388757E+00    0.6746455253E-04    0.5841752321E-04    0.4170330172E-02
    0.7000000000E+02    0.3021105869E-04    0.6785715339E+00    0.9049922732E-04    0.7948036757E-04    0.4165782837E-02
    0.9000000000E+02    0.3678824597E-04    0.6823705926E+00    0.1134835310E-03    0.1003456157E-03    0.4161192880E-02
    0.1100000000E+03    0.4342809143E-04    0.6848104262E+00    0.1364826515E-03    0.1211546147E-03    0.4156600589E-02
    0.1300000000E+03    0.5012707278E-04    0.6865097974E+00    0.1595543170E-03    0.1419932652E-03    0.4152011617E-02
    0.1500000000E+03    0.5688712115E-04    0.6877613766E+00    0.1827451897E-03    0.1629199082E-03    0.4147422815E-02
    0.1700000000E+03    0.6371206999E-04    0.6887215508E+00    0.2060931060E-03    0.1839773586E-03    0.4142828784E-02
    0.1900000000E+03    0.7060637072E-04    0.6894814783E+00    0.2296294324E-03    0.2051989216E-03    0.4138223819E-02
    0.2100000000E+03    0.7757460196E-04    0.6900978858E+00    0.2533808425E-03    0.2266117234E-03    0.4133602492E-02
    0.2300000000E+03    0.8462128402E-04    0.6906079222E+00    0.2773705837E-03    0.2482386975E-03    0.4128959808E-02
    0.2500000000E+03    0.9175081773E-04    0.6910369340E+00    0.3016193759E-03    0.2700998412E-03    0.4124291203E-02
    0.2700000000E+03    0.9896747524E-04    0.6914028073E+00    0.3261460578E-03    0.2922130467E-03    0.4119592498E-02
    0.2900000000E+03    0.1062754121E-03    0.6917185246E+00    0.3509680598E-03    0.3145946738E-03    0.4114859844E-02
    0.3100000000E+03    0.1136786871E-03    0.6919937374E+00    0.3761017562E-03    0.3372599573E-03    0.4110089669E-02
    0.3300000000E+03    0.1211812846E-03    0.6922357703E+00    0.4015627329E-03    0.3602233048E-03    0.4105278623E-02
    0.3500000000E+03    0.1287871354E-03    0.6924502821E+00    0.4273659947E-03    0.3834985202E-03    0.4100423544E-02
    0.3700000000E+03    0.1365001369E-03    0.6926417142E+00    0.4535261278E-03    0.4070989752E-03    0.4095521419E-02
    0.3900000000E+03    0.1443241711E-03    0.6928136009E+00    0.4800574313E-03    0.4310377443E-03    0.4090569354E-02
    0.4100000000E+03    0.1522631208E-03    0.6929687900E+00    0.5069740228E-03    0.4553277121E-03    0.4085564551E-02
    0.4300000000E+03    0.1603208841E-03    0.6931096018E+00    0.5342899272E-03    0.4799816613E-03    0.4080504286E-02
    0.4500000000E+03    0.1685013878E-03    0.6932379456E+00    0.5620191507E-03    0.5050123456E-03    0.4075385890E-02
    0.4700000000E+03    0.1768085995E-03    0.6933554070E+00    0.5901757442E-03    0.5304325513E-03    0.4070206736E-02
    0.4900000000E+03    0.1852465386E-03    0.6934633138E+00    0.6187738589E-03    0.5562551505E-03    0.4064964223E-02
    0.1000000000E+03    0.4010075435E-04    0.6837103433E+00    0.1249773559E-03    0.1107509230E-03    0.4158896327E-02
    0.3000000000E+03    0.1099648818E-03    0.6918606908E+00    0.3634949563E-03    0.3258909415E-03    0.4112479661E-02
    0.5000000000E+03    0.1895158036E-03    0.6935140411E+00    0.6332429484E-03    0.5693214051E-03    0.4062318399E-02
    0.7000000000E+03    0.2828159646E-03    0.6942249673E+00    0.9494607242E-03    0.8550968747E-03    0.4005436394E-02
    0.9000000000E+03    0.3946095243E-03    0.6946205070E+00    0.1328552574E-02    0.1198144163E-02    0.3939069903E-02
    0.1100000000E+04    0.5312494443E-03    0.6948724140E+00    0.1792277017E-02    0.1618289005E-02    0.3859820757E-02
    0.1300000000E+04    0.7017222433E-03    0.6950468925E+00    0.2371375842E-02    0.2143584173E-02    0.3763077233E-02
    0.1500000000E+04    0.9191596464E-03    0.6951748793E+00    0.3110797266E-02    0.2815102982E-02    0.3642291382E-02
    0.1700000000E+04    0.1203202598E-02    0.6952727676E+00    0.4077853489E-02    0.3694447201E-02    0.3487933434E-02
    0.1900000000E+04    0.1583593224E-02    0.6953500546E+00    0.5374659132E-02    0.4875243522E-02    0.3286031675E-02
    0.2100000000E+04    0.2104853432E-02    0.6954126221E+00    0.7154483324E-02    0.6498394424E-02    0.3016601498E-02
    0.2300000000E+04    0.2828986051E-02    0.6954643079E+00    0.9631763811E-02    0.8761923061E-02    0.2653933516E-02
    0.2500000000E+04    0.3822896651E-02    0.6955077222E+00    0.1304054421E-01    0.1188431895E-01    0.2175725861E-02
    0.2700000000E+04    0.5099309339E-02    0.6955447024E+00    0.1743385274E-01    0.1592259640E-01    0.1594626705E-02
    0.2900000000E+04    0.6512435714E-02    0.6955765792E+00    0.2232437558E-01    0.2044184268E-01    0.1002775985E-02
    0.3100000000E+04    0.7781463689E-02    0.6956043401E+00    0.2675530051E-01    0.2457142150E-01    0.5392958654E-03
    0.3300000000E+04    0.8738641729E-02    0.6956287334E+00    0.3014478460E-01    0.2777271547E-01    0.2626545855E-03
    0.3500000000E+04    0.9425554582E-02    0.6956503362E+00    0.3262487174E-01    0.3015731802E-01    0.1272602870E-03
    0.3700000000E+04    0.9950221792E-02    0.6956696010E+00    0.3455957407E-01    0.3205294494E-01    0.6786913197E-04
    0.3900000000E+04    0.1039026329E-01    0.6956868875E+00    0.3621256007E-01    0.3369889030E-01    0.4308349954E-04
    0.4100000000E+04    0.1078608986E-01    0.6957024852E+00    0.3772157561E-01    0.3522061617E-01    0.3294909824E-04
    0.4300000000E+04    0.1115638842E-01    0.6957166299E+00    0.3915034875E-01    0.3667621936E-01    0.2884584392E-04
    0.4500000000E+04    0.1150951174E-01    0.6957295151E+00    0.4052724671E-01    0.3809147689E-01    0.2720355550E-04
    0.4700000000E+04    0.1184924837E-01    0.6957413019E+00    0.4186497005E-01    0.3947780018E-01    0.2656443888E-04
    0.4900000000E+04    0.1217742240E-01    0.6957521246E+00    0.4316946299E-01    0.4084039164E-01    0.2633484586E-04
    0.1000000000E+04    0.4593382673E-03    0.6947590377E+00    0.1548175191E-02    0.1397065007E-02    0.3901308188E-02
    0.3000000000E+04    0.7181064378E-02    0.6955909227E+00    0.2465266868E-01    0.2260619573E-01    0.7482040185E-03
    0.5000000000E+04    0.1233749769E-01    0.6957572107E+00    0.4381026032E-01    0.4151363636E-01    0.2629098705E-04
    0.7000000000E+04    0.1506665991E-01    0.6958283547E+00    0.5527022704E-01    0.5402957372E-01    0.2665134268E-04
    0.9000000000E+04    0.1708363470E-01    0.6958678011E+00    0.6463097983E-01    0.6504866656E-01    0.2702690775E-04
    0.1100000000E+05    0.1858477122E-01    0.6958928507E+00    0.7240190769E-01    0.7489625637E-01    0.2733048268E-04
    0.1300000000E+05    0.1970388494E-01    0.6959101549E+00    0.7893929980E-01    0.8380471596E-01    0.2758573149E-04
    0.1500000000E+05    0.2053494950E-01    0.6959228162E+00    0.8450037878E-01    0.9194546977E-01    0.2780623411E-04
    0.1700000000E+05    0.2114554277E-01    0.6959324763E+00    0.8927548228E-01    0.9944806964E-01    0.2800051432E-04
    0.1900000000E+05    0.2158525739E-01    0.6959400849E+00    0.9340847818E-01    0.1064124809E+00    0.2817428105E-04
    0.2100000000E+05    0.2189113133E-01    0.6959462296E+00    0.9701013834E-01    0.1129172495E+00    0.2833154906E-04
    0.2300000000E+05    0.2209125188E-01    0.6959512936E+00    0.1001671476E+00    0.1190250817E+00    0.2847525126E-04
    0.2500000000E+05    0.2220720580E-01    0.6959555370E+00    0.1029483224E+00    0.1247867492E+00    0.2860759672E-04
    0.2700000000E+05    0.2225578069E-01    0.6959591429E+00    0.1054089976E+00    0.1302438805E+00    0.2873029157E-04
    0.2900000000E+05    0.2225016900E-01    0.6959622438E+00    0.1075941807E+00    0.1354309944E+00    0.2884468150E-04
    0.3100000000E+05    0.2220083455E-01    0.6959649378E+00    0.1095408596E+00    0.1403770071E+00    0.2895184695E-04
    0.3300000000E+05    0.2211614570E-01    0.6959672993E+00    0.1112797174E+00    0.1451063654E+00    0.2905266876E-04
    0.3500000000E+05    0.2200284441E-01    0.6959693856E+00    0.1128364247E+00    0.1496399123E+00    0.2914787471E-04
    0.3700000000E+05    0.2186639811E-01    0.6959712417E+00    0.1142326260E+00    0.1539955541E+00    0.2923807316E-04
    0.3900000000E+05    0.2171126660E-01    0.6959729030E+00    0.1154867021E+00    0.1581887836E+00    0.2932377788E-04
    0.4100000000E+05    0.2154110671E-01    0.6959743984E+00    0.1166143642E+00    0.1622330920E+00    0.2940542683E-04
    0.4300000000E+05    0.2135893066E-01    0.6959757512E+00    0.1176291235E+00    0.1661402980E+00    0.2948339640E-04
    0.4500000000E+05    0.2116722977E-01    0.6959769804E+00    0.1185426645E+00    0.1699208122E+00    0.2955801247E-04
    0.4700000000E+05    0.2096807173E-01    0.6959781021E+00    0.1193651440E+00    0.1735838527E+00    0.2962955914E-04
    0.4900000000E+05    0.2076317788E-01    0.6959791294E+00    0.1201054342E+00    0.1771376202E+00    0.2969828554E-04
    0.1000000000E+05    0.1788918024E-01    0.6958815850E+00    0.6869009405E-01    0.7010266060E-01    0.2718588692E-04
    0.3000000000E+05    0.2223040115E-01    0.6959636366E+00    0.1085952846E+00    0.1379325169E+00    0.2889910818E-04
    0.5000000000E+05    0.2065903865E-01    0.6959796113E+00    0.1204472288E+00    0.1788758472E+00    0.2973166084E-04
    0.7000000000E+05    0.1851913685E-01    0.6959862718E+00    0.1244332690E+00    0.2093333139E+00    0.3029304519E-04
    0.9000000000E+05    0.1653965275E-01    0.6959898674E+00    0.1252245650E+00    0.2339815271E+00    0.3071923186E-04
    0.1100000000E+06    0.1482497049E-01    0.6959920879E+00    0.1244829275E+00    0.2548370565E+00    0.3106382712E-04
    0.1300000000E+06    0.1335938288E-01    0.6959935779E+00    0.1229423326E+00    0.2729735003E+00    0.3135363695E-04
    0.1500000000E+06    0.1210557627E-01    0.6959946354E+00    0.1209718139E+00    0.2890406471E+00    0.3160403825E-04
    0.1700000000E+06    0.1102714033E-01    0.6959954170E+00    0.1187732394E+00    0.3034670301E+00    0.3182468883E-04
    0.1900000000E+06    0.1009329370E-01    0.6959960125E+00    0.1164634949E+00    0.3165530894E+00    0.3202206012E-04
    0.2100000000E+06    0.9279075307E-02    0.6959964770E+00    0.1141128874E+00    0.3285192826E+00    0.3220070466E-04
    0.2300000000E+06    0.8564470037E-02    0.6959968461E+00    0.1117647179E+00    0.3395331663E+00    0.3236394914E-04
    0.2500000000E+06    0.7933424932E-02    0.6959971438E+00    0.1094459431E+00    0.3497256885E+00    0.3251429975E-04
    0.2700000000E+06    0.7373000547E-02    0.6959973869E+00    0.1071732962E+00    0.3592015244E+00    0.3265369246E-04
    0.2900000000E+06    0.6872694571E-02    0.6959975872E+00    0.1049569522E+00    0.3680459219E+00    0.3278365445E-04
    0.3100000000E+06    0.6423917711E-02    0.6959977537E+00    0.1028027987E+00    0.3763294008E+00    0.3290541203E-04
    0.3300000000E+06    0.6019591047E-02    0.6959978929E+00    0.1007138837E+00    0.3841110769E+00    0.3301996509E-04
    0.3500000000E+06    0.5653836685E-02    0.6959980099E+00    0.9869136010E-01    0.3914410752E+00    0.3312813982E-04
    0.3700000000E+06    0.5321739075E-02    0.6959981086E+00    0.9673511397E-01    0.3983623204E+00    0.3323062691E-04
    0.3900000000E+06    0.5019159696E-02    0.6959981922E+00    0.9484418857E-01    0.4049118919E+00    0.3332800973E-04
    0.4100000000E+06    0.4742592135E-02    0.6959982629E+00    0.9301707455E-01    0.4111220660E+00    0.3342078554E-04
    0.4300000000E+06    0.4489047902E-02    0.6959983230E+00    0.9125191021E-01    0.4170211308E+00    0.3350938176E-04
    0.4500000000E+06    0.4255965782E-02    0.6959983738E+00    0.8954662060E-01    0.4226340304E+00    0.3359416848E-04
    0.4700000000E+06    0.4041139339E-02    0.6959984168E+00    0.8789901454E-01    0.4279828817E+00    0.3367546831E-04
    0.4900000000E+06    0.3842658524E-02    0.6959984531E+00    0.8630685227E-01    0.4330873927E+00    0.3375356421E-04
    0.1000000000E+06    0.1564917376E-01    0.6959910971E+00    0.1249872106E+00    0.2448026885E+00    0.3089968035E-04
    0.3000000000E+06    0.6642338814E-02    0.6959976742E+00    0.1038718576E+00    0.3722538460E+00    0.3284549169E-04
    0.5000000000E+06    0.3749020041E-02    0.6959984690E+00    0.8553086121E-01    0.4355536061E+00    0.3379148984E-04
    0.7000000000E+06    0.2426994557E-02    0.6959985909E+00    0.7240578601E-01    0.4755018930E+00    0.3442943450E-04
    0.9000000000E+06    0.1704895065E-02    0.6959985359E+00    0.6270391172E-01    0.5033937724E+00    0.3491376511E-04
    0.1100000000E+07    0.1265213347E-02    0.6959984220E+00    0.5526812775E-01    0.5240842478E+00    0.3530538257E-04
    0.1300000000E+07    0.9769251172E-03    0.6959982879E+00    0.4939505855E-01    0.5400847171E+00    0.3563474387E-04
    0.1500000000E+07    0.7774012555E-03    0.6959981487E+00    0.4464163628E-01    0.5528449265E+00    0.3591932135E-04
    0.1700000000E+07    0.6334747543E-03    0.6959980107E+00    0.4071676454E-01    0.5632667626E+00    0.3617008944E-04
    0.1900000000E+07    0.5261913542E-03    0.6959978767E+00    0.3742182024E-01    0.5719430986E+00    0.3639440199E-04
    0.2100000000E+07    0.4440595252E-03    0.6959977479E+00    0.3461680303E-01    0.5792806949E+00    0.3659743246E-04
    0.2300000000E+07    0.3797742483E-03    0.6959976244E+00    0.3220025698E-01    0.5855683677E+00    0.3678296130E-04
    0.2500000000E+07    0.3285076179E-03    0.6959975064E+00    0.3009688668E-01    0.5910170691E+00    0.3695383659E-04
    0.2700000000E+07    0.2869632338E-03    0.6959973936E+00    0.2824964855E-01    0.5957845836E+00    0.3711225846E-04
    0.2900000000E+07    0.2528271703E-03    0.6959972857E+00    0.2661454294E-01    0.5999913471E+00    0.3725996244E-04
    0.3100000000E+07    0.2244359289E-03    0.6959971824E+00    0.2515709092E-01    0.6037309147E+00    0.3739834219E-04
    0.3300000000E+07    0.2005684885E-03    0.6959970834E+00    0.2384989347E-01    0.6070770837E+00    0.3752853403E-04
    0.3500000000E+07    0.1803120762E-03    0.6959969884E+00    0.2267090434E-01    0.6100888602E+00    0.3765147693E-04
    0.3700000000E+07    0.1629732015E-03    0.6959968972E+00    0.2160218465E-01    0.6128139952E+00    0.3776795580E-04
    0.3900000000E+07    0.1480172962E-03    0.6959968094E+00    0.2062898953E-01    0.6152915504E+00    0.3787863364E-04
    0.4100000000E+07    0.1350269017E-03    0.6959967249E+00    0.1973908805E-01    0.6175537920E+00    0.3798407560E-04
    0.4300000000E+07    0.1236721597E-03    0.6959966434E+00    0.1892224965E-01    0.6196276084E+00    0.3808476742E-04
    0.4500000000E+07    0.1136896334E-03    0.6959965647E+00    0.1816985152E-01    0.6215355872E+00    0.3818112970E-04
    0.4700000000E+07    0.1048668731E-03    0.6959964886E+00    0.1747457491E-01    0.6232968428E+00    0.3827352908E-04
    0.4900000000E+07    0.9703101250E-04    0.6959964150E+00    0.1683016773E-01    0.6249276600E+00    0.3836228716E-04
    0.1000000000E+07    0.1460295776E-02    0.6959984830E+00    0.5875457586E-01    0.5144481427E+00    0.3511883603E-04
    0.3000000000E+07    0.2379982841E-03    0.6959972335E+00    0.2586546555E-01    0.6019145216E+00    0.3733024159E-04
    0.5000000000E+07    0.9343782712E-04    0.6959963790E+00    0.1652533113E-01    0.6256985959E+00    0.3840539066E-04
    0.7000000000E+07    0.4947785022E-04    0.6959957590E+00    0.1212203993E-01    0.6367989319E+00    0.3913043310E-04
    0.9000000000E+07    0.3054071170E-04    0.6959952722E+00    0.9562924386E-02    0.6432217544E+00    0.3968088970E-04
    0.1100000000E+08    0.2069995983E-04    0.6959948708E+00    0.7891313940E-02    0.6474069687E+00    0.4012597529E-04
    0.1300000000E+08    0.1494384813E-04    0.6959945288E+00    0.6714357044E-02    0.6503493279E+00    0.4050030492E-04
    0.1500000000E+08    0.1129015245E-04    0.6959942305E+00    0.5841111417E-02    0.6525302725E+00    0.4082373638E-04
    0.1700000000E+08    0.8827642815E-05    0.6959939657E+00    0.5167639822E-02    0.6542111371E+00    0.4110874240E-04
    0.1900000000E+08    0.7089996248E-05    0.6959937275E+00    0.4632540376E-02    0.6555460036E+00    0.4136368084E-04
    0.2100000000E+08    0.5818519329E-05    0.6959935109E+00    0.4197216029E-02    0.6566315875E+00    0.4159443151E-04
    0.2300000000E+08    0.4860364020E-05    0.6959933122E+00    0.3836191519E-02    0.6575316533E+00    0.4180529100E-04
    0.2500000000E+08    0.4120525923E-05    0.6959931285E+00    0.3531976548E-02    0.6582899414E+00    0.4199949626E-04
    0.2700000000E+08    0.3537441437E-05    0.6959929578E+00    0.3272166143E-02    0.6589374533E+00    0.4217954778E-04
