  Pressure (Pa) 22mC5-500 (mol/kg) 24mC5-500 (mol/kg) 2mC6-500 (mol/kg) 3mC6-500 (mol/kg) C7-500 (mol/kg)
    0.1000000000E+01    0.6811325198E-05    0.1266313123E+00    0.1481695563E-04    0.5390412125E-05    0.4168666410E-02
    0.3000000000E+01    0.1408054180E-04    0.2785195363E+00    0.2924605457E-04    0.1357214017E-04    0.4196258233E-02
    0.5000000000E+01    0.1777612262E-04    0.3664225315E+00    0.3603387660E-04    0.2105776754E-04    0.4208499828E-02
    0.7000000000E+01    0.1995721887E-04    0.4237390717E+00    0.4001794971E-04    0.2821504941E-04    0.4215866356E-02
    0.9000000000E+01    0.2139466465E-04    0.4640680871E+00    0.4284097466E-04    0.3516674203E-04    0.4220745137E-02
    0.1100000000E+02    0.2243176524E-04    0.4939873357E+00    0.4516005284E-04    0.4197390076E-04    0.4224146573E-02
    0.1300000000E+02    0.2323979482E-04    0.5170667433E+00    0.4726559601E-04    0.4867270739E-04    0.4226590990E-02
    0.1500000000E+02    0.2391135543E-04    0.5354112958E+00    0.4929409573E-04    0.5528692271E-04    0.4228377399E-02
    0.1700000000E+02    0.2449958902E-04    0.5503425663E+00    0.5131178706E-04    0.6183325389E-04    0.4229690899E-02
    0.1900000000E+02    0.2503641016E-04    0.5627321507E+00    0.5335087709E-04    0.6832403828E-04    0.4230652569E-02
    0.2100000000E+02    0.2554167109E-04    0.5731781609E+00    0.5542640542E-04    0.7476872951E-04    0.4231345092E-02
    0.2300000000E+02    0.2602806206E-04    0.5821046899E+00    0.5754453354E-04    0.8117478421E-04    0.4231826925E-02
    0.2500000000E+02    0.2650386601E-04    0.5898208089E+00    0.5970679378E-04    0.8754822264E-04    0.4232140606E-02
    0.2700000000E+02    0.2697457272E-04    0.5965570871E+00    0.6191233530E-04    0.9389399968E-04    0.4232317841E-02
    0.2900000000E+02    0.2744385794E-04    0.6024890278E+00    0.6415913634E-04    0.1002162596E-03    0.4232382760E-02
    0.3100000000E+02    0.2791419523E-04    0.6077525811E+00    0.6644466554E-04    0.1065185167E-03    0.4232354058E-02
    0.3300000000E+02    0.2838724800E-04    0.6124546927E+00    0.6876624217E-04    0.1128037865E-03    0.4232246445E-02
    0.3500000000E+02    0.2886412620E-04    0.6166806470E+00    0.7112122891E-04    0.1190746838E-03    0.4232071661E-02
    0.3700000000E+02    0.2934555763E-04    0.6204992874E+00    0.7350713030E-04    0.1253334961E-03    0.4231839184E-02
    0.3900000000E+02    0.2983200407E-04    0.6239667960E+00    0.7592163792E-04    0.1315822415E-03    0.4231556758E-02
    0.4100000000E+02    0.3032374114E-04    0.6271294761E+00    0.7836264569E-04    0.1378227132E-03    0.4231230766E-02
    0.4300000000E+02    0.3082091395E-04    0.6300258326E+00    0.8082824865E-04    0.1440565150E-03    0.4230866521E-02
    0.4500000000E+02    0.3132357609E-04    0.6326881472E+00    0.8331673312E-04    0.1502850897E-03    0.4230468478E-02
    0.4700000000E+02    0.3183171743E-04    0.6351436866E+00    0.8582656266E-04    0.1565097428E-03    0.4230040404E-02
    0.4900000000E+02    0.3234528387E-04    0.6374156406E+00    0.8835636247E-04    0.1627316610E-03    0.4229585500E-02
    0.1000000000E+02    0.2195001287E-04    0.4800596337E+00    0.4404021811E-04    0.3858574254E-04    0.4222590893E-02
    0.3000000000E+02    0.2767877565E-04    0.6051970875E+00    0.6529722681E-04    0.1033696896E-03    0.4232379112E-02
    0.5000000000E+02    0.3260407615E-04    0.6384890889E+00    0.8962836190E-04    0.1658419369E-03    0.4229348860E-02
    0.7000000000E+02    0.3803793166E-04    0.6539065919E+00    0.1158814236E-03    0.2281251146E-03    0.4223703029E-02
    0.9000000000E+02    0.4388702258E-04    0.6627983666E+00    0.1433244516E-03    0.2909730784E-03    0.4217006632E-02
    0.1100000000E+03    0.5007154925E-04    0.6685839327E+00    0.1717132845E-03    0.3547964290E-03    0.4209724606E-02
    0.1300000000E+03    0.5654752257E-04    0.6726489219E+00    0.2009719213E-03    0.4198706868E-03    0.4202037647E-02
    0.1500000000E+03    0.6329247352E-04    0.6756614998E+00    0.2310904973E-03    0.4864068934E-03    0.4194025835E-02
    0.1700000000E+03    0.7029635779E-04    0.6779835167E+00    0.2620888461E-03    0.5545821515E-03    0.4185726222E-02
    0.1900000000E+03    0.7755663904E-04    0.6798279930E+00    0.2940018984E-03    0.6245550237E-03    0.4177154885E-02
    0.2100000000E+03    0.8507560855E-04    0.6813285032E+00    0.3268733248E-03    0.6964742064E-03    0.4168316582E-02
    0.2300000000E+03    0.9285887711E-04    0.6825730535E+00    0.3607526323E-03    0.7704838691E-03    0.4159209417E-02
    0.2500000000E+03    0.1009145015E-03    0.6836219869E+00    0.3956938304E-03    0.8467272041E-03    0.4149827261E-02
    0.2700000000E+03    0.1092524696E-03    0.6845180603E+00    0.4317548637E-03    0.9253489607E-03    0.4140161061E-02
    0.2900000000E+03    0.1178843964E-03    0.6852924164E+00    0.4689974422E-03    0.1006497378E-02    0.4130199587E-02
    0.3100000000E+03    0.1268233501E-03    0.6859682760E+00    0.5074870921E-03    0.1090325760E-02    0.4119929854E-02
    0.3300000000E+03    0.1360837620E-03    0.6865633064E+00    0.5472933379E-03    0.1176993826E-02    0.4109337361E-02
    0.3500000000E+03    0.1456813925E-03    0.6870911882E+00    0.5884899702E-03    0.1266668950E-02    0.4098406216E-02
    0.3700000000E+03    0.1556333363E-03    0.6875626796E+00    0.6311553753E-03    0.1359527319E-02    0.4087119185E-02
    0.3900000000E+03    0.1659580579E-03    0.6879863570E+00    0.6753729157E-03    0.1455755091E-02    0.4075457702E-02
    0.4100000000E+03    0.1766754504E-03    0.6883691418E+00    0.7212313564E-03    0.1555549550E-02    0.4063401831E-02
    0.4300000000E+03    0.1878069136E-03    0.6887166808E+00    0.7688253348E-03    0.1659120304E-02    0.4050930213E-02
    0.4500000000E+03    0.1993754502E-03    0.6890336270E+00    0.8182558779E-03    0.1766690546E-02    0.4038019985E-02
    0.4700000000E+03    0.2114057785E-03    0.6893238490E+00    0.8696309673E-03    0.1878498385E-02    0.4024646686E-02
    0.4900000000E+03    0.2239244612E-03    0.6895905895E+00    0.9230661574E-03    0.1994798279E-02    0.4010784146E-02
    0.1000000000E+03    0.4694075663E-04    0.6659679625E+00    0.1574076337E-03    0.3227435705E-03    0.4213424045E-02
    0.3000000000E+03    0.1223146242E-03    0.6856414452E+00    0.4880821345E-03    0.1048066756E-02    0.4125104125E-02
    0.5000000000E+03    0.2303757760E-03    0.6897160268E+00    0.9505946369E-03    0.2054717111E-02    0.4003660733E-02
    0.7000000000E+03    0.3935335517E-03    0.6914767672E+00    0.1645960203E-02    0.3569430663E-02    0.3827273771E-02
    0.9000000000E+03    0.6601767974E-03    0.6924585983E+00    0.2782322696E-02    0.6049536704E-02    0.3550070591E-02
    0.1100000000E+04    0.1137815647E-02    0.6930846792E+00    0.4821594242E-02    0.1051197205E-01    0.3075804623E-02
    0.1300000000E+04    0.2039019477E-02    0.6935186552E+00    0.8683388041E-02    0.1899595312E-01    0.2236784081E-02
    0.1500000000E+04    0.3429660494E-02    0.6938371515E+00    0.1468667820E-01    0.3228151605E-01    0.1082038600E-02
    0.1700000000E+04    0.4576352918E-02    0.6940808270E+00    0.1972424397E-01    0.4361852402E-01    0.3547477374E-03
    0.1900000000E+04    0.5204062963E-02    0.6942732602E+00    0.2258431097E-01    0.5027442786E-01    0.1605864541E-03
    0.2100000000E+04    0.5637394605E-02    0.6944290651E+00    0.2463446065E-01    0.5520484773E-01    0.1255855500E-03
    0.2300000000E+04    0.6012656169E-02    0.6945577822E+00    0.2645514443E-01    0.5967802954E-01    0.1201530618E-03
    0.2500000000E+04    0.6359689632E-02    0.6946659036E+00    0.2817293211E-01    0.6396983730E-01    0.1196923652E-03
    0.2700000000E+04    0.6685093499E-02    0.6947580011E+00    0.2981462094E-01    0.6813645710E-01    0.1200379220E-03
    0.2900000000E+04    0.6991084286E-02    0.6948373865E+00    0.3138818593E-01    0.7219255372E-01    0.1204928200E-03
    0.3100000000E+04    0.7279011699E-02    0.6949065184E+00    0.3289796379E-01    0.7614490359E-01    0.1209418582E-03
    0.3300000000E+04    0.7549999805E-02    0.6949672596E+00    0.3434743145E-01    0.7999857339E-01    0.1213680640E-03
    0.3500000000E+04    0.7805068815E-02    0.6950210480E+00    0.3573972812E-01    0.8375807319E-01    0.1217709322E-03
    0.3700000000E+04    0.8045162555E-02    0.6950690104E+00    0.3707776589E-01    0.8742758849E-01    0.1221524514E-03
    0.3900000000E+04    0.8271158266E-02    0.6951120431E+00    0.3836426345E-01    0.9101104063E-01    0.1225147355E-03
    0.4100000000E+04    0.8483872695E-02    0.6951508672E+00    0.3960176432E-01    0.9451211357E-01    0.1228596635E-03
    0.4300000000E+04    0.8684067104E-02    0.6951860701E+00    0.4079265108E-01    0.9793427299E-01    0.1231888623E-03
    0.4500000000E+04    0.8872451716E-02    0.6952181345E+00    0.4193915791E-01    0.1012807827E+00    0.1235037409E-03
    0.4700000000E+04    0.9049689725E-02    0.6952474613E+00    0.4304338179E-01    0.1045547192E+00    0.1238055259E-03
    0.4900000000E+04    0.9216400953E-02    0.6952743857E+00    0.4410729285E-01    0.1077589853E+00    0.1240952916E-03
    0.1000000000E+04    0.8620349901E-03    0.6928028249E+00    0.3643523522E-02    0.7932408219E-02    0.3346669393E-02
    0.3000000000E+04    0.7137232631E-02    0.6948731061E+00    0.3215082054E-01    0.7418136190E-01    0.1207198686E-03
    0.5000000000E+04    0.9295991682E-02    0.6952870371E+00    0.4462471434E-01    0.1093358546E+00    0.1242359674E-03
    0.7000000000E+04    0.1045757775E-01    0.6954638736E+00    0.5325256163E-01    0.1378067603E+00    0.1265986557E-03
    0.9000000000E+04    0.1103979193E-01    0.6955617465E+00    0.5940378165E-01    0.1616606751E+00    0.1283888112E-03
    0.1100000000E+05    0.1127220655E-01    0.6956237776E+00    0.6387735656E-01    0.1821560932E+00    0.1298346180E-03
    0.1300000000E+05    0.1128822384E-01    0.6956665410E+00    0.6716922321E-01    0.2001080406E+00    0.1310496783E-03
    0.1500000000E+05    0.1116875004E-01    0.6956977644E+00    0.6960263145E-01    0.2160707898E+00    0.1320989816E-03
    0.1700000000E+05    0.1096450075E-01    0.6957215349E+00    0.7139676129E-01    0.2304365843E+00    0.1330232706E-03
    0.1900000000E+05    0.1070808476E-01    0.6957402159E+00    0.7270513830E-01    0.2434923184E+00    0.1338498090E-03
    0.2100000000E+05    0.1042087329E-01    0.6957552688E+00    0.7363826056E-01    0.2554537433E+00    0.1345977571E-03
    0.2300000000E+05    0.1011706410E-01    0.6957676454E+00    0.7427750536E-01    0.2664869977E+00    0.1352811048E-03
    0.2500000000E+05    0.9806168118E-02    0.6957779924E+00    0.7468399129E-01    0.2767226527E+00    0.1359103847E-03
    0.2700000000E+05    0.9494574648E-02    0.6957867641E+00    0.7490440433E-01    0.2862651605E+00    0.1364937287E-03
    0.2900000000E+05    0.9186561094E-02    0.6957942890E+00    0.7497493310E-01    0.2951993863E+00    0.1370375487E-03
    0.3100000000E+05    0.8884957932E-02    0.6958008107E+00    0.7492399100E-01    0.3035952302E+00    0.1375469917E-03
    0.3300000000E+05    0.8591594660E-02    0.6958065133E+00    0.7477413894E-01    0.3115109684E+00    0.1380262528E-03
    0.3500000000E+05    0.8307603526E-02    0.6958115388E+00    0.7454346925E-01    0.3189957147E+00    0.1384787976E-03
    0.3700000000E+05    0.8033629147E-02    0.6958159981E+00    0.7424661840E-01    0.3260912627E+00    0.1389075225E-03
    0.3900000000E+05    0.7769974826E-02    0.6958199796E+00    0.7389551939E-01    0.3328334888E+00    0.1393148732E-03
    0.4100000000E+05    0.7516705661E-02    0.6958235540E+00    0.7349996833E-01    0.3392534327E+00    0.1397029344E-03
    0.4300000000E+05    0.7273721750E-02    0.6958267789E+00    0.7306805647E-01    0.3453781417E+00    0.1400734973E-03
    0.4500000000E+05    0.7040810508E-02    0.6958297017E+00    0.7260650319E-01    0.3512313379E+00    0.1404281128E-03
    0.4700000000E+05    0.6817684180E-02    0.6958323615E+00    0.7212091549E-01    0.3568339506E+00    0.1407681325E-03
    0.4900000000E+05    0.6604006844E-02    0.6958347910E+00    0.7161599200E-01    0.3622045454E+00    0.1410947421E-03
    0.1000000000E+05    0.1118978943E-01    0.6955958953E+00    0.6181411964E-01    0.1722695655E+00    0.1291460706E-03
    0.3000000000E+05    0.9034824523E-02    0.6957976626E+00    0.7496311705E-01    0.2994607236E+00    0.1372962858E-03
    0.5000000000E+05    0.6500598296E-02    0.6958359282E+00    0.7135753978E-01    0.3648080789E+00    0.1412533496E-03
    0.7000000000E+05    0.4837485608E-02    0.6958514385E+00    0.6585730182E-01    0.4079170838E+00    0.1439209783E-03
    0.9000000000E+05    0.3730734232E-02    0.6958595547E+00    0.6053677351E-01    0.4393192254E+00    0.1459459586E-03
    0.1100000000E+06    0.2963258197E-02    0.6958643968E+00    0.5577957255E-01    0.4635025493E+00    0.1475831706E-03
    0.1300000000E+06    0.2410424727E-02    0.6958675230E+00    0.5160864393E-01    0.4828218531E+00    0.1489600385E-03
    0.1500000000E+06    0.1999249271E-02    0.6958696480E+00    0.4796222640E-01    0.4986690145E+00    0.1501496474E-03
    0.1700000000E+06    0.1685165228E-02    0.6958711438E+00    0.4476507881E-01    0.5119335392E+00    0.1511978955E-03
    0.1900000000E+06    0.1439815675E-02    0.6958722219E+00    0.4194783302E-01    0.5232163738E+00    0.1521355361E-03
    0.2100000000E+06    0.1244485998E-02    0.6958730109E+00    0.3945133970E-01    0.5329408864E+00    0.1529842022E-03
    0.2300000000E+06    0.1086426902E-02    0.6958735929E+00    0.3722651320E-01    0.5414153193E+00    0.1537597014E-03
    0.2500000000E+06    0.9567107509E-03    0.6958740229E+00    0.3523296151E-01    0.5488701569E+00    0.1544739418E-03
    0.2700000000E+06    0.8489345455E-03    0.6958743389E+00    0.3343745943E-01    0.5554815957E+00    0.1551361220E-03
    0.2900000000E+06    0.7584086683E-03    0.6958745675E+00    0.3181258574E-01    0.5613868740E+00    0.1557534982E-03
    0.3100000000E+06    0.6816342797E-03    0.6958747285E+00    0.3033559429E-01    0.5666946163E+00    0.1563318969E-03
    0.3300000000E+06    0.6159577351E-03    0.6958748362E+00    0.2898750659E-01    0.5714920095E+00    0.1568760686E-03
    0.3500000000E+06    0.5593366674E-03    0.6958749016E+00    0.2775239119E-01    0.5758498982E+00    0.1573899386E-03
    0.3700000000E+06    0.5101783112E-03    0.6958749331E+00    0.2661679307E-01    0.5798264790E+00    0.1578767885E-03
    0.3900000000E+06    0.4672256426E-03    0.6958749372E+00    0.2556928139E-01    0.5834700268E+00    0.1583393896E-03
    0.4100000000E+06    0.4294758190E-03    0.6958749189E+00    0.2460008974E-01    0.5868209395E+00    0.1587801047E-03
    0.4300000000E+06    0.3961208512E-03    0.6958748825E+00    0.2370082853E-01    0.5899132928E+00    0.1592009642E-03
    0.4500000000E+06    0.3665038374E-03    0.6958748311E+00    0.2286425382E-01    0.5927760386E+00    0.1596037264E-03
    0.4700000000E+06    0.3400862591E-03    0.6958747674E+00    0.2208408041E-01    0.5954339389E+00    0.1599899239E-03
    0.4900000000E+06    0.3164232541E-03    0.6958746934E+00    0.2135482989E-01    0.5979083015E+00    0.1603609010E-03
    0.1000000000E+06    0.3313968758E-02    0.6958622579E+00    0.5808280409E-01    0.4521352218E+00    0.1468032996E-03
    0.3000000000E+06    0.7184850301E-03    0.6958746555E+00    0.3105686993E-01    0.5641095534E+00    0.1560472510E-03
    0.5000000000E+06    0.3055065615E-03    0.6958746532E+00    0.2100777824E-01    0.5990825167E+00    0.1605410579E-03
    0.7000000000E+06    0.1680725713E-03    0.6958736101E+00    0.1584176810E-01    0.6163241838E+00    0.1635714427E-03
    0.9000000000E+06    0.1061107630E-03    0.6958724465E+00    0.1270301343E-01    0.6266034803E+00    0.1658720988E-03
    0.1100000000E+07    0.7300522285E-04    0.6958713303E+00    0.1059613299E-01    0.6334300001E+00    0.1677323370E-03
    0.1300000000E+07    0.5327336985E-04    0.6958702947E+00    0.9085026467E-02    0.6382928893E+00    0.1692968408E-03
    0.1500000000E+07    0.4057689198E-04    0.6958693408E+00    0.7948750549E-02    0.6419324644E+00    0.1706486104E-03
    0.1700000000E+07    0.3193086484E-04    0.6958684613E+00    0.7063487172E-02    0.6447584524E+00    0.1718397779E-03
    0.1900000000E+07    0.2578009781E-04    0.6958676478E+00    0.6354491489E-02    0.6470160108E+00    0.1729052764E-03
    0.2100000000E+07    0.2124977405E-04    0.6958668920E+00    0.5773986515E-02    0.6488608146E+00    0.1738696810E-03
    0.2300000000E+07    0.1781724155E-04    0.6958661868E+00    0.5290014169E-02    0.6503964667E+00    0.1747509499E-03
    0.2500000000E+07    0.1515467591E-04    0.6958655263E+00    0.4880392637E-02    0.6516945874E+00    0.1755626122E-03
    0.2700000000E+07    0.1304802856E-04    0.6958649051E+00    0.4529245879E-02    0.6528062697E+00    0.1763151190E-03
    0.2900000000E+07    0.1135274460E-04    0.6958643191E+00    0.4224912922E-02    0.6537689404E+00    0.1770167143E-03
    0.3100000000E+07    0.9968354043E-05    0.6958637643E+00    0.3958636911E-02    0.6546106421E+00    0.1776740184E-03
    0.3300000000E+07    0.8823274364E-05    0.6958632378E+00    0.3723714581E-02    0.6553527998E+00    0.1782924290E-03
    0.3500000000E+07    0.7865390584E-05    0.6958627366E+00    0.3514927974E-02    0.6560120641E+00    0.1788764062E-03
    0.3700000000E+07    0.7056032909E-05    0.6958622586E+00    0.3328154900E-02    0.6566015701E+00    0.1794296787E-03
    0.3900000000E+07    0.6366020485E-05    0.6958618015E+00    0.3160095824E-02    0.6571318188E+00    0.1799553958E-03
    0.4100000000E+07    0.5772999294E-05    0.6958613637E+00    0.3008078530E-02    0.6576113056E+00    0.1804562419E-03
    0.4300000000E+07    0.5259612136E-05    0.6958609435E+00    0.2869915897E-02    0.6580469769E+00    0.1809345245E-03
    0.4500000000E+07    0.4812216242E-05    0.6958605396E+00    0.2743800673E-02    0.6584445679E+00    0.1813922414E-03
    0.4700000000E+07    0.4419968967E-05    0.6958601507E+00    0.2628226486E-02    0.6588088552E+00    0.1818311342E-03
    0.4900000000E+07    0.4074165619E-05    0.6958597757E+00    0.2521927775E-02    0.6591438493E+00    0.1822527307E-03
    0.1000000000E+07    0.8725303317E-04    0.6958718791E+00    0.1155513191E-01    0.6303296642E+00    0.1668462160E-03
    0.3000000000E+07    0.1062670730E-04    0.6958640380E+00    0.4087477155E-02    0.6542034433E+00    0.1773505405E-03
    0.5000000000E+07    0.3916422356E-05    0.6958595931E+00    0.2471915479E-02    0.6593014421E+00    0.1824574700E-03
    0.7000000000E+07    0.2032049618E-05    0.6958564804E+00    0.1768458693E-02    0.6615171377E+00    0.1859013686E-03
    0.9000000000E+07    0.1249359437E-05    0.6958540738E+00    0.1375304828E-02    0.6627550717E+00    0.1885159793E-03
    0.1100000000E+08    0.8506185128E-06    0.6958521063E+00    0.1124448228E-02    0.6635450535E+00    0.1906300778E-03
    0.1300000000E+08    0.6200444918E-06    0.6958504390E+00    0.9505680421E-03    0.6640927873E+00    0.1924080869E-03
    0.1500000000E+08    0.4746468064E-06    0.6958489903E+00    0.8229956101E-03    0.6644947931E+00    0.1939443317E-03
    0.1700000000E+08    0.3769856314E-06    0.6958477080E+00    0.7254337871E-03    0.6648023468E+00    0.1952980577E-03
    0.1900000000E+08    0.3081552316E-06    0.6958465568E+00    0.6484244746E-03    0.6650452045E+00    0.1965089648E-03
    0.2100000000E+08    0.2577699050E-06    0.6958455117E+00    0.5861031663E-03    0.6652418167E+00    0.1976049820E-03
    0.2300000000E+08    0.2197381731E-06    0.6958445543E+00    0.5346409919E-03    0.6654042308E+00    0.1986065178E-03
    0.2500000000E+08    0.1902947783E-06    0.6958436704E+00    0.4914323964E-03    0.6655406459E+00    0.1995289477E-03
    0.2700000000E+08    0.1670100490E-06    0.6958428493E+00    0.4546429476E-03    0.6656568357E+00    0.2003841489E-03
