  Pressure (Pa) 22mC5-500 (mol/kg) 24mC5-500 (mol/kg) 2mC6-500 (mol/kg) 3mC6-500 (mol/kg) C7-500 (mol/kg)
    0.1000000000E+01    0.6721806254E-05    0.1266263232E+00    0.1734514088E-04    0.1545811046E-05    0.4202375634E-02
    0.3000000000E+01    0.1388292649E-04    0.2784956347E+00    0.3413562737E-04    0.3971335345E-05    0.4255023121E-02
    0.5000000000E+01    0.1748535895E-04    0.3663814700E+00    0.4182893307E-04    0.6206020651E-05    0.4284532312E-02
    0.7000000000E+01    0.1957970139E-04    0.4236844740E+00    0.4618818912E-04    0.8348248474E-05    0.4303869057E-02
    0.9000000000E+01    0.2093400961E-04    0.4640028916E+00    0.4917118340E-04    0.1043133644E-04    0.4317589120E-02
    0.1100000000E+02    0.2189023007E-04    0.4939137158E+00    0.5155991921E-04    0.1247199179E-04    0.4327852625E-02
    0.1300000000E+02    0.2261884717E-04    0.5169862982E+00    0.5369912390E-04    0.1448017365E-04    0.4335828413E-02
    0.1500000000E+02    0.2321195486E-04    0.5353252195E+00    0.5575017192E-04    0.1646245216E-04    0.4342207099E-02
    0.1700000000E+02    0.2372234495E-04    0.5502517673E+00    0.5779088348E-04    0.1842346402E-04    0.4347424056E-02
    0.1900000000E+02    0.2418167826E-04    0.5626373334E+00    0.5985870322E-04    0.2036664353E-04    0.4351767893E-02
    0.2100000000E+02    0.2460961591E-04    0.5730798813E+00    0.6197077146E-04    0.2229462868E-04    0.4355437782E-02
    0.2300000000E+02    0.2501869959E-04    0.5820033936E+00    0.6413377645E-04    0.2420950437E-04    0.4358575794E-02
    0.2500000000E+02    0.2541709389E-04    0.5897168585E+00    0.6634899399E-04    0.2611295653E-04    0.4361286103E-02
    0.2700000000E+02    0.2581019219E-04    0.5964507815E+00    0.6861494408E-04    0.2800637441E-04    0.4363646910E-02
    0.2900000000E+02    0.2620159033E-04    0.6023806159E+00    0.7092881948E-04    0.2989092096E-04    0.4365718117E-02
    0.3100000000E+02    0.2659369458E-04    0.6076422727E+00    0.7328726102E-04    0.3176758282E-04    0.4367546421E-02
    0.3300000000E+02    0.2698811088E-04    0.6123426661E+00    0.7568677685E-04    0.3363720681E-04    0.4369168786E-02
    0.3500000000E+02    0.2738589953E-04    0.6165670552E+00    0.7812396405E-04    0.3550052704E-04    0.4370614880E-02
    0.3700000000E+02    0.2778774492E-04    0.6203842625E+00    0.8059561962E-04    0.3735818556E-04    0.4371908801E-02
    0.3900000000E+02    0.2819407053E-04    0.6238504528E+00    0.8309878919E-04    0.3921074832E-04    0.4373070339E-02
    0.4100000000E+02    0.2860511789E-04    0.6270119155E+00    0.8563078109E-04    0.4105871768E-04    0.4374115907E-02
    0.4300000000E+02    0.2902100147E-04    0.6299071432E+00    0.8818916158E-04    0.4290254236E-04    0.4375059237E-02
    0.4500000000E+02    0.2944174721E-04    0.6325684075E+00    0.9077174032E-04    0.4474262541E-04    0.4375911915E-02
    0.4700000000E+02    0.2986731975E-04    0.6350229666E+00    0.9337655139E-04    0.4657933080E-04    0.4376683785E-02
    0.4900000000E+02    0.3029764188E-04    0.6372940027E+00    0.9600183285E-04    0.4841298866E-04    0.4377383271E-02
    0.1000000000E+02    0.2144869371E-04    0.4799899947E+00    0.5041216435E-04    0.1145624112E-04    0.4323064790E-02
    0.3000000000E+02    0.2639743855E-04    0.6050877033E+00    0.7210268791E-04    0.3083018163E-04    0.4366660126E-02
    0.5000000000E+02    0.3051455198E-04    0.6383670136E+00    0.9732165012E-04    0.4932876982E-04    0.4377708178E-02
    0.7000000000E+02    0.3507083467E-04    0.6537778876E+00    0.1244884607E-03    0.6754538429E-04    0.4381731639E-02
    0.9000000000E+02    0.3995711679E-04    0.6626654066E+00    0.1526471339E-03    0.8568573678E-04    0.4382943880E-02
    0.1100000000E+03    0.4508314729E-04    0.6684479170E+00    0.1814527246E-03    0.1038558736E-03    0.4382694179E-02
    0.1300000000E+03    0.5039621649E-04    0.6725105539E+00    0.2107702559E-03    0.1221214724E-03    0.4381559246E-02
    0.1500000000E+03    0.5586568833E-04    0.6755212340E+00    0.2405466387E-03    0.1405281058E-03    0.4379830644E-02
    0.1700000000E+03    0.6147340726E-04    0.6778416673E+00    0.2707645460E-03    0.1591100288E-03    0.4377673005E-02
    0.1900000000E+03    0.6720852629E-04    0.6796847887E+00    0.3014236510E-03    0.1778945904E-03    0.4375186830E-02
    0.2100000000E+03    0.7306467278E-04    0.6811841169E+00    0.3325322476E-03    0.1969046847E-03    0.4372437101E-02
    0.2300000000E+03    0.7903833295E-04    0.6824276202E+00    0.3641032350E-03    0.2161602184E-03    0.4369467699E-02
    0.2500000000E+03    0.8512789352E-04    0.6834756144E+00    0.3961520936E-03    0.2356790422E-03    0.4366309253E-02
    0.2700000000E+03    0.9133305188E-04    0.6843708369E+00    0.4286958290E-03    0.2554775706E-03    0.4362983687E-02
    0.2900000000E+03    0.9765444169E-04    0.6851444152E+00    0.4617524107E-03    0.2755712121E-03    0.4359506985E-02
    0.3100000000E+03    0.1040933886E-03    0.6858195587E+00    0.4953404754E-03    0.2959746762E-03    0.4355890950E-02
    0.3300000000E+03    0.1106517476E-03    0.6864139259E+00    0.5294791746E-03    0.3167022010E-03    0.4352144353E-02
    0.3500000000E+03    0.1173317920E-03    0.6869411899E+00    0.5641881052E-03    0.3377677267E-03    0.4348273719E-02
    0.3700000000E+03    0.1241361379E-03    0.6874121032E+00    0.5994872870E-03    0.3591850298E-03    0.4344283863E-02
    0.3900000000E+03    0.1310676912E-03    0.6878352374E+00    0.6353971676E-03    0.3809678313E-03    0.4340178278E-02
    0.4100000000E+03    0.1381296107E-03    0.6882175098E+00    0.6719386441E-03    0.4031298848E-03    0.4335959415E-02
    0.4300000000E+03    0.1453252832E-03    0.6885645640E+00    0.7091330942E-03    0.4256850508E-03    0.4331628883E-02
    0.4500000000E+03    0.1526583060E-03    0.6888810502E+00    0.7470024138E-03    0.4486473604E-03    0.4327187606E-02
    0.4700000000E+03    0.1601324753E-03    0.6891708345E+00    0.7855690578E-03    0.4720310706E-03    0.4322635936E-02
    0.4900000000E+03    0.1677517801E-03    0.6894371574E+00    0.8248560837E-03    0.4958507145E-03    0.4317973742E-02
    0.1000000000E+03    0.4249413033E-04    0.6658333642E+00    0.1669802908E-03    0.9476235396E-04    0.4382955993E-02
    0.3000000000E+03    0.1008591155E-03    0.6854930789E+00    0.4784788217E-03    0.2857333176E-03    0.4357715775E-02
    0.5000000000E+03    0.1716171563E-03    0.6895623930E+00    0.8447771210E-03    0.5079286399E-03    0.4315601043E-02
    0.7000000000E+03    0.2576832287E-03    0.6913198241E+00    0.1287291008E-02    0.7762703519E-03    0.4262025994E-02
    0.9000000000E+03    0.3644949629E-03    0.6922992277E+00    0.1835323172E-02    0.1108862364E-02    0.4194921972E-02
    0.1100000000E+04    0.5002276264E-03    0.6929233848E+00    0.2531435830E-02    0.1531767736E-02    0.4109901934E-02
    0.1300000000E+04    0.6774457252E-03    0.6933557641E+00    0.3440603793E-02    0.2084754874E-02    0.3999912814E-02
    0.1500000000E+04    0.9160980121E-03    0.6936728936E+00    0.4665899551E-02    0.2830973107E-02    0.3853787644E-02
    0.1700000000E+04    0.1248769568E-02    0.6939153729E+00    0.6375862335E-02    0.3873850435E-02    0.3653645058E-02
    0.1900000000E+04    0.1729183074E-02    0.6941067416E+00    0.8848996805E-02    0.5384715502E-02    0.3371009212E-02
    0.2100000000E+04    0.2441430255E-02    0.6942615872E+00    0.1252310166E-01    0.7634021951E-02    0.2964037501E-02
    0.2300000000E+04    0.3486649876E-02    0.6943894305E+00    0.1793052223E-01    0.1095409436E-01    0.2390519571E-02
    0.2500000000E+04    0.4870518395E-02    0.6944967494E+00    0.2512239269E-01    0.1538940435E-01    0.1676658921E-02
    0.2700000000E+04    0.6305656919E-02    0.6945881046E+00    0.3263923953E-01    0.2006028291E-01    0.1010776526E-02
    0.2900000000E+04    0.7404374937E-02    0.6946667993E+00    0.3847669351E-01    0.2373706059E-01    0.5941696293E-03
    0.3100000000E+04    0.8125097723E-02    0.6947352851E+00    0.4239609212E-01    0.2625929090E-01    0.4084299046E-03
    0.3300000000E+04    0.8629627080E-02    0.6947954195E+00    0.4521729974E-01    0.2812020081E-01    0.3399116654E-03
    0.3500000000E+04    0.9036695516E-02    0.6948486355E+00    0.4754863038E-01    0.2968982662E-01    0.3167922777E-03
    0.3700000000E+04    0.9399279159E-02    0.6948960563E+00    0.4966258131E-01    0.3113461309E-01    0.3095472352E-03
    0.3900000000E+04    0.9737719388E-02    0.6949385747E+00    0.5166373871E-01    0.3251845117E-01    0.3076689690E-03
    0.4100000000E+04    0.1005966183E-01    0.6949769094E+00    0.5359106654E-01    0.3386496758E-01    0.3075801520E-03
    0.4300000000E+04    0.1036815393E-01    0.6950116453E+00    0.5545968804E-01    0.3518311322E-01    0.3080753057E-03
    0.4500000000E+04    0.1066460090E-01    0.6950432632E+00    0.5727620685E-01    0.3647658812E-01    0.3087482988E-03
    0.4700000000E+04    0.1094981249E-01    0.6950721620E+00    0.5904415338E-01    0.3774720491E-01    0.3094624533E-03
    0.4900000000E+04    0.1122437178E-01    0.6950986756E+00    0.6076591008E-01    0.3899608159E-01    0.3101723670E-03
    0.1000000000E+04    0.4280906091E-03    0.6926424431E+00    0.2161475447E-02    0.1306949059E-02    0.4155017626E-02
    0.3000000000E+04    0.7802329601E-02    0.6947021906E+00    0.4062761342E-01    0.2511353266E-01    0.4798854296E-03
    0.5000000000E+04    0.1135781127E-01    0.6951111276E+00    0.6161007667E-01    0.3961263784E-01    0.3105207232E-03
    0.7000000000E+04    0.1356757250E-01    0.6952846166E+00    0.7645799511E-01    0.5097005065E-01    0.3164198371E-03
    0.9000000000E+04    0.1510637685E-01    0.6953799550E+00    0.8822444354E-01    0.6081363735E-01    0.3208930543E-03
    0.1100000000E+05    0.1618410986E-01    0.6954399399E+00    0.9774961898E-01    0.6951039332E-01    0.3245057935E-03
    0.1300000000E+05    0.1693597985E-01    0.6954809841E+00    0.1055937614E+00    0.7731183878E-01    0.3275419339E-03
    0.1500000000E+05    0.1745230892E-01    0.6955107232E+00    0.1121447794E+00    0.8439683969E-01    0.3301638757E-03
    0.1700000000E+05    0.1779526734E-01    0.6955331863E+00    0.1176797830E+00    0.9089654838E-01    0.3324734294E-03
    0.1900000000E+05    0.1800873427E-01    0.6955506983E+00    0.1224020223E+00    0.9690964994E-01    0.3345387231E-03
    0.2100000000E+05    0.1812434378E-01    0.6955646935E+00    0.1264639753E+00    0.1025120606E+00    0.3364076354E-03
    0.2300000000E+05    0.1816531997E-01    0.6955761038E+00    0.1299822854E+00    0.1077633094E+00    0.3381151244E-03
    0.2500000000E+05    0.1814898141E-01    0.6955855610E+00    0.1330477173E+00    0.1127108632E+00    0.3396875094E-03
    0.2700000000E+05    0.1808841889E-01    0.6955935078E+00    0.1357319668E+00    0.1173931318E+00    0.3411451107E-03
    0.2900000000E+05    0.1799364460E-01    0.6956002639E+00    0.1380924265E+00    0.1218416050E+00    0.3425039505E-03
    0.3100000000E+05    0.1787239498E-01    0.6956060653E+00    0.1401755891E+00    0.1260824028E+00    0.3437768900E-03
    0.3300000000E+05    0.1773070150E-01    0.6956110903E+00    0.1420195216E+00    0.1301374187E+00    0.3449744121E-03
    0.3500000000E+05    0.1757330296E-01    0.6956154760E+00    0.1436556948E+00    0.1340251783E+00    0.3461051765E-03
    0.3700000000E+05    0.1740394745E-01    0.6956193293E+00    0.1451103549E+00    0.1377614924E+00    0.3471764206E-03
    0.3900000000E+05    0.1722561652E-01    0.6956227349E+00    0.1464055658E+00    0.1413599606E+00    0.3481942561E-03
    0.4100000000E+05    0.1704069330E-01    0.6956257608E+00    0.1475600112E+00    0.1448323641E+00    0.3491638918E-03
    0.4300000000E+05    0.1685109019E-01    0.6956284619E+00    0.1485896190E+00    0.1481889765E+00    0.3500898038E-03
    0.4500000000E+05    0.1665834656E-01    0.6956308834E+00    0.1495080512E+00    0.1514388101E+00    0.3509758673E-03
    0.4700000000E+05    0.1646370433E-01    0.6956330625E+00    0.1503270933E+00    0.1545898154E+00    0.3518254599E-03
    0.4900000000E+05    0.1626816684E-01    0.6956350304E+00    0.1510569661E+00    0.1576490421E+00    0.3526415439E-03
    0.1000000000E+05    0.1569311104E-01    0.6954130320E+00    0.9322717528E-01    0.6528756029E-01    0.3227852742E-03
    0.3000000000E+05    0.1793591775E-01    0.6956032716E+00    0.1391661173E+00    0.1239865072E+00    0.3431504543E-03
    0.5000000000E+05    0.1617032224E-01    0.6956359434E+00    0.1513912927E+00    0.1591462283E+00    0.3530378486E-03
    0.7000000000E+05    0.1429527370E-01    0.6956476836E+00    0.1550532475E+00    0.1854911966E+00    0.3597032851E-03
    0.9000000000E+05    0.1268391529E-01    0.6956529384E+00    0.1554127577E+00    0.2070047225E+00    0.3647629308E-03
    0.1100000000E+06    0.1133894868E-01    0.6956554673E+00    0.1542470879E+00    0.2253765901E+00    0.3688536638E-03
    0.1300000000E+06    0.1021433549E-01    0.6956566483E+00    0.1523131937E+00    0.2414989692E+00    0.3722938820E-03
    0.1500000000E+06    0.9265513101E-02    0.6956570929E+00    0.1499807990E+00    0.2559087808E+00    0.3752662033E-03
    0.1700000000E+06    0.8456729521E-02    0.6956571082E+00    0.1474472202E+00    0.2689585688E+00    0.3778853139E-03
    0.1900000000E+06    0.7760444085E-02    0.6956568620E+00    0.1448242113E+00    0.2808946366E+00    0.3802280558E-03
    0.2100000000E+06    0.7155540169E-02    0.6956564525E+00    0.1421776097E+00    0.2918972293E+00    0.3823484835E-03
    0.2300000000E+06    0.6625714787E-02    0.6956559395E+00    0.1395471294E+00    0.3021030704E+00    0.3842860943E-03
    0.2500000000E+06    0.6158245369E-02    0.6956553610E+00    0.1369569464E+00    0.3116188737E+00    0.3860706430E-03
    0.2700000000E+06    0.5743086234E-02    0.6956547420E+00    0.1344216723E+00    0.3205298863E+00    0.3877251138E-03
    0.2900000000E+06    0.5372212873E-02    0.6956540991E+00    0.1319498769E+00    0.3289055292E+00    0.3892676370E-03
    0.3100000000E+06    0.5039144433E-02    0.6956534435E+00    0.1295462387E+00    0.3368032555E+00    0.3907127709E-03
    0.3300000000E+06    0.4738592898E-02    0.6956527831E+00    0.1272128979E+00    0.3442712725E+00    0.3920723856E-03
    0.3500000000E+06    0.4466202545E-02    0.6956521231E+00    0.1249503273E+00    0.3513505114E+00    0.3933562889E-03
    0.3700000000E+06    0.4218354227E-02    0.6956514675E+00    0.1227579049E+00    0.3580760847E+00    0.3945726800E-03
    0.3900000000E+06    0.3992016645E-02    0.6956508187E+00    0.1206342951E+00    0.3644783862E+00    0.3957284839E-03
    0.4100000000E+06    0.3784632105E-02    0.6956501785E+00    0.1185777075E+00    0.3705839353E+00    0.3968296037E-03
    0.4300000000E+06    0.3594027830E-02    0.6956495481E+00    0.1165860723E+00    0.3764160355E+00    0.3978811129E-03
    0.4500000000E+06    0.3418346430E-02    0.6956489283E+00    0.1146571614E+00    0.3819952941E+00    0.3988874047E-03
    0.4700000000E+06    0.3255990895E-02    0.6956483197E+00    0.1127886716E+00    0.3873400385E+00    0.3998523087E-03
    0.4900000000E+06    0.3105580694E-02    0.6956477223E+00    0.1109782812E+00    0.3924666520E+00    0.4007791836E-03
    0.1000000000E+06    0.1198083454E-01    0.6956544302E+00    0.1549600882E+00    0.2165161835E+00    0.3669050835E-03
    0.3000000000E+06    0.5201308074E-02    0.6956537723E+00    0.1307393569E+00    0.3329109283E+00    0.3900015811E-03
    0.5000000000E+06    0.3034474035E-02    0.6956474279E+00    0.1100941526E+00    0.3949528166E+00    0.4012292997E-03
    0.7000000000E+06    0.2017578193E-02    0.6956421100E+00    0.9493739305E-01    0.4361244529E+00    0.4088005689E-03
    0.9000000000E+06    0.1447529493E-02    0.6956377023E+00    0.8344345600E-01    0.4659803031E+00    0.4145485885E-03
    0.1100000000E+07    0.1092570128E-02    0.6956339638E+00    0.7443637820E-01    0.4887941819E+00    0.4191962197E-03
    0.1300000000E+07    0.8553765116E-03    0.6956307235E+00    0.6718680960E-01    0.5068627223E+00    0.4231049611E-03
    0.1500000000E+07    0.6885517717E-03    0.6956278651E+00    0.6122450552E-01    0.5215576953E+00    0.4264821910E-03
    0.1700000000E+07    0.5665453344E-03    0.6956253079E+00    0.5623347789E-01    0.5337584401E+00    0.4294581621E-03
    0.1900000000E+07    0.4745153615E-03    0.6956229939E+00    0.5199360141E-01    0.5440583756E+00    0.4321201546E-03
    0.2100000000E+07    0.4033296382E-03    0.6956208803E+00    0.4834678014E-01    0.5528741178E+00    0.4345295698E-03
    0.2300000000E+07    0.3471050608E-03    0.6956189347E+00    0.4517649273E-01    0.5605075435E+00    0.4367312758E-03
    0.2500000000E+07    0.3019064753E-03    0.6956171318E+00    0.4239493899E-01    0.5671831430E+00    0.4387590746E-03
    0.2700000000E+07    0.2650177179E-03    0.6956154518E+00    0.3993468478E-01    0.5730715367E+00    0.4406390779E-03
    0.2900000000E+07    0.2345133282E-03    0.6956138787E+00    0.3774306840E-01    0.5783048381E+00    0.4423918834E-03
    0.3100000000E+07    0.2089966599E-03    0.6956123993E+00    0.3577835780E-01    0.5829870058E+00    0.4440340312E-03
    0.3300000000E+07    0.1874341818E-03    0.6956110030E+00    0.3400705016E-01    0.5872010058E+00    0.4455790075E-03
    0.3500000000E+07    0.1690475038E-03    0.6956096806E+00    0.3240193569E-01    0.5910138814E+00    0.4470379556E-03
    0.3700000000E+07    0.1532411794E-03    0.6956084247E+00    0.3094068434E-01    0.5944804141E+00    0.4484201913E-03
    0.3900000000E+07    0.1395533204E-03    0.6956072285E+00    0.2960479759E-01    0.5976458150E+00    0.4497335827E-03
    0.4100000000E+07    0.1276211257E-03    0.6956060867E+00    0.2837881959E-01    0.6005477341E+00    0.4509848372E-03
    0.4300000000E+07    0.1171563806E-03    0.6956049943E+00    0.2724973573E-01    0.6032177821E+00    0.4521797193E-03
    0.4500000000E+07    0.1079277551E-03    0.6956039471E+00    0.2620650861E-01    0.6056826979E+00    0.4533232207E-03
    0.4700000000E+07    0.9974782470E-04    0.6956029415E+00    0.2523971605E-01    0.6079652544E+00    0.4544196927E-03
    0.4900000000E+07    0.9246342426E-04    0.6956019742E+00    0.2434126591E-01    0.6100849692E+00    0.4554729518E-03
    0.1000000000E+07    0.1250956306E-02    0.6956357616E+00    0.7868240809E-01    0.4780946197E+00    0.4169823334E-03
    0.3000000000E+07    0.2212031539E-03    0.6956131280E+00    0.3673461095E-01    0.5807092039E+00    0.4432258845E-03
    0.5000000000E+07    0.8911672748E-04    0.6956015040E+00    0.2391544734E-01    0.6110891110E+00    0.4559844442E-03
    0.7000000000E+07    0.4779822320E-04    0.6955935557E+00    0.1770555289E-01    0.6256988937E+00    0.4645881438E-03
    0.9000000000E+07    0.2973463679E-04    0.6955874814E+00    0.1404425307E-01    0.6342852521E+00    0.4711200068E-03
    0.1100000000E+08    0.2026161423E-04    0.6955825507E+00    0.1163125867E-01    0.6399342693E+00    0.4764014358E-03
    0.1300000000E+08    0.1468577234E-04    0.6955783930E+00    0.9921922348E-02    0.6439316881E+00    0.4808432166E-03
    0.1500000000E+08    0.1113023158E-04    0.6955747938E+00    0.8648050945E-02    0.6469086409E+00    0.4846810041E-03
    0.1700000000E+08    0.8725420969E-05    0.6955716178E+00    0.7662296867E-02    0.6492111644E+00    0.4880628125E-03
    0.1900000000E+08    0.7023722927E-05    0.6955687735E+00    0.6877005737E-02    0.6510448130E+00    0.4910878239E-03
    0.2100000000E+08    0.5775684314E-05    0.6955661967E+00    0.6236778936E-02    0.6525393619E+00    0.4938258129E-03
    0.2300000000E+08    0.4833374859E-05    0.6955638403E+00    0.5704892468E-02    0.6537807707E+00    0.4963277662E-03
    0.2500000000E+08    0.4104568871E-05    0.6955616685E+00    0.5256043115E-02    0.6548282292E+00    0.4986320956E-03
    0.2700000000E+08    0.3529351899E-05    0.6955596539E+00    0.4872231122E-02    0.6557238216E+00    0.5007684737E-03
