  Pressure (Pa) 22mC5-500 (mol/kg) 24mC5-500 (mol/kg) 2mC6-500 (mol/kg) 3mC6-500 (mol/kg) C7-500 (mol/kg)
    0.1000000000E+01    0.7983491626E-05    0.3665787623E-01    0.3504158676E-04    0.1600900201E-05    0.4197458697E-02
    0.3000000000E+01    0.2108105744E-04    0.9947077079E-01    0.9044736926E-04    0.4095784480E-05    0.4265621575E-02
    0.5000000000E+01    0.3143699977E-04    0.1513329342E+00    0.1326647298E-03    0.6392218952E-05    0.4319249442E-02
    0.7000000000E+01    0.3978543040E-04    0.1948794041E+00    0.1655468630E-03    0.8593655049E-05    0.4364080899E-02
    0.9000000000E+01    0.4662047707E-04    0.2319624868E+00    0.1916085648E-03    0.1073498890E-04    0.4402281189E-02
    0.1100000000E+02    0.5229070361E-04    0.2639223104E+00    0.2125848203E-03    0.1283367814E-04    0.4435265441E-02
    0.1300000000E+02    0.5704903880E-04    0.2917524133E+00    0.2297084272E-03    0.1490011108E-04    0.4464052404E-02
    0.1500000000E+02    0.6108314281E-04    0.3162049915E+00    0.2438749522E-03    0.1694113151E-04    0.4489404972E-02
    0.1700000000E+02    0.6453487488E-04    0.3378599888E+00    0.2557469165E-03    0.1896156383E-04    0.4511908736E-02
    0.1900000000E+02    0.6751321349E-04    0.3571717378E+00    0.2658220812E-03    0.2096497805E-04    0.4532021697E-02
    0.2100000000E+02    0.7010306738E-04    0.3745012238E+00    0.2744794711E-03    0.2295411439E-04    0.4550107656E-02
    0.2300000000E+02    0.7237142322E-04    0.3901388900E+00    0.2820111120E-03    0.2493113728E-04    0.4566459462E-02
    0.2500000000E+02    0.7437172065E-04    0.4043210675E+00    0.2886443492E-03    0.2689779624E-04    0.4581315620E-02
    0.2700000000E+02    0.7614702070E-04    0.4172420182E+00    0.2945578143E-03    0.2885553246E-04    0.4594872406E-02
    0.2900000000E+02    0.7773233647E-04    0.4290628979E+00    0.2998930229E-03    0.3080555225E-04    0.4607292868E-02
    0.3100000000E+02    0.7915637171E-04    0.4399185212E+00    0.3047629142E-03    0.3274887903E-04    0.4618713605E-02
    0.3300000000E+02    0.8044283430E-04    0.4499225331E+00    0.3092582174E-03    0.3468639131E-04    0.4629249941E-02
    0.3500000000E+02    0.8161144017E-04    0.4591714078E+00    0.3134522500E-03    0.3661885088E-04    0.4638999932E-02
    0.3700000000E+02    0.8267868873E-04    0.4677475739E+00    0.3174045728E-03    0.3854692430E-04    0.4648047497E-02
    0.3900000000E+02    0.8365846765E-04    0.4757218813E+00    0.3211637992E-03    0.4047119943E-04    0.4656464886E-02
    0.4100000000E+02    0.8456252888E-04    0.4831555655E+00    0.3247697734E-03    0.4239219848E-04    0.4664314649E-02
    0.4300000000E+02    0.8540086635E-04    0.4901018253E+00    0.3282552726E-03    0.4431038824E-04    0.4671651219E-02
    0.4500000000E+02    0.8618201799E-04    0.4966070995E+00    0.3316473472E-03    0.4622618848E-04    0.4678522196E-02
    0.4700000000E+02    0.8691330902E-04    0.5027121075E+00    0.3349683834E-03    0.4813997861E-04    0.4684969387E-02
    0.4900000000E+02    0.8760104922E-04    0.5084527043E+00    0.3382369498E-03    0.5005210326E-04    0.4691029667E-02
    0.1000000000E+02    0.4958356691E-04    0.2485140408E+00    0.2026458671E-03    0.1178890534E-04    0.4419354443E-02
    0.3000000000E+02    0.7846292837E-04    0.4346038193E+00    0.3023800048E-03    0.3177799433E-04    0.4613120548E-02
    0.5000000000E+02    0.8793032211E-04    0.5111963990E+00    0.3398564859E-03    0.5100764037E-04    0.4693925069E-02
    0.7000000000E+02    0.9322436275E-04    0.5529788604E+00    0.3720883439E-03    0.7009493376E-04    0.4737764365E-02
    0.9000000000E+02    0.9744176333E-04    0.5792917310E+00    0.4067871790E-03    0.8925689224E-04    0.4764678813E-02
    0.1100000000E+03    0.1014760752E-03    0.5973855712E+00    0.4449547984E-03    0.1086087961E-03    0.4782317204E-02
    0.1300000000E+03    0.1056314326E-03    0.6105916514E+00    0.4864079309E-03    0.1282252563E-03    0.4794253745E-02
    0.1500000000E+03    0.1100184730E-03    0.6206550673E+00    0.5307991481E-03    0.1481610060E-03    0.4802390728E-02
    0.1700000000E+03    0.1146764578E-03    0.6285784439E+00    0.5778240960E-03    0.1684599005E-03    0.4807837237E-02
    0.1900000000E+03    0.1196168016E-03    0.6349788653E+00    0.6272527140E-03    0.1891594382E-03    0.4811284978E-02
    0.2100000000E+03    0.1248401362E-03    0.6402569499E+00    0.6789216234E-03    0.2102932821E-03    0.4813188217E-02
    0.2300000000E+03    0.1303434128E-03    0.6446841207E+00    0.7327203986E-03    0.2318927829E-03    0.4813857631E-02
    0.2500000000E+03    0.1361229463E-03    0.6484508029E+00    0.7885793685E-03    0.2539879624E-03    0.4813512667E-02
    0.2700000000E+03    0.1421757129E-03    0.6516945423E+00    0.8464601960E-03    0.2766081834E-03    0.4812312388E-02
    0.2900000000E+03    0.1484998692E-03    0.6545171699E+00    0.9063489348E-03    0.2997826319E-03    0.4810374496E-02
    0.3100000000E+03    0.1550949216E-03    0.6569956877E+00    0.9682509921E-03    0.3235406804E-03    0.4807787490E-02
    0.3300000000E+03    0.1619617401E-03    0.6591894020E+00    0.1032187497E-02    0.3479121749E-03    0.4804618724E-02
    0.3500000000E+03    0.1691025100E-03    0.6611447306E+00    0.1098192684E-02    0.3729276714E-03    0.4800919862E-02
    0.3700000000E+03    0.1765206623E-03    0.6628985235E+00    0.1166312022E-02    0.3986186402E-03    0.4796730689E-02
    0.3900000000E+03    0.1842208045E-03    0.6644804078E+00    0.1236600874E-02    0.4250176483E-03    0.4792081815E-02
    0.4100000000E+03    0.1922086602E-03    0.6659144745E+00    0.1309123566E-02    0.4521585281E-03    0.4786996624E-02
    0.4300000000E+03    0.2004910203E-03    0.6672205138E+00    0.1383952753E-02    0.4800765390E-03    0.4781492717E-02
    0.4500000000E+03    0.2090757075E-03    0.6684149342E+00    0.1461169016E-02    0.5088085254E-03    0.4775582979E-02
    0.4700000000E+03    0.2179715532E-03    0.6695114551E+00    0.1540860638E-02    0.5383930746E-03    0.4769276384E-02
    0.4900000000E+03    0.2271883862E-03    0.6705216360E+00    0.1623123523E-02    0.5688706770E-03    0.4762578604E-02
    0.1000000000E+03    0.9945582738E-04    0.5891048963E+00    0.4254400043E-03    0.9890381610E-04    0.4774378610E-02
    0.3000000000E+03    0.1517635106E-03    0.6557953863E+00    0.9370473117E-03    0.3115868549E-03    0.4809157501E-02
    0.5000000000E+03    0.2319205168E-03    0.6709974732E+00    0.1665251251E-02    0.5844575874E-03    0.4759084008E-02
    0.7000000000E+03    0.3466998787E-03    0.6777304128E+00    0.2673154889E-02    0.9550472739E-03    0.4668079346E-02
    0.9000000000E+03    0.5141839736E-03    0.6815287379E+00    0.4123020539E-02    0.1485491296E-02    0.4528182732E-02
    0.1100000000E+04    0.7704404186E-03    0.6839672475E+00    0.6327983469E-02    0.2291533150E-02    0.4312810936E-02
    0.1300000000E+04    0.1187200720E-02    0.6856649828E+00    0.9907367044E-02    0.3601336085E-02    0.3968062862E-02
    0.1500000000E+04    0.1900543788E-02    0.6869147713E+00    0.1603950910E-01    0.5850604387E-02    0.3398086119E-02
    0.1700000000E+04    0.3070257180E-02    0.6878730880E+00    0.2613180790E-01    0.9568340299E-02    0.2519892039E-02
    0.1900000000E+04    0.4479238941E-02    0.6886311416E+00    0.3839143854E-01    0.1412246348E-01    0.1583741502E-02
    0.2100000000E+04    0.5490538133E-02    0.6892456879E+00    0.4735993574E-01    0.1751441730E-01    0.1077550916E-02
    0.2300000000E+04    0.6077978178E-02    0.6897538927E+00    0.5274978779E-01    0.1961645198E-01    0.9255697652E-03
    0.2500000000E+04    0.6494978016E-02    0.6901811117E+00    0.5670831147E-01    0.2120627020E-01    0.8921376574E-03
    0.2700000000E+04    0.6852987804E-02    0.6905452363E+00    0.6018785666E-01    0.2263173685E-01    0.8875701800E-03
    0.2900000000E+04    0.7183268617E-02    0.6908592513E+00    0.6345537585E-01    0.2399035865E-01    0.8893862709E-03
    0.3100000000E+04    0.7494289904E-02    0.6911328087E+00    0.6658179454E-01    0.2530758939E-01    0.8924682324E-03
    0.3300000000E+04    0.7788845340E-02    0.6913732328E+00    0.6958908499E-01    0.2659083183E-01    0.8956778352E-03
    0.3500000000E+04    0.8068308101E-02    0.6915861813E+00    0.7248704173E-01    0.2784301763E-01    0.8987731228E-03
    0.3700000000E+04    0.8333658198E-02    0.6917760942E+00    0.7528219825E-01    0.2906591442E-01    0.9017137686E-03
    0.3900000000E+04    0.8585733925E-02    0.6919465042E+00    0.7798000998E-01    0.3026093620E-01    0.9045037118E-03
    0.4100000000E+04    0.8825296815E-02    0.6921002574E+00    0.8058541057E-01    0.3142934778E-01    0.9071553068E-03
    0.4300000000E+04    0.9053051094E-02    0.6922396723E+00    0.8310297020E-01    0.3257232043E-01    0.9096812844E-03
    0.4500000000E+04    0.9269651650E-02    0.6923666565E+00    0.8553695390E-01    0.3369095018E-01    0.9120931315E-03
    0.4700000000E+04    0.9475708867E-02    0.6924827940E+00    0.8789135304E-01    0.3478626647E-01    0.9144009302E-03
    0.4900000000E+04    0.9671792408E-02    0.6925894107E+00    0.9016990860E-01    0.3585923786E-01    0.9166135032E-03
    0.1000000000E+04    0.6278747385E-03    0.6828678793E+00    0.5102259248E-02    0.1843435452E-02    0.4432471033E-02
    0.3000000000E+04    0.7340955686E-02    0.6910005839E+00    0.6503436363E-01    0.2465350618E-01    0.8908771605E-03
    0.5000000000E+04    0.9766261748E-02    0.6926395054E+00    0.9128185053E-01    0.3638763142E-01    0.9176865380E-03
    0.7000000000E+04    0.1124420577E-01    0.6933392243E+00    0.1102859720E+00    0.4597822520E-01    0.9356128023E-03
    0.9000000000E+04    0.1215789005E-01    0.6937256352E+00    0.1246272988E+00    0.5410854866E-01    0.9490984879E-03
    0.1100000000E+05    0.1271735484E-01    0.6939698352E+00    0.1357897898E+00    0.6118676109E-01    0.9599447833E-03
    0.1300000000E+05    0.1304568721E-01    0.6941376368E+00    0.1446883602E+00    0.6747413000E-01    0.9690351950E-03
    0.1500000000E+05    0.1321876687E-01    0.6942597275E+00    0.1519177812E+00    0.7314680341E-01    0.9768704263E-03
    0.1700000000E+05    0.1328529030E-01    0.6943523322E+00    0.1578814795E+00    0.7832858253E-01    0.9837623354E-03
    0.1900000000E+05    0.1327754050E-01    0.6944248290E+00    0.1628627895E+00    0.8310949203E-01    0.9899186115E-03
    0.2100000000E+05    0.1321749597E-01    0.6944830129E+00    0.1670665691E+00    0.8755688094E-01    0.9954846786E-03
    0.2300000000E+05    0.1312045198E-01    0.6945306558E+00    0.1706446266E+00    0.9172235988E-01    0.1000566409E-02
    0.2500000000E+05    0.1299724844E-01    0.6945703171E+00    0.1737118594E+00    0.9564630180E-01    0.1005243326E-02
    0.2700000000E+05    0.1285568452E-01    0.6946037941E+00    0.1763568352E+00    0.9936085706E-01    0.1009576706E-02
    0.2900000000E+05    0.1270144175E-01    0.6946323854E+00    0.1786489287E+00    0.1028920303E+00    0.1013614788E-02
    0.3100000000E+05    0.1253870087E-01    0.6946570519E+00    0.1806432549E+00    0.1062611457E+00    0.1017396240E-02
    0.3300000000E+05    0.1237056258E-01    0.6946785203E+00    0.1823841531E+00    0.1094859039E+00    0.1020952540E-02
    0.3500000000E+05    0.1219934002E-01    0.6946973494E+00    0.1839076978E+00    0.1125811581E+00    0.1024309666E-02
    0.3700000000E+05    0.1202676530E-01    0.6947139764E+00    0.1852435364E+00    0.1155594942E+00    0.1027489309E-02
    0.3900000000E+05    0.1185413751E-01    0.6947287478E+00    0.1864162588E+00    0.1184316717E+00    0.1030509772E-02
    0.4100000000E+05    0.1168243016E-01    0.6947419419E+00    0.1874464294E+00    0.1212069615E+00    0.1033386641E-02
    0.4300000000E+05    0.1151237016E-01    0.6947537846E+00    0.1883513772E+00    0.1238934109E+00    0.1036133303E-02
    0.4500000000E+05    0.1134449636E-01    0.6947644609E+00    0.1891458064E+00    0.1264980510E+00    0.1038761339E-02
    0.4700000000E+05    0.1117920345E-01    0.6947741244E+00    0.1898422732E+00    0.1290270629E+00    0.1041280841E-02
    0.4900000000E+05    0.1101677517E-01    0.6947829029E+00    0.1904515631E+00    0.1314859105E+00    0.1043700653E-02
    0.1000000000E+05    0.1247276968E-01    0.6938601635E+00    0.1305391123E+00    0.5776031612E-01    0.9547837795E-03
    0.3000000000E+05    0.1262091840E-01    0.6946451592E+00    0.1796803223E+00    0.1045956642E+00    0.1015535480E-02
    0.5000000000E+05    0.1093669994E-01    0.6947869946E+00    0.1907264782E+00    0.1326905612E+00    0.1044875647E-02
    0.7000000000E+05    0.9506116316E-02    0.6948412684E+00    0.1933545709E+00    0.1540389862E+00    0.1064628663E-02
    0.9000000000E+05    0.8372698511E-02    0.6948677490E+00    0.1929603836E+00    0.1717063691E+00    0.1079613659E-02
    0.1100000000E+06    0.7466348330E-02    0.6948822317E+00    0.1912457036E+00    0.1869782464E+00    0.1091724705E-02
    0.1300000000E+06    0.6727777588E-02    0.6948905990E+00    0.1889012291E+00    0.2005311228E+00    0.1101907435E-02
    0.1500000000E+06    0.6114820632E-02    0.6948955060E+00    0.1862513633E+00    0.2127716377E+00    0.1110703766E-02
    0.1700000000E+06    0.5597910345E-02    0.6948983102E+00    0.1834633131E+00    0.2239666314E+00    0.1118453834E-02
    0.1900000000E+06    0.5155991216E-02    0.6948997696E+00    0.1806286797E+00    0.2343024592E+00    0.1125385444E-02
    0.2100000000E+06    0.4773741756E-02    0.6949003361E+00    0.1777996137E+00    0.2439154609E+00    0.1131658793E-02
    0.2300000000E+06    0.4439768638E-02    0.6949002930E+00    0.1750063992E+00    0.2529090421E+00    0.1137390907E-02
    0.2500000000E+06    0.4145427915E-02    0.6948998249E+00    0.1722666355E+00    0.2613639126E+00    0.1142669930E-02
    0.2700000000E+06    0.3884041987E-02    0.6948990565E+00    0.1695903064E+00    0.2693445590E+00    0.1147563937E-02
    0.2900000000E+06    0.3650368405E-02    0.6948980738E+00    0.1669827062E+00    0.2769035147E+00    0.1152126618E-02
    0.3100000000E+06    0.3440231803E-02    0.6948969377E+00    0.1644461911E+00    0.2840842820E+00    0.1156401082E-02
    0.3300000000E+06    0.3250263705E-02    0.6948956921E+00    0.1619812577E+00    0.2909233905E+00    0.1160422473E-02
    0.3500000000E+06    0.3077715124E-02    0.6948943690E+00    0.1595872249E+00    0.2974518869E+00    0.1164219827E-02
    0.3700000000E+06    0.2920319274E-02    0.6948929922E+00    0.1572626717E+00    0.3036964356E+00    0.1167817417E-02
    0.3900000000E+06    0.2776189418E-02    0.6948915794E+00    0.1550057234E+00    0.3096801501E+00    0.1171235739E-02
    0.4100000000E+06    0.2643741763E-02    0.6948901440E+00    0.1528142403E+00    0.3154232291E+00    0.1174492268E-02
    0.4300000000E+06    0.2521636506E-02    0.6948886962E+00    0.1506859436E+00    0.3209434534E+00    0.1177602019E-02
    0.4500000000E+06    0.2408732214E-02    0.6948872438E+00    0.1486184986E+00    0.3262565768E+00    0.1180577994E-02
    0.4700000000E+06    0.2304050130E-02    0.6948857926E+00    0.1466095705E+00    0.3313766398E+00    0.1183431525E-02
    0.4900000000E+06    0.2206745977E-02    0.6948843472E+00    0.1446568607E+00    0.3363162216E+00    0.1186172554E-02
    0.1000000000E+06    0.7895286952E-02    0.6948760080E+00    0.1922123015E+00    0.1795907807E+00    0.1085956152E-02
    0.3000000000E+06    0.3542584936E-02    0.6948975218E+00    0.1657054978E+00    0.2805387451E+00    0.1154297518E-02
    0.5000000000E+06    0.2160627928E-02    0.6948836278E+00    0.1437008854E+00    0.3387219153E+00    0.1187503661E-02
    0.7000000000E+06    0.1490308566E-02    0.6948700418E+00    0.1270335243E+00    0.3796050153E+00    0.1209892618E-02
    0.9000000000E+06    0.1101728413E-02    0.6948582218E+00    0.1139708330E+00    0.4106258148E+00    0.1226888760E-02
    0.1100000000E+07    0.8523782727E-03    0.6948479541E+00    0.1034250452E+00    0.4352252299E+00    0.1240630509E-02
    0.1300000000E+07    0.6813072311E-03    0.6948389266E+00    0.9471204423E-01    0.4553210111E+00    0.1252187141E-02
    0.1500000000E+07    0.5581865443E-03    0.6948308871E+00    0.8738029545E-01    0.4721004260E+00    0.1262172011E-02
    0.1700000000E+07    0.4663071063E-03    0.6948236458E+00    0.8111846672E-01    0.4863507022E+00    0.1270970341E-02
    0.1900000000E+07    0.3957579424E-03    0.6948170598E+00    0.7570405987E-01    0.4986199686E+00    0.1278840249E-02
    0.2100000000E+07    0.3403198690E-03    0.6948110204E+00    0.7097332899E-01    0.5093042396E+00    0.1285963315E-02
    0.2300000000E+07    0.2959125487E-03    0.6948054432E+00    0.6680279817E-01    0.5186980844E+00    0.1292472220E-02
    0.2500000000E+07    0.2597601380E-03    0.6948002619E+00    0.6309742970E-01    0.5270258669E+00    0.1298466923E-02
    0.2700000000E+07    0.2299164872E-03    0.6947954233E+00    0.5978278167E-01    0.5344618846E+00    0.1304024634E-02
    0.2900000000E+07    0.2049819219E-03    0.6947908842E+00    0.5679965365E-01    0.5411438313E+00    0.1309206262E-02
    0.3100000000E+07    0.1839275253E-03    0.6947866090E+00    0.5410033712E-01    0.5471820680E+00    0.1314060714E-02
    0.3300000000E+07    0.1659824112E-03    0.6947825682E+00    0.5164593119E-01    0.5526661739E+00    0.1318627868E-02
    0.3500000000E+07    0.1505592945E-03    0.6947787370E+00    0.4940438348E-01    0.5576696746E+00    0.1322940673E-02
    0.3700000000E+07    0.1372041001E-03    0.6947750942E+00    0.4734903567E-01    0.5622535219E+00    0.1327026674E-02
    0.3900000000E+07    0.1255610854E-03    0.6947716218E+00    0.4545752725E-01    0.5664686963E+00    0.1330909135E-02
    0.4100000000E+07    0.1153482219E-03    0.6947683042E+00    0.4371095788E-01    0.5703581831E+00    0.1334607888E-02
    0.4300000000E+07    0.1063395119E-03    0.6947651279E+00    0.4209323945E-01    0.5739584923E+00    0.1338139978E-02
    0.4500000000E+07    0.9835208521E-04    0.6947620810E+00    0.4059058929E-01    0.5773008421E+00    0.1341520163E-02
    0.4700000000E+07    0.9123664724E-04    0.6947591532E+00    0.3919112963E-01    0.5804120902E+00    0.1344761309E-02
    0.4900000000E+07    0.8487031692E-04    0.6947563354E+00    0.3788456825E-01    0.5833154736E+00    0.1347874700E-02
    0.1000000000E+07    0.9645023624E-03    0.6948529145E+00    0.1084330334E+00    0.4235854113E+00    0.1234084737E-02
    0.3000000000E+07    0.1940229140E-03    0.6947887156E+00    0.5541713082E-01    0.5442373903E+00    0.1311671709E-02
    0.5000000000E+07    0.8193552417E-04    0.6947549651E+00    0.3726327734E-01    0.5846956359E+00    0.1349386644E-02
    0.7000000000E+07    0.4510246753E-04    0.6947317558E+00    0.2804801589E-01    0.6051355962E+00    0.1374818077E-02
    0.9000000000E+07    0.2855582009E-04    0.6947139720E+00    0.2247283493E-01    0.6174761185E+00    0.1394124636E-02
    0.1100000000E+08    0.1972403264E-04    0.6946995141E+00    0.1873774000E-01    0.6257343665E+00    0.1409734734E-02
    0.1300000000E+08    0.1445977778E-04    0.6946873107E+00    0.1606161104E-01    0.6316471883E+00    0.1422862783E-02
    0.1500000000E+08    0.1107048752E-04    0.6946767393E+00    0.1405054029E-01    0.6360885806E+00    0.1434205435E-02
    0.1700000000E+08    0.8760337677E-05    0.6946674057E+00    0.1248435533E-01    0.6395463820E+00    0.1444200245E-02
    0.1900000000E+08    0.7115030436E-05    0.6946590440E+00    0.1123035986E-01    0.6423143261E+00    0.1453140406E-02
    0.2100000000E+08    0.5901606085E-05    0.6946514663E+00    0.1020382471E-01    0.6445798352E+00    0.1461232177E-02
    0.2300000000E+08    0.4980900161E-05    0.6946445347E+00    0.9348116424E-02    0.6464681171E+00    0.1468626275E-02
    0.2500000000E+08    0.4265618114E-05    0.6946381451E+00    0.8623947288E-02    0.6480659947E+00    0.1475436245E-02
    0.2700000000E+08    0.3698750959E-05    0.6946322168E+00    0.8003209397E-02    0.6494355639E+00    0.1481749797E-02
