  Pressure (Pa) 22mC5-500 (mol/kg) 24mC5-500 (mol/kg) 2mC6-500 (mol/kg) 3mC6-500 (mol/kg) C7-500 (mol/kg)
    0.1000000000E+01    0.5398671869E-05    0.2321307169E+00    0.1152387762E-04    0.8977634938E-06    0.4166514198E-02
    0.3000000000E+01    0.8938147138E-05    0.4177291249E+00    0.1827614049E-04    0.2257683687E-05    0.4186208510E-02
    0.5000000000E+01    0.1025384279E-04    0.4972448338E+00    0.2113979145E-04    0.3498939218E-05    0.4192429771E-02
    0.7000000000E+01    0.1102001498E-04    0.5414141968E+00    0.2341954682E-04    0.4683070722E-05    0.4195548140E-02
    0.9000000000E+01    0.1160804688E-04    0.5695199982E+00    0.2565275858E-04    0.5830667598E-05    0.4197370484E-02
    0.1100000000E+02    0.1213305929E-04    0.5889770662E+00    0.2794375588E-04    0.6951989859E-05    0.4198517352E-02
    0.1300000000E+02    0.1263742545E-04    0.6032452173E+00    0.3030488686E-04    0.8053127591E-05    0.4199264759E-02
    0.1500000000E+02    0.1313821490E-04    0.6141559716E+00    0.3272772487E-04    0.9138085733E-05    0.4199755336E-02
    0.1700000000E+02    0.1364250818E-04    0.6227696247E+00    0.3520056381E-04    0.1020968354E-04    0.4200070592E-02
    0.1900000000E+02    0.1415311139E-04    0.6297425245E+00    0.3771280492E-04    0.1127000475E-04    0.4200260631E-02
    0.2100000000E+02    0.1467091401E-04    0.6355027117E+00    0.4025580177E-04    0.1232064707E-04    0.4200358015E-02
    0.2300000000E+02    0.1519593345E-04    0.6403412476E+00    0.4282274521E-04    0.1336287122E-04    0.4200384858E-02
    0.2500000000E+02    0.1572780105E-04    0.6444629497E+00    0.4540833528E-04    0.1439769519E-04    0.4200356724E-02
    0.2700000000E+02    0.1626599503E-04    0.6480161321E+00    0.4800845522E-04    0.1542595673E-04    0.4200284893E-02
    0.2900000000E+02    0.1680995330E-04    0.6511108333E+00    0.5061990059E-04    0.1644835623E-04    0.4200177747E-02
    0.3100000000E+02    0.1735912720E-04    0.6538304149E+00    0.5324016772E-04    0.1746548725E-04    0.4200041648E-02
    0.3300000000E+02    0.1791300565E-04    0.6562391841E+00    0.5586729199E-04    0.1847785859E-04    0.4199881516E-02
    0.3500000000E+02    0.1847112417E-04    0.6583875436E+00    0.5849972551E-04    0.1948591091E-04    0.4199701214E-02
    0.3700000000E+02    0.1903306649E-04    0.6603155569E+00    0.6113624424E-04    0.2049002914E-04    0.4199503818E-02
    0.3900000000E+02    0.1959846242E-04    0.6620554700E+00    0.6377587754E-04    0.2149055226E-04    0.4199291813E-02
    0.4100000000E+02    0.2016698419E-04    0.6636335296E+00    0.6641785418E-04    0.2248778080E-04    0.4199067222E-02
    0.4300000000E+02    0.2073834217E-04    0.6650713164E+00    0.6906156089E-04    0.2348198295E-04    0.4198831713E-02
    0.4500000000E+02    0.2131228065E-04    0.6663867376E+00    0.7170651019E-04    0.2447339931E-04    0.4198586673E-02
    0.4700000000E+02    0.2188857376E-04    0.6675947768E+00    0.7435231535E-04    0.2546224691E-04    0.4198333265E-02
    0.4900000000E+02    0.2246702194E-04    0.6687080672E+00    0.7699867074E-04    0.2644872240E-04    0.4198072469E-02
    0.1000000000E+02    0.1187488908E-04    0.5800593186E+00    0.2678938973E-04    0.6394167959E-05    0.4198006605E-02
    0.3000000000E+02    0.1708392128E-04    0.6525131180E+00    0.5192906526E-04    0.1695754673E-04    0.4200112981E-02
    0.5000000000E+02    0.2275699818E-04    0.6692325980E+00    0.7832197754E-04    0.2694112716E-04    0.4197939566E-02
    0.7000000000E+02    0.2863629021E-04    0.6766634298E+00    0.1047820263E-03    0.3670087544E-04    0.4195042715E-02
    0.9000000000E+02    0.3461761102E-04    0.6808634312E+00    0.1312185161E-03    0.4635849760E-04    0.4191893117E-02
    0.1100000000E+03    0.4066684196E-04    0.6835634021E+00    0.1576648758E-03    0.5597569539E-04    0.4188623953E-02
    0.1300000000E+03    0.4677232300E-04    0.6854451741E+00    0.1841674607E-03    0.6558985454E-04    0.4185285589E-02
    0.1500000000E+03    0.5293076851E-04    0.6868317208E+00    0.2107683324E-03    0.7522621208E-04    0.4181900127E-02
    0.1700000000E+03    0.5914235350E-04    0.6878957958E+00    0.2375032696E-03    0.8490312501E-04    0.4178478012E-02
    0.1900000000E+03    0.6540876740E-04    0.6887381722E+00    0.2644025744E-03    0.9463471196E-04    0.4175024265E-02
    0.2100000000E+03    0.7173237256E-04    0.6894215955E+00    0.2914922188E-03    0.1044323185E-03    0.4171541157E-02
    0.2300000000E+03    0.7811581885E-04    0.6899871749E+00    0.3187948353E-03    0.1143053927E-03    0.4168029475E-02
    0.2500000000E+03    0.8456186182E-04    0.6904629690E+00    0.3463304895E-03    0.1242620387E-03    0.4164489170E-02
    0.2700000000E+03    0.9107327688E-04    0.6908687837E+00    0.3741172676E-03    0.1343093844E-03    0.4160919708E-02
    0.2900000000E+03    0.9765282054E-04    0.6912189988E+00    0.4021717225E-03    0.1444538333E-03    0.4157320266E-02
    0.3100000000E+03    0.1043032155E-03    0.6915243068E+00    0.4305092141E-03    0.1547012442E-03    0.4153689844E-02
    0.3300000000E+03    0.1110271477E-03    0.6917928238E+00    0.4591441717E-03    0.1650570619E-03    0.4150027333E-02
    0.3500000000E+03    0.1178272694E-03    0.6920308212E+00    0.4880903002E-03    0.1755264149E-03    0.4146331560E-02
    0.3700000000E+03    0.1247062051E-03    0.6922432218E+00    0.5173607424E-03    0.1861141902E-03    0.4142601310E-02
    0.3900000000E+03    0.1316665589E-03    0.6924339436E+00    0.5469682098E-03    0.1968250912E-03    0.4138835339E-02
    0.4100000000E+03    0.1387109219E-03    0.6926061439E+00    0.5769250886E-03    0.2076636838E-03    0.4135032389E-02
    0.4300000000E+03    0.1458418797E-03    0.6927623953E+00    0.6072435272E-03    0.2186344330E-03    0.4131191188E-02
    0.4500000000E+03    0.1530620197E-03    0.6929048151E+00    0.6379355085E-03    0.2297417339E-03    0.4127310454E-02
    0.4700000000E+03    0.1603739373E-03    0.6930351616E+00    0.6690129119E-03    0.2409899358E-03    0.4123388899E-02
    0.4900000000E+03    0.1677802430E-03    0.6931549073E+00    0.7004875653E-03    0.2523833642E-03    0.4119425223E-02
    0.1000000000E+03    0.3763475651E-04    0.6823457724E+00    0.1444375322E-03    0.5116943695E-04    0.4190269342E-02
    0.3000000000E+03    0.1009689929E-03    0.6913767085E+00    0.4163041677E-03    0.1495643198E-03    0.4155508995E-02
    0.5000000000E+03    0.1715196125E-03    0.6932112008E+00    0.7163775542E-03    0.2581358879E-03    0.4117427181E-02
    0.7000000000E+03    0.2519275260E-03    0.6940001584E+00    0.1057981200E-02    0.3818867951E-03    0.4074926814E-02
    0.9000000000E+03    0.3451071409E-03    0.6944391021E+00    0.1453907276E-02    0.5254863973E-03    0.4026592978E-02
    0.1100000000E+04    0.4546902887E-03    0.6947186236E+00    0.1919793963E-02    0.6946442048E-03    0.3970722062E-02
    0.1300000000E+04    0.5854703993E-03    0.6949122019E+00    0.2476202252E-02    0.8968771045E-03    0.3905125697E-02
    0.1500000000E+04    0.7439793091E-03    0.6950541763E+00    0.3151136417E-02    0.1142435451E-02    0.3826882925E-02
    0.1700000000E+04    0.9393287579E-03    0.6951627438E+00    0.3983682055E-02    0.1445641899E-02    0.3731993891E-02
    0.1900000000E+04    0.1184475805E-02    0.6952484465E+00    0.5029473746E-02    0.1826907953E-02    0.3614879141E-02
    0.2100000000E+04    0.1498110123E-02    0.6953178137E+00    0.6368868150E-02    0.2315757082E-02    0.3467668889E-02
    0.2300000000E+04    0.1907309593E-02    0.6953751052E+00    0.8118499018E-02    0.2955119176E-02    0.3279284275E-02
    0.2500000000E+04    0.2450620527E-02    0.6954232184E+00    0.1044483780E-01    0.3806426798E-02    0.3034592394E-02
    0.2700000000E+04    0.3179214730E-02    0.6954641927E+00    0.1356986415E-01    0.4951948652E-02    0.2714878508E-02
    0.2900000000E+04    0.4147927297E-02    0.6954995050E+00    0.1773386693E-01    0.6481601683E-02    0.2303360698E-02
    0.3100000000E+04    0.5378420975E-02    0.6955302514E+00    0.2303880017E-01    0.8436020877E-02    0.1802648224E-02
    0.3300000000E+04    0.6788100995E-02    0.6955572621E+00    0.2914231159E-01    0.1069402347E-01    0.1263137128E-02
    0.3500000000E+04    0.8164162503E-02    0.6955811778E+00    0.3513945120E-01    0.1292674685E-01    0.7837085606E-03
    0.3700000000E+04    0.9298899926E-02    0.6956025006E+00    0.4013566968E-01    0.1480503079E-01    0.4439783553E-03
    0.3900000000E+04    0.1014269289E-01    0.6956216295E+00    0.4390705611E-01    0.1624287098E-01    0.2463258784E-03
    0.4100000000E+04    0.1076762218E-01    0.6956388859E+00    0.4675361596E-01    0.1734698284E-01    0.1455322928E-03
    0.4300000000E+04    0.1126110183E-01    0.6956545312E+00    0.4904582442E-01    0.1825159187E-01    0.9770659012E-04
    0.4500000000E+04    0.1168203848E-01    0.6956687803E+00    0.5103477829E-01    0.1904819944E-01    0.7578884879E-04
    0.4700000000E+04    0.1206257738E-01    0.6956818117E+00    0.5285788924E-01    0.1978702710E-01    0.6590994274E-04
    0.4900000000E+04    0.1241882566E-01    0.6956937746E+00    0.5458405021E-01    0.2049327607E-01    0.6150783685E-04
    0.1000000000E+04    0.3975817064E-03    0.6945928231E+00    0.1676961458E-02    0.6064524820E-03    0.3999722518E-02
    0.3000000000E+04    0.4732264734E-02    0.6955153919E+00    0.2025076803E-01    0.7408037583E-02    0.2062433516E-02
    0.5000000000E+04    0.1259048329E-01    0.6956993955E+00    0.5542205182E-01    0.2083830200E-01    0.6034396481E-04
    0.7000000000E+04    0.1550574642E-01    0.6957779366E+00    0.7027846697E-01    0.2717715196E-01    0.5887743956E-04
    0.9000000000E+04    0.1771601277E-01    0.6958213811E+00    0.8253963802E-01    0.3276551796E-01    0.5970599586E-04
    0.1100000000E+05    0.1941582704E-01    0.6958489030E+00    0.9285067609E-01    0.3777481037E-01    0.6037672830E-04
    0.1300000000E+05    0.2073360296E-01    0.6958678682E+00    0.1016422574E+00    0.4231934828E-01    0.6094066829E-04
    0.1500000000E+05    0.2176002912E-01    0.6958817102E+00    0.1092261978E+00    0.4648361849E-01    0.6142782914E-04
    0.1700000000E+05    0.2256071439E-01    0.6958922441E+00    0.1158338943E+00    0.5033158629E-01    0.6185704864E-04
    0.1900000000E+05    0.2318411322E-01    0.6959005197E+00    0.1216407406E+00    0.5391269300E-01    0.6224094283E-04
    0.2100000000E+05    0.2366665625E-01    0.6959071857E+00    0.1267821507E+00    0.5726584759E-01    0.6258838345E-04
    0.2300000000E+05    0.2403616500E-01    0.6959126647E+00    0.1313643736E+00    0.6042215740E-01    0.6290585133E-04
    0.2500000000E+05    0.2431418043E-01    0.6959172436E+00    0.1354719741E+00    0.6340684191E-01    0.6319822768E-04
    0.2700000000E+05    0.2451758502E-01    0.6959211240E+00    0.1391731198E+00    0.6624060272E-01    0.6346928235E-04
    0.2900000000E+05    0.2465975458E-01    0.6959244518E+00    0.1425233901E+00    0.6894062314E-01    0.6372198866E-04
    0.3100000000E+05    0.2475138997E-01    0.6959273349E+00    0.1455685693E+00    0.7152130977E-01    0.6395873381E-04
    0.3300000000E+05    0.2480112715E-01    0.6959298551E+00    0.1483467247E+00    0.7399485139E-01    0.6418146402E-04
    0.3500000000E+05    0.2481599069E-01    0.6959320752E+00    0.1508897771E+00    0.7637164584E-01    0.6439178724E-04
    0.3700000000E+05    0.2480173525E-01    0.6959340446E+00    0.1532247005E+00    0.7866063026E-01    0.6459104756E-04
    0.3900000000E+05    0.2476310574E-01    0.6959358024E+00    0.1553744515E+00    0.8086953957E-01    0.6478038015E-04
    0.4100000000E+05    0.2470403747E-01    0.6959373798E+00    0.1573586952E+00    0.8300511082E-01    0.6496075258E-04
    0.4300000000E+05    0.2462781179E-01    0.6959388026E+00    0.1591943791E+00    0.8507324644E-01    0.6513299642E-04
    0.4500000000E+05    0.2453717804E-01    0.6959400916E+00    0.1608961907E+00    0.8707914574E-01    0.6529783168E-04
    0.4700000000E+05    0.2443445002E-01    0.6959412642E+00    0.1624769246E+00    0.8902741174E-01    0.6545588598E-04
    0.4900000000E+05    0.2432158285E-01    0.6959423349E+00    0.1639477805E+00    0.9092213873E-01    0.6560770977E-04
    0.1000000000E+05    0.1862062344E-01    0.6958365337E+00    0.8790863778E-01    0.3533456402E-01    0.6005725471E-04
    0.3000000000E+05    0.2471130685E-01    0.6959259433E+00    0.1440815765E+00    0.7024507494E-01    0.6384222577E-04
    0.5000000000E+05    0.2426187539E-01    0.6959428360E+00    0.1646451288E+00    0.9185058344E-01    0.6568143919E-04
    0.7000000000E+05    0.2282694714E-01    0.6959496580E+00    0.1746848028E+00    0.1083215927E+00    0.6692158680E-04
    0.9000000000E+05    0.2129773473E-01    0.6959532136E+00    0.1801531125E+00    0.1219863306E+00    0.6786306315E-04
    0.1100000000E+06    0.1987056365E-01    0.6959553254E+00    0.1832238753E+00    0.1338399003E+00    0.6862429461E-04
    0.1300000000E+06    0.1858397960E-01    0.6959566819E+00    0.1848883220E+00    0.1444057581E+00    0.6926449969E-04
    0.1500000000E+06    0.1743443929E-01    0.6959575986E+00    0.1856651110E+00    0.1539966859E+00    0.6981764790E-04
    0.1700000000E+06    0.1640752509E-01    0.6959582393E+00    0.1858523588E+00    0.1628164021E+00    0.7030507446E-04
    0.1900000000E+06    0.1548730986E-01    0.6959586973E+00    0.1856335093E+00    0.1710060861E+00    0.7074107540E-04
    0.2100000000E+06    0.1465916425E-01    0.6959590290E+00    0.1851274252E+00    0.1786682580E+00    0.7113570773E-04
    0.2300000000E+06    0.1391043295E-01    0.6959592707E+00    0.1844142930E+00    0.1858801255E+00    0.7149632037E-04
    0.2500000000E+06    0.1323040924E-01    0.6959594463E+00    0.1835499799E+00    0.1927015530E+00    0.7182844969E-04
    0.2700000000E+06    0.1261010034E-01    0.6959595724E+00    0.1825744440E+00    0.1991800763E+00    0.7213637243E-04
    0.2900000000E+06    0.1204195645E-01    0.6959596609E+00    0.1815168888E+00    0.2053541979E+00    0.7242346221E-04
    0.3100000000E+06    0.1151962133E-01    0.6959597202E+00    0.1803990452E+00    0.2112556306E+00    0.7269242803E-04
    0.3300000000E+06    0.1103772010E-01    0.6959597566E+00    0.1792373287E+00    0.2169108717E+00    0.7294547872E-04
    0.3500000000E+06    0.1059168441E-01    0.6959597750E+00    0.1780442970E+00    0.2223423376E+00    0.7318443941E-04
    0.3700000000E+06    0.1017761061E-01    0.6959597789E+00    0.1768296584E+00    0.2275691983E+00    0.7341083583E-04
    0.3900000000E+06    0.9792144969E-02    0.6959597712E+00    0.1756009847E+00    0.2326080053E+00    0.7362595667E-04
    0.4100000000E+06    0.9432391134E-02    0.6959597541E+00    0.1743642234E+00    0.2374731703E+00    0.7383090047E-04
    0.4300000000E+06    0.9095835026E-02    0.6959597293E+00    0.1731240734E+00    0.2421773372E+00    0.7402661139E-04
    0.4500000000E+06    0.8780283856E-02    0.6959596983E+00    0.1718842626E+00    0.2467316747E+00    0.7421390696E-04
    0.4700000000E+06    0.8483816283E-02    0.6959596622E+00    0.1706477579E+00    0.2511461088E+00    0.7439349985E-04
    0.4900000000E+06    0.8204741497E-02    0.6959596219E+00    0.1694169236E+00    0.2554295104E+00    0.7456601515E-04
    0.1000000000E+06    0.2056734113E-01    0.6959543938E+00    0.1819104318E+00    0.1281000211E+00    0.6826168498E-04
    0.3000000000E+06    0.1177541950E-01    0.6959596937E+00    0.1809643722E+00    0.2083372371E+00    0.7256006239E-04
    0.5000000000E+06    0.8071252622E-02    0.6959596005E+00    0.1688042378E+00    0.2575245957E+00    0.7464979355E-04
    0.7000000000E+06    0.6029872515E-02    0.6959590775E+00    0.1571389804E+00    0.2941208955E+00    0.7605902298E-04
    0.9000000000E+06    0.4738085647E-02    0.6959585168E+00    0.1467980630E+00    0.3233394955E+00    0.7712891444E-04
    0.1100000000E+07    0.3850724638E-02    0.6959579863E+00    0.1377114414E+00    0.3475818364E+00    0.7799400023E-04
    0.1300000000E+07    0.3206852596E-02    0.6959574977E+00    0.1296975610E+00    0.3682007254E+00    0.7872156080E-04
    0.1500000000E+07    0.2720866458E-02    0.6959570496E+00    0.1225847137E+00    0.3860500590E+00    0.7935019311E-04
    0.1700000000E+07    0.2342914121E-02    0.6959566379E+00    0.1162295867E+00    0.4017099381E+00    0.7990413991E-04
    0.1900000000E+07    0.2041970479E-02    0.6959562578E+00    0.1105158786E+00    0.4155952750E+00    0.8039964603E-04
    0.2100000000E+07    0.1797719644E-02    0.6959559055E+00    0.1053494704E+00    0.4280143502E+00    0.8084813976E-04
    0.2300000000E+07    0.1596311219E-02    0.6959555772E+00    0.1006537826E+00    0.4392030374E+00    0.8125797218E-04
    0.2500000000E+07    0.1427988036E-02    0.6959552700E+00    0.9636600182E-01    0.4493460719E+00    0.8163543478E-04
    0.2700000000E+07    0.1285686800E-02    0.6959549815E+00    0.9243415433E-01    0.4585909203E+00    0.8198538764E-04
    0.2900000000E+07    0.1164175388E-02    0.6959547096E+00    0.8881486525E-01    0.4670571823E+00    0.8231166462E-04
    0.3100000000E+07    0.1059500974E-02    0.6959544524E+00    0.8547164068E-01    0.4748431705E+00    0.8261734429E-04
    0.3300000000E+07    0.9686257356E-03    0.6959542084E+00    0.8237354306E-01    0.4820306403E+00    0.8290493685E-04
    0.3500000000E+07    0.8891798072E-03    0.6959539763E+00    0.7949416105E-01    0.4886882676E+00    0.8317651643E-04
    0.3700000000E+07    0.8192897410E-03    0.6959537551E+00    0.7681080139E-01    0.4948742554E+00    0.8343381696E-04
    0.3900000000E+07    0.7574569242E-03    0.6959535437E+00    0.7430384899E-01    0.5006383216E+00    0.8367830299E-04
    0.4100000000E+07    0.7024698031E-03    0.6959533413E+00    0.7195625585E-01    0.5060232373E+00    0.8391122294E-04
    0.4300000000E+07    0.6533394719E-03    0.6959531472E+00    0.6975312948E-01    0.5110660329E+00    0.8413364983E-04
    0.4500000000E+07    0.6092517053E-03    0.6959529606E+00    0.6768139874E-01    0.5157989545E+00    0.8434651274E-04
    0.4700000000E+07    0.5695307616E-03    0.6959527811E+00    0.6572954061E-01    0.5202502307E+00    0.8455062163E-04
    0.4900000000E+07    0.5336117336E-03    0.6959526080E+00    0.6388735511E-01    0.5244446935E+00    0.8474668686E-04
    0.1000000000E+07    0.4256412479E-02    0.6959582465E+00    0.1421090215E+00    0.3359824772E+00    0.7758191770E-04
    0.3000000000E+07    0.1109941522E-02    0.6959545792E+00    0.8711079542E-01    0.4710297586E+00    0.8246691067E-04
    0.5000000000E+07    0.5169263545E-03    0.6959525238E+00    0.6300451732E-01    0.5264525778E+00    0.8484190183E-04
    0.7000000000E+07    0.2993986648E-03    0.6959510899E+00    0.4936167368E-01    0.5573124866E+00    0.8644350733E-04
    0.9000000000E+07    0.1953252068E-03    0.6959499840E+00    0.4056749850E-01    0.5770570025E+00    0.8765945356E-04
    0.1100000000E+08    0.1374577320E-03    0.6959490815E+00    0.3442419721E-01    0.5907911512E+00    0.8864263614E-04
    0.1300000000E+08    0.1019667018E-03    0.6959483178E+00    0.2988981258E-01    0.6009005615E+00    0.8946951962E-04
    0.1500000000E+08    0.7863404773E-04    0.6959476551E+00    0.2640565708E-01    0.6086536897E+00    0.9018396975E-04
    0.1700000000E+08    0.6247716370E-04    0.6959470692E+00    0.2364498537E-01    0.6147883220E+00    0.9081353870E-04
    0.1900000000E+08    0.5082854787E-04    0.6959465438E+00    0.2140387404E-01    0.6197631371E+00    0.9137668891E-04
    0.2100000000E+08    0.4215463843E-04    0.6959460672E+00    0.1954844725E-01    0.6238783968E+00    0.9188640880E-04
    0.2300000000E+08    0.3552270208E-04    0.6959456310E+00    0.1798717275E-01    0.6273389408E+00    0.9235218948E-04
    0.2500000000E+08    0.3033890301E-04    0.6959452286E+00    0.1665534663E-01    0.6302893177E+00    0.9278118134E-04
    0.2700000000E+08    0.2621056941E-04    0.6959448551E+00    0.1550593558E-01    0.6328344511E+00    0.9317890794E-04
