  Pressure (Pa) 22mC5-500 (mol/kg) 24mC5-500 (mol/kg) 2mC6-500 (mol/kg) 3mC6-500 (mol/kg) C7-500 (mol/kg)
    0.1000000000E+01    0.7524792426E-05    0.6964979996E-01    0.1640939911E-04    0.4803428958E-05    0.4195489246E-02
    0.3000000000E+01    0.1804414027E-04    0.1740791937E+00    0.3803978673E-04    0.1229246752E-04    0.4252875318E-02
    0.5000000000E+01    0.2498452393E-04    0.2486396355E+00    0.5141687673E-04    0.1918948523E-04    0.4291702414E-02
    0.7000000000E+01    0.2982116138E-04    0.3045434420E+00    0.6024482330E-04    0.2580458933E-04    0.4320659095E-02
    0.9000000000E+01    0.3333588598E-04    0.3480149860E+00    0.6640120377E-04    0.3224233575E-04    0.4343174794E-02
    0.1100000000E+02    0.3597897372E-04    0.3827868121E+00    0.7092055030E-04    0.3855501041E-04    0.4361200538E-02
    0.1300000000E+02    0.3802569675E-04    0.4112331651E+00    0.7440649035E-04    0.4477371608E-04    0.4375958594E-02
    0.1500000000E+02    0.3965233357E-04    0.4349363466E+00    0.7722690874E-04    0.5091893780E-04    0.4388259469E-02
    0.1700000000E+02    0.4097606161E-04    0.4549915042E+00    0.7961381881E-04    0.5700511347E-04    0.4398663513E-02
    0.1900000000E+02    0.4207719999E-04    0.4721807166E+00    0.8171758784E-04    0.6304292583E-04    0.4407571163E-02
    0.2100000000E+02    0.4301223502E-04    0.4870774064E+00    0.8363781527E-04    0.6904057447E-04    0.4415276501E-02
    0.2300000000E+02    0.4382176605E-04    0.5001115768E+00    0.8544162221E-04    0.7500453643E-04    0.4422000531E-02
    0.2500000000E+02    0.4453552287E-04    0.5116120132E+00    0.8717484924E-04    0.8094004789E-04    0.4427912656E-02
    0.2700000000E+02    0.4517562931E-04    0.5218344108E+00    0.8886910899E-04    0.8685142335E-04    0.4433144975E-02
    0.2900000000E+02    0.4575878150E-04    0.5309806164E+00    0.9054633708E-04    0.9274227525E-04    0.4437802064E-02
    0.3100000000E+02    0.4629773492E-04    0.5392120951E+00    0.9222179177E-04    0.9861566972E-04    0.4441967818E-02
    0.3300000000E+02    0.4680233984E-04    0.5466595483E+00    0.9390606754E-04    0.1044742400E-03    0.4445710352E-02
    0.3500000000E+02    0.4728027552E-04    0.5534299075E+00    0.9560646897E-04    0.1103202710E-03    0.4449085560E-02
    0.3700000000E+02    0.4773757878E-04    0.5596115032E+00    0.9732796139E-04    0.1161557632E-03    0.4452139754E-02
    0.3900000000E+02    0.4817903038E-04    0.5652779410E+00    0.9907383689E-04    0.1219824826E-03    0.4454911641E-02
    0.4100000000E+02    0.4860844079E-04    0.5704910473E+00    0.1008461860E-03    0.1278019991E-03    0.4457433835E-02
    0.4300000000E+02    0.4902886434E-04    0.5753031353E+00    0.1026462350E-03    0.1336157175E-03    0.4459734015E-02
    0.4500000000E+02    0.4944276125E-04    0.5797587666E+00    0.1044745889E-03    0.1394249024E-03    0.4461835830E-02
    0.4700000000E+02    0.4985212148E-04    0.5838961362E+00    0.1063314077E-03    0.1452306985E-03    0.4463759614E-02
    0.4900000000E+02    0.5025856027E-04    0.5877481698E+00    0.1082165355E-03    0.1510341464E-03    0.4465522945E-02
    0.1000000000E+02    0.3474621247E-04    0.3663165235E+00    0.6882061411E-04    0.3541203511E-04    0.4352660235E-02
    0.3000000000E+02    0.4603310912E-04    0.5352018992E+00    0.9138353323E-04    0.9568098105E-04    0.4439941778E-02
    0.5000000000E+02    0.5046110506E-04    0.5895762541E+00    0.1091696037E-03    0.1539352903E-03    0.4466349296E-02
    0.7000000000E+02    0.5457264612E-04    0.6164191848E+00    0.1295715509E-03    0.2120290984E-03    0.4477286267E-02
    0.9000000000E+02    0.5900843251E-04    0.6324167919E+00    0.1520617902E-03    0.2706241454E-03    0.4481765672E-02
    0.1100000000E+03    0.6383101603E-04    0.6430372207E+00    0.1761301004E-03    0.3300808362E-03    0.4482831658E-02
    0.1300000000E+03    0.6901835086E-04    0.6506014750E+00    0.2014830216E-03    0.3906403086E-03    0.4481810531E-02
    0.1500000000E+03    0.7454110375E-04    0.6562627779E+00    0.2279609206E-03    0.4524863940E-03    0.4479375701E-02
    0.1700000000E+03    0.8037607163E-04    0.6606589607E+00    0.2554806287E-03    0.5157724728E-03    0.4475905709E-02
    0.1900000000E+03    0.8650734661E-04    0.6641714493E+00    0.2840039687E-03    0.5806350227E-03    0.4471629038E-02
    0.2100000000E+03    0.9292517704E-04    0.6670423414E+00    0.3135205931E-03    0.6472012426E-03    0.4466690741E-02
    0.2300000000E+03    0.9962466093E-04    0.6694327012E+00    0.3440383619E-03    0.7155937295E-03    0.4461186180E-02
    0.2500000000E+03    0.1066046917E-03    0.6714538454E+00    0.3755777744E-03    0.7859335699E-03    0.4455179422E-02
    0.2700000000E+03    0.1138671816E-03    0.6731851734E+00    0.4081686644E-03    0.8583425249E-03    0.4448713867E-02
    0.2900000000E+03    0.1214165081E-03    0.6746848411E+00    0.4418482070E-03    0.9329446779E-03    0.4441818702E-02
    0.3100000000E+03    0.1292591264E-03    0.6759964207E+00    0.4766597157E-03    0.1009867754E-02    0.4434512962E-02
    0.3300000000E+03    0.1374033014E-03    0.6771532021E+00    0.5126519335E-03    0.1089244237E-02    0.4426808181E-02
    0.3500000000E+03    0.1458589285E-03    0.6781810571E+00    0.5498786446E-03    0.1171212371E-02    0.4418710157E-02
    0.3700000000E+03    0.1546374180E-03    0.6791003965E+00    0.5883985039E-03    0.1255917084E-02    0.4410220158E-02
    0.3900000000E+03    0.1637516282E-03    0.6799275389E+00    0.6282750176E-03    0.1343510898E-02    0.4401335755E-02
    0.4100000000E+03    0.1732158364E-03    0.6806756872E+00    0.6695766391E-03    0.1434154820E-02    0.4392051401E-02
    0.4300000000E+03    0.1830457393E-03    0.6813556383E+00    0.7123769525E-03    0.1528019263E-02    0.4382358838E-02
    0.4500000000E+03    0.1932584785E-03    0.6819763075E+00    0.7567549297E-03    0.1625284996E-02    0.4372247374E-02
    0.4700000000E+03    0.2038726862E-03    0.6825451208E+00    0.8027952515E-03    0.1726144150E-02    0.4361704068E-02
    0.4900000000E+03    0.2149085505E-03    0.6830683140E+00    0.8505886889E-03    0.1830801280E-02    0.4350713849E-02
    0.1000000000E+03    0.6137223788E-04    0.6382141660E+00    0.1639210747E-03    0.3002279066E-03    0.4482620309E-02
    0.3000000000E+03    0.1253006792E-03    0.6753618593E+00    0.4591095407E-03    0.9711079439E-03    0.4438216281E-02
    0.5000000000E+03    0.2205913582E-03    0.6833144837E+00    0.8751729638E-03    0.1884621689E-02    0.4345045870E-02
    0.7000000000E+03    0.3629102728E-03    0.6867788022E+00    0.1487585202E-02    0.3224240853E-02    0.4202742439E-02
    0.9000000000E+03    0.5892396139E-03    0.6887176143E+00    0.2457266177E-02    0.5346276523E-02    0.3979249120E-02
    0.1100000000E+04    0.9811639716E-03    0.6899563985E+00    0.4135808714E-02    0.9026369217E-02    0.3603125812E-02
    0.1300000000E+04    0.1714844328E-02    0.6908161085E+00    0.7284757313E-02    0.1595168767E-01    0.2930922949E-02
    0.1500000000E+04    0.2996738147E-02    0.6914475257E+00    0.1281571009E-01    0.2818323218E-01    0.1848468031E-02
    0.1700000000E+04    0.4367651039E-02    0.6919308381E+00    0.1880481087E-01    0.4158904480E-01    0.8798307749E-03
    0.1900000000E+04    0.5159399641E-02    0.6923126230E+00    0.2236923356E-01    0.4979393807E-01    0.5361131919E-03
    0.2100000000E+04    0.5633098318E-02    0.6926217848E+00    0.2459465209E-01    0.5511282083E-01    0.4690146110E-03
    0.2300000000E+04    0.6015883056E-02    0.6928772104E+00    0.2644885842E-01    0.5966099626E-01    0.4593854007E-03
    0.2500000000E+04    0.6364143483E-02    0.6930917625E+00    0.2817273506E-01    0.6396668191E-01    0.4595534594E-03
    0.2700000000E+04    0.6689640685E-02    0.6932745036E+00    0.2981548140E-01    0.6813587344E-01    0.4612481265E-03
    0.2900000000E+04    0.6995531022E-02    0.6934320025E+00    0.3138918808E-01    0.7219245198E-01    0.4630893568E-03
    0.3100000000E+04    0.7283333213E-02    0.6935691373E+00    0.3289894439E-01    0.7614489361E-01    0.4648566848E-03
    0.3300000000E+04    0.7554200770E-02    0.6936896056E+00    0.3434836527E-01    0.7999858135E-01    0.4665241447E-03
    0.3500000000E+04    0.7809158094E-02    0.6937962618E+00    0.3574061491E-01    0.8375808490E-01    0.4680972520E-03
    0.3700000000E+04    0.8049148757E-02    0.6938913439E+00    0.3707860944E-01    0.8742760118E-01    0.4695853902E-03
    0.3900000000E+04    0.8275049090E-02    0.6939766318E+00    0.3836506777E-01    0.9101105375E-01    0.4709973167E-03
    0.4100000000E+04    0.8487674950E-02    0.6940535583E+00    0.3960253301E-01    0.9451212699E-01    0.4723406229E-03
    0.4300000000E+04    0.8687786826E-02    0.6941232902E+00    0.4079338729E-01    0.9793428669E-01    0.4736218361E-03
    0.4500000000E+04    0.8876094280E-02    0.6941867869E+00    0.4193986437E-01    0.1012807966E+00    0.4748465919E-03
    0.4700000000E+04    0.9053259944E-02    0.6942448448E+00    0.4304406093E-01    0.1045547334E+00    0.4760197868E-03
    0.4900000000E+04    0.9219903155E-02    0.6942981302E+00    0.4410794678E-01    0.1077589998E+00    0.4771457017E-03
    0.1000000000E+04    0.7564194894E-03    0.6893984853E+00    0.3173089471E-02    0.6914617709E-02    0.3817184608E-02
    0.3000000000E+04    0.7141616909E-02    0.6935028613E+00    0.3215181879E-01    0.7418132392E-01    0.4639853150E-03
    0.5000000000E+04    0.9299461365E-02    0.6943231623E+00    0.4462535639E-01    0.1093358692E+00    0.4776921235E-03
    0.7000000000E+04    0.1046054728E-01    0.6946724923E+00    0.5325303452E-01    0.1378067771E+00    0.4868534609E-03
    0.9000000000E+04    0.1104243474E-01    0.6948651091E+00    0.5940415785E-01    0.1616606938E+00    0.4937787053E-03
    0.1100000000E+05    0.1127461415E-01    0.6949866955E+00    0.6387766992E-01    0.1821561135E+00    0.4993643042E-03
    0.1300000000E+05    0.1129045150E-01    0.6950701614E+00    0.6716949231E-01    0.2001080625E+00    0.5040543397E-03
    0.1500000000E+05    0.1117083419E-01    0.6951308367E+00    0.6960286763E-01    0.2160708130E+00    0.5081020707E-03
    0.1700000000E+05    0.1096646693E-01    0.6951768206E+00    0.7139697199E-01    0.2304366089E+00    0.5116659282E-03
    0.1900000000E+05    0.1070995168E-01    0.6952127914E+00    0.7270532867E-01    0.2434923441E+00    0.5148517637E-03
    0.2100000000E+05    0.1042265515E-01    0.6952416385E+00    0.7363843431E-01    0.2554537701E+00    0.5177338781E-03
    0.2300000000E+05    0.1011877200E-01    0.6952652419E+00    0.7427766527E-01    0.2664870257E+00    0.5203664704E-03
    0.2500000000E+05    0.9807810902E-02    0.6952848765E+00    0.7468413948E-01    0.2767226816E+00    0.5227903151E-03
    0.2700000000E+05    0.9496159531E-02    0.6953014373E+00    0.7490454246E-01    0.2862651905E+00    0.5250368733E-03
    0.2900000000E+05    0.9188094035E-02    0.6953155707E+00    0.7497506251E-01    0.2951994172E+00    0.5271309387E-03
    0.3100000000E+05    0.8886443927E-02    0.6953277550E+00    0.7492411276E-01    0.3035952620E+00    0.5290924043E-03
    0.3300000000E+05    0.8593037946E-02    0.6953383516E+00    0.7477425395E-01    0.3115110011E+00    0.5309374787E-03
    0.3500000000E+05    0.8309007735E-02    0.6953476385E+00    0.7454357824E-01    0.3189957482E+00    0.5326795466E-03
    0.3700000000E+05    0.8034997418E-02    0.6953558330E+00    0.7424672200E-01    0.3260912970E+00    0.5343297914E-03
    0.3900000000E+05    0.7771309899E-02    0.6953631075E+00    0.7389561812E-01    0.3328335239E+00    0.5358976544E-03
    0.4100000000E+05    0.7518009939E-02    0.6953696000E+00    0.7350006266E-01    0.3392534686E+00    0.5373911803E-03
    0.4300000000E+05    0.7274997360E-02    0.6953754229E+00    0.7306814678E-01    0.3453781783E+00    0.5388172809E-03
    0.4500000000E+05    0.7042059339E-02    0.6953806680E+00    0.7260658983E-01    0.3512313753E+00    0.5401819388E-03
    0.4700000000E+05    0.6818907922E-02    0.6953854117E+00    0.7212099876E-01    0.3568339887E+00    0.5414903680E-03
    0.4900000000E+05    0.6605207013E-02    0.6953897173E+00    0.7161607216E-01    0.3622045842E+00    0.5427471400E-03
    0.1000000000E+05    0.1119230604E-01    0.6949321060E+00    0.6181446143E-01    0.1722695851E+00    0.4967049637E-03
    0.3000000000E+05    0.9036333418E-02    0.6953218816E+00    0.7496324252E-01    0.2994607550E+00    0.5281271586E-03
    0.5000000000E+05    0.6501787201E-02    0.6953917228E+00    0.7135761847E-01    0.3648081180E+00    0.5433574331E-03
    0.7000000000E+05    0.4838501689E-02    0.6954182126E+00    0.6585735969E-01    0.4079171291E+00    0.5536204544E-03
    0.9000000000E+05    0.3731637801E-02    0.6954309952E+00    0.6053681951E-01    0.4393192760E+00    0.5614094934E-03
    0.1100000000E+06    0.2964080929E-02    0.6954378841E+00    0.5577961084E-01    0.4635026044E+00    0.5677062520E-03
    0.1300000000E+06    0.2411185702E-02    0.6954417818E+00    0.5160867680E-01    0.4828219125E+00    0.5730013093E-03
    0.1500000000E+06    0.1999961041E-02    0.6954439949E+00    0.4796225524E-01    0.4986690777E+00    0.5775759651E-03
    0.1700000000E+06    0.1685836574E-02    0.6954451898E+00    0.4476510453E-01    0.5119336060E+00    0.5816068474E-03
    0.1900000000E+06    0.1440453028E-02    0.6954457375E+00    0.4194785626E-01    0.5232164439E+00    0.5852122855E-03
    0.2100000000E+06    0.1245094236E-02    0.6954458585E+00    0.3945136090E-01    0.5329409597E+00    0.5884755100E-03
    0.2300000000E+06    0.1087009830E-02    0.6954456906E+00    0.3722653271E-01    0.5414153955E+00    0.5914573323E-03
    0.2500000000E+06    0.9572714061E-03    0.6954453232E+00    0.3523297959E-01    0.5488702359E+00    0.5942035609E-03
    0.2700000000E+06    0.8494753988E-03    0.6954448166E+00    0.3343747628E-01    0.5554816775E+00    0.5967495791E-03
    0.2900000000E+06    0.7589317618E-03    0.6954442120E+00    0.3181260153E-01    0.5613869584E+00    0.5991232968E-03
    0.3100000000E+06    0.6821413245E-03    0.6954435387E+00    0.3033560914E-01    0.5666947033E+00    0.6013471240E-03
    0.3300000000E+06    0.6164501823E-03    0.6954428176E+00    0.2898752062E-01    0.5714920989E+00    0.6034393323E-03
    0.3500000000E+06    0.5598157600E-03    0.6954420637E+00    0.2775240449E-01    0.5758499899E+00    0.6054150186E-03
    0.3700000000E+06    0.5106451242E-03    0.6954412883E+00    0.2661680570E-01    0.5798265729E+00    0.6072868029E-03
    0.3900000000E+06    0.4676811128E-03    0.6954404996E+00    0.2556929343E-01    0.5834701230E+00    0.6090653441E-03
    0.4100000000E+06    0.4299207691E-03    0.6954397039E+00    0.2460010124E-01    0.5868210378E+00    0.6107597282E-03
    0.4300000000E+06    0.3965560083E-03    0.6954389058E+00    0.2370083955E-01    0.5899133932E+00    0.6123777638E-03
    0.4500000000E+06    0.3669298479E-03    0.6954381088E+00    0.2286426439E-01    0.5927761410E+00    0.6139262125E-03
    0.4700000000E+06    0.3405037006E-03    0.6954373156E+00    0.2208409057E-01    0.5954340433E+00    0.6154109682E-03
    0.4900000000E+06    0.3168326455E-03    0.6954365282E+00    0.2135483967E-01    0.5979084077E+00    0.6168372005E-03
    0.1000000000E+06    0.3314828942E-02    0.6954349384E+00    0.5808284587E-01    0.4521352747E+00    0.5647069207E-03
    0.3000000000E+06    0.7189999030E-03    0.6954438825E+00    0.3105688524E-01    0.5641096391E+00    0.6002527206E-03
    0.5000000000E+06    0.3059121063E-03    0.6954361372E+00    0.2100778784E-01    0.5990826239E+00    0.6175298165E-03
    0.7000000000E+06    0.1684191124E-03    0.6954288227E+00    0.1584177516E-01    0.6163243081E+00    0.6291799234E-03
    0.9000000000E+06    0.1064189052E-03    0.6954225232E+00    0.1270301903E-01    0.6266036192E+00    0.6380243554E-03
    0.1100000000E+07    0.7328578229E-04    0.6954170772E+00    0.1059613766E-01    0.6334301519E+00    0.6451755261E-03
    0.1300000000E+07    0.5353285986E-04    0.6954123025E+00    0.9085030474E-02    0.6382930526E+00    0.6511897261E-03
    0.1500000000E+07    0.4081959631E-04    0.6954080582E+00    0.7948754065E-02    0.6419326384E+00    0.6563860712E-03
    0.1700000000E+07    0.3215978012E-04    0.6954042401E+00    0.7063490307E-02    0.6447586363E+00    0.6609649922E-03
    0.1900000000E+07    0.2599741827E-04    0.6954007709E+00    0.6354494321E-02    0.6470162039E+00    0.6650607929E-03
    0.2100000000E+07    0.2145716402E-04    0.6953975918E+00    0.5773989099E-02    0.6488610164E+00    0.6687679543E-03
    0.2300000000E+07    0.1801599933E-04    0.6953946576E+00    0.5290016547E-02    0.6503966767E+00    0.6721555167E-03
    0.2500000000E+07    0.1534583763E-04    0.6953919330E+00    0.4880394842E-02    0.6516948053E+00    0.6752754920E-03
    0.2700000000E+07    0.1323243701E-04    0.6953893895E+00    0.4529247934E-02    0.6528064951E+00    0.6781680588E-03
    0.2900000000E+07    0.1153109634E-04    0.6953870041E+00    0.4224914846E-02    0.6537691731E+00    0.6808649109E-03
    0.3100000000E+07    0.1014123275E-04    0.6953847579E+00    0.3958638722E-02    0.6546108817E+00    0.6833914984E-03
    0.3300000000E+07    0.8991174946E-05    0.6953826354E+00    0.3723716291E-02    0.6553530461E+00    0.6857685727E-03
    0.3500000000E+07    0.8028737050E-05    0.6953806233E+00    0.3514929595E-02    0.6560123168E+00    0.6880132798E-03
    0.3700000000E+07    0.7215191865E-05    0.6953787104E+00    0.3328156440E-02    0.6566018291E+00    0.6901399537E-03
    0.3900000000E+07    0.6521311490E-05    0.6953768872E+00    0.3160097292E-02    0.6571320840E+00    0.6921607010E-03
    0.4100000000E+07    0.5924702923E-05    0.6953751455E+00    0.3008079932E-02    0.6576115767E+00    0.6940858420E-03
    0.4300000000E+07    0.5407976352E-05    0.6953734781E+00    0.2869917240E-02    0.6580472537E+00    0.6959242467E-03
    0.4500000000E+07    0.4957461479E-05    0.6953718787E+00    0.2743801961E-02    0.6584448503E+00    0.6976835953E-03
    0.4700000000E+07    0.4562292246E-05    0.6953703420E+00    0.2628227724E-02    0.6588091431E+00    0.6993705833E-03
    0.4900000000E+07    0.4213743894E-05    0.6953688631E+00    0.2521928966E-02    0.6591441425E+00    0.7009910829E-03
    0.1000000000E+07    0.8754637113E-04    0.6954197058E+00    0.1155513700E-01    0.6303298097E+00    0.6417690963E-03
    0.3000000000E+07    0.1080225559E-04    0.6953858646E+00    0.4087479021E-02    0.6542036795E+00    0.6821480952E-03
    0.5000000000E+07    0.4054688984E-05    0.6953681439E+00    0.2471916648E-02    0.6593017380E+00    0.7017780422E-03
    0.7000000000E+07    0.2150197191E-05    0.6953559648E+00    0.1768459553E-02    0.6615174809E+00    0.7150152152E-03
    0.9000000000E+07    0.1354414274E-05    0.6953466331E+00    0.1375305512E-02    0.6627554552E+00    0.7250646571E-03
    0.1100000000E+08    0.9462687734E-06    0.6953390458E+00    0.1124448797E-02    0.6635454725E+00    0.7331901995E-03
    0.1300000000E+08    0.7085110747E-06    0.6953326404E+00    0.9505685304E-03    0.6640932384E+00    0.7400238819E-03
    0.1500000000E+08    0.5573903351E-06    0.6953270905E+00    0.8229960385E-03    0.6644952736E+00    0.7459282829E-03
    0.1700000000E+08    0.4550278444E-06    0.6953221893E+00    0.7254341693E-03    0.6648028546E+00    0.7511311353E-03
    0.1900000000E+08    0.3822442720E-06    0.6953177975E+00    0.6484248198E-03    0.6650457379E+00    0.7557850391E-03
    0.2100000000E+08    0.3284732342E-06    0.6953138167E+00    0.5861034813E-03    0.6652423742E+00    0.7599973474E-03
    0.2300000000E+08    0.2874984447E-06    0.6953101744E+00    0.5346412818E-03    0.6654048111E+00    0.7638465069E-03
    0.2500000000E+08    0.2554652669E-06    0.6953068163E+00    0.4914326650E-03    0.6655412480E+00    0.7673916164E-03
    0.2700000000E+08    0.2298780990E-06    0.6953036999E+00    0.4546431980E-03    0.6656574586E+00    0.7706783290E-03
