  Pressure (Pa) 22mC5-500 (mol/kg) 24mC5-500 (mol/kg) 2mC6-500 (mol/kg) 3mC6-500 (mol/kg) C7-500 (mol/kg)
    0.1000000000E+01    0.5112369366E-05    0.2487053437E+00    0.4299575324E-05    0.7998509047E-06    0.4186374122E-02
    0.3000000000E+01    0.8181267017E-05    0.4351206568E+00    0.6581442050E-05    0.2043778761E-05    0.4210843029E-02
    0.5000000000E+01    0.9260692017E-05    0.5118525952E+00    0.7541984066E-05    0.3185955912E-05    0.4220247243E-02
    0.7000000000E+01    0.9892515867E-05    0.5536999738E+00    0.8348771609E-05    0.4278349693E-05    0.4225412393E-02
    0.9000000000E+01    0.1039214277E-04    0.5800460873E+00    0.9164524192E-05    0.5338534541E-05    0.4228708196E-02
    0.1100000000E+02    0.1085142999E-04    0.5981580641E+00    0.1001299065E-04    0.6375321223E-05    0.4231001177E-02
    0.1300000000E+02    0.1130202361E-04    0.6113744179E+00    0.1089233113E-04    0.7393962587E-05    0.4232688686E-02
    0.1500000000E+02    0.1175559499E-04    0.6214437424E+00    0.1179647761E-04    0.8397925059E-05    0.4233980092E-02
    0.1700000000E+02    0.1221631911E-04    0.6293704873E+00    0.1271967082E-04    0.9389655918E-05    0.4234996803E-02
    0.1900000000E+02    0.1268535554E-04    0.6357727472E+00    0.1365727556E-04    0.1037096850E-04    0.4235814368E-02
    0.2100000000E+02    0.1316262326E-04    0.6410517273E+00    0.1460573191E-04    0.1134325624E-04    0.4236482423E-02
    0.2300000000E+02    0.1364755043E-04    0.6454792042E+00    0.1556234089E-04    0.1230762079E-04    0.4237035017E-02
    0.2500000000E+02    0.1413940276E-04    0.6492458226E+00    0.1652505742E-04    0.1326495329E-04    0.4237496347E-02
    0.2700000000E+02    0.1463742839E-04    0.6524892680E+00    0.1749232523E-04    0.1421598822E-04    0.4237884115E-02
    0.2900000000E+02    0.1514091938E-04    0.6553114618E+00    0.1846295292E-04    0.1516134054E-04    0.4238211596E-02
    0.3100000000E+02    0.1564923478E-04    0.6577894653E+00    0.1943602261E-04    0.1610153207E-04    0.4238488957E-02
    0.3300000000E+02    0.1616180577E-04    0.6599826241E+00    0.2041082293E-04    0.1703701068E-04    0.4238724132E-02
    0.3500000000E+02    0.1667813272E-04    0.6619373819E+00    0.2138679968E-04    0.1796816463E-04    0.4238923407E-02
    0.3700000000E+02    0.1719777911E-04    0.6636906063E+00    0.2236351930E-04    0.1889533345E-04    0.4239091837E-02
    0.3900000000E+02    0.1772036439E-04    0.6652719354E+00    0.2334064151E-04    0.1981881638E-04    0.4239233534E-02
    0.4100000000E+02    0.1824555688E-04    0.6667054676E+00    0.2431789876E-04    0.2073887895E-04    0.4239351886E-02
    0.4300000000E+02    0.1877306739E-04    0.6680109978E+00    0.2529508056E-04    0.2165575827E-04    0.4239449708E-02
    0.4500000000E+02    0.1930264334E-04    0.6692049370E+00    0.2627202153E-04    0.2256966723E-04    0.4239529362E-02
    0.4700000000E+02    0.1983406380E-04    0.6703010058E+00    0.2724859210E-04    0.2348079794E-04    0.4239592845E-02
    0.4900000000E+02    0.2036713510E-04    0.6713107640E+00    0.2822469135E-04    0.2438932456E-04    0.4239641862E-02
    0.1000000000E+02    0.1062413465E-04    0.5898696300E+00    0.9584577312E-05    0.5859469197E-05    0.4229948925E-02
    0.3000000000E+02    0.1539451126E-04    0.6565894283E+00    0.1894923117E-04    0.1563205187E-04    0.4238356001E-02
    0.5000000000E+02    0.2063423583E-04    0.6717864010E+00    0.2871253909E-04    0.2484266145E-04    0.4239661411E-02
    0.7000000000E+02    0.2603111514E-04    0.6785166849E+00    0.3843387493E-04    0.3380476821E-04    0.4239558903E-02
    0.9000000000E+02    0.3148592774E-04    0.6823141710E+00    0.4808594088E-04    0.4262623992E-04    0.4238895921E-02
    0.1100000000E+03    0.3696735071E-04    0.6847528488E+00    0.5768283761E-04    0.5136165877E-04    0.4237941421E-02
    0.1300000000E+03    0.4246475175E-04    0.6864513144E+00    0.6724181029E-04    0.6004382519E-04    0.4236810996E-02
    0.1500000000E+03    0.4797496729E-04    0.6877021530E+00    0.7677782534E-04    0.6869456826E-04    0.4235563592E-02
    0.1700000000E+03    0.5349781493E-04    0.6886617024E+00    0.8630317539E-04    0.7732945117E-04    0.4234232790E-02
    0.1900000000E+03    0.5903435254E-04    0.6894210906E+00    0.9582791804E-04    0.8596014083E-04    0.4232839271E-02
    0.2100000000E+03    0.6458614028E-04    0.6900370242E+00    0.1053603646E-03    0.9459572723E-04    0.4231396524E-02
    0.2300000000E+03    0.7015491018E-04    0.6905466383E+00    0.1149074789E-03    0.1032435141E-03    0.4229913742E-02
    0.2500000000E+03    0.7574241471E-04    0.6909752694E+00    0.1244751808E-03    0.1119095207E-03    0.4228397409E-02
    0.2700000000E+03    0.8135035831E-04    0.6913407962E+00    0.1340685732E-03    0.1205988146E-03    0.4226852226E-02
    0.2900000000E+03    0.8698036881E-04    0.6916561956E+00    0.1436921125E-03    0.1293157407E-03    0.4225281681E-02
    0.3100000000E+03    0.9263398840E-04    0.6919311149E+00    0.1533497382E-03    0.1380640848E-03    0.4223688404E-02
    0.3300000000E+03    0.9831267408E-04    0.6921728751E+00    0.1630449712E-03    0.1468471913E-03    0.4222074409E-02
    0.3500000000E+03    0.1040178026E-03    0.6923871323E+00    0.1727809909E-03    0.1556680522E-03    0.4220441257E-02
    0.3700000000E+03    0.1097506770E-03    0.6925783256E+00    0.1825606952E-03    0.1645293741E-03    0.4218790167E-02
    0.3900000000E+03    0.1155125343E-03    0.6927499875E+00    0.1923867483E-03    0.1734336302E-03    0.4217122097E-02
    0.4100000000E+03    0.1213045523E-03    0.6929049643E+00    0.2022616190E-03    0.1823831006E-03    0.4215437804E-02
    0.4300000000E+03    0.1271278566E-03    0.6930455749E+00    0.2121876117E-03    0.1913799055E-03    0.4213737885E-02
    0.4500000000E+03    0.1329835266E-03    0.6931737274E+00    0.2221668921E-03    0.2004260303E-03    0.4212022811E-02
    0.4700000000E+03    0.1388726009E-03    0.6932910067E+00    0.2322015076E-03    0.2095233476E-03    0.4210292953E-02
    0.4900000000E+03    0.1447960829E-03    0.6933987394E+00    0.2422934052E-03    0.2186736342E-03    0.4208548597E-02
    0.1000000000E+03    0.3422423890E-04    0.6836533048E+00    0.5289017283E-04    0.4700231747E-04    0.4238445955E-02
    0.3000000000E+03    0.8980413445E-04    0.6917982122E+00    0.1485164357E-03    0.1336857673E-03    0.4224487746E-02
    0.5000000000E+03    0.1477710316E-03    0.6934493827E+00    0.2473614194E-03    0.2232691738E-03    0.4207671053E-02
    0.7000000000E+03    0.2093014259E-03    0.6941589237E+00    0.3521499982E-03    0.3183436291E-03    0.4189386773E-02
    0.9000000000E+03    0.2752771470E-03    0.6945534427E+00    0.4645049954E-03    0.4203848954E-03    0.4169678168E-02
    0.1100000000E+04    0.3465204771E-03    0.6948045390E+00    0.5858692556E-03    0.5307047166E-03    0.4148414356E-02
    0.1300000000E+04    0.4238970451E-03    0.6949783438E+00    0.7177403674E-03    0.6506686355E-03    0.4125400382E-02
    0.1500000000E+04    0.5083726966E-03    0.6951057534E+00    0.8617816641E-03    0.7817969683E-03    0.4100395424E-02
    0.1700000000E+04    0.6010588050E-03    0.6952031363E+00    0.1019904352E-02    0.9258395398E-03    0.4073112107E-02
    0.1900000000E+04    0.7032582749E-03    0.6952799735E+00    0.1194348347E-02    0.1084849605E-02    0.4043209222E-02
    0.2100000000E+04    0.8165185346E-03    0.6953421355E+00    0.1387774352E-02    0.1261268385E-02    0.4010280401E-02
    0.2300000000E+04    0.9426963728E-03    0.6953934519E+00    0.1603376115E-02    0.1458028396E-02    0.3973838993E-02
    0.2500000000E+04    0.1084039644E-02    0.6954365270E+00    0.1845021772E-02    0.1678683774E-02    0.3933298488E-02
    0.2700000000E+04    0.1243291848E-02    0.6954731934E+00    0.2117434812E-02    0.1927577341E-02    0.3887947375E-02
    0.2900000000E+04    0.1423827133E-02    0.6955047782E+00    0.2426427844E-02    0.2210056691E-02    0.3836916928E-02
    0.3100000000E+04    0.1629825224E-02    0.6955322660E+00    0.2779205822E-02    0.2532754817E-02    0.3779139999E-02
    0.3300000000E+04    0.1866497880E-02    0.6955564027E+00    0.3184759127E-02    0.2903954408E-02    0.3713298675E-02
    0.3500000000E+04    0.2140379914E-02    0.6955777635E+00    0.3654369602E-02    0.3334057670E-02    0.3637758685E-02
    0.3700000000E+04    0.2459696691E-02    0.6955967994E+00    0.4202251127E-02    0.3836182449E-02    0.3550489508E-02
    0.3900000000E+04    0.2834811766E-02    0.6956138685E+00    0.4846332708E-02    0.4426893512E-02    0.3448972363E-02
    0.4100000000E+04    0.3278733187E-02    0.6956292594E+00    0.5609149707E-02    0.5127039717E-02    0.3330106383E-02
    0.4300000000E+04    0.3807594865E-02    0.6956432066E+00    0.6518703078E-02    0.5962571647E-02    0.3190141417E-02
    0.4500000000E+04    0.4440893007E-02    0.6956559032E+00    0.7608912929E-02    0.6965000704E-02    0.3024702925E-02
    0.4700000000E+04    0.5200989951E-02    0.6956675090E+00    0.8918831934E-02    0.8170736947E-02    0.2829042494E-02
    0.4900000000E+04    0.6110951208E-02    0.6956781582E+00    0.1048901066E-01    0.9617827599E-02    0.2598751663E-02
    0.1000000000E+04    0.3101880431E-03    0.6946915474E+00    0.5239702002E-03    0.4744273119E-03    0.4159251708E-02
    0.3000000000E+04    0.1523344844E-02    0.6955189829E+00    0.2596828982E-02    0.2365904339E-02    0.3808947566E-02
    0.5000000000E+04    0.6628320992E-02    0.6956831599E+00    0.1138271927E-01    0.1044234579E-01    0.2469686013E-02
    0.7000000000E+04    0.1807051312E-01    0.6957528895E+00    0.3152148305E-01    0.2936109206E-01    0.1991233058E-03
    0.9000000000E+04    0.2183165854E-01    0.6957912653E+00    0.3880667570E-01    0.3681246969E-01    0.1088018619E-03
    0.1100000000E+05    0.2465959871E-01    0.6958154508E+00    0.4464014164E-01    0.4309413572E-01    0.1093168815E-03
    0.1300000000E+05    0.2704061520E-01    0.6958320291E+00    0.4982002209E-01    0.4890849687E-01    0.1103313382E-03
    0.1500000000E+05    0.2905716016E-01    0.6958440637E+00    0.5445497846E-01    0.5432743236E-01    0.1112130908E-03
    0.1700000000E+05    0.3077135809E-01    0.6958531719E+00    0.5862682277E-01    0.5940435185E-01    0.1119900445E-03
    0.1900000000E+05    0.3223262090E-01    0.6958602870E+00    0.6240156407E-01    0.6418286318E-01    0.1126849619E-03
    0.2100000000E+05    0.3348070001E-01    0.6958659854E+00    0.6583309407E-01    0.6869899737E-01    0.1133138978E-03
    0.2300000000E+05    0.3454788995E-01    0.6958706415E+00    0.6896585430E-01    0.7298281711E-01    0.1138885815E-03
    0.2500000000E+05    0.3546066117E-01    0.6958745094E+00    0.7183682781E-01    0.7705962852E-01    0.1144178476E-03
    0.2700000000E+05    0.3624088654E-01    0.6958777672E+00    0.7447704730E-01    0.8095090664E-01    0.1149085193E-03
    0.2900000000E+05    0.3690677397E-01    0.6958805436E+00    0.7691275127E-01    0.8467501091E-01    0.1153659781E-03
    0.3100000000E+05    0.3747358358E-01    0.6958829337E+00    0.7916628033E-01    0.8824774447E-01    0.1157945450E-03
    0.3300000000E+05    0.3795418503E-01    0.6958850093E+00    0.8125677941E-01    0.9168279593E-01    0.1161977427E-03
    0.3500000000E+05    0.3835949462E-01    0.6958868257E+00    0.8320075324E-01    0.9499209150E-01    0.1165784816E-03
    0.3700000000E+05    0.3869882119E-01    0.6958884260E+00    0.8501250950E-01    0.9818607815E-01    0.1169391947E-03
    0.3900000000E+05    0.3898014220E-01    0.6958898444E+00    0.8670451554E-01    0.1012739533E+00    0.1172819367E-03
    0.4100000000E+05    0.3921032554E-01    0.6958911083E+00    0.8828768750E-01    0.1042638522E+00    0.1176084591E-03
    0.4300000000E+05    0.3939530924E-01    0.6958922400E+00    0.8977162647E-01    0.1071630025E+00    0.1179202670E-03
    0.4500000000E+05    0.3954024788E-01    0.6958932578E+00    0.9116481261E-01    0.1099778516E+00    0.1182186638E-03
    0.4700000000E+05    0.3964963262E-01    0.6958941767E+00    0.9247476577E-01    0.1127141736E+00    0.1185047856E-03
    0.4900000000E+05    0.3972739034E-01    0.6958950093E+00    0.9370817914E-01    0.1153771579E+00    0.1187796288E-03
    0.1000000000E+05    0.2330825535E-01    0.6958045966E+00    0.4181429761E-01    0.4001813978E-01    0.1087976037E-03
    0.3000000000E+05    0.3720170875E-01    0.6958817820E+00    0.7806102333E-01    0.8647939843E-01    0.1155836367E-03
    0.5000000000E+05    0.3975550241E-01    0.6958953965E+00    0.9429807689E-01    0.1166826291E+00    0.1189130996E-03
    0.7000000000E+05    0.3930217535E-01    0.6959004664E+00    0.1032386875E+00    0.1398682541E+00    0.1211581208E-03
    0.9000000000E+05    0.3787029085E-01    0.6959028548E+00    0.1086396952E+00    0.1590786399E+00    0.1228624692E-03
    0.1100000000E+06    0.3612670701E-01    0.6959040994E+00    0.1120350516E+00    0.1756803643E+00    0.1242405242E-03
    0.1300000000E+06    0.3432620144E-01    0.6959047686E+00    0.1141785873E+00    0.1904074970E+00    0.1253994865E-03
    0.1500000000E+06    0.3257279093E-01    0.6959051171E+00    0.1154883832E+00    0.2037033367E+00    0.1264008502E-03
    0.1700000000E+06    0.3090847267E-01    0.6959052740E+00    0.1162168803E+00    0.2158586026E+00    0.1272832382E-03
    0.1900000000E+06    0.2934782629E-01    0.6959053108E+00    0.1165263701E+00    0.2270759356E+00    0.1280725303E-03
    0.2100000000E+06    0.2789286109E-01    0.6959052696E+00    0.1165263079E+00    0.2375033281E+00    0.1287869328E-03
    0.2300000000E+06    0.2653982885E-01    0.6959051766E+00    0.1162933402E+00    0.2472528987E+00    0.1294397493E-03
    0.2500000000E+06    0.2528249400E-01    0.6959050487E+00    0.1158827773E+00    0.2564121263E+00    0.1300410023E-03
    0.2700000000E+06    0.2411374403E-01    0.6959048972E+00    0.1153355204E+00    0.2650509273E+00    0.1305984341E-03
    0.2900000000E+06    0.2302638594E-01    0.6959047297E+00    0.1146824314E+00    0.2732263083E+00    0.1311181518E-03
    0.3100000000E+06    0.2201353027E-01    0.6959045515E+00    0.1139471902E+00    0.2809855371E+00    0.1316050596E-03
    0.3300000000E+06    0.2106876210E-01    0.6959043665E+00    0.1131482234E+00    0.2883683688E+00    0.1320631562E-03
    0.3500000000E+06    0.2018620107E-01    0.6959041774E+00    0.1123000403E+00    0.2954086527E+00    0.1324957456E-03
    0.3700000000E+06    0.1936050419E-01    0.6959039861E+00    0.1114141808E+00    0.3021355169E+00    0.1329055898E-03
    0.3900000000E+06    0.1858684038E-01    0.6959037940E+00    0.1104999004E+00    0.3085742602E+00    0.1332950218E-03
    0.4100000000E+06    0.1786085220E-01    0.6959036023E+00    0.1095646756E+00    0.3147470359E+00    0.1336660302E-03
    0.4300000000E+06    0.1717861303E-01    0.6959034116E+00    0.1086145816E+00    0.3206733834E+00    0.1340203243E-03
    0.4500000000E+06    0.1653658441E-01    0.6959032225E+00    0.1076545784E+00    0.3263706479E+00    0.1343593841E-03
    0.4700000000E+06    0.1593157541E-01    0.6959030355E+00    0.1066887319E+00    0.3318543160E+00    0.1346844996E-03
    0.4900000000E+06    0.1536070537E-01    0.6959028508E+00    0.1057203840E+00    0.3371382872E+00    0.1349968026E-03
    0.1000000000E+06    0.3701629758E-01    0.6959035734E+00    0.1105299872E+00    0.1676504203E+00    0.1235840929E-03
    0.3000000000E+06    0.2251105843E-01    0.6959046417E+00    0.1143238230E+00    0.2771553022E+00    0.1313654386E-03
    0.5000000000E+06    0.1508724870E-01    0.6959027594E+00    0.1052361524E+00    0.3397093512E+00    0.1351484659E-03
    0.7000000000E+06    0.1089606351E-01    0.6959010763E+00    0.9587464569E-01    0.3831372925E+00    0.1376995782E-03
    0.9000000000E+06    0.8272568210E-02    0.6958996512E+00    0.8756908917E-01    0.4157014022E+00    0.1396363864E-03
    0.1100000000E+07    0.6510126460E-02    0.6958984296E+00    0.8039809704E-01    0.4412493892E+00    0.1412024353E-03
    0.1300000000E+07    0.5264144535E-02    0.6958973640E+00    0.7422168158E-01    0.4619229156E+00    0.1425195228E-03
    0.1500000000E+07    0.4348498627E-02    0.6958964201E+00    0.6887719513E-01    0.4790408924E+00    0.1436575210E-03
    0.1700000000E+07    0.3654760279E-02    0.6958955731E+00    0.6422135923E-01    0.4934716798E+00    0.1446603166E-03
    0.1900000000E+07    0.3115983703E-02    0.6958948049E+00    0.6013638221E-01    0.5058152440E+00    0.1455573177E-03
    0.2100000000E+07    0.2688883242E-02    0.6958941020E+00    0.5652734904E-01    0.5165016762E+00    0.1463692127E-03
    0.2300000000E+07    0.2344398395E-02    0.6958934541E+00    0.5331802250E-01    0.5258484665E+00    0.1471111197E-03
    0.2500000000E+07    0.2062398120E-02    0.6958928530E+00    0.5044695076E-01    0.5340956840E+00    0.1477944280E-03
    0.2700000000E+07    0.1828562091E-02    0.6958922924E+00    0.4786428489E-01    0.5414285505E+00    0.1484279359E-03
    0.2900000000E+07    0.1632468590E-02    0.6958917670E+00    0.4552928670E-01    0.5479924478E+00    0.1490185837E-03
    0.3100000000E+07    0.1466381330E-02    0.6958912726E+00    0.4340840579E-01    0.5539031979E+00    0.1495719446E-03
    0.3300000000E+07    0.1324456659E-02    0.6958908057E+00    0.4147380026E-01    0.5592542828E+00    0.1500925627E-03
    0.3500000000E+07    0.1202211966E-02    0.6958903633E+00    0.3970219548E-01    0.5641220281E+00    0.1505841929E-03
    0.3700000000E+07    0.1096161038E-02    0.6958899429E+00    0.3807399892E-01    0.5685693953E+00    0.1510499740E-03
    0.3900000000E+07    0.1003558852E-02    0.6958895424E+00    0.3657260901E-01    0.5726488038E+00    0.1514925572E-03
    0.4100000000E+07    0.9222197095E-03    0.6958891600E+00    0.3518387141E-01    0.5764042615E+00    0.1519142026E-03
    0.4300000000E+07    0.8503855121E-03    0.6958887939E+00    0.3389564827E-01    0.5798729959E+00    0.1523168527E-03
    0.4500000000E+07    0.7866289467E-03    0.6958884430E+00    0.3269747422E-01    0.5830867182E+00    0.1527021894E-03
    0.4700000000E+07    0.7297813642E-03    0.6958881059E+00    0.3158027991E-01    0.5860726127E+00    0.1530716788E-03
    0.4900000000E+07    0.6788783972E-03    0.6958877815E+00    0.3053616817E-01    0.5888541203E+00    0.1534266071E-03
    0.1000000000E+07    0.7310430796E-02    0.6958990183E+00    0.8384899239E-01    0.4291927581E+00    0.1404564502E-03
    0.3000000000E+07    0.1546076542E-02    0.6958915162E+00    0.4444394069E-01    0.5510231689E+00    0.1492996201E-03
    0.5000000000E+07    0.6554002251E-03    0.6958876238E+00    0.3003932530E-01    0.5901746870E+00    0.1535989705E-03
    0.7000000000E+07    0.3601136202E-03    0.6958849560E+00    0.2264686483E-01    0.6096063047E+00    0.1564982802E-03
    0.9000000000E+07    0.2271602273E-03    0.6958829150E+00    0.1815763319E-01    0.6212236332E+00    0.1586994431E-03
    0.1100000000E+08    0.1561735290E-03    0.6958812573E+00    0.1514493574E-01    0.6289498187E+00    0.1604792422E-03
    0.1300000000E+08    0.1138825980E-03    0.6958798589E+00    0.1298443777E-01    0.6344580993E+00    0.1619760992E-03
    0.1500000000E+08    0.8667992076E-04    0.6958786481E+00    0.1135999393E-01    0.6385827591E+00    0.1632694229E-03
    0.1700000000E+08    0.6816094012E-04    0.6958775794E+00    0.1009448383E-01    0.6417863902E+00    0.1644090900E-03
    0.1900000000E+08    0.5499007937E-04    0.6958766222E+00    0.9081004299E-02    0.6443461298E+00    0.1654285224E-03
    0.2100000000E+08    0.4529156589E-04    0.6958757549E+00    0.8251230724E-02    0.6464381171E+00    0.1663512325E-03
    0.2300000000E+08    0.3794498774E-04    0.6958749617E+00    0.7559464641E-02    0.6481796506E+00    0.1671944017E-03
    0.2500000000E+08    0.3224771752E-04    0.6958742307E+00    0.6973989271E-02    0.6496518577E+00    0.1679709740E-03
    0.2700000000E+08    0.2774105835E-04    0.6958735525E+00    0.6472105388E-02    0.6509126357E+00    0.1686909485E-03
