  Pressure (Pa) 22mC5-500 (mol/kg) 24mC5-500 (mol/kg) 2mC6-500 (mol/kg) 3mC6-500 (mol/kg) C7-500 (mol/kg)
    0.1000000000E+01    0.8054011658E-05    0.3666025536E-01    0.1424474811E-04    0.8988428831E-05    0.4170624776E-02
    0.3000000000E+01    0.2123929404E-04    0.9948796351E-01    0.3668727253E-04    0.2265040249E-04    0.4210063898E-02
    0.5000000000E+01    0.3167374051E-04    0.1513720182E+00    0.5382235201E-04    0.3517076721E-04    0.4236874455E-02
    0.7000000000E+01    0.4009707824E-04    0.1949431058E+00    0.6721089027E-04    0.4716072253E-04    0.4258601853E-02
    0.9000000000E+01    0.4700498639E-04    0.2320512523E+00    0.7786459445E-04    0.5882399821E-04    0.4276818631E-02
    0.1100000000E+02    0.5274676872E-04    0.2640354052E+00    0.8648026214E-04    0.7026182737E-04    0.4292355986E-02
    0.1300000000E+02    0.5757581689E-04    0.2918885211E+00    0.9355272158E-04    0.8153416357E-04    0.4305766403E-02
    0.1500000000E+02    0.6168012558E-04    0.3163625436E+00    0.9944138224E-04    0.9268036517E-04    0.4317449131E-02
    0.1700000000E+02    0.6520181463E-04    0.3380373464E+00    0.1044121329E-03    0.1037281051E-03    0.4327705046E-02
    0.1900000000E+02    0.6825007386E-04    0.3573672906E+00    0.1086647636E-03    0.1146978230E-03    0.4336766989E-02
    0.2100000000E+02    0.7090998743E-04    0.3747134417E+00    0.1123514338E-03    0.1256051897E-03    0.4344818679E-02
    0.2300000000E+02    0.7324868975E-04    0.3903663471E+00    0.1155894040E-03    0.1364625757E-03    0.4352007336E-02
    0.2500000000E+02    0.7531974632E-04    0.4045624512E+00    0.1184699867E-03    0.1472799808E-03    0.4358452474E-02
    0.2700000000E+02    0.7716632632E-04    0.4174961291E+00    0.1210649507E-03    0.1580656469E-03    0.4364252208E-02
    0.2900000000E+02    0.7882353650E-04    0.4293286450E+00    0.1234311718E-03    0.1688264808E-03    0.4369487882E-02
    0.3100000000E+02    0.8032016230E-04    0.4401949152E+00    0.1256140583E-03    0.1795683519E-03    0.4374227535E-02
    0.3300000000E+02    0.8167998334E-04    0.4502086780E+00    0.1276501044E-03    0.1902963094E-03    0.4378528534E-02
    0.3500000000E+02    0.8292277903E-04    0.4594664924E+00    0.1295688151E-03    0.2010147440E-03    0.4382439597E-02
    0.3700000000E+02    0.8406510522E-04    0.4680508641E+00    0.1313941726E-03    0.2117275101E-03    0.4386002371E-02
    0.3900000000E+02    0.8512090023E-04    0.4760327125E+00    0.1331457637E-03    0.2224380200E-03    0.4389252679E-02
    0.4100000000E+02    0.8610196162E-04    0.4834733354E+00    0.1348396533E-03    0.2331493178E-03    0.4392221503E-02
    0.4300000000E+02    0.8701832473E-04    0.4904259877E+00    0.1364890681E-03    0.2438641382E-03    0.4394935783E-02
    0.4500000000E+02    0.8787856531E-04    0.4969371582E+00    0.1381049344E-03    0.2545849534E-03    0.4397419053E-02
    0.4700000000E+02    0.8869004332E-04    0.5030476118E+00    0.1396963043E-03    0.2653140114E-03    0.4399691968E-02
    0.4900000000E+02    0.8945910061E-04    0.5087932438E+00    0.1412706963E-03    0.2760533673E-03    0.4401772730E-02
    0.1000000000E+02    0.5000398440E-04    0.2486151092E+00    0.8239245720E-04    0.6456670921E-04    0.4284883195E-02
    0.3000000000E+02    0.7959033197E-04    0.4348750076E+00    0.1245430672E-03    0.1741994540E-03    0.4371915901E-02
    0.5000000000E+02    0.8982946526E-04    0.5115393137E+00    0.1420535239E-03    0.2814275028E-03    0.4402746161E-02
    0.7000000000E+02    0.9601104165E-04    0.5533548046E+00    0.1578754778E-03    0.3898417602E-03    0.4415201129E-02
    0.9000000000E+02    0.1012549668E-03    0.5796844817E+00    0.1751621029E-03    0.5007997442E-03    0.4419134702E-02
    0.1100000000E+03    0.1064719722E-03    0.5977874967E+00    0.1943684521E-03    0.6151144715E-03    0.4418266983E-02
    0.1300000000E+03    0.1119822770E-03    0.6109988292E+00    0.2154741061E-03    0.7333965013E-03    0.4414310290E-02
    0.1500000000E+03    0.1179130671E-03    0.6210653453E+00    0.2383955033E-03    0.8561706471E-03    0.4408155758E-02
    0.1700000000E+03    0.1243212852E-03    0.6289905829E+00    0.2630706032E-03    0.9839275371E-03    0.4400305501E-02
    0.1900000000E+03    0.1312375503E-03    0.6353921259E+00    0.2894724877E-03    0.1117150830E-02    0.4391056616E-02
    0.2100000000E+03    0.1386835182E-03    0.6406708801E+00    0.3176072332E-03    0.1256333852E-02    0.4380588779E-02
    0.2300000000E+03    0.1466792584E-03    0.6450984395E+00    0.3475093058E-03    0.1401991216E-02    0.4369009604E-02
    0.2500000000E+03    0.1552465774E-03    0.6488653347E+00    0.3792376127E-03    0.1554667973E-02    0.4356379668E-02
    0.2700000000E+03    0.1644106177E-03    0.6521091777E+00    0.4128727513E-03    0.1714947615E-02    0.4342727023E-02
    0.2900000000E+03    0.1742007104E-03    0.6549318417E+00    0.4485153646E-03    0.1883459675E-02    0.4328055903E-02
    0.3100000000E+03    0.1846509178E-03    0.6574103565E+00    0.4862854014E-03    0.2060887368E-02    0.4312352071E-02
    0.3300000000E+03    0.1958004693E-03    0.6596040462E+00    0.5263221048E-03    0.2247975635E-02    0.4295586105E-02
    0.3500000000E+03    0.2076941899E-03    0.6615593406E+00    0.5687846022E-03    0.2445539818E-02    0.4277715383E-02
    0.3700000000E+03    0.2203829745E-03    0.6633130975E+00    0.6138530158E-03    0.2654475199E-02    0.4258685192E-02
    0.3900000000E+03    0.2339243357E-03    0.6648949490E+00    0.6617300477E-03    0.2875767628E-02    0.4238429213E-02
    0.4100000000E+03    0.2483830475E-03    0.6663289891E+00    0.7126430211E-03    0.3110505436E-02    0.4216869568E-02
    0.4300000000E+03    0.2638318988E-03    0.6676350102E+00    0.7668463825E-03    0.3359892884E-02    0.4193916488E-02
    0.4500000000E+03    0.2803525726E-03    0.6688294218E+00    0.8246246834E-03    0.3625265373E-02    0.4169467693E-02
    0.4700000000E+03    0.2980366657E-03    0.6699259438E+00    0.8862960764E-03    0.3908106702E-02    0.4143407506E-02
    0.4900000000E+03    0.3169868650E-03    0.6709361358E+00    0.9522163697E-03    0.4210068641E-02    0.4115605711E-02
    0.1000000000E+03    0.1038398508E-03    0.5895028908E+00    0.1845230819E-03    0.5574964647E-03    0.4419166691E-02
    0.3000000000E+03    0.1793409739E-03    0.6562100602E+00    0.4671262088E-03    0.1971014053E-02    0.4320334588E-02
    0.5000000000E+03    0.3269722050E-03    0.6714119824E+00    0.9868924752E-03    0.4368787356E-02    0.4101006712E-02
    0.7000000000E+03    0.6317914326E-03    0.6781455482E+00    0.2036718092E-02    0.9160668906E-02    0.3669183696E-02
    0.9000000000E+03    0.1350595177E-02    0.6819450321E+00    0.4502861675E-02    0.2043092391E-01    0.2724089850E-02
    0.1100000000E+04    0.2707879606E-02    0.6843849275E+00    0.9193817741E-02    0.4205363079E-01    0.1185707258E-02
    0.1300000000E+04    0.3641865967E-02    0.6860841255E+00    0.1251358507E-01    0.5776611414E-01    0.5127383888E-03
    0.1500000000E+04    0.4117279015E-02    0.6873353821E+00    0.1429804442E-01    0.6662725749E-01    0.4346370317E-03
    0.1700000000E+04    0.4497982491E-02    0.6882951383E+00    0.1578034546E-01    0.7422035204E-01    0.4309787051E-03
    0.1900000000E+04    0.4842763293E-02    0.6890545870E+00    0.1715976077E-01    0.8144903050E-01    0.4333904993E-03
    0.2100000000E+04    0.5159461454E-02    0.6896704776E+00    0.1846092723E-01    0.8841734990E-01    0.4360335549E-03
    0.2300000000E+04    0.5450745931E-02    0.6901799740E+00    0.1969080268E-01    0.9514846183E-01    0.4384683549E-03
    0.2500000000E+04    0.5718632974E-02    0.6906084327E+00    0.2085429369E-01    0.1016567877E+00    0.4406967428E-03
    0.2700000000E+04    0.5964922703E-02    0.6909737470E+00    0.2195576084E-01    0.1079549612E+00    0.4427490316E-03
    0.2900000000E+04    0.6191255008E-02    0.6912889042E+00    0.2299919519E-01    0.1140545815E+00    0.4446513272E-03
    0.3100000000E+04    0.6399128474E-02    0.6915635590E+00    0.2398826589E-01    0.1199663687E+00    0.4464244981E-03
    0.3300000000E+04    0.6589914421E-02    0.6918050385E+00    0.2492635219E-01    0.1257002503E+00    0.4480853405E-03
    0.3500000000E+04    0.6764869206E-02    0.6920190030E+00    0.2581657088E-01    0.1312654354E+00    0.4496475590E-03
    0.3700000000E+04    0.6925145204E-02    0.6922098949E+00    0.2666180077E-01    0.1366704782E+00    0.4511224810E-03
    0.3900000000E+04    0.7071800634E-02    0.6923812495E+00    0.2746470447E-01    0.1419233365E+00    0.4525195774E-03
    0.4100000000E+04    0.7205808349E-02    0.6925359150E+00    0.2822774791E-01    0.1470314234E+00    0.4538468478E-03
    0.4300000000E+04    0.7328063707E-02    0.6926762119E+00    0.2895321783E-01    0.1520016532E+00    0.4551111110E-03
    0.4500000000E+04    0.7439391629E-02    0.6928040497E+00    0.2964323744E-01    0.1568404835E+00    0.4563182267E-03
    0.4700000000E+04    0.7540552931E-02    0.6929210140E+00    0.3029978051E-01    0.1615539530E+00    0.4574732682E-03
    0.4900000000E+04    0.7632250015E-02    0.6930284325E+00    0.3092468403E-01    0.1661477152E+00    0.4585806571E-03
    0.1000000000E+04    0.1987232298E-02    0.6832848500E+00    0.6694684523E-02    0.3049480378E-01    0.1956950290E-02
    0.3000000000E+04    0.6297410557E-02    0.6914307909E+00    0.2350030834E-01    0.1170333161E+00    0.4455529210E-03
    0.5000000000E+04    0.7674754272E-02    0.6930789190E+00    0.3122581047E-01    0.1684013750E+00    0.4591177122E-03
    0.7000000000E+04    0.8161630669E-02    0.6937854528E+00    0.3594625286E-01    0.2083156890E+00    0.4680901377E-03
    0.9000000000E+04    0.8203144849E-02    0.6941772732E+00    0.3888188117E-01    0.2406568979E+00    0.4748403237E-03
    0.1100000000E+05    0.8017393138E-02    0.6944259638E+00    0.4069294849E-01    0.2676602498E+00    0.4802695707E-03
    0.1300000000E+05    0.7717770167E-02    0.6945976090E+00    0.4176445334E-01    0.2907162682E+00    0.4848200089E-03
    0.1500000000E+05    0.7365615597E-02    0.6947230624E+00    0.4233405463E-01    0.3107430995E+00    0.4887422165E-03
    0.1700000000E+05    0.6994888766E-02    0.6948186582E+00    0.4255513094E-01    0.3283763762E+00    0.4921922691E-03
    0.1900000000E+05    0.6624523386E-02    0.6948938502E+00    0.4253023143E-01    0.3440733539E+00    0.4952741124E-03
    0.2100000000E+05    0.6264944362E-02    0.6949544881E+00    0.4232990266E-01    0.3581735193E+00    0.4980605305E-03
    0.2300000000E+05    0.5921650816E-02    0.6950043842E+00    0.4200381398E-01    0.3709356476E+00    0.5006045137E-03
    0.2500000000E+05    0.5597252363E-02    0.6950461292E+00    0.4158760523E-01    0.3825614212E+00    0.5029458642E-03
    0.2700000000E+05    0.5292657049E-02    0.6950815446E+00    0.4110724941E-01    0.3932110299E+00    0.5051152530E-03
    0.2900000000E+05    0.5007778493E-02    0.6951119484E+00    0.4058191520E-01    0.4030137948E+00    0.5071368250E-03
    0.3100000000E+05    0.4741963036E-02    0.6951383174E+00    0.4002589375E-01    0.4120756017E+00    0.5090299342E-03
    0.3300000000E+05    0.4494250101E-02    0.6951613911E+00    0.3944992433E-01    0.4204842234E+00    0.5108103378E-03
    0.3500000000E+05    0.4263531381E-02    0.6951817391E+00    0.3886212446E-01    0.4283132129E+00    0.5124910386E-03
    0.3700000000E+05    0.4048647744E-02    0.6951998078E+00    0.3826865347E-01    0.4356248026E+00    0.5140828940E-03
    0.3900000000E+05    0.3848447390E-02    0.6952159512E+00    0.3767419327E-01    0.4424721002E+00    0.5155950653E-03
    0.4100000000E+05    0.3661819723E-02    0.6952304542E+00    0.3708230121E-01    0.4489007764E+00    0.5170353550E-03
    0.4300000000E+05    0.3487713961E-02    0.6952435483E+00    0.3649567219E-01    0.4549503792E+00    0.5184104635E-03
    0.4500000000E+05    0.3325148184E-02    0.6952554239E+00    0.3591633549E-01    0.4606553701E+00    0.5197261887E-03
    0.4700000000E+05    0.3173212430E-02    0.6952662384E+00    0.3534580390E-01    0.4660459505E+00    0.5209875813E-03
    0.4900000000E+05    0.3031068160E-02    0.6952761236E+00    0.3478518771E-01    0.4711487266E+00    0.5221990687E-03
    0.1000000000E+05    0.8129948792E-02    0.6943141414E+00    0.3989941890E-01    0.2547247131E+00    0.4776861463E-03
    0.3000000000E+05    0.4872542964E-02    0.6951255864E+00    0.4030699838E-01    0.4076314590E+00    0.5080983796E-03
    0.5000000000E+05    0.2963424686E-02    0.6952807532E+00    0.3450885684E-01    0.4735996545E+00    0.5227873357E-03
    0.7000000000E+05    0.1970258219E-02    0.6953441057E+00    0.2959219369E-01    0.5120211334E+00    0.5326769478E-03
    0.9000000000E+05    0.1400130980E-02    0.6953775113E+00    0.2575250833E-01    0.5374716024E+00    0.5401795856E-03
    0.1100000000E+06    0.1044819905E-02    0.6953976088E+00    0.2273917568E-01    0.5556560257E+00    0.5462434249E-03
    0.1300000000E+06    0.8090308844E-03    0.6954107066E+00    0.2033157897E-01    0.5693278039E+00    0.5513418635E-03
    0.1500000000E+06    0.6447634257E-03    0.6954197059E+00    0.1837144628E-01    0.5799939733E+00    0.5557461982E-03
    0.1700000000E+06    0.5258305489E-03    0.6954261195E+00    0.1674807305E-01    0.5885533717E+00    0.5596267123E-03
    0.1900000000E+06    0.4369941284E-03    0.6954308098E+00    0.1538325846E-01    0.5955770189E+00    0.5630974534E-03
    0.2100000000E+06    0.3689089453E-03    0.6954343021E+00    0.1422072612E-01    0.6014457677E+00    0.5662386234E-03
    0.2300000000E+06    0.3155895273E-03    0.6954369337E+00    0.1321915741E-01    0.6064236936E+00    0.5691088116E-03
    0.2500000000E+06    0.2730601684E-03    0.6954389299E+00    0.1234762689E-01    0.6106998152E+00    0.5717521471E-03
    0.2700000000E+06    0.2385971512E-03    0.6954404467E+00    0.1158257415E-01    0.6144130684E+00    0.5742027121E-03
    0.2900000000E+06    0.2102841960E-03    0.6954415951E+00    0.1090575857E-01    0.6176679043E+00    0.5764873877E-03
    0.3100000000E+06    0.1867415888E-03    0.6954424560E+00    0.1030285134E-01    0.6205443866E+00    0.5786277564E-03
    0.3300000000E+06    0.1669556139E-03    0.6954430894E+00    0.9762447815E-02    0.6231049300E+00    0.5806414141E-03
    0.3500000000E+06    0.1501680120E-03    0.6954435410E+00    0.9275362403E-02    0.6253989174E+00    0.5825428982E-03
    0.3700000000E+06    0.1358024944E-03    0.6954438457E+00    0.8834116729E-02    0.6274659371E+00    0.5843443608E-03
    0.3900000000E+06    0.1234147750E-03    0.6954440308E+00    0.8432562462E-02    0.6293380999E+00    0.5860560650E-03
    0.4100000000E+06    0.1126578999E-03    0.6954441178E+00    0.8065599428E-02    0.6310417268E+00    0.5876867588E-03
    0.4300000000E+06    0.1032577496E-03    0.6954441239E+00    0.7728962197E-02    0.6325985987E+00    0.5892439607E-03
    0.4500000000E+06    0.9499544049E-04    0.6954440629E+00    0.7419056584E-02    0.6340268962E+00    0.5907341803E-03
    0.4700000000E+06    0.8769449399E-04    0.6954439460E+00    0.7132833010E-02    0.6353419141E+00    0.5921630921E-03
    0.4900000000E+06    0.8121135057E-04    0.6954437823E+00    0.6867687399E-02    0.6365566130E+00    0.5935356728E-03
    0.1000000000E+06    0.1203158074E-02    0.6953887091E+00    0.2415789589E-01    0.5472590414E+00    0.5433551741E-03
    0.3000000000E+06    0.1979870148E-03    0.6954420574E+00    0.1059583835E-01    0.6191491873E+00    0.5775744296E-03
    0.5000000000E+06    0.7823880918E-04    0.6954436853E+00    0.6742307267E-02    0.6371298622E+00    0.5942022310E-03
    0.7000000000E+06    0.4188377031E-04    0.6954405696E+00    0.4934829964E-02    0.6453157127E+00    0.6054137870E-03
    0.9000000000E+06    0.2621463260E-04    0.6954366975E+00    0.3887725924E-02    0.6499958230E+00    0.6139250362E-03
    0.1100000000E+07    0.1805585932E-04    0.6954328545E+00    0.3205212096E-02    0.6530243190E+00    0.6208066991E-03
    0.1300000000E+07    0.1326920632E-04    0.6954292286E+00    0.2725382868E-02    0.6551439351E+00    0.6265941804E-03
    0.1500000000E+07    0.1021943075E-04    0.6954258549E+00    0.2369766422E-02    0.6567101966E+00    0.6315946018E-03
    0.1700000000E+07    0.8154979713E-05    0.6954227237E+00    0.2095737976E-02    0.6579146347E+00    0.6360008555E-03
    0.1900000000E+07    0.6691140536E-05    0.6954198130E+00    0.1878157950E-02    0.6588695566E+00    0.6399421912E-03
    0.2100000000E+07    0.5614355171E-05    0.6954170991E+00    0.1701244376E-02    0.6596451631E+00    0.6435095334E-03
    0.2300000000E+07    0.4798324807E-05    0.6954145600E+00    0.1554591778E-02    0.6602875876E+00    0.6467693223E-03
    0.2500000000E+07    0.4164454240E-05    0.6954121760E+00    0.1431062495E-02    0.6608283938E+00    0.6497716111E-03
    0.2700000000E+07    0.3661742733E-05    0.6954099301E+00    0.1325597924E-02    0.6612899055E+00    0.6525550644E-03
    0.2900000000E+07    0.3255914851E-05    0.6954078076E+00    0.1234513322E-02    0.6616883564E+00    0.6551501821E-03
    0.3100000000E+07    0.2923238748E-05    0.6954057959E+00    0.1155061311E-02    0.6620358338E+00    0.6575814553E-03
    0.3300000000E+07    0.2646855873E-05    0.6954038842E+00    0.1085151797E-02    0.6623415227E+00    0.6598688529E-03
    0.3500000000E+07    0.2414520017E-05    0.6954020629E+00    0.1023166612E-02    0.6626125273E+00    0.6620288751E-03
    0.3700000000E+07    0.2217159338E-05    0.6954003240E+00    0.9678335126E-03    0.6628544285E+00    0.6640753152E-03
    0.3900000000E+07    0.2047935896E-05    0.6953986602E+00    0.9181384864E-03    0.6630716715E+00    0.6660198237E-03
    0.4100000000E+07    0.1901615192E-05    0.6953970653E+00    0.8732634371E-03    0.6632678405E+00    0.6678723317E-03
    0.4300000000E+07    0.1774134144E-05    0.6953955337E+00    0.8325410780E-03    0.6634458572E+00    0.6696413747E-03
    0.4500000000E+07    0.1662299171E-05    0.6953940605E+00    0.7954217328E-03    0.6636081277E+00    0.6713343436E-03
    0.4700000000E+07    0.1563571422E-05    0.6953926413E+00    0.7614485342E-03    0.6637566507E+00    0.6729576811E-03
    0.4900000000E+07    0.1475911532E-05    0.6953912724E+00    0.7302386413E-03    0.6638931008E+00    0.6745170382E-03
    0.1000000000E+07    0.2154791168E-04    0.6954347547E+00    0.3513897689E-02    0.6516566413E+00    0.6175286590E-03
    0.3000000000E+07    0.3081616004E-05    0.6954067886E+00    0.1193476750E-02    0.6618678359E+00    0.6563849593E-03
    0.5000000000E+07    0.1435702649E-05    0.6953906056E+00    0.7155669244E-03    0.6639572490E+00    0.6752743047E-03
    0.7000000000E+07    0.9381999645E-06    0.6953792192E+00    0.5100213284E-03    0.6648563297E+00    0.6880120058E-03
    0.9000000000E+07    0.7126253977E-06    0.6953703964E+00    0.3958095712E-03    0.6653564832E+00    0.6976822353E-03
    0.1100000000E+08    0.5864883286E-06    0.6953631740E+00    0.3231832749E-03    0.6656749228E+00    0.7055011520E-03
    0.1300000000E+08    0.5063102315E-06    0.6953570480E+00    0.2729556389E-03    0.6658954211E+00    0.7120769516E-03
    0.1500000000E+08    0.4507755808E-06    0.6953517218E+00    0.2361633360E-03    0.6660571276E+00    0.7177585335E-03
    0.1700000000E+08    0.4098881764E-06    0.6953470054E+00    0.2080596817E-03    0.6661807847E+00    0.7227650382E-03
    0.1900000000E+08    0.3783901513E-06    0.6953427698E+00    0.1858968638E-03    0.6662784064E+00    0.7272433080E-03
    0.2100000000E+08    0.3532688305E-06    0.6953389233E+00    0.1679743864E-03    0.6663574320E+00    0.7312966456E-03
    0.2300000000E+08    0.3326795704E-06    0.6953353984E+00    0.1531837107E-03    0.6664227135E+00    0.7350005375E-03
    0.2500000000E+08    0.3154314847E-06    0.6953321439E+00    0.1407714089E-03    0.6664775507E+00    0.7384118529E-03
    0.2700000000E+08    0.3007217907E-06    0.6953291199E+00    0.1302075779E-03    0.6665242654E+00    0.7415745219E-03
