  Pressure (Pa) 22mC5-500 (mol/kg) 24mC5-500 (mol/kg) 2mC6-500 (mol/kg) 3mC6-500 (mol/kg) C7-500 (mol/kg)
    0.1000000000E+01    0.8053918713E-05    0.3666001923E-01    0.1780565089E-04    0.8089092375E-05    0.4170691256E-02
    0.3000000000E+01    0.2123865059E-04    0.9948628120E-01    0.4585714231E-04    0.2038196304E-04    0.4210206561E-02
    0.5000000000E+01    0.3167225599E-04    0.1513682476E+00    0.6727339710E-04    0.3164525118E-04    0.4237081243E-02
    0.7000000000E+01    0.4009458091E-04    0.1949370461E+00    0.8400584690E-04    0.4242921584E-04    0.4258867528E-02
    0.9000000000E+01    0.4700136094E-04    0.2320429253E+00    0.9731926167E-04    0.5291730435E-04    0.4277140136E-02
    0.1100000000E+02    0.5274192564E-04    0.2640249417E+00    0.1080846965E-03    0.6320068159E-04    0.4292731309E-02
    0.1300000000E+02    0.5756967689E-04    0.2918760996E+00    0.1169207068E-03    0.7333334187E-04    0.4306194130E-02
    0.1500000000E+02    0.6167261169E-04    0.3163483584E+00    0.1242765558E-03    0.8335073219E-04    0.4317928226E-02
    0.1700000000E+02    0.6519284820E-04    0.3380215904E+00    0.1304845973E-03    0.9327777473E-04    0.4328234728E-02
    0.1900000000E+02    0.6823957268E-04    0.3573501466E+00    0.1357945579E-03    0.1031328763E-03    0.4337346657E-02
    0.2100000000E+02    0.7089786500E-04    0.3746950785E+00    0.1403966249E-03    0.1129301472E-03    0.4345447866E-02
    0.2300000000E+02    0.7323485511E-04    0.3903469181E+00    0.1444373617E-03    0.1226807247E-03    0.4352685679E-02
    0.2500000000E+02    0.7530410419E-04    0.4045420943E+00    0.1480308981E-03    0.1323936091E-03    0.4359179690E-02
    0.2700000000E+02    0.7714877734E-04    0.4174749676E+00    0.1512669343E-03    0.1420762171E-03    0.4365028078E-02
    0.2900000000E+02    0.7880397760E-04    0.4293067888E+00    0.1542165557E-03    0.1517347618E-03    0.4370312239E-02
    0.3100000000E+02    0.8029848697E-04    0.4401724617E+00    0.1569365139E-03    0.1613745209E-03    0.4375100260E-02
    0.3300000000E+02    0.8165608200E-04    0.4501857136E+00    0.1594724187E-03    0.1710000329E-03    0.4379449543E-02
    0.3500000000E+02    0.8289653923E-04    0.4594430937E+00    0.1618611440E-03    0.1806152426E-03    0.4383408839E-02
    0.3700000000E+02    0.8403641198E-04    0.4680270990E+00    0.1641326610E-03    0.1902236106E-03    0.4387019824E-02
    0.3900000000E+02    0.8508963615E-04    0.4760086408E+00    0.1663114465E-03    0.1998281992E-03    0.4390318345E-02
    0.4100000000E+02    0.8606800714E-04    0.4834490104E+00    0.1684175758E-03    0.2094317383E-03    0.4393335407E-02
    0.4300000000E+02    0.8698155825E-04    0.4904014563E+00    0.1704675766E-03    0.2190366787E-03    0.4396097969E-02
    0.4500000000E+02    0.8783886332E-04    0.4969124623E+00    0.1724751012E-03    0.2286452341E-03    0.4398629584E-02
    0.4700000000E+02    0.8864728052E-04    0.5030227884E+00    0.1744514593E-03    0.2382594160E-03    0.4400950924E-02
    0.4900000000E+02    0.8941315001E-04    0.5087683254E+00    0.1764060438E-03    0.2478810614E-03    0.4403080205E-02
    0.1000000000E+02    0.4999976044E-04    0.2486056937E+00    0.1029770677E-03    0.5808063334E-04    0.4285231815E-02
    0.3000000000E+02    0.7956972836E-04    0.4348528413E+00    0.1556021624E-03    0.1565566904E-03    0.4372764456E-02
    0.5000000000E+02    0.8978187260E-04    0.5115143590E+00    0.1773776673E-03    0.2526952152E-03    0.4404077934E-02
    0.7000000000E+02    0.9592356637E-04    0.5533301434E+00    0.1969866947E-03    0.3497184841E-03    0.4417026741E-02
    0.9000000000E+02    0.1011132237E-03    0.5796610209E+00    0.2183653919E-03    0.4488327057E-03    0.4421475101E-02
    0.1100000000E+03    0.1062601072E-03    0.5977654499E+00    0.2420766283E-03    0.5507502306E-03    0.4421149831E-02
    0.1300000000E+03    0.1116827964E-03    0.6109781753E+00    0.2680879872E-03    0.6559978280E-03    0.4417768716E-02
    0.1500000000E+03    0.1175066102E-03    0.6210459858E+00    0.2962870866E-03    0.7650216938E-03    0.4412227926E-02
    0.1700000000E+03    0.1237863664E-03    0.6289723995E+00    0.3265873229E-03    0.8782336172E-03    0.4405034565E-02
    0.1900000000E+03    0.1305502711E-03    0.6353750024E+00    0.3589447636E-03    0.9960351086E-03    0.4396490883E-02
    0.2100000000E+03    0.1378172459E-03    0.6406547099E+00    0.3933553470E-03    0.1118831905E-02    0.4386782033E-02
    0.2300000000E+03    0.1456042640E-03    0.6450831277E+00    0.4298489567E-03    0.1247043857E-02    0.4376021541E-02
    0.2500000000E+03    0.1539296269E-03    0.6488507977E+00    0.4684842828E-03    0.1381112498E-02    0.4364276445E-02
    0.2700000000E+03    0.1628145073E-03    0.6520953422E+00    0.5093451470E-03    0.1521507461E-02    0.4351581907E-02
    0.2900000000E+03    0.1722837373E-03    0.6549186437E+00    0.5525381689E-03    0.1668732397E-02    0.4337950035E-02
    0.3100000000E+03    0.1823662759E-03    0.6573977398E+00    0.5981915193E-03    0.1823330794E-02    0.4323375346E-02
    0.3300000000E+03    0.1930955572E-03    0.6595919615E+00    0.6464545307E-03    0.1985891980E-02    0.4307838185E-02
    0.3500000000E+03    0.2045098181E-03    0.6615477442E+00    0.6974980003E-03    0.2157057489E-02    0.4291306857E-02
    0.3700000000E+03    0.2166524536E-03    0.6633019510E+00    0.7515150719E-03    0.2337527984E-02    0.4273738901E-02
    0.3900000000E+03    0.2295724295E-03    0.6648842180E+00    0.8087226311E-03    0.2528070883E-02    0.4255081771E-02
    0.4100000000E+03    0.2433247662E-03    0.6663186431E+00    0.8693631759E-03    0.2729528830E-02    0.4235273088E-02
    0.4300000000E+03    0.2579711090E-03    0.6676250219E+00    0.9337071537E-03    0.2942829188E-02    0.4214240563E-02
    0.4500000000E+03    0.2735803941E-03    0.6688197667E+00    0.1002055773E-02    0.3168994701E-02    0.4191901649E-02
    0.4700000000E+03    0.2902296223E-03    0.6699165998E+00    0.1074744315E-02    0.3409155514E-02    0.4168162979E-02
    0.4900000000E+03    0.3080047509E-03    0.6709270829E+00    0.1152145975E-02    0.3664562742E-02    0.4142919577E-02
    0.1000000000E+03    0.1036651260E-03    0.5894801306E+00    0.2299270623E-03    0.4994054529E-03    0.4421774499E-02
    0.3000000000E+03    0.1772463621E-03    0.6561971594E+00    0.5750484662E-03    0.1745074226E-02    0.4330781469E-02
    0.5000000000E+03    0.3173440877E-03    0.6714030680E+00    0.1192742292E-02    0.3798411544E-02    0.4129697391E-02
    0.7000000000E+03    0.5949954966E-03    0.6781387069E+00    0.2389120842E-02    0.7730727730E-02    0.3747655221E-02
    0.9000000000E+03    0.1220998032E-02    0.6819394622E+00    0.5073201391E-02    0.1655712011E-01    0.2941546740E-02
    0.1100000000E+04    0.2500262601E-02    0.6843802191E+00    0.1058657441E-01    0.3481102719E-01    0.1484144600E-02
    0.1300000000E+04    0.3602772281E-02    0.6860800405E+00    0.1543937949E-01    0.5120684750E-01    0.5834463160E-03
    0.1500000000E+04    0.4137303484E-02    0.6873317698E+00    0.1791372142E-01    0.5995201875E-01    0.4425380939E-03
    0.1700000000E+04    0.4531371169E-02    0.6882918973E+00    0.1981422661E-01    0.6690818151E-01    0.4317826318E-03
    0.1900000000E+04    0.4883987685E-02    0.6890516457E+00    0.2156184400E-01    0.7345330899E-01    0.4334712752E-03
    0.2100000000E+04    0.5208234436E-02    0.6896677834E+00    0.2321009991E-01    0.7975677072E-01    0.4360405231E-03
    0.2300000000E+04    0.5507322273E-02    0.6901774872E+00    0.2477016388E-01    0.8584797588E-01    0.4384677418E-03
    0.2500000000E+04    0.5783284125E-02    0.6906061226E+00    0.2624834476E-01    0.9174077044E-01    0.4406954113E-03
    0.2700000000E+04    0.6037882907E-02    0.6909715893E+00    0.2765002056E-01    0.9744652889E-01    0.4427476993E-03
    0.2900000000E+04    0.6272719112E-02    0.6912868792E+00    0.2898008691E-01    0.1029756025E+00    0.4446500626E-03
    0.3100000000E+04    0.6489255115E-02    0.6915616509E+00    0.3024304144E-01    0.1083375450E+00    0.4464233012E-03
    0.3300000000E+04    0.6688829498E-02    0.6918032339E+00    0.3144302601E-01    0.1135412013E+00    0.4480842047E-03
    0.3500000000E+04    0.6872669089E-02    0.6920172910E+00    0.3258386079E-01    0.1185947738E+00    0.4496464779E-03
    0.3700000000E+04    0.7041899662E-02    0.6922082662E+00    0.3366907437E-01    0.1235058808E+00    0.4511214494E-03
    0.3900000000E+04    0.7197555482E-02    0.6923796960E+00    0.3470193050E-01    0.1282816079E+00    0.4525185907E-03
    0.4100000000E+04    0.7340587856E-02    0.6925344298E+00    0.3568545204E-01    0.1329285544E+00    0.4538459020E-03
    0.4300000000E+04    0.7471872782E-02    0.6926747890E+00    0.3662244241E-01    0.1374528750E+00    0.4551102025E-03
    0.4500000000E+04    0.7592217802E-02    0.6928026840E+00    0.3751550482E-01    0.1418603169E+00    0.4563173526E-03
    0.4700000000E+04    0.7702368156E-02    0.6929197009E+00    0.3836705953E-01    0.1461562536E+00    0.4574724257E-03
    0.4900000000E+04    0.7803012303E-02    0.6930271678E+00    0.3917935939E-01    0.1503457153E+00    0.4585798439E-03
    0.1000000000E+04    0.1786537355E-02    0.6832797485E+00    0.7503388463E-02    0.2457824153E-01    0.2264418025E-02
    0.3000000000E+04    0.6383188224E-02    0.6914288262E+00    0.2961968637E-01    0.1056768965E+00    0.4455516910E-03
    0.5000000000E+04    0.7849970400E-02    0.6930776773E+00    0.3957145046E-01    0.1524020028E+00    0.4591169129E-03
    0.7000000000E+04    0.8421363471E-02    0.6937845383E+00    0.4579287583E-01    0.1889390770E+00    0.4680895380E-03
    0.9000000000E+04    0.8535489344E-02    0.6941765468E+00    0.4978204092E-01    0.2187388286E+00    0.4748398408E-03
    0.1100000000E+05    0.8409193285E-02    0.6944253603E+00    0.5235166239E-01    0.2437868551E+00    0.4802691648E-03
    0.1300000000E+05    0.8156748575E-02    0.6945970922E+00    0.5397736776E-01    0.2653172292E+00    0.4848196582E-03
    0.1500000000E+05    0.7841058188E-02    0.6947226103E+00    0.5495410485E-01    0.2841440538E+00    0.4887419072E-03
    0.1700000000E+05    0.7497746274E-02    0.6948182564E+00    0.5547327494E-01    0.3008304522E+00    0.4921919922E-03
    0.1900000000E+05    0.7147287921E-02    0.6948934887E+00    0.5566367990E-01    0.3157812255E+00    0.4952738616E-03
    0.2100000000E+05    0.6801452980E-02    0.6949541594E+00    0.5561459236E-01    0.3292967579E+00    0.4980603012E-03
    0.2300000000E+05    0.6466880006E-02    0.6950040830E+00    0.5538940685E-01    0.3416059551E+00    0.5006043025E-03
    0.2500000000E+05    0.6147128770E-02    0.6950458514E+00    0.5503405595E-01    0.3528872231E+00    0.5029456684E-03
    0.2700000000E+05    0.5843892722E-02    0.6950812869E+00    0.5458238288E-01    0.3632823092E+00    0.5051150705E-03
    0.2900000000E+05    0.5557731555E-02    0.6951117081E+00    0.5405967500E-01    0.3729057188E+00    0.5071366541E-03
    0.3100000000E+05    0.5288521680E-02    0.6951380925E+00    0.5348504871E-01    0.3818512949E+00    0.5090297736E-03
    0.3300000000E+05    0.5035736847E-02    0.6951611797E+00    0.5287309575E-01    0.3901969238E+00    0.5108101863E-03
    0.3500000000E+05    0.4798624412E-02    0.6951815399E+00    0.5223504233E-01    0.3980079718E+00    0.5124908953E-03
    0.3700000000E+05    0.4576316427E-02    0.6951996195E+00    0.5157957968E-01    0.4053398421E+00    0.5140827580E-03
    0.3900000000E+05    0.4367899452E-02    0.6952157727E+00    0.5091346849E-01    0.4122399085E+00    0.5155949360E-03
    0.4100000000E+05    0.4172457973E-02    0.6952302847E+00    0.5024198491E-01    0.4187489998E+00    0.5170352318E-03
    0.4300000000E+05    0.3989100806E-02    0.6952433870E+00    0.4956925374E-01    0.4249025552E+00    0.5184103459E-03
    0.4500000000E+05    0.3816976503E-02    0.6952552701E+00    0.4889850012E-01    0.4307315341E+00    0.5197260763E-03
    0.4700000000E+05    0.3655281632E-02    0.6952660915E+00    0.4823224165E-01    0.4362631408E+00    0.5209874736E-03
    0.4900000000E+05    0.3503264486E-02    0.6952759832E+00    0.4757243628E-01    0.4415214080E+00    0.5221989653E-03
    0.1000000000E+05    0.8493637577E-02    0.6943134822E+00    0.5120904874E-01    0.2317670630E+00    0.4776857054E-03
    0.3000000000E+05    0.5421033619E-02    0.6951253540E+00    0.5377784912E-01    0.3774580396E+00    0.5080982140E-03
    0.5000000000E+05    0.3430664529E-02    0.6952806157E+00    0.4724544114E-01    0.4440548006E+00    0.5227872344E-03
    0.7000000000E+05    0.2343603096E-02    0.6953440117E+00    0.4125912969E-01    0.4844849730E+00    0.5326768768E-03
    0.9000000000E+05    0.1698472021E-02    0.6953774428E+00    0.3639403770E-01    0.5120975454E+00    0.5401795328E-03
    0.1100000000E+06    0.1286421181E-02    0.6953975573E+00    0.3247164830E-01    0.5322926749E+00    0.5462433844E-03
    0.1300000000E+06    0.1007745255E-02    0.6954106676E+00    0.2927424965E-01    0.5477575025E+00    0.5513418320E-03
    0.1500000000E+06    0.8106454428E-03    0.6954196765E+00    0.2662996411E-01    0.5600024596E+00    0.5557461738E-03
    0.1700000000E+06    0.6661721222E-03    0.6954260977E+00    0.2441207198E-01    0.5699492337E+00    0.5596266937E-03
    0.1900000000E+06    0.5571470294E-03    0.6954307943E+00    0.2252780923E-01    0.5781949695E+00    0.5630974394E-03
    0.2100000000E+06    0.4728628003E-03    0.6954342919E+00    0.2090861443E-01    0.5851447534E+00    0.5662386135E-03
    0.2300000000E+06    0.4063668700E-03    0.6954369281E+00    0.1950307591E-01    0.5910836341E+00    0.5691088053E-03
    0.2500000000E+06    0.3529865741E-03    0.6954389283E+00    0.1827204286E-01    0.5962182927E+00    0.5717521439E-03
    0.2700000000E+06    0.3094879176E-03    0.6954404487E+00    0.1718525202E-01    0.6007023858E+00    0.5742027116E-03
    0.2900000000E+06    0.2735752034E-03    0.6954416003E+00    0.1621898045E-01    0.6046526039E+00    0.5764873897E-03
    0.3100000000E+06    0.2435824444E-03    0.6954424641E+00    0.1535439078E-01    0.6081592026E+00    0.5786277608E-03
    0.3300000000E+06    0.2182769646E-03    0.6954431002E+00    0.1457634740E-01    0.6112931134E+00    0.5806414206E-03
    0.3500000000E+06    0.1967309018E-03    0.6954435542E+00    0.1387255710E-01    0.6141108694E+00    0.5825429066E-03
    0.3700000000E+06    0.1782350561E-03    0.6954438611E+00    0.1323293634E-01    0.6166580921E+00    0.5843443710E-03
    0.3900000000E+06    0.1622398588E-03    0.6954440483E+00    0.1264913899E-01    0.6189720096E+00    0.5860560769E-03
    0.4100000000E+06    0.1483141274E-03    0.6954441373E+00    0.1211419952E-01    0.6210833063E+00    0.5876867723E-03
    0.4300000000E+06    0.1361157367E-03    0.6954441453E+00    0.1162226018E-01    0.6230175027E+00    0.5892439757E-03
    0.4500000000E+06    0.1253704285E-03    0.6954440860E+00    0.1116836003E-01    0.6247960003E+00    0.5907341968E-03
    0.4700000000E+06    0.1158562778E-03    0.6954439707E+00    0.1074827030E-01    0.6264368812E+00    0.5921631099E-03
    0.4900000000E+06    0.1073921535E-03    0.6954438086E+00    0.1035836457E-01    0.6279555289E+00    0.5935356918E-03
    0.1000000000E+06    0.1471120352E-02    0.6953886498E+00    0.3432948333E-01    0.5229160619E+00    0.5433551279E-03
    0.3000000000E+06    0.2579242667E-03    0.6954420640E+00    0.1577499674E-01    0.6064565357E+00    0.5775744329E-03
    0.5000000000E+06    0.1035062218E-03    0.6954437124E+00    0.1017373629E-01    0.6286732065E+00    0.5942022507E-03
    0.7000000000E+06    0.5569042201E-04    0.6954406090E+00    0.7493984268E-02    0.6389914510E+00    0.6054138170E-03
    0.9000000000E+06    0.3488855296E-04    0.6954367459E+00    0.5925851195E-02    0.6449505132E+00    0.6139250740E-03
    0.1100000000E+07    0.2400138994E-04    0.6954329102E+00    0.4897437195E-02    0.6488301937E+00    0.6208067434E-03
    0.1300000000E+07    0.1759488751E-04    0.6954292906E+00    0.4171431347E-02    0.6515566356E+00    0.6265942302E-03
    0.1500000000E+07    0.1350601641E-04    0.6954259224E+00    0.3631758514E-02    0.6535771749E+00    0.6315946565E-03
    0.1700000000E+07    0.1073571657E-04    0.6954227961E+00    0.3214963226E-02    0.6551343338E+00    0.6360009147E-03
    0.1900000000E+07    0.8770766966E-05    0.6954198899E+00    0.2883441867E-02    0.6563709881E+00    0.6399422546E-03
    0.2100000000E+07    0.7325529969E-05    0.6954171803E+00    0.2613500945E-02    0.6573767707E+00    0.6435096007E-03
    0.2300000000E+07    0.6230747856E-05    0.6954146451E+00    0.2389472854E-02    0.6582107547E+00    0.6467693933E-03
    0.2500000000E+07    0.5380935936E-05    0.6954122648E+00    0.2200584618E-02    0.6589134519E+00    0.6497716856E-03
    0.2700000000E+07    0.4707567692E-05    0.6954100224E+00    0.2039185994E-02    0.6595135709E+00    0.6525551422E-03
    0.2900000000E+07    0.4164550323E-05    0.6954079032E+00    0.1899695069E-02    0.6600320221E+00    0.6551502630E-03
    0.3100000000E+07    0.3719949836E-05    0.6954058947E+00    0.1777943908E-02    0.6604843971E+00    0.6575815392E-03
    0.3300000000E+07    0.3351070973E-05    0.6954039861E+00    0.1670757749E-02    0.6608825579E+00    0.6598689397E-03
    0.3500000000E+07    0.3041422809E-05    0.6954021678E+00    0.1575675973E-02    0.6612356890E+00    0.6620289647E-03
    0.3700000000E+07    0.2778786996E-05    0.6954004317E+00    0.1490762117E-02    0.6615510123E+00    0.6640754076E-03
    0.3900000000E+07    0.2553953313E-05    0.6953987706E+00    0.1414471440E-02    0.6618342845E+00    0.6660199188E-03
    0.4100000000E+07    0.2359871465E-05    0.6953971783E+00    0.1345556703E-02    0.6620901507E+00    0.6678724293E-03
    0.4300000000E+07    0.2191069520E-05    0.6953956493E+00    0.1282999881E-02    0.6623224002E+00    0.6696414748E-03
    0.4500000000E+07    0.2043247311E-05    0.6953941786E+00    0.1225961853E-02    0.6625341549E+00    0.6713344461E-03
    0.4700000000E+07    0.1912987092E-05    0.6953927619E+00    0.1173744783E-02    0.6627280100E+00    0.6729577860E-03
    0.4900000000E+07    0.1797544328E-05    0.6953913953E+00    0.1125763600E-02    0.6629061406E+00    0.6745171454E-03
    0.1000000000E+07    0.2866621471E-04    0.6954348069E+00    0.5363183806E-02    0.6470758135E+00    0.6175287002E-03
    0.3000000000E+07    0.3931540594E-05    0.6954068859E+00    0.1836819914E-02    0.6602656547E+00    0.6563850417E-03
    0.5000000000E+07    0.1744667270E-05    0.6953907297E+00    0.1103203976E-02    0.6629898945E+00    0.6752744131E-03
    0.7000000000E+07    0.1096182536E-05    0.6953793641E+00    0.7868988422E-03    0.6641644569E+00    0.6880121348E-03
    0.9000000000E+07    0.8082084148E-06    0.6953705589E+00    0.6109389884E-03    0.6648183595E+00    0.6976823820E-03
    0.1100000000E+08    0.6504353737E-06    0.6953633518E+00    0.4989714390E-03    0.6652348316E+00    0.7055013144E-03
    0.1300000000E+08    0.5520541294E-06    0.6953572397E+00    0.4215010758E-03    0.6655232540E+00    0.7120771283E-03
    0.1500000000E+08    0.4851000229E-06    0.6953519262E+00    0.3647351397E-03    0.6657347831E+00    0.7177587233E-03
    0.1700000000E+08    0.4365838708E-06    0.6953472215E+00    0.3213644210E-03    0.6658965366E+00    0.7227652404E-03
    0.1900000000E+08    0.3997396763E-06    0.6953429969E+00    0.2871555583E-03    0.6660242263E+00    0.7272435218E-03
    0.2100000000E+08    0.3707280277E-06    0.6953391607E+00    0.2594877084E-03    0.6661275831E+00    0.7312968704E-03
    0.2300000000E+08    0.3472204032E-06    0.6953356456E+00    0.2366518466E-03    0.6662129552E+00    0.7350007728E-03
    0.2500000000E+08    0.3277274622E-06    0.6953324004E+00    0.2174861329E-03    0.6662846599E+00    0.7384120982E-03
    0.2700000000E+08    0.3112542541E-06    0.6953293854E+00    0.2011732512E-03    0.6663457357E+00    0.7415747768E-03
