  Pressure (Pa) 22mC5-500 (mol/kg) 24mC5-500 (mol/kg) 2mC6-500 (mol/kg) 3mC6-500 (mol/kg) C7-500 (mol/kg)
    0.1000000000E+01    0.5977162427E-05    0.1949996557E+00    0.1300824244E-04    0.4083755626E-05    0.4145516757E-02
    0.3000000000E+01    0.1065352080E-04    0.3749064140E+00    0.2217168900E-04    0.1008063878E-04    0.4169468296E-02
    0.5000000000E+01    0.1257537194E-04    0.4597397464E+00    0.2607006070E-04    0.1551998428E-04    0.4175251171E-02
    0.7000000000E+01    0.1367261658E-04    0.5091130385E+00    0.2881102698E-04    0.2069704663E-04    0.4177681487E-02
    0.9000000000E+01    0.1445619338E-04    0.5414165040E+00    0.3128009309E-04    0.2570932914E-04    0.4178818160E-02
    0.1100000000E+02    0.1510565055E-04    0.5641979230E+00    0.3371819840E-04    0.3060506511E-04    0.4179310388E-02
    0.1300000000E+02    0.1569511046E-04    0.5811267694E+00    0.3619465371E-04    0.3541273341E-04    0.4179434059E-02
    0.1500000000E+02    0.1625842212E-04    0.5942016688E+00    0.3872598818E-04    0.4015098414E-04    0.4179327495E-02
    0.1700000000E+02    0.1681206238E-04    0.6046042116E+00    0.4131164721E-04    0.4483290090E-04    0.4179067922E-02
    0.1900000000E+02    0.1736434679E-04    0.6130777475E+00    0.4394589665E-04    0.4946812604E-04    0.4178701883E-02
    0.2100000000E+02    0.1791951421E-04    0.6201133203E+00    0.4662198719E-04    0.5406403476E-04    0.4178259082E-02
    0.2300000000E+02    0.1847967628E-04    0.6260483427E+00    0.4933358472E-04    0.5862643446E-04    0.4177759348E-02
    0.2500000000E+02    0.1904580188E-04    0.6311223202E+00    0.5207519057E-04    0.6316000619E-04    0.4177216404E-02
    0.2700000000E+02    0.1961823653E-04    0.6355099621E+00    0.5484218775E-04    0.6766859633E-04    0.4176640028E-02
    0.2900000000E+02    0.2019698575E-04    0.6393417057E+00    0.5763075755E-04    0.7215541680E-04    0.4176037365E-02
    0.3100000000E+02    0.2078187346E-04    0.6427169046E+00    0.6043776192E-04    0.7662318669E-04    0.4175413745E-02
    0.3300000000E+02    0.2137263207E-04    0.6457125671E+00    0.6326062753E-04    0.8107423526E-04    0.4174773216E-02
    0.3500000000E+02    0.2196895408E-04    0.6483893042E+00    0.6609724385E-04    0.8551057844E-04    0.4174118897E-02
    0.3700000000E+02    0.2257052149E-04    0.6507954728E+00    0.6894587762E-04    0.8993397687E-04    0.4173453231E-02
    0.3900000000E+02    0.2317702240E-04    0.6529701243E+00    0.7180510285E-04    0.9434598061E-04    0.4172778146E-02
    0.4100000000E+02    0.2378815990E-04    0.6549451396E+00    0.7467374412E-04    0.9874796416E-04    0.4172095185E-02
    0.4300000000E+02    0.2440365650E-04    0.6567468030E+00    0.7755083084E-04    0.1031411542E-03    0.4171405592E-02
    0.4500000000E+02    0.2502325584E-04    0.6583969786E+00    0.8043556036E-04    0.1075266521E-03    0.4170710379E-02
    0.4700000000E+02    0.2564672289E-04    0.6599140021E+00    0.8332726828E-04    0.1119054515E-03    0.4170010375E-02
    0.4900000000E+02    0.2627384322E-04    0.6613133646E+00    0.8622540437E-04    0.1162784540E-03    0.4169306261E-02
    0.1000000000E+02    0.1479167547E-04    0.5537133887E+00    0.3249672215E-04    0.2816968111E-04    0.4179122889E-02
    0.3000000000E+02    0.2048867761E-04    0.6410811169E+00    0.5903212821E-04    0.7439152935E-04    0.4175727897E-02
    0.5000000000E+02    0.2658871170E-04    0.6619731195E+00    0.8767673737E-04    0.1184630408E-03    0.4168952845E-02
    0.7000000000E+02    0.3303946841E-04    0.6713500381E+00    0.1169656793E-03    0.1620170028E-03    0.4161764950E-02
    0.9000000000E+02    0.3972011662E-04    0.6766752951E+00    0.1466850895E-03    0.2056166628E-03    0.4154459679E-02
    0.1100000000E+03    0.4658502602E-04    0.6801083751E+00    0.1768347816E-03    0.2495564630E-03    0.4147089139E-02
    0.1300000000E+03    0.5361757176E-04    0.6825056362E+00    0.2074571349E-03    0.2940239105E-03    0.4139657192E-02
    0.1500000000E+03    0.6081331848E-04    0.6842744149E+00    0.2386022932E-03    0.3391543126E-03    0.4132155449E-02
    0.1700000000E+03    0.6817354304E-04    0.6856332190E+00    0.2703200715E-03    0.3850543493E-03    0.4124572385E-02
    0.1900000000E+03    0.7570247194E-04    0.6867097825E+00    0.3026583332E-03    0.4318138613E-03    0.4116895988E-02
    0.2100000000E+03    0.8340600315E-04    0.6875837686E+00    0.3356630755E-03    0.4795123954E-03    0.4109114537E-02
    0.2300000000E+03    0.9129107914E-04    0.6883074382E+00    0.3693789357E-03    0.5282231394E-03    0.4101216777E-02
    0.2500000000E+03    0.9936536848E-04    0.6889164992E+00    0.4038497459E-03    0.5780154440E-03    0.4093191885E-02
    0.2700000000E+03    0.1076371028E-03    0.6894361795E+00    0.4391190377E-03    0.6289565315E-03    0.4085029382E-02
    0.2900000000E+03    0.1161149965E-03    0.6898848087E+00    0.4752304786E-03    0.6811127117E-03    0.4076719030E-02
    0.3100000000E+03    0.1248082117E-03    0.6902760253E+00    0.5122282465E-03    0.7345502871E-03    0.4068250727E-02
    0.3300000000E+03    0.1337263510E-03    0.6906201872E+00    0.5501573557E-03    0.7893362587E-03    0.4059614426E-02
    0.3500000000E+03    0.1428794651E-03    0.6909253018E+00    0.5890639451E-03    0.8455388986E-03    0.4050800045E-02
    0.3700000000E+03    0.1522780718E-03    0.6911976574E+00    0.6289955396E-03    0.9032282348E-03    0.4041797405E-02
    0.3900000000E+03    0.1619331812E-03    0.6914422607E+00    0.6700012932E-03    0.9624764766E-03    0.4032596160E-02
    0.4100000000E+03    0.1718563268E-03    0.6916631478E+00    0.7121322201E-03    0.1023358403E-02    0.4023185741E-02
    0.4300000000E+03    0.1820596004E-03    0.6918636081E+00    0.7554414185E-03    0.1085951724E-02    0.4013555301E-02
    0.4500000000E+03    0.1925556900E-03    0.6920463497E+00    0.7999842926E-03    0.1150337434E-02    0.4003693663E-02
    0.4700000000E+03    0.2033579222E-03    0.6922136223E+00    0.8458187755E-03    0.1216600155E-02    0.3993589269E-02
    0.4900000000E+03    0.2144803065E-03    0.6923673102E+00    0.8930055566E-03    0.1284828485E-02    0.3983230135E-02
    0.1000000000E+03    0.4313098297E-04    0.6785591809E+00    0.1617038678E-03    0.2275306937E-03    0.4150781845E-02
    0.3000000000E+03    0.1204340991E-03    0.6900868820E+00    0.4936157814E-03    0.7076671610E-03    0.4072505251E-02
    0.5000000000E+03    0.2201661322E-03    0.6924395666E+00    0.9171258353E-03    0.1319708614E-02    0.3977951167E-02
    0.7000000000E+03    0.3548320662E-03    0.6934527026E+00    0.1488341017E-02    0.2146491937E-02    0.3855579190E-02
    0.9000000000E+03    0.5457782684E-03    0.6940167809E+00    0.2298834995E-02    0.3321650026E-02    0.3688247536E-02
    0.1100000000E+04    0.8317990442E-03    0.6943761758E+00    0.3514598816E-02    0.5087750740E-02    0.3446426946E-02
    0.1300000000E+04    0.1285940348E-02    0.6946251736E+00    0.5448838893E-02    0.7903783332E-02    0.3077446848E-02
    0.1500000000E+04    0.2036640468E-02    0.6948078604E+00    0.8655232288E-02    0.1258550919E-01    0.2497283862E-02
    0.1700000000E+04    0.3213191234E-02    0.6949476068E+00    0.1370303289E-01    0.1998863997E-01    0.1652342500E-02
    0.1900000000E+04    0.4605415547E-02    0.6950579560E+00    0.1972540531E-01    0.2889201231E-01    0.7742251109E-03
    0.2100000000E+04    0.5658208616E-02    0.6951472981E+00    0.2435636686E-01    0.3584860878E-01    0.2699596565E-03
    0.2300000000E+04    0.6308416047E-02    0.6952211080E+00    0.2729968611E-01    0.4038848956E-01    0.9730840898E-04
    0.2500000000E+04    0.6775183358E-02    0.6952831103E+00    0.2947732168E-01    0.4383811422E-01    0.5087566247E-04
    0.2700000000E+04    0.7173837162E-02    0.6953359271E+00    0.3137913477E-01    0.4690915575E-01    0.3929554046E-04
    0.2900000000E+04    0.7541130999E-02    0.6953814575E+00    0.3316140013E-01    0.4982903720E-01    0.3651344873E-04
    0.3100000000E+04    0.7887783576E-02    0.6954211110E+00    0.3486911873E-01    0.5266256437E-01    0.3591323029E-04
    0.3300000000E+04    0.8217269964E-02    0.6954559557E+00    0.3651621240E-01    0.5542893423E-01    0.3585248639E-04
    0.3500000000E+04    0.8531104996E-02    0.6954868156E+00    0.3810820343E-01    0.5813501746E-01    0.3592289054E-04
    0.3700000000E+04    0.8830250653E-02    0.6955143367E+00    0.3964828495E-01    0.6078430986E-01    0.3602233328E-04
    0.3900000000E+04    0.9115488829E-02    0.6955390325E+00    0.4113893309E-01    0.6337931750E-01    0.3612529689E-04
    0.4100000000E+04    0.9387521949E-02    0.6955613164E+00    0.4258234074E-01    0.6592219738E-01    0.3622559379E-04
    0.4300000000E+04    0.9647001884E-02    0.6955815249E+00    0.4398053936E-01    0.6841493440E-01    0.3632193877E-04
    0.4500000000E+04    0.9894539729E-02    0.6955999347E+00    0.4533543748E-01    0.7085939419E-01    0.3641427605E-04
    0.4700000000E+04    0.1013071032E-01    0.6956167754E+00    0.4664883647E-01    0.7325734212E-01    0.3650283728E-04
    0.4900000000E+04    0.1035605522E-01    0.6956322391E+00    0.4792243970E-01    0.7561045287E-01    0.3658790075E-04
    0.1000000000E+04    0.6734107080E-03    0.6942144075E+00    0.2841100185E-02    0.4108947140E-02    0.3579240452E-02
    0.3000000000E+04    0.7716743595E-02    0.6954019454E+00    0.3402337851E-01    0.5125491159E-01    0.3609290926E-04
    0.5000000000E+04    0.1046482875E-01    0.6956395063E+00    0.4854482519E-01    0.7677069449E-01    0.3662920481E-04
    0.7000000000E+04    0.1218162793E-01    0.6957411696E+00    0.5925262913E-01    0.9796880783E-01    0.3732342581E-04
    0.9000000000E+04    0.1324875064E-01    0.6957975472E+00    0.6737614108E-01    0.1160835537E+00    0.3784991771E-04
    0.1100000000E+05    0.1389099055E-01    0.6958333533E+00    0.7367071796E-01    0.1318981242E+00    0.3827536593E-04
    0.1300000000E+05    0.1424766014E-01    0.6958580909E+00    0.7862654598E-01    0.1459377726E+00    0.3863303958E-04
    0.1500000000E+05    0.1440848847E-01    0.6958761931E+00    0.8257522448E-01    0.1585695006E+00    0.3894199574E-04
    0.1700000000E+05    0.1443309904E-01    0.6958900056E+00    0.8574888508E-01    0.1700585735E+00    0.3921419203E-04
    0.1900000000E+05    0.1436213453E-01    0.6959008858E+00    0.8831475614E-01    0.1806022598E+00    0.3945763530E-04
    0.2100000000E+05    0.1422388775E-01    0.6959096735E+00    0.9039627959E-01    0.1903508646E+00    0.3967795525E-04
    0.2300000000E+05    0.1403839887E-01    0.6959169162E+00    0.9208650201E-01    0.1994213305E+00    0.3987926394E-04
    0.2500000000E+05    0.1382006637E-01    0.6959229859E+00    0.9345684320E-01    0.2079063150E+00    0.4006465824E-04
    0.2700000000E+05    0.1357935559E-01    0.6959281441E+00    0.9456299978E-01    0.2158804158E+00    0.4023652973E-04
    0.2900000000E+05    0.1332394307E-01    0.6959325802E+00    0.9544901832E-01    0.2234045464E+00    0.4039676457E-04
    0.3100000000E+05    0.1305949857E-01    0.6959364346E+00    0.9615016669E-01    0.2305290750E+00    0.4054687704E-04
    0.3300000000E+05    0.1279022934E-01    0.6959398135E+00    0.9669499768E-01    0.2372961218E+00    0.4068810163E-04
    0.3500000000E+05    0.1251926479E-01    0.6959427989E+00    0.9710685769E-01    0.2437412680E+00    0.4082145822E-04
    0.3700000000E+05    0.1224893244E-01    0.6959454549E+00    0.9740500711E-01    0.2498948472E+00    0.4094779931E-04
    0.3900000000E+05    0.1198095825E-01    0.6959478326E+00    0.9760546405E-01    0.2557829345E+00    0.4106784487E-04
    0.4100000000E+05    0.1171661371E-01    0.6959499729E+00    0.9772164787E-01    0.2614281147E+00    0.4118220856E-04
    0.4300000000E+05    0.1145682504E-01    0.6959519092E+00    0.9776487585E-01    0.2668500848E+00    0.4129141778E-04
    0.4500000000E+05    0.1120225494E-01    0.6959536688E+00    0.9774475058E-01    0.2720661325E+00    0.4139592914E-04
    0.4700000000E+05    0.1095336423E-01    0.6959552746E+00    0.9766946513E-01    0.2770915193E+00    0.4149614067E-04
    0.4900000000E+05    0.1071045877E-01    0.6959567455E+00    0.9754604566E-01    0.2819397905E+00    0.4159240145E-04
    0.1000000000E+05    0.1361279998E-01    0.6958172495E+00    0.7071675662E-01    0.1242409377E+00    0.3807272917E-04
    0.3000000000E+05    0.1319255773E-01    0.6959345728E+00    0.9582077925E-01    0.2270139575E+00    0.4047300326E-04
    0.5000000000E+05    0.1059131274E-01    0.6959574354E+00    0.9746821091E-01    0.2843013347E+00    0.4163914795E-04
    0.7000000000E+05    0.8530419335E-02    0.6959669752E+00    0.9448508863E-01    0.3245863554E+00    0.4242542477E-04
    0.9000000000E+05    0.6995685397E-02    0.6959721292E+00    0.9031265702E-01    0.3555773896E+00    0.4302232740E-04
    0.1100000000E+06    0.5839944668E-02    0.6959753146E+00    0.8594304595E-01    0.3805992194E+00    0.4350494860E-04
    0.1300000000E+06    0.4951174509E-02    0.6959774537E+00    0.8171384479E-01    0.4014314927E+00    0.4391083643E-04
    0.1500000000E+06    0.4253430404E-02    0.6959789733E+00    0.7774091601E-01    0.4191534053E+00    0.4426152903E-04
    0.1700000000E+06    0.3695437313E-02    0.6959800975E+00    0.7405512714E-01    0.4344746393E+00    0.4457055358E-04
    0.1900000000E+06    0.3241942771E-02    0.6959809548E+00    0.7065298783E-01    0.4478891458E+00    0.4484697408E-04
    0.2100000000E+06    0.2868158069E-02    0.6959816242E+00    0.6751735453E-01    0.4597554613E+00    0.4509716686E-04
    0.2300000000E+06    0.2556262052E-02    0.6959821567E+00    0.6462640739E-01    0.4703423804E+00    0.4532579121E-04
    0.2500000000E+06    0.2293178134E-02    0.6959825867E+00    0.6195763621E-01    0.4798566631E+00    0.4553635724E-04
    0.2700000000E+06    0.2069132293E-02    0.6959829381E+00    0.5948957911E-01    0.4884607199E+00    0.4573157643E-04
    0.2900000000E+06    0.1876696849E-02    0.6959832282E+00    0.5720251364E-01    0.4962843699E+00    0.4591358766E-04
    0.3100000000E+06    0.1710142583E-02    0.6959834697E+00    0.5507865317E-01    0.5034329264E+00    0.4608410844E-04
    0.3300000000E+06    0.1564990807E-02    0.6959836719E+00    0.5310211300E-01    0.5099929159E+00    0.4624453917E-04
    0.3500000000E+06    0.1437697852E-02    0.6959838422E+00    0.5125877554E-01    0.5160362202E+00    0.4639603697E-04
    0.3700000000E+06    0.1325428998E-02    0.6959839862E+00    0.4953611865E-01    0.5216231388E+00    0.4653956915E-04
    0.3900000000E+06    0.1225893945E-02    0.6959841082E+00    0.4792303822E-01    0.5268046943E+00    0.4667595274E-04
    0.4100000000E+06    0.1137225347E-02    0.6959842119E+00    0.4640967969E-01    0.5316243947E+00    0.4680588420E-04
    0.4300000000E+06    0.1057887955E-02    0.6959843001E+00    0.4498728464E-01    0.5361195997E+00    0.4692996212E-04
    0.4500000000E+06    0.9866098369E-03    0.6959843751E+00    0.4364805430E-01    0.5403225927E+00    0.4704870481E-04
    0.4700000000E+06    0.9223297297E-03    0.6959844388E+00    0.4238502968E-01    0.5442614323E+00    0.4716256409E-04
    0.4900000000E+06    0.8641563214E-03    0.6959844927E+00    0.4119198715E-01    0.5479606337E+00    0.4727193628E-04
    0.1000000000E+06    0.6378423074E-02    0.6959738928E+00    0.8812351319E-01    0.3687008592E+00    0.4327505434E-04
    0.3000000000E+06    0.1790489577E-02    0.6959833544E+00    0.5612121886E-01    0.4999372414E+00    0.4600019038E-04
    0.5000000000E+06    0.8371195970E-03    0.6959845164E+00    0.4061994281E-01    0.5497272003E+00    0.4732505056E-04
    0.7000000000E+06    0.4841211614E-03    0.6959847069E+00    0.3176621868E-01    0.5765381441E+00    0.4821848121E-04
    0.9000000000E+06    0.3151993878E-03    0.6959846400E+00    0.2605898156E-01    0.5933639013E+00    0.4889677656E-04
    0.1100000000E+07    0.2214163835E-03    0.6959844862E+00    0.2207866345E-01    0.6049206189E+00    0.4944522826E-04
    0.1300000000E+07    0.1639987930E-03    0.6959843019E+00    0.1914624119E-01    0.6133515937E+00    0.4990649115E-04
    0.1500000000E+07    0.1263133018E-03    0.6959841090E+00    0.1689690450E-01    0.6197746990E+00    0.5030503507E-04
    0.1700000000E+07    0.1002558319E-03    0.6959839171E+00    0.1511736361E-01    0.6248309936E+00    0.5065622956E-04
    0.1900000000E+07    0.8149315614E-04    0.6959837301E+00    0.1367465488E-01    0.6289147124E+00    0.5097037358E-04
    0.2100000000E+07    0.6753739444E-04    0.6959835499E+00    0.1248161027E-01    0.6322817170E+00    0.5125471247E-04
    0.2300000000E+07    0.5687734370E-04    0.6959833770E+00    0.1147871841E-01    0.6351053408E+00    0.5151454070E-04
    0.2500000000E+07    0.4855204468E-04    0.6959832114E+00    0.1062396955E-01    0.6375071932E+00    0.5175384696E-04
    0.2700000000E+07    0.4192677545E-04    0.6959830531E+00    0.9886866709E-02    0.6395751183E+00    0.5197571247E-04
    0.2900000000E+07    0.3656864858E-04    0.6959829015E+00    0.9244737303E-02    0.6413741545E+00    0.5218256783E-04
    0.3100000000E+07    0.3217423017E-04    0.6959827562E+00    0.8680376720E-02    0.6429534853E+00    0.5237636481E-04
    0.3300000000E+07    0.2852572537E-04    0.6959826170E+00    0.8180494731E-02    0.6443509924E+00    0.5255869483E-04
    0.3500000000E+07    0.2546353596E-04    0.6959824833E+00    0.7734662886E-02    0.6455963261E+00    0.5273087287E-04
    0.3700000000E+07    0.2286855418E-04    0.6959823548E+00    0.7334584084E-02    0.6467130250E+00    0.5289399820E-04
    0.3900000000E+07    0.2065043619E-04    0.6959822311E+00    0.6973574898E-02    0.6477200136E+00    0.5304899932E-04
    0.4100000000E+07    0.1873965411E-04    0.6959821119E+00    0.6646191728E-02    0.6486326798E+00    0.5319666772E-04
    0.4300000000E+07    0.1708199669E-04    0.6959819970E+00    0.6347956237E-02    0.6494636640E+00    0.5333768366E-04
    0.4500000000E+07    0.1563469289E-04    0.6959818859E+00    0.6075150625E-02    0.6502234459E+00    0.5347263619E-04
    0.4700000000E+07    0.1436363346E-04    0.6959817785E+00    0.5824662864E-02    0.6509207872E+00    0.5360203879E-04
    0.4900000000E+07    0.1324134877E-04    0.6959816746E+00    0.5593868231E-02    0.6515630696E+00    0.5372634183E-04
    0.1000000000E+07    0.2621339386E-03    0.6959845692E+00    0.2390574740E-01    0.5996326045E+00    0.4918397397E-04
    0.3000000000E+07    0.3426621389E-04    0.6959828281E+00    0.8953744042E-02    0.6421886922E+00    0.5228099183E-04
    0.5000000000E+07    0.1272885280E-04    0.6959816239E+00    0.5485145854E-02    0.6518655586E+00    0.5378670699E-04
    0.7000000000E+07    0.6578501569E-05    0.6959807472E+00    0.3946582625E-02    0.6561413577E+00    0.5480210668E-04
    0.9000000000E+07    0.4008403049E-05    0.6959800575E+00    0.3079042500E-02    0.6585489588E+00    0.5557300359E-04
    0.1100000000E+08    0.2696593327E-05    0.6959794879E+00    0.2522591998E-02    0.6600923209E+00    0.5619633135E-04
    0.1300000000E+08    0.1938251150E-05    0.6959790020E+00    0.2135551355E-02    0.6611655613E+00    0.5672056741E-04
    0.1500000000E+08    0.1460830701E-05    0.6959785777E+00    0.1850885937E-02    0.6619548766E+00    0.5717352207E-04
    0.1700000000E+08    0.1140979272E-05    0.6959782007E+00    0.1632783965E-02    0.6625596492E+00    0.5757266306E-04
    0.1900000000E+08    0.9162880872E-06    0.6959778613E+00    0.1460380621E-02    0.6630377491E+00    0.5792969532E-04
    0.2100000000E+08    0.7524369183E-06    0.6959775524E+00    0.1320699823E-02    0.6634251528E+00    0.5825285335E-04
    0.2300000000E+08    0.6292869681E-06    0.6959772688E+00    0.1205249488E-02    0.6637453994E+00    0.5854815440E-04
    0.2500000000E+08    0.5343901160E-06    0.6959770065E+00    0.1108239578E-02    0.6640145359E+00    0.5882013172E-04
    0.2700000000E+08    0.4597166353E-06    0.6959767625E+00    0.1025587105E-02    0.6642438771E+00    0.5907228720E-04
