  Pressure (Pa) 22mC5-500 (mol/kg) 24mC5-500 (mol/kg) 2mC6-500 (mol/kg) 3mC6-500 (mol/kg) C7-500 (mol/kg)
    0.1000000000E+01    0.5486338754E-05    0.2321356546E+00    0.4751679473E-05    0.5104148190E-05    0.4145144718E-02
    0.3000000000E+01    0.9124450663E-05    0.4177432720E+00    0.7612609020E-05    0.1259721032E-04    0.4167959633E-02
    0.5000000000E+01    0.1052354904E-04    0.4972632133E+00    0.8893532896E-05    0.1939127697E-04    0.4173016556E-02
    0.7000000000E+01    0.1136674060E-04    0.5414346311E+00    0.9930638873E-05    0.2585562590E-04    0.4174992845E-02
    0.9000000000E+01    0.1202814981E-04    0.5695415208E+00    0.1094328819E-04    0.3211224499E-04    0.4175833632E-02
    0.1100000000E+02    0.1262419853E-04    0.5889992043E+00    0.1197531152E-04    0.3822149629E-04    0.4176127316E-02
    0.1300000000E+02    0.1319800445E-04    0.6032677199E+00    0.1303285018E-04    0.4421902854E-04    0.4176116072E-02
    0.1500000000E+02    0.1376711250E-04    0.6141786972E+00    0.1411330178E-04    0.5012819200E-04    0.4175918319E-02
    0.1700000000E+02    0.1433892981E-04    0.6227924895E+00    0.1521251202E-04    0.5596537041E-04    0.4175598855E-02
    0.1900000000E+02    0.1491649889E-04    0.6297654771E+00    0.1632662390E-04    0.6174263988E-04    0.4175196082E-02
    0.2100000000E+02    0.1550088727E-04    0.6355257198E+00    0.1745246709E-04    0.6746923807E-04    0.4174734160E-02
    0.2300000000E+02    0.1609225069E-04    0.6403642904E+00    0.1858754192E-04    0.7315243941E-04    0.4174229017E-02
    0.2500000000E+02    0.1669033068E-04    0.6444860137E+00    0.1972990690E-04    0.7879810763E-04    0.4173691551E-02
    0.2700000000E+02    0.1729469507E-04    0.6480392085E+00    0.2087806051E-04    0.8441106087E-04    0.4173129446E-02
    0.2900000000E+02    0.1790485590E-04    0.6511339162E+00    0.2203084118E-04    0.8999532232E-04    0.4172548263E-02
    0.3100000000E+02    0.1852032682E-04    0.6538535007E+00    0.2318734840E-04    0.9555429760E-04    0.4171952111E-02
    0.3300000000E+02    0.1914064974E-04    0.6562622704E+00    0.2434688231E-04    0.1010909037E-03    0.4171344083E-02
    0.3500000000E+02    0.1976540579E-04    0.6584106290E+00    0.2550889774E-04    0.1066076648E-03    0.4170726543E-02
    0.3700000000E+02    0.2039421837E-04    0.6603386405E+00    0.2667296945E-04    0.1121067851E-03    0.4170101323E-02
    0.3900000000E+02    0.2102675209E-04    0.6620785516E+00    0.2783876567E-04    0.1175902045E-03    0.4169469858E-02
    0.4100000000E+02    0.2166270995E-04    0.6636566091E+00    0.2900602789E-04    0.1230596428E-03    0.4168833286E-02
    0.4300000000E+02    0.2230182975E-04    0.6650943939E+00    0.3017455536E-04    0.1285166343E-03    0.4168192514E-02
    0.4500000000E+02    0.2294388037E-04    0.6664098135E+00    0.3134419309E-04    0.1339625561E-03    0.4167548276E-02
    0.4700000000E+02    0.2358865817E-04    0.6676178513E+00    0.3251482251E-04    0.1393986503E-03    0.4166901164E-02
    0.4900000000E+02    0.2423598373E-04    0.6687311409E+00    0.3368635418E-04    0.1448260428E-03    0.4166251663E-02
    0.1000000000E+02    0.1233074785E-04    0.5800811904E+00    0.1145613169E-04    0.3518268271E-04    0.4176029460E-02
    0.3000000000E+02    0.1821195707E-04    0.6525362027E+00    0.2260867681E-04    0.9277777822E-04    0.4172251845E-02
    0.5000000000E+02    0.2456055175E-04    0.6692556714E+00    0.3427243694E-04    0.1475367999E-03    0.4165926142E-02
    0.7000000000E+02    0.3115606497E-04    0.6766865208E+00    0.4603361414E-04    0.2015028200E-03    0.4159356090E-02
    0.9000000000E+02    0.3790729769E-04    0.6808865712E+00    0.5787713698E-04    0.2553769311E-03    0.4152741842E-02
    0.1100000000E+03    0.4478763015E-04    0.6835866065E+00    0.6982871951E-04    0.3095219445E-03    0.4146109097E-02
    0.1300000000E+03    0.5179094241E-04    0.6854684497E+00    0.8191609512E-04    0.3641655498E-03    0.4139452486E-02
    0.1500000000E+03    0.5891866192E-04    0.6868550696E+00    0.9416395973E-04    0.4194690690E-03    0.4132760292E-02
    0.1700000000E+03    0.6617531801E-04    0.6879192177E+00    0.1065939332E-03    0.4755570715E-03    0.4126020127E-02
    0.1900000000E+03    0.7356682343E-04    0.6887616659E+00    0.1192252506E-03    0.5325321751E-03    0.4119220305E-02
    0.2100000000E+03    0.8109975782E-04    0.6894451589E+00    0.1320754232E-03    0.5904832492E-03    0.4112350079E-02
    0.2300000000E+03    0.8878105830E-04    0.6900108058E+00    0.1451607577E-03    0.6494903272E-03    0.4105399557E-02
    0.2500000000E+03    0.9661788812E-04    0.6904866650E+00    0.1584967483E-03    0.7096277351E-03    0.4098359551E-02
    0.2700000000E+03    0.1046175875E-03    0.6908925425E+00    0.1720983715E-03    0.7709661907E-03    0.4091221419E-02
    0.2900000000E+03    0.1127876637E-03    0.6912428181E+00    0.1859803117E-03    0.8335742746E-03    0.4083976929E-02
    0.3100000000E+03    0.1211358002E-03    0.6915481845E+00    0.2001571380E-03    0.8975195061E-03    0.4076618145E-02
    0.3300000000E+03    0.1296698756E-03    0.6918167577E+00    0.2146434455E-03    0.9628691595E-03    0.4069137333E-02
    0.3500000000E+03    0.1383979873E-03    0.6920548094E+00    0.2294539720E-03    0.1029690907E-02    0.4061526879E-02
    0.3700000000E+03    0.1473284769E-03    0.6922672625E+00    0.2446036959E-03    0.1098053342E-02    0.4053779224E-02
    0.3900000000E+03    0.1564699576E-03    0.6924580350E+00    0.2601079232E-03    0.1168026424E-02    0.4045886804E-02
    0.4100000000E+03    0.1658313419E-03    0.6926302843E+00    0.2759823634E-03    0.1239681862E-02    0.4037842006E-02
    0.4300000000E+03    0.1754218702E-03    0.6927865832E+00    0.2922432005E-03    0.1313093461E-02    0.4029637116E-02
    0.4500000000E+03    0.1852511392E-03    0.6929290490E+00    0.3089071592E-03    0.1388337447E-02    0.4021264290E-02
    0.4700000000E+03    0.1953291325E-03    0.6930594401E+00    0.3259915688E-03    0.1465492766E-02    0.4012715505E-02
    0.4900000000E+03    0.2056662502E-03    0.6931792291E+00    0.3435144253E-03    0.1544641380E-02    0.4003982538E-02
    0.1000000000E+03    0.4133197135E-04    0.6823689433E+00    0.6383763005E-04    0.2823992750E-03    0.4149427842E-02
    0.3000000000E+03    0.1169389868E-03    0.6914005573E+00    0.1930309539E-03    0.8653755447E-03    0.4080312311E-02
    0.5000000000E+03    0.2109353525E-03    0.6932355439E+00    0.3524460925E-03    0.1584989682E-02    0.3999544351E-02
    0.7000000000E+03    0.3329044407E-03    0.6940248715E+00    0.5592266295E-03    0.2519959409E-02    0.3898844899E-02
    0.9000000000E+03    0.4976985046E-03    0.6944641104E+00    0.8388464964E-03    0.3786355933E-02    0.3767253870E-02
    0.1100000000E+04    0.7303586235E-03    0.6947438777E+00    0.1234135903E-02    0.5579620235E-02    0.3587268612E-02
    0.1300000000E+04    0.1075223958E-02    0.6949376669E+00    0.1821032835E-02    0.8247010493E-02    0.3329189029E-02
    0.1500000000E+04    0.1611513098E-02    0.6950798260E+00    0.2735629175E-02    0.1241285991E-01    0.2942888481E-02
    0.1700000000E+04    0.2464577759E-02    0.6951885580E+00    0.4194696649E-02    0.1907805748E-01    0.2357814627E-02
    0.1900000000E+04    0.3725551919E-02    0.6952744091E+00    0.6361200986E-02    0.2901894362E-01    0.1553374605E-02
    0.2100000000E+04    0.5148362984E-02    0.6953439115E+00    0.8825589517E-02    0.4041576554E-01    0.7533210740E-03
    0.2300000000E+04    0.6234758467E-02    0.6954013271E+00    0.1073715414E-01    0.4938982259E-01    0.2806356507E-03
    0.2500000000E+04    0.6926507928E-02    0.6954495552E+00    0.1198679164E-01    0.5540081431E-01    0.1024658755E-03
    0.2700000000E+04    0.7422327232E-02    0.6954906364E+00    0.1290868538E-01    0.5995024830E-01    0.4876558974E-04
    0.2900000000E+04    0.7840702347E-02    0.6955260488E+00    0.1370413406E-01    0.6395193183E-01    0.3378218892E-04
    0.3100000000E+04    0.8224147700E-02    0.6955568891E+00    0.1444554829E-01    0.6773557162E-01    0.2972386493E-04
    0.3300000000E+04    0.8586176441E-02    0.6955839885E+00    0.1515579349E-01    0.7140477711E-01    0.2867335483E-04
    0.3500000000E+04    0.8931249584E-02    0.6956079880E+00    0.1584220107E-01    0.7499193963E-01    0.2844722603E-04
    0.3700000000E+04    0.9261136386E-02    0.6956293904E+00    0.1650747536E-01    0.7850818649E-01    0.2844594329E-04
    0.3900000000E+04    0.9576799967E-02    0.6956485952E+00    0.1715294306E-01    0.8195833615E-01    0.2850435854E-04
    0.4100000000E+04    0.9878946605E-02    0.6956659239E+00    0.1777950361E-01    0.8534529024E-01    0.2857683964E-04
    0.4300000000E+04    0.1016818612E-01    0.6956816383E+00    0.1838790706E-01    0.8867132107E-01    0.2865083919E-04
    0.4500000000E+04    0.1044507969E-01    0.6956959537E+00    0.1897883657E-01    0.9193845221E-01    0.2872302236E-04
    0.4700000000E+04    0.1071015497E-01    0.6957090488E+00    0.1955293374E-01    0.9514857378E-01    0.2879262445E-04
    0.4900000000E+04    0.1096391169E-01    0.6957210729E+00    0.2011080744E-01    0.9830347983E-01    0.2885958934E-04
    0.1000000000E+04    0.6033749646E-03    0.6946179594E+00    0.1018318968E-02    0.4600166647E-02    0.3684793830E-02
    0.3000000000E+04    0.8035602179E-02    0.6955419833E+00    0.1407957583E-01    0.6586182717E-01    0.3110529967E-04
    0.5000000000E+04    0.1108669481E-01    0.6957267235E+00    0.2038384275E-01    0.9986076506E-01    0.2889212078E-04
    0.7000000000E+04    0.1305166462E-01    0.6958057667E+00    0.2512030405E-01    0.1284865202E+00    0.2943915251E-04
    0.9000000000E+04    0.1430131898E-01    0.6958495946E+00    0.2875282255E-01    0.1531447561E+00    0.2985413672E-04
    0.1100000000E+05    0.1506508415E-01    0.6958774273E+00    0.3157774452E-01    0.1747496495E+00    0.3018952898E-04
    0.1300000000E+05    0.1549237933E-01    0.6958966546E+00    0.3379627516E-01    0.1939402617E+00    0.3047152060E-04
    0.1500000000E+05    0.1568341401E-01    0.6959107233E+00    0.3554957571E-01    0.2111781720E+00    0.3071511989E-04
    0.1700000000E+05    0.1570703781E-01    0.6959214572E+00    0.3693945995E-01    0.2268061649E+00    0.3092974640E-04
    0.1900000000E+05    0.1561150979E-01    0.6959299119E+00    0.3804111694E-01    0.2410849685E+00    0.3112170859E-04
    0.2100000000E+05    0.1543122130E-01    0.6959367400E+00    0.3891121523E-01    0.2542170673E+00    0.3129544265E-04
    0.2300000000E+05    0.1519101809E-01    0.6959423672E+00    0.3959322677E-01    0.2663626089E+00    0.3145418923E-04
    0.2500000000E+05    0.1490905053E-01    0.6959470827E+00    0.4012101975E-01    0.2776503132E+00    0.3160038909E-04
    0.2700000000E+05    0.1459869576E-01    0.6959510898E+00    0.4052134177E-01    0.2881851312E+00    0.3173592733E-04
    0.2900000000E+05    0.1426987937E-01    0.6959545358E+00    0.4081557253E-01    0.2980537337E+00    0.3186229068E-04
    0.3100000000E+05    0.1393000038E-01    0.6959575296E+00    0.4102098467E-01    0.3073285203E+00    0.3198067285E-04
    0.3300000000E+05    0.1358458840E-01    0.6959601539E+00    0.4115166628E-01    0.3160705953E+00    0.3209204702E-04
    0.3500000000E+05    0.1323777710E-01    0.6959624725E+00    0.4121920637E-01    0.3243320129E+00    0.3219721722E-04
    0.3700000000E+05    0.1289264944E-01    0.6959645351E+00    0.4123321128E-01    0.3321574924E+00    0.3229685554E-04
    0.3900000000E+05    0.1255149235E-01    0.6959663815E+00    0.4120169883E-01    0.3395857476E+00    0.3239152961E-04
    0.4100000000E+05    0.1221598618E-01    0.6959680434E+00    0.4113140253E-01    0.3466505280E+00    0.3248172326E-04
    0.4300000000E+05    0.1188734718E-01    0.6959695468E+00    0.4102800905E-01    0.3533814433E+00    0.3256785230E-04
    0.4500000000E+05    0.1156643526E-01    0.6959709129E+00    0.4089634524E-01    0.3598046233E+00    0.3265027676E-04
    0.4700000000E+05    0.1125383618E-01    0.6959721595E+00    0.4074052693E-01    0.3659432506E+00    0.3272931047E-04
    0.4900000000E+05    0.1094992459E-01    0.6959733013E+00    0.4056407820E-01    0.3718179943E+00    0.3280522869E-04
    0.1000000000E+05    0.1473316809E-01    0.6958649099E+00    0.3025193148E-01    0.1642838733E+00    0.3002978002E-04
    0.3000000000E+05    0.1410093957E-01    0.6959560835E+00    0.4092843478E-01    0.3027612995E+00    0.3192241411E-04
    0.5000000000E+05    0.1080129817E-01    0.6959738369E+00    0.4046908099E-01    0.3746622707E+00    0.3284209647E-04
    0.7000000000E+05    0.8285263423E-02    0.6959812397E+00    0.3803183186E-01    0.4213217423E+00    0.3346222254E-04
    0.9000000000E+05    0.6495664342E-02    0.6959852362E+00    0.3530003310E-01    0.4546363632E+00    0.3393300104E-04
    0.1100000000E+06    0.5208489010E-02    0.6959877045E+00    0.3270506515E-01    0.4797941856E+00    0.3431364978E-04
    0.1300000000E+06    0.4260641169E-02    0.6959893607E+00    0.3035549421E-01    0.4995311144E+00    0.3463378038E-04
    0.1500000000E+06    0.3545709341E-02    0.6959905363E+00    0.2826163718E-01    0.5154577514E+00    0.3491037893E-04
    0.1700000000E+06    0.2994528783E-02    0.6959914051E+00    0.2640331408E-01    0.5285942323E+00    0.3515411391E-04
    0.1900000000E+06    0.2561290237E-02    0.6959920671E+00    0.2475265961E-01    0.5396219317E+00    0.3537213391E-04
    0.2100000000E+06    0.2214922395E-02    0.6959925834E+00    0.2328205011E-01    0.5490149038E+00    0.3556946786E-04
    0.2300000000E+06    0.1933843031E-02    0.6959929937E+00    0.2196667387E-01    0.5571138908E+00    0.3574979052E-04
    0.2500000000E+06    0.1702723886E-02    0.6959933245E+00    0.2078510427E-01    0.5641704659E+00    0.3591587029E-04
    0.2700000000E+06    0.1510455076E-02    0.6959935946E+00    0.1971914385E-01    0.5703745975E+00    0.3606984574E-04
    0.2900000000E+06    0.1348834762E-02    0.6959938172E+00    0.1875343476E-01    0.5758725214E+00    0.3621340380E-04
    0.3100000000E+06    0.1211706553E-02    0.6959940022E+00    0.1787502982E-01    0.5807786989E+00    0.3634789910E-04
    0.3300000000E+06    0.1094379470E-02    0.6959941568E+00    0.1707299580E-01    0.5851840377E+00    0.3647443615E-04
    0.3500000000E+06    0.9932301512E-03    0.6959942868E+00    0.1633807098E-01    0.5891616747E+00    0.3659392757E-04
    0.3700000000E+06    0.9054250325E-03    0.6959943964E+00    0.1566237844E-01    0.5927711301E+00    0.3670713631E-04
    0.3900000000E+06    0.8287230570E-03    0.6959944891E+00    0.1503919000E-01    0.5960613438E+00    0.3681470677E-04
    0.4100000000E+06    0.7613333928E-03    0.6959945676E+00    0.1446273274E-01    0.5990729322E+00    0.3691718826E-04
    0.4300000000E+06    0.7018113654E-03    0.6959946342E+00    0.1392803112E-01    0.6018398894E+00    0.3701505290E-04
    0.4500000000E+06    0.6489813416E-03    0.6959946906E+00    0.1343077783E-01    0.6043908866E+00    0.3710870949E-04
    0.4700000000E+06    0.6018788930E-03    0.6959947383E+00    0.1296722798E-01    0.6067502766E+00    0.3719851440E-04
    0.4900000000E+06    0.5597069334E-03    0.6959947784E+00    0.1253411214E-01    0.6089388787E+00    0.3728478020E-04
    0.1000000000E+06    0.5801040705E-02    0.6959866031E+00    0.3397498803E-01    0.4680279719E+00    0.3413232920E-04
    0.3000000000E+06    0.1277531307E-02    0.6959939139E+00    0.1830404551E-01    0.5783934220E+00    0.3628171018E-04
    0.5000000000E+06    0.5402581183E-03    0.6959947960E+00    0.1232805738E-01    0.6099748293E+00    0.3732667336E-04
    0.7000000000E+06    0.2959193294E-03    0.6959949297E+00    0.9267214858E-02    0.6249888195E+00    0.3803135540E-04
    0.9000000000E+06    0.1862227920E-03    0.6959948666E+00    0.7414918777E-02    0.6337638322E+00    0.3856635304E-04
    0.1100000000E+07    0.1278044741E-03    0.6959947381E+00    0.6175440383E-02    0.6395188536E+00    0.3899893841E-04
    0.1300000000E+07    0.9307334910E-04    0.6959945871E+00    0.5288581033E-02    0.6435833954E+00    0.3936275477E-04
    0.1500000000E+07    0.7077020343E-04    0.6959944305E+00    0.4622952512E-02    0.6466065187E+00    0.3967710234E-04
    0.1700000000E+07    0.5560688130E-04    0.6959942753E+00    0.4105139056E-02    0.6489427697E+00    0.3995410361E-04
    0.1900000000E+07    0.4483428792E-04    0.6959941246E+00    0.3690931754E-02    0.6508021973E+00    0.4020188176E-04
    0.2100000000E+07    0.3690888609E-04    0.6959939796E+00    0.3352131288E-02    0.6523171521E+00    0.4042615146E-04
    0.2300000000E+07    0.3090994829E-04    0.6959938406E+00    0.3069908569E-02    0.6535751670E+00    0.4063108863E-04
    0.2500000000E+07    0.2626073899E-04    0.6959937078E+00    0.2831214343E-02    0.6546364440E+00    0.4081983933E-04
    0.2700000000E+07    0.2258512380E-04    0.6959935807E+00    0.2626721195E-02    0.6555437472E+00    0.4099483382E-04
    0.2900000000E+07    0.1962934338E-04    0.6959934592E+00    0.2449585948E-02    0.6563282890E+00    0.4115798920E-04
    0.3100000000E+07    0.1721718571E-04    0.6959933428E+00    0.2294674839E-02    0.6570133829E+00    0.4131084492E-04
    0.3300000000E+07    0.1522320421E-04    0.6959932312E+00    0.2158061515E-02    0.6576167933E+00    0.4145465620E-04
    0.3500000000E+07    0.1355613433E-04    0.6959931242E+00    0.2036692032E-02    0.6581522931E+00    0.4159046019E-04
    0.3700000000E+07    0.1214830093E-04    0.6959930212E+00    0.1928155473E-02    0.6586307248E+00    0.4171912395E-04
    0.3900000000E+07    0.1094866548E-04    0.6959929222E+00    0.1830523288E-02    0.6590607407E+00    0.4184137983E-04
    0.4100000000E+07    0.9918151094E-05    0.6959928268E+00    0.1742234488E-02    0.6594493289E+00    0.4195785208E-04
    0.4300000000E+07    0.9026430948E-05    0.6959927348E+00    0.1662012122E-02    0.6598021949E+00    0.4206907728E-04
    0.4500000000E+07    0.8249679180E-05    0.6959926459E+00    0.1588801526E-02    0.6601240433E+00    0.4217552002E-04
    0.4700000000E+07    0.7568968258E-05    0.6959925600E+00    0.1521724008E-02    0.6604187873E+00    0.4227758530E-04
    0.4900000000E+07    0.6969108904E-05    0.6959924768E+00    0.1460041639E-02    0.6606897091E+00    0.4237562835E-04
    0.1000000000E+07    0.1529261640E-03    0.6959948069E+00    0.6739206740E-02    0.6369122982E+00    0.3879287686E-04
    0.3000000000E+07    0.1836411069E-04    0.6959934003E+00    0.2369621514E-02    0.6566820478E+00    0.4123562029E-04
    0.5000000000E+07    0.6695559686E-05    0.6959924362E+00    0.1431024728E-02    0.6608171203E+00    0.4242324090E-04
    0.7000000000E+07    0.3433434549E-05    0.6959917348E+00    0.1023149457E-02    0.6626058757E+00    0.4322412976E-04
    0.9000000000E+07    0.2083657670E-05    0.6959911827E+00    0.7954115099E-03    0.6636033027E+00    0.4383216918E-04
    0.1100000000E+08    0.1398631615E-05    0.6959907266E+00    0.6501831144E-03    0.6642391593E+00    0.4432381467E-04
    0.1300000000E+08    0.1004079593E-05    0.6959903373E+00    0.5495565402E-03    0.6646797760E+00    0.4473730239E-04
    0.1500000000E+08    0.7563148579E-06    0.6959899971E+00    0.4757485786E-03    0.6650030520E+00    0.4509456747E-04
    0.1700000000E+08    0.5906249531E-06    0.6959896948E+00    0.4193147651E-03    0.6652503218E+00    0.4540938742E-04
    0.1900000000E+08    0.4743863230E-06    0.6959894224E+00    0.3747762908E-03    0.6654455520E+00    0.4569099443E-04
    0.2100000000E+08    0.3897070617E-06    0.6959891744E+00    0.3387371153E-03    0.6656035946E+00    0.4594588339E-04
    0.2300000000E+08    0.3261106691E-06    0.6959889466E+00    0.3089805720E-03    0.6657341430E+00    0.4617880036E-04
    0.2500000000E+08    0.2771324884E-06    0.6959887359E+00    0.2839985291E-03    0.6658437923E+00    0.4639332091E-04
    0.2700000000E+08    0.2386082678E-06    0.6959885397E+00    0.2627293756E-03    0.6659371851E+00    0.4659220712E-04
