  Pressure (Pa) 22mC5-500 (mol/kg) 24mC5-500 (mol/kg) 2mC6-500 (mol/kg) 3mC6-500 (mol/kg) C7-500 (mol/kg)
    0.1000000000E+01    0.6099122302E-05    0.1741054175E+00    0.1302049577E-04    0.1600281527E-05    0.4190189583E-02
    0.3000000000E+01    0.1129685530E-04    0.3481139879E+00    0.2287617854E-04    0.4091529648E-05    0.4224801360E-02
    0.5000000000E+01    0.1348093737E-04    0.4350843770E+00    0.2679864565E-04    0.6381725633E-05    0.4240964589E-02
    0.7000000000E+01    0.1466654017E-04    0.4872568114E+00    0.2919741699E-04    0.8574578224E-05    0.4250614976E-02
    0.9000000000E+01    0.1544348358E-04    0.5220347512E+00    0.3116312486E-04    0.1070511426E-04    0.4257050944E-02
    0.1100000000E+02    0.1603326473E-04    0.5468745062E+00    0.3303019639E-04    0.1279087379E-04    0.4261644493E-02
    0.1300000000E+02    0.1653233774E-04    0.5655035134E+00    0.3491047738E-04    0.1484230277E-04    0.4265077256E-02
    0.1500000000E+02    0.1698696017E-04    0.5799923039E+00    0.3684022606E-04    0.1686628784E-04    0.4267728349E-02
    0.1700000000E+02    0.1742080354E-04    0.5915830836E+00    0.3882801953E-04    0.1886768646E-04    0.4269826237E-02
    0.1900000000E+02    0.1784650695E-04    0.6010662944E+00    0.4087214582E-04    0.2085009482E-04    0.4271517180E-02
    0.2100000000E+02    0.1827098212E-04    0.6089688710E+00    0.4296735172E-04    0.2281627424E-04    0.4272899356E-02
    0.2300000000E+02    0.1869802857E-04    0.6156556003E+00    0.4510753996E-04    0.2476840631E-04    0.4274041239E-02
    0.2500000000E+02    0.1912969664E-04    0.6213870366E+00    0.4728683103E-04    0.2670825462E-04    0.4274992114E-02
    0.2700000000E+02    0.1956702999E-04    0.6263542482E+00    0.4949994159E-04    0.2863727195E-04    0.4275788409E-02
    0.2900000000E+02    0.2001048473E-04    0.6307005337E+00    0.5174227499E-04    0.3055667410E-04    0.4276457661E-02
    0.3100000000E+02    0.2046017260E-04    0.6345354726E+00    0.5400989425E-04    0.3246749227E-04    0.4277021097E-02
    0.3300000000E+02    0.2091600534E-04    0.6379442922E+00    0.5629945229E-04    0.3437061125E-04    0.4277495355E-02
    0.3500000000E+02    0.2137778166E-04    0.6409942765E+00    0.5860811187E-04    0.3626679786E-04    0.4277893679E-02
    0.3700000000E+02    0.2184524020E-04    0.6437392523E+00    0.6093346892E-04    0.3815672257E-04    0.4278226745E-02
    0.3900000000E+02    0.2231809193E-04    0.6462227934E+00    0.6327348429E-04    0.4004097620E-04    0.4278503263E-02
    0.4100000000E+02    0.2279603989E-04    0.6484805505E+00    0.6562642516E-04    0.4192008304E-04    0.4278730415E-02
    0.4300000000E+02    0.2327879101E-04    0.6505419744E+00    0.6799081560E-04    0.4379451121E-04    0.4278914178E-02
    0.4500000000E+02    0.2376606308E-04    0.6524316072E+00    0.7036539530E-04    0.4566468112E-04    0.4279059573E-02
    0.4700000000E+02    0.2425758850E-04    0.6541700641E+00    0.7274908527E-04    0.4753097221E-04    0.4279170848E-02
    0.4900000000E+02    0.2475311610E-04    0.6557747887E+00    0.7514095942E-04    0.4939372856E-04    0.4279251622E-02
    0.1000000000E+02    0.1575404939E-04    0.5354101636E+00    0.3209928556E-04    0.1175282829E-04    0.4259525575E-02
    0.3000000000E+02    0.2023455158E-04    0.6326761105E+00    0.5287314597E-04    0.3151309783E-04    0.4276751475E-02
    0.5000000000E+02    0.2500230690E-04    0.6565317326E+00    0.7633971204E-04    0.5032388023E-04    0.4279281560E-02
    0.7000000000E+02    0.3014820525E-04    0.6673154360E+00    0.1006010789E-03    0.6880482234E-04    0.4278843791E-02
    0.9000000000E+02    0.3551752679E-04    0.6734607832E+00    0.1252191987E-03    0.8716982228E-04    0.4277232926E-02
    0.1100000000E+03    0.4103975405E-04    0.6774306373E+00    0.1500879074E-03    0.1055284802E-03    0.4275011068E-02
    0.1300000000E+03    0.4668155428E-04    0.6802064352E+00    0.1751874220E-03    0.1239481113E-03    0.4272415317E-02
    0.1500000000E+03    0.5242636522E-04    0.6822564425E+00    0.2005245990E-03    0.1424749316E-03    0.4269564161E-02
    0.1700000000E+03    0.5826587791E-04    0.6838323847E+00    0.2261150018E-03    0.1611432441E-03    0.4266523669E-02
    0.1900000000E+03    0.6419616896E-04    0.6850816445E+00    0.2519767976E-03    0.1799800494E-03    0.4263333578E-02
    0.2100000000E+03    0.7021579720E-04    0.6860962489E+00    0.2781285601E-03    0.1990076061E-03    0.4260019117E-02
    0.2300000000E+03    0.7632480272E-04    0.6869366273E+00    0.3045884951E-03    0.2182449625E-03    0.4256596936E-02
    0.2500000000E+03    0.8252415163E-04    0.6876441006E+00    0.3313742179E-03    0.2377089274E-03    0.4253078325E-02
    0.2700000000E+03    0.8881541452E-04    0.6882478808E+00    0.3585027469E-03    0.2574147155E-03    0.4249471069E-02
    0.2900000000E+03    0.9520057381E-04    0.6887692036E+00    0.3859905803E-03    0.2773763920E-03    0.4245780572E-02
    0.3100000000E+03    0.1016819052E-03    0.6892238770E+00    0.4138537967E-03    0.2976071912E-03    0.4242010568E-02
    0.3300000000E+03    0.1082619034E-03    0.6896239112E+00    0.4421081599E-03    0.3181197489E-03    0.4238163585E-02
    0.3500000000E+03    0.1149432349E-03    0.6899785943E+00    0.4707692164E-03    0.3389262792E-03    0.4234241255E-02
    0.3700000000E+03    0.1217287080E-03    0.6902952222E+00    0.4998523836E-03    0.3600387097E-03    0.4230244537E-02
    0.3900000000E+03    0.1286212537E-03    0.6905796058E+00    0.5293730283E-03    0.3814687893E-03    0.4226173860E-02
    0.4100000000E+03    0.1356239146E-03    0.6908364300E+00    0.5593465368E-03    0.4032281741E-03    0.4222029241E-02
    0.4300000000E+03    0.1427398377E-03    0.6910695143E+00    0.5897883774E-03    0.4253284987E-03    0.4217810357E-02
    0.4500000000E+03    0.1499722718E-03    0.6912820037E+00    0.6207141557E-03    0.4477814359E-03    0.4213516611E-02
    0.4700000000E+03    0.1573245658E-03    0.6914765110E+00    0.6521396659E-03    0.4705987477E-03    0.4209147170E-02
    0.4900000000E+03    0.1648001706E-03    0.6916552251E+00    0.6840809369E-03    0.4937923297E-03    0.4204701003E-02
    0.1000000000E+03    0.3826215639E-04    0.6756384411E+00    0.1376244525E-03    0.9634508328E-04    0.4276179491E-02
    0.3000000000E+03    0.9842906656E-04    0.6890040465E+00    0.3998742742E-03    0.2874573498E-03    0.4243905327E-02
    0.5000000000E+03    0.1685853210E-03    0.6917392486E+00    0.7002500665E-03    0.5055339858E-03    0.4202448776E-02
    0.7000000000E+03    0.2517011599E-03    0.6929173572E+00    0.1054932644E-02    0.7632342225E-03    0.4152998391E-02
    0.9000000000E+03    0.3521092086E-03    0.6935731399E+00    0.1483122862E-02    0.1074684270E-02    0.4093630082E-02
    0.1100000000E+04    0.4758780404E-03    0.6939908009E+00    0.2011052911E-02    0.1459115199E-02    0.4021225405E-02
    0.1300000000E+04    0.6318214365E-03    0.6942800311E+00    0.2676638588E-02    0.1944336417E-02    0.3931180579E-02
    0.1500000000E+04    0.8331570253E-03    0.6944921258E+00    0.3536710492E-02    0.2572075187E-02    0.3816646650E-02
    0.1700000000E+04    0.1100269685E-02    0.6946542784E+00    0.4678988488E-02    0.3406826782E-02    0.3667242201E-02
    0.1900000000E+04    0.1465234425E-02    0.6947822472E+00    0.6241719062E-02    0.4550415966E-02    0.3467040547E-02
    0.2100000000E+04    0.1978431089E-02    0.6948857935E+00    0.8442595361E-02    0.6163591786E-02    0.3191956269E-02
    0.2300000000E+04    0.2714134113E-02    0.6949712866E+00    0.1160399225E-01    0.8485436488E-02    0.2808784866E-02
    0.2500000000E+04    0.3756623283E-02    0.6950430591E+00    0.1609583704E-01    0.1179325032E-01    0.2286216018E-02
    0.2700000000E+04    0.5115712454E-02    0.6951041606E+00    0.2197542502E-01    0.1614004513E-01    0.1641777525E-02
    0.2900000000E+04    0.6576698322E-02    0.6951567996E+00    0.2833736337E-01    0.2087335373E-01    0.1008392930E-02
    0.3100000000E+04    0.7788845072E-02    0.6952026150E+00    0.3367590406E-01    0.2488847395E-01    0.5601450359E-03
    0.3300000000E+04    0.8630504108E-02    0.6952428485E+00    0.3745241016E-01    0.2777854342E-01    0.3274300576E-03
    0.3500000000E+04    0.9214320899E-02    0.6952784578E+00    0.4013717455E-01    0.2987918971E-01    0.2283320790E-03
    0.3700000000E+04    0.9666259165E-02    0.6953101938E+00    0.4226609839E-01    0.3158021486E-01    0.1900113507E-03
    0.3900000000E+04    0.1005557494E-01    0.6953386531E+00    0.4413546968E-01    0.3309834757E-01    0.1758654186E-03
    0.4100000000E+04    0.1041273923E-01    0.6953643160E+00    0.4587590995E-01    0.3452935314E-01    0.1708633462E-03
    0.4300000000E+04    0.1075027469E-01    0.6953875733E+00    0.4754097165E-01    0.3591242872E-01    0.1692629213E-03
    0.4500000000E+04    0.1107335192E-01    0.6954087464E+00    0.4915251968E-01    0.3726342502E-01    0.1689201751E-03
    0.4700000000E+04    0.1138424454E-01    0.6954281018E+00    0.5071990234E-01    0.3858894623E-01    0.1690382823E-03
    0.4900000000E+04    0.1168409129E-01    0.6954458627E+00    0.5224756397E-01    0.3989197101E-01    0.1693206283E-03
    0.1000000000E+04    0.4106024101E-03    0.6938028289E+00    0.1732592184E-02    0.1256290092E-02    0.4059303443E-02
    0.3000000000E+04    0.7229643450E-02    0.6951804749E+00    0.3120312931E-01    0.2302162604E-01    0.7548635619E-03
    0.5000000000E+04    0.1183009630E-01    0.6954542052E+00    0.5299732024E-01    0.4053555932E-01    0.1694853930E-03
    0.7000000000E+04    0.1428326097E-01    0.6955705360E+00    0.6629254007E-01    0.5244386318E-01    0.1726548334E-03
    0.9000000000E+04    0.1604283002E-01    0.6956345899E+00    0.7698310618E-01    0.6284127975E-01    0.1750912402E-03
    0.1100000000E+05    0.1731341634E-01    0.6956749760E+00    0.8574197764E-01    0.7207608642E-01    0.1770598196E-03
    0.1300000000E+05    0.1823050198E-01    0.6957026708E+00    0.9302847539E-01    0.8039189069E-01    0.1787146700E-03
    0.1500000000E+05    0.1888678579E-01    0.6957227835E+00    0.9916699752E-01    0.8796495194E-01    0.1801440390E-03
    0.1700000000E+05    0.1934742366E-01    0.6957380115E+00    0.1043931653E+00    0.9492635087E-01    0.1814032883E-03
    0.1900000000E+05    0.1965926707E-01    0.6957499123E+00    0.1088822561E+00    0.1013758791E+00    0.1825294826E-03
    0.2100000000E+05    0.1985666797E-01    0.6957594472E+00    0.1127673722E+00    0.1073910580E+00    0.1835486799E-03
    0.2300000000E+05    0.1996524036E-01    0.6957672415E+00    0.1161514186E+00    0.1130331790E+00    0.1844799121E-03
    0.2500000000E+05    0.2000436367E-01    0.6957737191E+00    0.1191152193E+00    0.1183514569E+00    0.1853375111E-03
    0.2700000000E+05    0.1998888848E-01    0.6957791773E+00    0.1217231473E+00    0.1233859550E+00    0.1861325446E-03
    0.2900000000E+05    0.1993032285E-01    0.6957838310E+00    0.1240271156E+00    0.1281696886E+00    0.1868737407E-03
    0.3100000000E+05    0.1983767282E-01    0.6957878390E+00    0.1260694588E+00    0.1327301646E+00    0.1875681062E-03
    0.3300000000E+05    0.1971804777E-01    0.6957913212E+00    0.1278850492E+00    0.1370905282E+00    0.1882213534E-03
    0.3500000000E+05    0.1957710281E-01    0.6957943699E+00    0.1295028760E+00    0.1412704304E+00    0.1888382013E-03
    0.3700000000E+05    0.1941936663E-01    0.6957970572E+00    0.1309472378E+00    0.1452866917E+00    0.1894225942E-03
    0.3900000000E+05    0.1924848722E-01    0.6957994402E+00    0.1322386570E+00    0.1491538180E+00    0.1899778633E-03
    0.4100000000E+05    0.1906741823E-01    0.6958015648E+00    0.1333945871E+00    0.1528844044E+00    0.1905068478E-03
    0.4300000000E+05    0.1887856166E-01    0.6958034682E+00    0.1344299671E+00    0.1564894560E+00    0.1910119877E-03
    0.4500000000E+05    0.1868387820E-01    0.6958051808E+00    0.1353576592E+00    0.1599786448E+00    0.1914953955E-03
    0.4700000000E+05    0.1848497323E-01    0.6958067278E+00    0.1361887981E+00    0.1633605165E+00    0.1919589127E-03
    0.4900000000E+05    0.1828316441E-01    0.6958081304E+00    0.1369330721E+00    0.1666426598E+00    0.1924041543E-03
    0.1000000000E+05    0.1672953910E-01    0.6956568490E+00    0.8157142323E-01    0.6758686681E-01    0.1761222281E-03
    0.3000000000E+05    0.1988777544E-01    0.6957859075E+00    0.1250786566E+00    0.1304762963E+00    0.1872263939E-03
    0.5000000000E+05    0.1818151756E-01    0.6958087831E+00    0.1372753237E+00    0.1682484775E+00    0.1926203735E-03
    0.7000000000E+05    0.1617467412E-01    0.6958173520E+00    0.1411438695E+00    0.1964462746E+00    0.1962571263E-03
    0.9000000000E+05    0.1439336824E-01    0.6958214206E+00    0.1417226334E+00    0.2193741288E+00    0.1990179104E-03
    0.1100000000E+06    0.1288179083E-01    0.6958235648E+00    0.1407547152E+00    0.2388705266E+00    0.2012500917E-03
    0.1300000000E+06    0.1160539049E-01    0.6958247382E+00    0.1389950100E+00    0.2559093064E+00    0.2031273541E-03
    0.1500000000E+06    0.1052177722E-01    0.6958253686E+00    0.1368171802E+00    0.2710777763E+00    0.2047493225E-03
    0.1700000000E+06    0.9594350507E-02    0.6958256734E+00    0.1344229362E+00    0.2847621770E+00    0.2061785661E-03
    0.1900000000E+06    0.8793834041E-02    0.6958257730E+00    0.1319277094E+00    0.2972326894E+00    0.2074570094E-03
    0.2100000000E+06    0.8097247543E-02    0.6958257389E+00    0.1294001804E+00    0.3086872209E+00    0.2086141449E-03
    0.2300000000E+06    0.7486560090E-02    0.6958256153E+00    0.1268821998E+00    0.3192759963E+00    0.2096715233E-03
    0.2500000000E+06    0.6947533324E-02    0.6958254310E+00    0.1243995303E+00    0.3291163190E+00    0.2106453797E-03
    0.2700000000E+06    0.6468823276E-02    0.6958252051E+00    0.1219679569E+00    0.3383019158E+00    0.2115482553E-03
    0.2900000000E+06    0.6041304739E-02    0.6958249506E+00    0.1195969150E+00    0.3469091126E+00    0.2123900429E-03
    0.3100000000E+06    0.5657566924E-02    0.6958246768E+00    0.1172917208E+00    0.3550010646E+00    0.2131786863E-03
    0.3300000000E+06    0.5311536128E-02    0.6958243901E+00    0.1150549830E+00    0.3626307433E+00    0.2139206626E-03
    0.3500000000E+06    0.4998191512E-02    0.6958240953E+00    0.1128875176E+00    0.3698431002E+00    0.2146213237E-03
    0.3700000000E+06    0.4713349186E-02    0.6958237957E+00    0.1107889520E+00    0.3766766700E+00    0.2152851434E-03
    0.3900000000E+06    0.4453496633E-02    0.6958234938E+00    0.1087581308E+00    0.3831647814E+00    0.2159159007E-03
    0.4100000000E+06    0.4215664543E-02    0.6958231916E+00    0.1067933917E+00    0.3893364869E+00    0.2165168167E-03
    0.4300000000E+06    0.3997326676E-02    0.6958228903E+00    0.1048927546E+00    0.3952172891E+00    0.2170906600E-03
    0.4500000000E+06    0.3796320936E-02    0.6958225910E+00    0.1030540522E+00    0.4008297142E+00    0.2176398279E-03
    0.4700000000E+06    0.3610786630E-02    0.6958222944E+00    0.1012750208E+00    0.4061937716E+00    0.2181664101E-03
    0.4900000000E+06    0.3439114193E-02    0.6958220010E+00    0.9955336278E-01    0.4113273250E+00    0.2186722395E-03
    0.1000000000E+06    0.1360550175E-01    0.6958226550E+00    0.1413719249E+00    0.2294779823E+00    0.2001868061E-03
    0.3000000000E+06    0.5844370469E-02    0.6958248157E+00    0.1184358730E+00    0.3510159735E+00    0.2127905730E-03
    0.5000000000E+06    0.3358031705E-02    0.6958218557E+00    0.9871333248E-01    0.4138127343E+00    0.2189178845E-03
    0.7000000000E+06    0.2205240262E-02    0.6958191681E+00    0.8440049986E-01    0.4545679802E+00    0.2230498378E-03
    0.9000000000E+06    0.1566652247E-02    0.6958168813E+00    0.7367291479E-01    0.4836242931E+00    0.2261868041E-03
    0.1100000000E+07    0.1173109036E-02    0.6958149162E+00    0.6535221047E-01    0.5055310506E+00    0.2287232566E-03
    0.1300000000E+07    0.9124450467E-03    0.6958131996E+00    0.5871364499E-01    0.5226930656E+00    0.2308564720E-03
    0.1500000000E+07    0.7304907243E-03    0.6958116774E+00    0.5329471137E-01    0.5365253235E+00    0.2326996216E-03
    0.1700000000E+07    0.5982795051E-03    0.6958103105E+00    0.4878776065E-01    0.5479228108E+00    0.2343237881E-03
    0.1900000000E+07    0.4991108352E-03    0.6958090702E+00    0.4498049960E-01    0.5574823945E+00    0.2357766029E-03
    0.2100000000E+07    0.4227788484E-03    0.6958079348E+00    0.4172177361E-01    0.5656187410E+00    0.2370915749E-03
    0.2300000000E+07    0.3627494560E-03    0.6958068878E+00    0.3890104996E-01    0.5726295310E+00    0.2382931903E-03
    0.2500000000E+07    0.3146765875E-03    0.6958059162E+00    0.3643563174E-01    0.5787343058E+00    0.2393998960E-03
    0.2700000000E+07    0.2755757296E-03    0.6958050098E+00    0.3426241249E-01    0.5840986896E+00    0.2404259424E-03
    0.2900000000E+07    0.2433409941E-03    0.6958041602E+00    0.3233239764E-01    0.5888500737E+00    0.2413825704E-03
    0.3100000000E+07    0.2164513140E-03    0.6958033605E+00    0.3060696732E-01    0.5930880979E+00    0.2422788066E-03
    0.3300000000E+07    0.1937854361E-03    0.6958026052E+00    0.2905526749E-01    0.5968918477E+00    0.2431220111E-03
    0.3500000000E+07    0.1745018973E-03    0.6958018894E+00    0.2765235076E-01    0.6003249122E+00    0.2439182654E-03
    0.3700000000E+07    0.1579591014E-03    0.6958012092E+00    0.2637782722E-01    0.6034390149E+00    0.2446726534E-03
    0.3900000000E+07    0.1436608594E-03    0.6958005610E+00    0.2521486895E-01    0.6062766646E+00    0.2453894692E-03
    0.4100000000E+07    0.1312185129E-03    0.6957999420E+00    0.2414946467E-01    0.6088731249E+00    0.2460723732E-03
    0.4300000000E+07    0.1203241026E-03    0.6957993495E+00    0.2316985406E-01    0.6112578979E+00    0.2467245116E-03
    0.4500000000E+07    0.1107310443E-03    0.6957987813E+00    0.2226609316E-01    0.6134558570E+00    0.2473486085E-03
    0.4700000000E+07    0.1022400013E-03    0.6957982355E+00    0.2142971679E-01    0.6154881215E+00    0.2479470386E-03
    0.4900000000E+07    0.9468841395E-04    0.6957977103E+00    0.2065347350E-01    0.6173727404E+00    0.2485218848E-03
    0.1000000000E+07    0.1348251230E-02    0.6958158636E+00    0.6926487918E-01    0.4952895123E+00    0.2275150223E-03
    0.3000000000E+07    0.2293058222E-03    0.6958037545E+00    0.3144619505E-01    0.5910278989E+00    0.2418377436E-03
    0.5000000000E+07    0.9122219753E-04    0.6957974550E+00    0.2028591498E-01    0.6182646185E+00    0.2488010466E-03
    0.7000000000E+07    0.4861841793E-04    0.6957931339E+00    0.1495066203E-01    0.6311757418E+00    0.2534967911E-03
    0.9000000000E+07    0.3012738236E-04    0.6957898267E+00    0.1182713652E-01    0.6387066022E+00    0.2570617965E-03
    0.1100000000E+08    0.2047390498E-04    0.6957871398E+00    0.9777596803E-02    0.6436380609E+00    0.2599443515E-03
    0.1300000000E+08    0.1480948707E-04    0.6957848726E+00    0.8330090497E-02    0.6471166159E+00    0.2623686481E-03
    0.1500000000E+08    0.1120570981E-04    0.6957829092E+00    0.7253706687E-02    0.6497011925E+00    0.2644632991E-03
    0.1700000000E+08    0.8772564772E-05    0.6957811760E+00    0.6422160254E-02    0.6516967441E+00    0.2663090861E-03
    0.1900000000E+08    0.7053240418E-05    0.6957796234E+00    0.5760584430E-02    0.6532837591E+00    0.2679601399E-03
    0.2100000000E+08    0.5793736016E-05    0.6957782165E+00    0.5221789307E-02    0.6545758639E+00    0.2694545417E-03
    0.2300000000E+08    0.4843698956E-05    0.6957769297E+00    0.4774559780E-02    0.6556481499E+00    0.2708201188E-03
    0.2500000000E+08    0.4109534142E-05    0.6957757435E+00    0.4397426301E-02    0.6565522270E+00    0.2720778354E-03
    0.2700000000E+08    0.3530514209E-05    0.6957746429E+00    0.4075138791E-02    0.6573247333E+00    0.2732438863E-03
