  Pressure (Pa) 22mC5-500 (mol/kg) 24mC5-500 (mol/kg) 2mC6-500 (mol/kg) 3mC6-500 (mol/kg) C7-500 (mol/kg)
    0.1000000000E+01    0.5634048096E-05    0.2142822867E+00    0.2412692298E-05    0.5388658963E-05    0.4166589380E-02
    0.3000000000E+01    0.9643006357E-05    0.3978541465E+00    0.3942256474E-05    0.1356031148E-04    0.4186984573E-02
    0.5000000000E+01    0.1118266832E-04    0.4801162345E+00    0.4571672035E-05    0.2102874669E-04    0.4193554769E-02
    0.7000000000E+01    0.1205387194E-04    0.5267979273E+00    0.5037858260E-05    0.2816239090E-04    0.4196796548E-02
    0.9000000000E+01    0.1269121733E-04    0.5568788818E+00    0.5478481557E-05    0.3508434238E-04    0.4198616203E-02
    0.1100000000E+02    0.1323772779E-04    0.5778775395E+00    0.5925500761E-05    0.4185587436E-04    0.4199685496E-02
    0.1300000000E+02    0.1374907433E-04    0.5933677148E+00    0.6385704361E-05    0.4851332143E-04    0.4200308031E-02
    0.1500000000E+02    0.1424915105E-04    0.6052656097E+00    0.6859137820E-05    0.5508055728E-04    0.4200642321E-02
    0.1700000000E+02    0.1474875223E-04    0.6146910019E+00    0.7344130694E-05    0.6157437513E-04    0.4200779564E-02
    0.1900000000E+02    0.1525279682E-04    0.6223420682E+00    0.7838779736E-05    0.6800717919E-04    0.4200776067E-02
    0.2100000000E+02    0.1576341636E-04    0.6286767329E+00    0.8341374479E-05    0.7438847549E-04    0.4200668524E-02
    0.2300000000E+02    0.1628137491E-04    0.6340078253E+00    0.8850488251E-05    0.8072576195E-04    0.4200481891E-02
    0.2500000000E+02    0.1680675840E-04    0.6385563287E+00    0.9364964731E-05    0.8702509124E-04    0.4200233740E-02
    0.2700000000E+02    0.1733932236E-04    0.6424827830E+00    0.9883876808E-05    0.9329144339E-04    0.4199936804E-02
    0.2900000000E+02    0.1787867198E-04    0.6459066274E+00    0.1040648326E-04    0.9952898188E-04    0.4199600537E-02
    0.3100000000E+02    0.1842435642E-04    0.6489185627E+00    0.1093219096E-04    0.1057412351E-03    0.4199232105E-02
    0.3300000000E+02    0.1897591801E-04    0.6515887041E+00    0.1146052400E-04    0.1119312286E-03    0.4198837037E-02
    0.3500000000E+02    0.1953291714E-04    0.6539721077E+00    0.1199109921E-04    0.1181015830E-03    0.4198419668E-02
    0.3700000000E+02    0.2009494408E-04    0.6561126077E+00    0.1252360706E-04    0.1242545891E-03    0.4197983439E-02
    0.3900000000E+02    0.2066162344E-04    0.6580455366E+00    0.1305779658E-04    0.1303922648E-03    0.4197531122E-02
    0.4100000000E+02    0.2123261492E-04    0.6597996915E+00    0.1359346375E-04    0.1365164010E-03    0.4197064968E-02
    0.4300000000E+02    0.2180761190E-04    0.6613987777E+00    0.1413044228E-04    0.1426285966E-03    0.4196586825E-02
    0.4500000000E+02    0.2238633919E-04    0.6628624872E+00    0.1466859640E-04    0.1487302880E-03    0.4196098225E-02
    0.4700000000E+02    0.2296855027E-04    0.6642073130E+00    0.1520781514E-04    0.1548227718E-03    0.4195600446E-02
    0.4900000000E+02    0.2355402450E-04    0.6654471734E+00    0.1574800778E-04    0.1609072245E-03    0.4195094563E-02
    0.1000000000E+02    0.1297124213E-04    0.5682354242E+00    0.5700503262E-05    0.3848625453E-04    0.4199220804E-02
    0.3000000000E+02    0.1815075117E-04    0.6474592939E+00    0.1066898163E-04    0.1026380696E-03    0.4199419964E-02
    0.5000000000E+02    0.2384792278E-04    0.6660315084E+00    0.1601844559E-04    0.1639467780E-03    0.4194838872E-02
    0.7000000000E+02    0.2985922017E-04    0.6743212958E+00    0.2146643738E-04    0.2245338198E-03    0.4189460615E-02
    0.9000000000E+02    0.3606547703E-04    0.6790165028E+00    0.2697959840E-04    0.2851349035E-03    0.4183790727E-02
    0.1100000000E+03    0.4242487082E-04    0.6820385289E+00    0.3256008332E-04    0.3461343171E-03    0.4177961913E-02
    0.1300000000E+03    0.4892263045E-04    0.6841464806E+00    0.3821630220E-04    0.4077756494E-03    0.4172018531E-02
    0.1500000000E+03    0.5555484746E-04    0.6857005883E+00    0.4395741698E-04    0.4702333566E-03    0.4165976026E-02
    0.1700000000E+03    0.6232253165E-04    0.6868937754E+00    0.4979219562E-04    0.5336436720E-03    0.4159838488E-02
    0.1900000000E+03    0.6922914792E-04    0.6878386846E+00    0.5572885598E-04    0.5981200911E-03    0.4153604993E-02
    0.2100000000E+03    0.7627950039E-04    0.6886055018E+00    0.6177514529E-04    0.6637619745E-03    0.4147272215E-02
    0.2300000000E+03    0.8347919453E-04    0.6892402366E+00    0.6793846260E-04    0.7306597146E-03    0.4140835595E-02
    0.2500000000E+03    0.9083436784E-04    0.6897743068E+00    0.7422597434E-04    0.7988980386E-03    0.4134289900E-02
    0.2700000000E+03    0.9835155357E-04    0.6902298982E+00    0.8064471244E-04    0.8685582336E-03    0.4127629496E-02
    0.2900000000E+03    0.1060376138E-03    0.6906231232E+00    0.8720165533E-04    0.9397197167E-03    0.4120848487E-02
    0.3100000000E+03    0.1138997101E-03    0.6909659662E+00    0.9390379511E-04    0.1012461191E-02    0.4113940772E-02
    0.3300000000E+03    0.1219452963E-03    0.6912675259E+00    0.1007581939E-03    0.1086861534E-02    0.4106900080E-02
    0.3500000000E+03    0.1301821226E-03    0.6915348346E+00    0.1077720321E-03    0.1163000501E-02    0.4099719968E-02
    0.3700000000E+03    0.1386182490E-03    0.6917734132E+00    0.1149526511E-03    0.1240959308E-02    0.4092393816E-02
    0.3900000000E+03    0.1472620620E-03    0.6919876566E+00    0.1223075910E-03    0.1320821140E-02    0.4084914818E-02
    0.4100000000E+03    0.1561222967E-03    0.6921811068E+00    0.1298446262E-03    0.1402671584E-02    0.4077275958E-02
    0.4300000000E+03    0.1652080597E-03    0.6923566503E+00    0.1375717984E-03    0.1486599044E-02    0.4069469998E-02
    0.4500000000E+03    0.1745288555E-03    0.6925166629E+00    0.1454974489E-03    0.1572695115E-02    0.4061489447E-02
    0.4700000000E+03    0.1840946138E-03    0.6926631180E+00    0.1536302498E-03    0.1661054958E-02    0.4053326549E-02
    0.4900000000E+03    0.1939157197E-03    0.6927976683E+00    0.1619792355E-03    0.1751777652E-02    0.4044973249E-02
    0.1000000000E+03    0.3922732091E-04    0.6806752991E+00    0.2976094488E-04    0.3155674387E-03    0.4180892384E-02
    0.3000000000E+03    0.1099461984E-03    0.6908002173E+00    0.9053413647E-04    0.9758880384E-03    0.4117410856E-02
    0.5000000000E+03    0.1989254055E-03    0.6928609236E+00    0.1662377277E-03    0.1798057193E-02    0.4040722595E-02
    0.7000000000E+03    0.3155387953E-03    0.6937475852E+00    0.2653585143E-03    0.2876206696E-02    0.3943427155E-02
    0.9000000000E+03    0.4749809094E-03    0.6942409967E+00    0.4009694110E-03    0.4353659688E-02    0.3814217438E-02
    0.1100000000E+04    0.7036318077E-03    0.6945552448E+00    0.5956838577E-03    0.6478615291E-02    0.3634199256E-02
    0.1300000000E+04    0.1049834090E-02    0.6947728915E+00    0.8909907039E-03    0.9707394081E-02    0.3370012876E-02
    0.1500000000E+04    0.1603581510E-02    0.6949325283E+00    0.1364364999E-02    0.1489488919E-01    0.2962806215E-02
    0.1700000000E+04    0.2511785301E-02    0.6950546080E+00    0.2143170409E-02    0.2345611249E-01    0.2327056889E-02
    0.1900000000E+04    0.3863332463E-02    0.6951509808E+00    0.3308047321E-02    0.3632526120E-01    0.1450580272E-02
    0.2100000000E+04    0.5296048755E-02    0.6952289868E+00    0.4554892096E-02    0.5022961975E-01    0.6451195588E-03
    0.2300000000E+04    0.6284403130E-02    0.6952934149E+00    0.5432223125E-02    0.6019831597E-01    0.2389180108E-03
    0.2500000000E+04    0.6894874557E-02    0.6953475226E+00    0.5991455560E-02    0.6673724976E-01    0.1085947128E-03
    0.2700000000E+04    0.7349036680E-02    0.6953936027E+00    0.6420241082E-02    0.7188448012E-01    0.7411183891E-04
    0.2900000000E+04    0.7744922830E-02    0.6954333161E+00    0.6802210567E-02    0.7655511187E-01    0.6558395182E-04
    0.3100000000E+04    0.8112611283E-02    0.6954678949E+00    0.7163021705E-02    0.8103013953E-01    0.6361868247E-04
    0.3300000000E+04    0.8460849296E-02    0.6954982729E+00    0.7510022675E-02    0.8538905391E-01    0.6328551507E-04
    0.3500000000E+04    0.8792500160E-02    0.6955251704E+00    0.7845492007E-02    0.8965532171E-01    0.6335311387E-04
    0.3700000000E+04    0.9108836076E-02    0.6955491519E+00    0.8170338969E-02    0.9383727381E-01    0.6351415843E-04
    0.3900000000E+04    0.9410682517E-02    0.6955706663E+00    0.8485094795E-02    0.9793911156E-01    0.6369197824E-04
    0.4100000000E+04    0.9698721580E-02    0.6955900748E+00    0.8790176283E-02    0.1019638445E+00    0.6386775729E-04
    0.4300000000E+04    0.9973573503E-02    0.6956076714E+00    0.9085956496E-02    0.1059140781E+00    0.6403724842E-04
    0.4500000000E+04    0.1023581966E-01    0.6956236979E+00    0.9372784326E-02    0.1097922287E+00    0.6419985415E-04
    0.4700000000E+04    0.1048601004E-01    0.6956383548E+00    0.9650990453E-02    0.1136005863E+00    0.6435585593E-04
    0.4900000000E+04    0.1072466642E-01    0.6956518101E+00    0.9920889612E-02    0.1173413349E+00    0.6450571140E-04
    0.1000000000E+04    0.5783294931E-03    0.6944138114E+00    0.4889445227E-03    0.5313290882E-02    0.3732194447E-02
    0.3000000000E+04    0.7931514023E-02    0.6954511831E+00    0.6984602716E-02    0.7880991118E-01    0.6423750816E-04
    0.5000000000E+04    0.1083982524E-01    0.6956581323E+00    0.1005281839E-01    0.1191870120E+00    0.6457847916E-04
    0.7000000000E+04    0.1264556446E-01    0.6957464746E+00    0.1232126888E-01    0.1530135436E+00    0.6580167706E-04
    0.9000000000E+04    0.1373234687E-01    0.6957953434E+00    0.1402736170E-01    0.1819771599E+00    0.6672948050E-04
    0.1100000000E+05    0.1433835473E-01    0.6958263028E+00    0.1532440642E-01    0.2071958727E+00    0.6747928526E-04
    0.1300000000E+05    0.1461769520E-01    0.6958476376E+00    0.1631635869E-01    0.2294520750E+00    0.6810967973E-04
    0.1500000000E+05    0.1467286924E-01    0.6958632096E+00    0.1707601948E-01    0.2493114876E+00    0.6865423121E-04
    0.1700000000E+05    0.1457360112E-01    0.6958750606E+00    0.1765577846E-01    0.2671947502E+00    0.6913400497E-04
    0.1900000000E+05    0.1436819147E-01    0.6958843711E+00    0.1809422105E-01    0.2834222622E+00    0.6956310774E-04
    0.2100000000E+05    0.1409059334E-01    0.6958918710E+00    0.1842033719E-01    0.2982432482E+00    0.6995145894E-04
    0.2300000000E+05    0.1376495015E-01    0.6958980355E+00    0.1865628565E-01    0.3118551690E+00    0.7030630437E-04
    0.2500000000E+05    0.1340857871E-01    0.6959031875E+00    0.1881925895E-01    0.3244170299E+00    0.7063310121E-04
    0.2700000000E+05    0.1303397276E-01    0.6959075538E+00    0.1892277181E-01    0.3360587207E+00    0.7093606404E-04
    0.2900000000E+05    0.1265017425E-01    0.6959112982E+00    0.1897757028E-01    0.3468877086E+00    0.7121851680E-04
    0.3100000000E+05    0.1226372764E-01    0.6959145425E+00    0.1899228542E-01    0.3569939260E+00    0.7148312817E-04
    0.3300000000E+05    0.1187935375E-01    0.6959173784E+00    0.1897391146E-01    0.3664534013E+00    0.7173207382E-04
    0.3500000000E+05    0.1150043172E-01    0.6959198767E+00    0.1892816087E-01    0.3753309973E+00    0.7196715122E-04
    0.3700000000E+05    0.1112934770E-01    0.6959220930E+00    0.1885973184E-01    0.3836825078E+00    0.7218986286E-04
    0.3900000000E+05    0.1076774969E-01    0.6959240711E+00    0.1877251216E-01    0.3915562823E+00    0.7240147768E-04
    0.4100000000E+05    0.1041673533E-01    0.6959258464E+00    0.1866973668E-01    0.3989945015E+00    0.7260307727E-04
    0.4300000000E+05    0.1007699149E-01    0.6959274476E+00    0.1855410989E-01    0.4060341889E+00    0.7279559118E-04
    0.4500000000E+05    0.9748898554E-02    0.6959288983E+00    0.1842790256E-01    0.4127080219E+00    0.7297982421E-04
    0.4700000000E+05    0.9432608948E-02    0.6959302181E+00    0.1829302841E-01    0.4190449879E+00    0.7315647793E-04
    0.4900000000E+05    0.9128106377E-02    0.6959314232E+00    0.1815110552E-01    0.4250709205E+00    0.7332616762E-04
    0.1000000000E+05    0.1408431361E-01    0.6958123884E+00    0.1471962212E-01    0.1949995585E+00    0.6712215450E-04
    0.3000000000E+05    0.1245695058E-01    0.6959129766E+00    0.1898946743E-01    0.3520261217E+00    0.7135290665E-04
    0.5000000000E+05    0.8980235302E-02    0.6959319871E+00    0.1807793799E-01    0.4279745699E+00    0.7340857306E-04
    0.7000000000E+05    0.6573772933E-02    0.6959396664E+00    0.1648463186E-01    0.4742366098E+00    0.7479464436E-04
    0.9000000000E+05    0.4968146342E-02    0.6959436697E+00    0.1493432427E-01    0.5055550512E+00    0.7584689165E-04
    0.1100000000E+06    0.3868242054E-02    0.6959460480E+00    0.1356587038E-01    0.5281829502E+00    0.7669768280E-04
    0.1300000000E+06    0.3089234211E-02    0.6959475760E+00    0.1238716227E-01    0.5452932414E+00    0.7741320639E-04
    0.1500000000E+06    0.2520125182E-02    0.6959486088E+00    0.1137563495E-01    0.5586794091E+00    0.7803142970E-04
    0.1700000000E+06    0.2092925230E-02    0.6959493309E+00    0.1050450124E-01    0.5694339348E+00    0.7857619863E-04
    0.1900000000E+06    0.1764656320E-02    0.6959498472E+00    0.9749657959E-02    0.5782606547E+00    0.7906349144E-04
    0.2100000000E+06    0.1507265288E-02    0.6959502213E+00    0.9091039358E-02    0.5856334426E+00    0.7950454853E-04
    0.2300000000E+06    0.1301887892E-02    0.6959504938E+00    0.8512375081E-02    0.5918829587E+00    0.7990758348E-04
    0.2500000000E+06    0.1135494468E-02    0.6959506920E+00    0.8000568378E-02    0.5972468862E+00    0.8027878411E-04
    0.2700000000E+06    0.9988675969E-03    0.6959508344E+00    0.7545067779E-02    0.6019004182E+00    0.8062293031E-04
    0.2900000000E+06    0.8853463547E-03    0.6959509343E+00    0.7137332904E-02    0.6059754973E+00    0.8094379263E-04
    0.3100000000E+06    0.7900248734E-03    0.6959510014E+00    0.6770407118E-02    0.6095733654E+00    0.8124439881E-04
    0.3300000000E+06    0.7092278623E-03    0.6959510426E+00    0.6438583758E-02    0.6127729887E+00    0.8152721755E-04
    0.3500000000E+06    0.6401594535E-03    0.6959510635E+00    0.6137147608E-02    0.6156368554E+00    0.8179428868E-04
    0.3700000000E+06    0.5806631678E-03    0.6959510681E+00    0.5862174796E-02    0.6182150543E+00    0.8204731746E-04
    0.3900000000E+06    0.5290547147E-03    0.6959510596E+00    0.5610377440E-02    0.6205482006E+00    0.8228774418E-04
    0.4100000000E+06    0.4840035076E-03    0.6959510405E+00    0.5378982403E-02    0.6226695716E+00    0.8251679662E-04
    0.4300000000E+06    0.4444473727E-03    0.6959510127E+00    0.5165636086E-02    0.6246066897E+00    0.8273553001E-04
    0.4500000000E+06    0.4095302612E-03    0.6959509779E+00    0.4968329167E-02    0.6263825136E+00    0.8294485806E-04
    0.4700000000E+06    0.3785561571E-03    0.6959509373E+00    0.4785336695E-02    0.6280163454E+00    0.8314557730E-04
    0.4900000000E+06    0.3509545504E-03    0.6959508919E+00    0.4615170084E-02    0.6295245296E+00    0.8333838634E-04
    0.1000000000E+06    0.4368727182E-02    0.6959449988E+00    0.1422559151E-01    0.5177124943E+00    0.7629241218E-04
    0.3000000000E+06    0.8356644141E-03    0.6959509715E+00    0.6949151485E-02    0.6078287033E+00    0.8109646208E-04
    0.5000000000E+06    0.3382678971E-03    0.6959508678E+00    0.4534486239E-02    0.6302359395E+00    0.8343201996E-04
    0.7000000000E+06    0.1814048249E-03    0.6959502786E+00    0.3356117587E-02    0.6403692176E+00    0.8500702206E-04
    0.9000000000E+06    0.1127497907E-03    0.6959496459E+00    0.2660692488E-02    0.6461398801E+00    0.8620276749E-04
    0.1100000000E+07    0.7675277100E-04    0.6959490470E+00    0.2202476917E-02    0.6498647202E+00    0.8716961483E-04
    0.1300000000E+07    0.5557589016E-04    0.6959484949E+00    0.1878039377E-02    0.6524672864E+00    0.8798275922E-04
    0.1500000000E+07    0.4207984163E-04    0.6959479884E+00    0.1636375836E-02    0.6543881083E+00    0.8868533802E-04
    0.1700000000E+07    0.3295682653E-04    0.6959475227E+00    0.1449456509E-02    0.6558638964E+00    0.8930444579E-04
    0.1900000000E+07    0.2650457043E-04    0.6959470926E+00    0.1300609619E-02    0.6570331751E+00    0.8985823833E-04
    0.2100000000E+07    0.2177475349E-04    0.6959466937E+00    0.1179301813E-02    0.6579823985E+00    0.9035948828E-04
    0.2300000000E+07    0.1820522337E-04    0.6959463218E+00    0.1078553129E-02    0.6587683108E+00    0.9081752909E-04
    0.2500000000E+07    0.1544564682E-04    0.6959459738E+00    0.9935561596E-03    0.6594296960E+00    0.9123939235E-04
    0.2700000000E+07    0.1326851385E-04    0.6959456468E+00    0.9208923675E-03    0.6599939619E+00    0.9163050985E-04
    0.2900000000E+07    0.1152088590E-04    0.6959453384E+00    0.8580646464E-03    0.6604810250E+00    0.9199516643E-04
    0.3100000000E+07    0.1009688844E-04    0.6959450467E+00    0.8032066715E-03    0.6609057063E+00    0.9233680280E-04
    0.3300000000E+07    0.8921349747E-05    0.6959447698E+00    0.7548956877E-03    0.6612792622E+00    0.9265822445E-04
    0.3500000000E+07    0.7939708748E-05    0.6959445064E+00    0.7120282079E-03    0.6616103955E+00    0.9296174949E-04
    0.3700000000E+07    0.7111590266E-05    0.6959442552E+00    0.6737352739E-03    0.6619059401E+00    0.9324931583E-04
    0.3900000000E+07    0.6406600306E-05    0.6959440151E+00    0.6393233336E-03    0.6621713377E+00    0.9352256028E-04
    0.4100000000E+07    0.5801506252E-05    0.6959437852E+00    0.6082321377E-03    0.6624109744E+00    0.9378287813E-04
    0.4300000000E+07    0.5278304269E-05    0.6959435645E+00    0.5800042025E-03    0.6626284251E+00    0.9403146860E-04
    0.4500000000E+07    0.4822868722E-05    0.6959433525E+00    0.5542622959E-03    0.6628266328E+00    0.9426937009E-04
    0.4700000000E+07    0.4423991621E-05    0.6959431483E+00    0.5306925913E-03    0.6630080421E+00    0.9449748780E-04
    0.4900000000E+07    0.4072688515E-05    0.6959429515E+00    0.5090318921E-03    0.6631747005E+00    0.9471661568E-04
    0.1000000000E+07    0.9217852709E-04    0.6959493408E+00    0.2410195064E-02    0.6481834911E+00    0.8670905838E-04
    0.3000000000E+07    0.1077371030E-04    0.6959451906E+00    0.8297370652E-03    0.6607003901E+00    0.9216867388E-04
    0.5000000000E+07    0.3912549474E-05    0.6959428557E+00    0.4988465535E-03    0.6632530488E+00    0.9482303053E-04
    0.7000000000E+07    0.2006143221E-05    0.6959412226E+00    0.3559731950E-03    0.6643511025E+00    0.9661302782E-04
    0.9000000000E+07    0.1219247523E-05    0.6959399604E+00    0.2764397399E-03    0.6649619560E+00    0.9797200090E-04
    0.1100000000E+08    0.8203126517E-06    0.6959389285E+00    0.2258108675E-03    0.6653509074E+00    0.9907083059E-04
    0.1300000000E+08    0.5906227450E-06    0.6959380540E+00    0.1907717287E-03    0.6656202500E+00    0.9999497595E-04
    0.1500000000E+08    0.4463774524E-06    0.6959372941E+00    0.1650923250E-03    0.6658177864E+00    0.1007934627E-03
    0.1700000000E+08    0.3498824503E-06    0.6959366213E+00    0.1454698844E-03    0.6659688449E+00    0.1014970838E-03
    0.1900000000E+08    0.2821503215E-06    0.6959360172E+00    0.1299909498E-03    0.6660880970E+00    0.1021264736E-03
    0.2100000000E+08    0.2327732420E-06    0.6959354687E+00    0.1174706530E-03    0.6661846281E+00    0.1026961481E-03
    0.2300000000E+08    0.1956590202E-06    0.6959349661E+00    0.1071362184E-03    0.6662643649E+00    0.1032167151E-03
    0.2500000000E+08    0.1670491139E-06    0.6959345020E+00    0.9846221881E-04    0.6663313380E+00    0.1036961659E-03
    0.2700000000E+08    0.1445226308E-06    0.6959340708E+00    0.9107899004E-04    0.6663883842E+00    0.1041406738E-03
