  Pressure (Pa) 22mC5-500 (mol/kg) 24mC5-500 (mol/kg) 2mC6-500 (mol/kg) 3mC6-500 (mol/kg) C7-500 (mol/kg)
    0.1000000000E+01    0.7489848352E-05    0.6964680394E-01    0.2602912798E-04    0.7519053971E-06    0.4216238064E-02
    0.3000000000E+01    0.1796401319E-04    0.1740609311E+00    0.6034904083E-04    0.1938832797E-05    0.4299694263E-02
    0.5000000000E+01    0.2486405880E-04    0.2486031984E+00    0.8149593023E-04    0.3034107284E-05    0.4358251682E-02
    0.7000000000E+01    0.2966243446E-04    0.3044898716E+00    0.9537714915E-04    0.4084894642E-05    0.4402363375E-02
    0.9000000000E+01    0.3314004549E-04    0.3479463036E+00    0.1049904364E-03    0.5107204517E-05    0.4436909168E-02
    0.1100000000E+02    0.3574666454E-04    0.3827050979E+00    0.1119877304E-03    0.6109075174E-05    0.4464750611E-02
    0.1300000000E+02    0.3775724197E-04    0.4111402845E+00    0.1173328019E-03    0.7095302430E-05    0.4487699203E-02
    0.1500000000E+02    0.3934783409E-04    0.4348338934E+00    0.1216129077E-03    0.8069052257E-05    0.4506962101E-02
    0.1700000000E+02    0.4063545787E-04    0.4548808154E+00    0.1251983105E-03    0.9032560171E-05    0.4523376221E-02
    0.1900000000E+02    0.4170031259E-04    0.4720629072E+00    0.1283288950E-03    0.9987482685E-05    0.4537540735E-02
    0.2100000000E+02    0.4259879287E-04    0.4869534065E+00    0.1311634888E-03    0.1093509271E-04    0.4549896252E-02
    0.2300000000E+02    0.4337142627E-04    0.4999821645E+00    0.1338090734E-03    0.1187639662E-04    0.4560774235E-02
    0.2500000000E+02    0.4404788528E-04    0.5114778424E+00    0.1363386666E-03    0.1281220841E-04    0.4570428970E-02
    0.2700000000E+02    0.4465024727E-04    0.5216960338E+00    0.1388025839E-03    0.1374319903E-04    0.4579058893E-02
    0.2900000000E+02    0.4519517006E-04    0.5308385024E+00    0.1412357042E-03    0.1466993026E-04    0.4586821198E-02
    0.3100000000E+02    0.4569537703E-04    0.5390666446E+00    0.1436622582E-03    0.1559287883E-04    0.4593842075E-02
    0.3300000000E+02    0.4616069133E-04    0.5465111054E+00    0.1460990416E-03    0.1651245399E-04    0.4600224033E-02
    0.3500000000E+02    0.4659876884E-04    0.5532787690E+00    0.1485576080E-03    0.1742901056E-04    0.4606051238E-02
    0.3700000000E+02    0.4701562613E-04    0.5594579265E+00    0.1510457850E-03    0.1834285896E-04    0.4611393465E-02
    0.3900000000E+02    0.4741602614E-04    0.5651221505E+00    0.1535687366E-03    0.1925427285E-04    0.4616309066E-02
    0.4100000000E+02    0.4780376354E-04    0.5703332394E+00    0.1561297155E-03    0.2016349516E-04    0.4620847228E-02
    0.4300000000E+02    0.4818187850E-04    0.5751434826E+00    0.1587306004E-03    0.2107074294E-04    0.4625049720E-02
    0.4500000000E+02    0.4855281842E-04    0.5795974215E+00    0.1613722831E-03    0.2197621119E-04    0.4628952250E-02
    0.4700000000E+02    0.4891856157E-04    0.5837332336E+00    0.1640549502E-03    0.2288007598E-04    0.4632585533E-02
    0.4900000000E+02    0.4928071243E-04    0.5875838300E+00    0.1667782872E-03    0.2378249710E-04    0.4635976138E-02
    0.1000000000E+02    0.3453208011E-04    0.3662410758E+00    0.1087444026E-03    0.5610344707E-05    0.4451536770E-02
    0.3000000000E+02    0.4545019088E-04    0.5350580707E+00    0.1424486077E-03    0.1513185039E-04    0.4590417424E-02
    0.5000000000E+02    0.4946085854E-04    0.5894112366E+00    0.1681550095E-03    0.2423321227E-04    0.4637587779E-02
    0.7000000000E+02    0.5308708141E-04    0.6162445555E+00    0.1975785121E-03    0.3320124715E-04    0.4661369939E-02
    0.9000000000E+02    0.5696176535E-04    0.6322367187E+00    0.2298262316E-03    0.4213557214E-04    0.4675418065E-02
    0.1100000000E+03    0.6114164340E-04    0.6428535997E+00    0.2640435765E-03    0.5108761864E-04    0.4684375334E-02
    0.1300000000E+03    0.6559924460E-04    0.6504153108E+00    0.2997245897E-03    0.6008929081E-04    0.4690281689E-02
    0.1500000000E+03    0.7029975440E-04    0.6560746638E+00    0.3365767279E-03    0.6916276545E-04    0.4694184122E-02
    0.1700000000E+03    0.7521425508E-04    0.6604692762E+00    0.3744280537E-03    0.7832474379E-04    0.4696679701E-02
    0.1900000000E+03    0.8032079991E-04    0.6639804530E+00    0.4131763294E-03    0.8758858695E-04    0.4698135898E-02
    0.2100000000E+03    0.8560321555E-04    0.6668502184E+00    0.4527611894E-03    0.9696550258E-04    0.4698792321E-02
    0.2300000000E+03    0.9104974905E-04    0.6692395895E+00    0.4931484413E-03    0.1064652556E-03    0.4698812410E-02
    0.2500000000E+03    0.9665197181E-04    0.6712598513E+00    0.5343208796E-03    0.1160966197E-03    0.4698311733E-02
    0.2700000000E+03    0.1024039617E-03    0.6729903811E+00    0.5762727187E-03    0.1258676775E-03    0.4697374431E-02
    0.2900000000E+03    0.1083017070E-03    0.6744893189E+00    0.6190061149E-03    0.1357860293E-03    0.4696063251E-02
    0.3100000000E+03    0.1143426735E-03    0.6758002250E+00    0.6625289340E-03    0.1458589421E-03    0.4694425916E-02
    0.3300000000E+03    0.1205254890E-03    0.6769563803E+00    0.7068532863E-03    0.1560934601E-03    0.4692499318E-02
    0.3500000000E+03    0.1268497107E-03    0.6779836497E+00    0.7519945466E-03    0.1664964890E-03    0.4690312355E-02
    0.3700000000E+03    0.1333156531E-03    0.6789024384E+00    0.7979706900E-03    0.1770748614E-03    0.4687887906E-02
    0.3900000000E+03    0.1399242594E-03    0.6797290607E+00    0.8448018373E-03    0.1878353893E-03    0.4685244236E-02
    0.4100000000E+03    0.1466770049E-03    0.6804767159E+00    0.8925099421E-03    0.1987849076E-03    0.4682396004E-02
    0.4300000000E+03    0.1535758227E-03    0.6811561978E+00    0.9411185770E-03    0.2099303099E-03    0.4679355023E-02
    0.4500000000E+03    0.1606230490E-03    0.6817764192E+00    0.9906527891E-03    0.2212785801E-03    0.4676130816E-02
    0.4700000000E+03    0.1678213803E-03    0.6823448041E+00    0.1041139005E-02    0.2328368193E-03    0.4672731043E-02
    0.4900000000E+03    0.1751738411E-03    0.6828675864E+00    0.1092604972E-02    0.2446122710E-03    0.4669161831E-02
    0.1000000000E+03    0.5901475925E-04    0.6380321544E+00    0.2467267996E-03    0.4660708462E-04    0.4680371930E-02
    0.3000000000E+03    0.1113043975E-03    0.6751659939E+00    0.6406681758E-03    0.1408027212E-03    0.4695282832E-02
    0.5000000000E+03    0.1789088991E-03    0.6831135567E+00    0.1118714388E-02    0.2505837594E-03    0.4667315245E-02
    0.7000000000E+03    0.2626802528E-03    0.6865745248E+00    0.1700240593E-02    0.3833628055E-03    0.4622158360E-02
    0.9000000000E+03    0.3675455259E-03    0.6885107776E+00    0.2422886272E-02    0.5481931998E-03    0.4560892566E-02
    0.1100000000E+04    0.5015117279E-03    0.6897474737E+00    0.3343138799E-02    0.7581531087E-03    0.4480122360E-02
    0.1300000000E+04    0.6771225100E-03    0.6906054127E+00    0.4547969057E-02    0.1033256997E-02    0.4373130983E-02
    0.1500000000E+04    0.9144449590E-03    0.6912352885E+00    0.6175948725E-02    0.1405381397E-02    0.4228739975E-02
    0.1700000000E+04    0.1246399996E-02    0.6917172343E+00    0.8454407478E-02    0.1926885557E-02    0.4028735510E-02
    0.1900000000E+04    0.1727388752E-02    0.6920977901E+00    0.1175973380E-01    0.2684664682E-02    0.3743919382E-02
    0.2100000000E+04    0.2442350483E-02    0.6924058344E+00    0.1668209967E-01    0.3815552588E-02    0.3331476289E-02
    0.2300000000E+04    0.3491171393E-02    0.6926602349E+00    0.2392362594E-01    0.5484157573E-02    0.2749587034E-02
    0.2500000000E+04    0.4869228700E-02    0.6928738395E+00    0.3348216087E-01    0.7696683019E-02    0.2030905795E-02
    0.2700000000E+04    0.6274554765E-02    0.6930556994E+00    0.4330891372E-01    0.9989129758E-02    0.1373409811E-02
    0.2900000000E+04    0.7332107101E-02    0.6932123746E+00    0.5081428214E-01    0.1176476568E-01    0.9721331277E-03
    0.3100000000E+04    0.8021756146E-02    0.6933487358E+00    0.5582742780E-01    0.1297716501E-01    0.7970968989E-03
    0.3300000000E+04    0.8506440880E-02    0.6934684747E+00    0.5945115480E-01    0.1387555909E-01    0.7339834284E-03
    0.3500000000E+04    0.8899412101E-02    0.6935744407E+00    0.6245982675E-01    0.1463674959E-01    0.7136544788E-03
    0.3700000000E+04    0.9250267848E-02    0.6936688678E+00    0.6519382719E-01    0.1533875066E-01    0.7081724038E-03
    0.3900000000E+04    0.9577949296E-02    0.6937535322E+00    0.6778303368E-01    0.1601131952E-01    0.7076637140E-03
    0.4100000000E+04    0.9889597931E-02    0.6938298639E+00    0.7027594072E-01    0.1666547374E-01    0.7087771109E-03
    0.4300000000E+04    0.1018809600E-01    0.6938990270E+00    0.7269158283E-01    0.1730542671E-01    0.7103859868E-03
    0.4500000000E+04    0.1047480284E-01    0.6939619787E+00    0.7503846006E-01    0.1793295702E-01    0.7121129166E-03
    0.4700000000E+04    0.1075052202E-01    0.6940195133E+00    0.7732125294E-01    0.1854896455E-01    0.7138330746E-03
    0.4900000000E+04    0.1101584255E-01    0.6940722956E+00    0.7954319770E-01    0.1915402265E-01    0.7155071538E-03
    0.1000000000E+04    0.4302396209E-03    0.6891905575E+00    0.2853779472E-02    0.6464880913E-03    0.4523281004E-02
    0.3000000000E+04    0.7712818985E-02    0.6932828407E+00    0.5356448724E-01    0.1242613183E-01    0.8640151139E-03
    0.5000000000E+04    0.1114476047E-01    0.6940970832E+00    0.8063218973E-01    0.1945258706E-01    0.7163231937E-03
    0.7000000000E+04    0.1327894159E-01    0.6944422829E+00    0.9975354982E-01    0.2493726690E-01    0.7300522719E-03
    0.9000000000E+04    0.1477086603E-01    0.6946317459E+00    0.1148936297E+00    0.2967313821E-01    0.7404338229E-03
    0.1100000000E+05    0.1582730440E-01    0.6947507729E+00    0.1271772980E+00    0.3384902142E-01    0.7488070351E-03
    0.1300000000E+05    0.1657882938E-01    0.6948320809E+00    0.1373404878E+00    0.3759205826E-01    0.7558376729E-03
    0.1500000000E+05    0.1711131396E-01    0.6948908884E+00    0.1458851801E+00    0.4099142787E-01    0.7619054155E-03
    0.1700000000E+05    0.1748314074E-01    0.6949352239E+00    0.1531656941E+00    0.4411180981E-01    0.7672477763E-03
    0.1900000000E+05    0.1773511458E-01    0.6949697187E+00    0.1594393851E+00    0.4700144544E-01    0.7720234426E-03
    0.2100000000E+05    0.1789642753E-01    0.6949972287E+00    0.1648977784E+00    0.4969717978E-01    0.7763438014E-03
    0.2300000000E+05    0.1798838298E-01    0.6950196092E+00    0.1696864169E+00    0.5222773336E-01    0.7802901043E-03
    0.2500000000E+05    0.1802679565E-01    0.6950381168E+00    0.1739179268E+00    0.5461589337E-01    0.7839234773E-03
    0.2700000000E+05    0.1802358099E-01    0.6950536322E+00    0.1776808604E+00    0.5688002180E-01    0.7872910841E-03
    0.2900000000E+05    0.1798783330E-01    0.6950667905E+00    0.1810458276E+00    0.5903511863E-01    0.7904300933E-03
    0.3100000000E+05    0.1792657254E-01    0.6950780609E+00    0.1840698415E+00    0.6109358735E-01    0.7933703263E-03
    0.3300000000E+05    0.1784527153E-01    0.6950877974E+00    0.1867994551E+00    0.6306579660E-01    0.7961360817E-03
    0.3500000000E+05    0.1774823419E-01    0.6950962718E+00    0.1892730667E+00    0.6496049918E-01    0.7987474243E-03
    0.3700000000E+05    0.1763887119E-01    0.6951036964E+00    0.1915226394E+00    0.6678514952E-01    0.8012211190E-03
    0.3900000000E+05    0.1751990351E-01    0.6951102390E+00    0.1935750016E+00    0.6854614743E-01    0.8035713192E-03
    0.4100000000E+05    0.1739351455E-01    0.6951160341E+00    0.1954528436E+00    0.7024902767E-01    0.8058100846E-03
    0.4300000000E+05    0.1726146522E-01    0.6951211909E+00    0.1971754904E+00    0.7189860905E-01    0.8079477765E-03
    0.4500000000E+05    0.1712518173E-01    0.6951257986E+00    0.1987595061E+00    0.7349911289E-01    0.8099933633E-03
    0.4700000000E+05    0.1698582339E-01    0.6951299308E+00    0.2002191727E+00    0.7505425814E-01    0.8119546609E-03
    0.4900000000E+05    0.1684433523E-01    0.6951336490E+00    0.2015668724E+00    0.7656733834E-01    0.8138385227E-03
    0.1000000000E+05    0.1534403805E-01    0.6946974035E+00    0.1213396727E+00    0.3182203147E-01    0.7448205036E-03
    0.3000000000E+05    0.1796001877E-01    0.6950726374E+00    0.1825973294E+00    0.6007574126E-01    0.7919234259E-03
    0.5000000000E+05    0.1677303953E-01    0.6951353692E+00    0.2022021615E+00    0.7730903265E-01    0.8147533318E-03
    0.7000000000E+05    0.1536131993E-01    0.6951570575E+00    0.2110379678E+00    0.9050242515E-01    0.8301371447E-03
    0.9000000000E+05    0.1409797033E-01    0.6951661924E+00    0.2154945267E+00    0.1015085188E+00    0.8418124264E-03
    0.1100000000E+06    0.1301274701E-01    0.6951701307E+00    0.2177569960E+00    0.1111055074E+00    0.8512507849E-03
    0.1300000000E+06    0.1208257342E-01    0.6951715465E+00    0.2187789719E+00    0.1197007398E+00    0.8591876096E-03
    0.1500000000E+06    0.1127965461E-01    0.6951716149E+00    0.2190427422E+00    0.1275373404E+00    0.8660445716E-03
    0.1700000000E+06    0.1058022850E-01    0.6951709198E+00    0.2188177337E+00    0.1347736644E+00    0.8720864365E-03
    0.1900000000E+06    0.9965391842E-02    0.6951697769E+00    0.2182656385E+00    0.1415194911E+00    0.8774905790E-03
    0.2100000000E+06    0.9420343341E-02    0.6951683676E+00    0.2174888728E+00    0.1478545649E+00    0.8823817604E-03
    0.2300000000E+06    0.8933472772E-02    0.6951668013E+00    0.2165550853E+00    0.1538389542E+00    0.8868511357E-03
    0.2500000000E+06    0.8495599211E-02    0.6951651461E+00    0.2155104756E+00    0.1595192378E+00    0.8909673707E-03
    0.2700000000E+06    0.8099388250E-02    0.6951634455E+00    0.2143874573E+00    0.1649324003E+00    0.8947835038E-03
    0.2900000000E+06    0.7738917830E-02    0.6951617278E+00    0.2132092792E+00    0.1701083930E+00    0.8983413707E-03
    0.3100000000E+06    0.7409356297E-02    0.6951600117E+00    0.2119929216E+00    0.1750718792E+00    0.9016745632E-03
    0.3300000000E+06    0.7106722645E-02    0.6951583095E+00    0.2107509735E+00    0.1798434594E+00    0.9048104696E-03
    0.3500000000E+06    0.6827706484E-02    0.6951566292E+00    0.2094928836E+00    0.1844405543E+00    0.9077717192E-03
    0.3700000000E+06    0.6569531549E-02    0.6951549761E+00    0.2082258139E+00    0.1888780555E+00    0.9105772288E-03
    0.3900000000E+06    0.6329851135E-02    0.6951533536E+00    0.2069552364E+00    0.1931688142E+00    0.9132429757E-03
    0.4100000000E+06    0.6106667175E-02    0.6951517634E+00    0.2056853556E+00    0.1973240146E+00    0.9157825788E-03
    0.4300000000E+06    0.5898266997E-02    0.6951502067E+00    0.2044194155E+00    0.2013534641E+00    0.9182077431E-03
    0.4500000000E+06    0.5703173419E-02    0.6951486838E+00    0.2031599236E+00    0.2052658212E+00    0.9205286035E-03
    0.4700000000E+06    0.5520105032E-02    0.6951471946E+00    0.2019088179E+00    0.2090687770E+00    0.9227539949E-03
    0.4900000000E+06    0.5347944303E-02    0.6951457386E+00    0.2006675922E+00    0.2127692014E+00    0.9248916659E-03
    0.1000000000E+06    0.1353420348E-01    0.6951685906E+00    0.2168244565E+00    0.1064524020E+00    0.8467550269E-03
    0.3000000000E+06    0.7570539846E-02    0.6951608687E+00    0.2126050001E+00    0.1726153283E+00    0.9000342134E-03
    0.5000000000E+06    0.5265643439E-02    0.6951450228E+00    0.2000510539E+00    0.2145829164E+00    0.9259297737E-03
    0.7000000000E+06    0.4008002214E-02    0.6951322485E+00    0.1883995898E+00    0.2466912929E+00    0.9433910716E-03
    0.9000000000E+06    0.3208047700E-02    0.6951218057E+00    0.1780835952E+00    0.2729693017E+00    0.9566470244E-03
    0.1100000000E+07    0.2652850642E-02    0.6951130111E+00    0.1689497729E+00    0.2952665280E+00    0.9673650252E-03
    0.1300000000E+07    0.2245035830E-02    0.6951054212E+00    0.1608064262E+00    0.3146245416E+00    0.9763788877E-03
    0.1500000000E+07    0.1933232712E-02    0.6950987454E+00    0.1534909358E+00    0.3317024345E+00    0.9841669249E-03
    0.1700000000E+07    0.1687592007E-02    0.6950927854E+00    0.1468732237E+00    0.3469501652E+00    0.9910295541E-03
    0.1900000000E+07    0.1489512454E-02    0.6950874008E+00    0.1408497994E+00    0.3606917581E+00    0.9971680766E-03
    0.2100000000E+07    0.1326769501E-02    0.6950824886E+00    0.1353376494E+00    0.3731699580E+00    0.1002724105E-02
    0.2300000000E+07    0.1190986317E-02    0.6950779712E+00    0.1302694049E+00    0.3845722350E+00    0.1007801118E-02
    0.2500000000E+07    0.1076225489E-02    0.6950737888E+00    0.1255897351E+00    0.3950469033E+00    0.1012477075E-02
    0.2700000000E+07    0.9781596179E-03    0.6950698940E+00    0.1212526807E+00    0.4047136181E+00    0.1016812194E-02
    0.2900000000E+07    0.8935599573E-03    0.6950662491E+00    0.1172196706E+00    0.4136704901E+00    0.1020853980E-02
    0.3100000000E+07    0.8199688739E-03    0.6950628232E+00    0.1134580324E+00    0.4219990687E+00    0.1024640577E-02
    0.3300000000E+07    0.7554831407E-03    0.6950595910E+00    0.1099398575E+00    0.4297679313E+00    0.1028203088E-02
    0.3500000000E+07    0.6986065253E-03    0.6950565312E+00    0.1066411263E+00    0.4370353291E+00    0.1031567211E-02
    0.3700000000E+07    0.6481470657E-03    0.6950536259E+00    0.1035410254E+00    0.4438511792E+00    0.1034754430E-02
    0.3900000000E+07    0.6031439585E-03    0.6950508600E+00    0.1006214078E+00    0.4502585890E+00    0.1037782891E-02
    0.4100000000E+07    0.5628145402E-03    0.6950482203E+00    0.9786636316E-01    0.4562950426E+00    0.1040668061E-02
    0.4300000000E+07    0.5265151953E-03    0.6950456955E+00    0.9526186989E-01    0.4619933359E+00    0.1043423235E-02
    0.4500000000E+07    0.4937120996E-03    0.6950432758E+00    0.9279551331E-01    0.4673823231E+00    0.1046059924E-02
    0.4700000000E+07    0.4639590270E-03    0.6950409526E+00    0.9045625388E-01    0.4724875184E+00    0.1048588162E-02
    0.4900000000E+07    0.4368803089E-03    0.6950387184E+00    0.8823423571E-01    0.4773315872E+00    0.1051016751E-02
    0.1000000000E+07    0.2907478602E-02    0.6951172346E+00    0.1733813678E+00    0.2845383804E+00    0.9622595630E-03
    0.3000000000E+07    0.8555182963E-03    0.6950645105E+00    0.1153067746E+00    0.4179087608E+00    0.1022777090E-02
    0.5000000000E+07    0.4242424116E-03    0.6950376324E+00    0.8716439600E-01    0.4796621037E+00    0.1052196139E-02
    0.7000000000E+07    0.2553657946E-03    0.6950192886E+00    0.7019606692E-01    0.5164885644E+00    0.1072034055E-02
    0.9000000000E+07    0.1710090173E-03    0.6950052832E+00    0.5878486366E-01    0.5411311108E+00    0.1087094458E-02
    0.1100000000E+08    0.1226461009E-03    0.6949939213E+00    0.5056854980E-01    0.5588240689E+00    0.1099271512E-02
    0.1300000000E+08    0.9229771258E-04    0.6949843447E+00    0.4436504774E-01    0.5721584028E+00    0.1109512474E-02
    0.1500000000E+08    0.7198838954E-04    0.6949760573E+00    0.3951369361E-01    0.5825732125E+00    0.1118360747E-02
    0.1700000000E+08    0.5772400649E-04    0.6949687460E+00    0.3561525517E-01    0.5909346454E+00    0.1126157635E-02
    0.1900000000E+08    0.4731976739E-04    0.6949622001E+00    0.3241390341E-01    0.5977961818E+00    0.1133131840E-02
    0.2100000000E+08    0.3949716422E-04    0.6949562708E+00    0.2973799495E-01    0.6035284081E+00    0.1139444249E-02
    0.2300000000E+08    0.3346695424E-04    0.6949508495E+00    0.2746801944E-01    0.6083889495E+00    0.1145212429E-02
    0.2500000000E+08    0.2872026909E-04    0.6949458537E+00    0.2551817884E-01    0.6125625315E+00    0.1150524950E-02
    0.2700000000E+08    0.2491694232E-04    0.6949412201E+00    0.2382527184E-01    0.6161850936E+00    0.1155450231E-02
