  Pressure (Pa) 22mC5-500 (mol/kg) 24mC5-500 (mol/kg) 2mC6-500 (mol/kg) 3mC6-500 (mol/kg) C7-500 (mol/kg)
    0.1000000000E+01    0.6079638750E-05    0.1741044183E+00    0.1035320848E-04    0.1545577861E-05    0.4199210818E-02
    0.3000000000E+01    0.1125343116E-04    0.3481094018E+00    0.1816018118E-04    0.3969732861E-05    0.4240692912E-02
    0.5000000000E+01    0.1341690178E-04    0.4350765318E+00    0.2123134450E-04    0.6202065700E-05    0.4260757345E-02
    0.7000000000E+01    0.1458336081E-04    0.4872463167E+00    0.2308825263E-04    0.8341049763E-05    0.4272899463E-02
    0.9000000000E+01    0.1534202637E-04    0.5220221083E+00    0.2460146403E-04    0.1042004998E-04    0.4281089603E-02
    0.1100000000E+02    0.1591410246E-04    0.5468600975E+00    0.2603757708E-04    0.1245580441E-04    0.4287002998E-02
    0.1300000000E+02    0.1639587280E-04    0.5654876302E+00    0.2748552217E-04    0.1445829446E-04    0.4291477245E-02
    0.1500000000E+02    0.1683348507E-04    0.5799751709E+00    0.2897395448E-04    0.1643410729E-04    0.4294979952E-02
    0.1700000000E+02    0.1725053485E-04    0.5915648771E+00    0.3050949310E-04    0.1838789316E-04    0.4297793638E-02
    0.1900000000E+02    0.1765960602E-04    0.6010471550E+00    0.3209059222E-04    0.2032309732E-04    0.4300099530E-02
    0.2100000000E+02    0.1806756863E-04    0.6089489126E+00    0.3371291618E-04    0.2224236690E-04    0.4302019476E-02
    0.2300000000E+02    0.1847818976E-04    0.6156349164E+00    0.3537148355E-04    0.2414779439E-04    0.4303638579E-02
    0.2500000000E+02    0.1889349387E-04    0.6213657048E+00    0.3706150805E-04    0.2604107220E-04    0.4305018174E-02
    0.2700000000E+02    0.1931450358E-04    0.6263323339E+00    0.3877869569E-04    0.2792359503E-04    0.4306203649E-02
    0.2900000000E+02    0.1974165756E-04    0.6306780922E+00    0.4051931337E-04    0.2979653053E-04    0.4307229352E-02
    0.3100000000E+02    0.2017505292E-04    0.6345125513E+00    0.4228016465E-04    0.3166086939E-04    0.4308121790E-02
    0.3300000000E+02    0.2061458896E-04    0.6379209321E+00    0.4405853194E-04    0.3351746186E-04    0.4308901764E-02
    0.3500000000E+02    0.2106005368E-04    0.6409705132E+00    0.4585211110E-04    0.3536704503E-04    0.4309585845E-02
    0.3700000000E+02    0.2151117641E-04    0.6437151170E+00    0.4765894900E-04    0.3721026348E-04    0.4310187406E-02
    0.3900000000E+02    0.2196765998E-04    0.6461983133E+00    0.4947738815E-04    0.3904768534E-04    0.4310717371E-02
    0.4100000000E+02    0.2242920023E-04    0.6484557501E+00    0.5130601913E-04    0.4087981480E-04    0.4311184754E-02
    0.4300000000E+02    0.2289549770E-04    0.6505168752E+00    0.5314364059E-04    0.4270710212E-04    0.4311597066E-02
    0.4500000000E+02    0.2336626444E-04    0.6524062285E+00    0.5498922584E-04    0.4452995164E-04    0.4311960621E-02
    0.4700000000E+02    0.2384122769E-04    0.6541444233E+00    0.5684189503E-04    0.4634872836E-04    0.4312280767E-02
    0.4900000000E+02    0.2432013163E-04    0.6557489015E+00    0.5870089221E-04    0.4816376325E-04    0.4312562068E-02
    0.1000000000E+02    0.1564368059E-04    0.5353965964E+00    0.2532143437E-04    0.1144260430E-04    0.4284266530E-02
    0.3000000000E+02    0.1995757795E-04    0.6326534236E+00    0.4139739012E-04    0.3072971847E-04    0.4307690815E-02
    0.5000000000E+02    0.2456098619E-04    0.6565057276E+00    0.5963255665E-04    0.4906997276E-04    0.4312689398E-02
    0.7000000000E+02    0.2953606730E-04    0.6672876207E+00    0.7848058675E-04    0.6705876582E-04    0.4313910506E-02
    0.9000000000E+02    0.3472515905E-04    0.6734317875E+00    0.9758150277E-04    0.8490167804E-04    0.4313625237E-02
    0.1100000000E+03    0.4005613875E-04    0.6774007906E+00    0.1168451218E-03    0.1027037001E-03    0.4312553459E-02
    0.1300000000E+03    0.4549456458E-04    0.6801759343E+00    0.1362519572E-03    0.1205289118E-03    0.4311002722E-02
    0.1500000000E+03    0.5102298921E-04    0.6822254159E+00    0.1558045514E-03    0.1384209102E-03    0.4309128892E-02
    0.1700000000E+03    0.5663232964E-04    0.6838009219E+00    0.1755127648E-03    0.1564116804E-03    0.4307020275E-02
    0.1900000000E+03    0.6231794457E-04    0.6850498106E+00    0.1953887178E-03    0.1745260532E-03    0.4304730968E-02
    0.2100000000E+03    0.6807770129E-04    0.6860640933E+00    0.2154449356E-03    0.1927841822E-03    0.4302296073E-02
    0.2300000000E+03    0.7391095718E-04    0.6869041883E+00    0.2356936726E-03    0.2112030264E-03    0.4299739381E-02
    0.2500000000E+03    0.7981799331E-04    0.6876114090E+00    0.2561466979E-03    0.2297972898E-03    0.4297077558E-02
    0.2700000000E+03    0.8579968532E-04    0.6882149616E+00    0.2768152662E-03    0.2485800450E-03    0.4294322585E-02
    0.2900000000E+03    0.9185730534E-04    0.6887360775E+00    0.2977101604E-03    0.2675631629E-03    0.4291483244E-02
    0.3100000000E+03    0.9799239929E-04    0.6891905614E+00    0.3188417594E-03    0.2867576186E-03    0.4288566058E-02
    0.3300000000E+03    0.1042067093E-03    0.6895904209E+00    0.3402201105E-03    0.3061737151E-03    0.4285575921E-02
    0.3500000000E+03    0.1105021234E-03    0.6899449420E+00    0.3618549982E-03    0.3258212509E-03    0.4282516514E-02
    0.3700000000E+03    0.1168806437E-03    0.6902614190E+00    0.3837560060E-03    0.3457096483E-03    0.4279390604E-02
    0.3900000000E+03    0.1233443642E-03    0.6905456613E+00    0.4059325723E-03    0.3658480538E-03    0.4276200249E-02
    0.4100000000E+03    0.1298954580E-03    0.6908023529E+00    0.4283940385E-03    0.3862454181E-03    0.4272946953E-02
    0.4300000000E+03    0.1365361679E-03    0.6910353121E+00    0.4511496919E-03    0.4069105604E-03    0.4269631779E-02
    0.4500000000E+03    0.1432688014E-03    0.6912476832E+00    0.4742088034E-03    0.4278522219E-03    0.4266255429E-02
    0.4700000000E+03    0.1500957278E-03    0.6914420783E+00    0.4975806606E-03    0.4490791101E-03    0.4262818312E-02
    0.4900000000E+03    0.1570193763E-03    0.6916206858E+00    0.5212745976E-03    0.4705999367E-03    0.4259320591E-02
    0.1000000000E+03    0.3737561865E-04    0.6756089891E+00    0.1071950048E-03    0.9380316183E-04    0.4313163261E-02
    0.3000000000E+03    0.9491506310E-04    0.6889708237E+00    0.3082457369E-03    0.2771333160E-03    0.4290034043E-02
    0.5000000000E+03    0.1605182472E-03    0.6917046578E+00    0.5332452825E-03    0.4814733087E-03    0.4257548996E-02
    0.7000000000E+03    0.2362220269E-03    0.6928819333E+00    0.7919527703E-03    0.7165782372E-03    0.4218836606E-02
    0.9000000000E+03    0.3249463137E-03    0.6935371164E+00    0.1094895893E-02    0.9921581053E-03    0.4173178208E-02
    0.1100000000E+04    0.4305445583E-03    0.6939543084E+00    0.1455471674E-02    0.1320500190E-02    0.4118971597E-02
    0.1300000000E+04    0.5582748638E-03    0.6942431529E+00    0.1891814705E-02    0.1718237509E-02    0.4053843528E-02
    0.1500000000E+04    0.7155184882E-03    0.6944549198E+00    0.2429336869E-02    0.2208696912E-02    0.3974412013E-02
    0.1700000000E+04    0.9128998338E-03    0.6946167871E+00    0.3104618326E-02    0.2825491492E-02    0.3875830488E-02
    0.1900000000E+04    0.1166060386E-02    0.6947445031E+00    0.3971558718E-02    0.3618208590E-02    0.3751056378E-02
    0.2100000000E+04    0.1498440678E-02    0.6948478224E+00    0.5111043029E-02    0.4661372751E-02    0.3589741744E-02
    0.2300000000E+04    0.1945368567E-02    0.6949331094E+00    0.6645216880E-02    0.6067749331E-02    0.3376726373E-02
    0.2500000000E+04    0.2558775450E-02    0.6950046931E+00    0.8754183741E-02    0.8004110094E-02    0.3090688073E-02
    0.2700000000E+04    0.3407305466E-02    0.6950656203E+00    0.1167737507E-01    0.1069338943E-01    0.2705754105E-02
    0.2900000000E+04    0.4552898654E-02    0.6951180975E+00    0.1563463993E-01    0.1434367828E-01    0.2204798526E-02
    0.3100000000E+04    0.5970452133E-02    0.6951637618E+00    0.2055069663E-01    0.1889583881E-01    0.1616799729E-02
    0.3300000000E+04    0.7449512782E-02    0.6952038536E+00    0.2571202150E-01    0.2370388117E-01    0.1051998621E-02
    0.3500000000E+04    0.8695136485E-02    0.6952393295E+00    0.3010353840E-01    0.2783502183E-01    0.6384335009E-03
    0.3700000000E+04    0.9594625668E-02    0.6952709393E+00    0.3332670742E-01    0.3091350638E-01    0.4041255126E-03
    0.3900000000E+04    0.1023051532E-01    0.6952992790E+00    0.3565561768E-01    0.3318238339E-01    0.2926676703E-03
    0.4100000000E+04    0.1071697274E-01    0.6953248281E+00    0.3747859017E-01    0.3499448557E-01    0.2444042205E-03
    0.4300000000E+04    0.1112706072E-01    0.6953479770E+00    0.3904570735E-01    0.3657848220E-01    0.2244783002E-03
    0.4500000000E+04    0.1149729778E-01    0.6953690464E+00    0.4048233626E-01    0.3804936184E-01    0.2165362704E-03
    0.4700000000E+04    0.1184434605E-01    0.6953883027E+00    0.4184568770E-01    0.3945963051E-01    0.2135484757E-03
    0.4900000000E+04    0.1217564007E-01    0.6954059684E+00    0.4316117415E-01    0.4083252842E-01    0.2125913933E-03
    0.1000000000E+04    0.3753474141E-03    0.6937665583E+00    0.1266982261E-02    0.1148819268E-02    0.4147271942E-02
    0.3000000000E+04    0.5236050671E-02    0.6951416960E+00    0.1800082451E-01    0.1653203686E-01    0.1916672533E-02
    0.5000000000E+04    0.1233652079E-01    0.6954142646E+00    0.4380482542E-01    0.4150845612E-01    0.2124640823E-03
    0.7000000000E+04    0.1506715051E-01    0.6955298223E+00    0.5527026477E-01    0.5402957444E-01    0.2158068020E-03
    0.9000000000E+04    0.1708407147E-01    0.6955932929E+00    0.6463101114E-01    0.6504866914E-01    0.2188518199E-03
    0.1100000000E+05    0.1858516899E-01    0.6956332090E+00    0.7240193376E-01    0.7489625918E-01    0.2213122669E-03
    0.1300000000E+05    0.1970425288E-01    0.6956605096E+00    0.7893932218E-01    0.8380471898E-01    0.2233805945E-03
    0.1500000000E+05    0.2053529369E-01    0.6956802821E+00    0.8450039842E-01    0.9194547299E-01    0.2251671008E-03
    0.1700000000E+05    0.2114586742E-01    0.6956952109E+00    0.8927549980E-01    0.9944807304E-01    0.2267409805E-03
    0.1900000000E+05    0.2158556562E-01    0.6957068442E+00    0.9340849400E-01    0.1064124845E+00    0.2281485597E-03
    0.2100000000E+05    0.2189142549E-01    0.6957161373E+00    0.9701015278E-01    0.1129172532E+00    0.2294224073E-03
    0.2300000000E+05    0.2209153381E-01    0.6957237107E+00    0.1001671609E+00    0.1190250856E+00    0.2305863107E-03
    0.2500000000E+05    0.2220747697E-01    0.6957299849E+00    0.1029483347E+00    0.1247867532E+00    0.2316581828E-03
    0.2700000000E+05    0.2225604229E-01    0.6957352548E+00    0.1054090091E+00    0.1302438846E+00    0.2326518568E-03
    0.2900000000E+05    0.2225042201E-01    0.6957397328E+00    0.1075941915E+00    0.1354309987E+00    0.2335782414E-03
    0.3100000000E+05    0.2220107980E-01    0.6957435763E+00    0.1095408697E+00    0.1403770115E+00    0.2344460945E-03
    0.3300000000E+05    0.2211638389E-01    0.6957469038E+00    0.1112797269E+00    0.1451063700E+00    0.2352625555E-03
    0.3500000000E+05    0.2200307615E-01    0.6957498065E+00    0.1128364337E+00    0.1496399169E+00    0.2360335225E-03
    0.3700000000E+05    0.2186662392E-01    0.6957523555E+00    0.1142326347E+00    0.1539955589E+00    0.2367639254E-03
    0.3900000000E+05    0.2171148692E-01    0.6957546071E+00    0.1154867103E+00    0.1581887885E+00    0.2374579277E-03
    0.4100000000E+05    0.2154132194E-01    0.6957566065E+00    0.1166143720E+00    0.1622330970E+00    0.2381190780E-03
    0.4300000000E+05    0.2135914116E-01    0.6957583904E+00    0.1176291310E+00    0.1661403030E+00    0.2387504259E-03
    0.4500000000E+05    0.2116743584E-01    0.6957599886E+00    0.1185426717E+00    0.1699208174E+00    0.2393546119E-03
    0.4700000000E+05    0.2096827367E-01    0.6957614260E+00    0.1193651510E+00    0.1735838580E+00    0.2399339374E-03
    0.4900000000E+05    0.2076337592E-01    0.6957627232E+00    0.1201054409E+00    0.1771376255E+00    0.2404904211E-03
    0.1000000000E+05    0.1788959608E-01    0.6956153057E+00    0.6869012249E-01    0.7010266330E-01    0.2201404098E-03
    0.3000000000E+05    0.2223065019E-01    0.6957417257E+00    0.1085952950E+00    0.1379325213E+00    0.2340190053E-03
    0.5000000000E+05    0.2065923483E-01    0.6957633248E+00    0.1204472354E+00    0.1788758527E+00    0.2407606618E-03
    0.7000000000E+05    0.1851930450E-01    0.6957710339E+00    0.1244332738E+00    0.2093333202E+00    0.2453060383E-03
    0.9000000000E+05    0.1653980182E-01    0.6957744502E+00    0.1252245688E+00    0.2339815341E+00    0.2487565829E-03
    0.1100000000E+06    0.1482510623E-01    0.6957760671E+00    0.1244829307E+00    0.2548370642E+00    0.2515464530E-03
    0.1300000000E+06    0.1335950843E-01    0.6957767971E+00    0.1229423354E+00    0.2729735086E+00    0.2538927280E-03
    0.1500000000E+06    0.1210569370E-01    0.6957770445E+00    0.1209718163E+00    0.2890406559E+00    0.2559199245E-03
    0.1700000000E+06    0.1102725108E-01    0.6957770118E+00    0.1187732416E+00    0.3034670394E+00    0.2577062447E-03
    0.1900000000E+06    0.1009339885E-01    0.6957768097E+00    0.1164634969E+00    0.3165530991E+00    0.2593040877E-03
    0.2100000000E+06    0.9279175649E-02    0.6957765024E+00    0.1141128892E+00    0.3285192928E+00    0.2607503150E-03
    0.2300000000E+06    0.8564566204E-02    0.6957761292E+00    0.1117647195E+00    0.3395331769E+00    0.2620718615E-03
    0.2500000000E+06    0.7933517424E-02    0.6957757150E+00    0.1094459446E+00    0.3497256995E+00    0.2632890187E-03
    0.2700000000E+06    0.7373089772E-02    0.6957752759E+00    0.1071732976E+00    0.3592015358E+00    0.2644174611E-03
    0.2900000000E+06    0.6872780866E-02    0.6957748228E+00    0.1049569536E+00    0.3680459337E+00    0.2654695532E-03
    0.3100000000E+06    0.6424001358E-02    0.6957743628E+00    0.1028028000E+00    0.3763294129E+00    0.2664552236E-03
    0.3300000000E+06    0.6019672286E-02    0.6957739010E+00    0.1007138848E+00    0.3841110894E+00    0.2673825675E-03
    0.3500000000E+06    0.5653915721E-02    0.6957734408E+00    0.9869136120E-01    0.3914410880E+00    0.2682582739E-03
    0.3700000000E+06    0.5321816085E-02    0.6957729845E+00    0.9673511502E-01    0.3983623335E+00    0.2690879347E-03
    0.3900000000E+06    0.5019234835E-02    0.6957725338E+00    0.9484418957E-01    0.4049119053E+00    0.2698762728E-03
    0.4100000000E+06    0.4742665538E-02    0.6957720897E+00    0.9301707551E-01    0.4111220797E+00    0.2706273141E-03
    0.4300000000E+06    0.4489119690E-02    0.6957716530E+00    0.9125191112E-01    0.4170211448E+00    0.2713445190E-03
    0.4500000000E+06    0.4256036061E-02    0.6957712241E+00    0.8954662147E-01    0.4226340446E+00    0.2720308836E-03
    0.4700000000E+06    0.4041208204E-02    0.6957708032E+00    0.8789901539E-01    0.4279828962E+00    0.2726890197E-03
    0.4900000000E+06    0.3842726061E-02    0.6957703905E+00    0.8630685308E-01    0.4330874075E+00    0.2733212183E-03
    0.1000000000E+06    0.1564931568E-01    0.6957754084E+00    0.1249872140E+00    0.2448026959E+00    0.2502175163E-03
    0.3000000000E+06    0.6642423753E-02    0.6957745933E+00    0.1038718589E+00    0.3722538580E+00    0.2659701479E-03
    0.5000000000E+06    0.3749086944E-02    0.6957701873E+00    0.8553086201E-01    0.4355536210E+00    0.2736282317E-03
    0.7000000000E+06    0.2427051727E-02    0.6957665246E+00    0.7240578660E-01    0.4755019103E+00    0.2787924446E-03
    0.9000000000E+06    0.1704945900E-02    0.6957634976E+00    0.6270391218E-01    0.5033937918E+00    0.2827130901E-03
    0.1100000000E+07    0.1265259632E-02    0.6957609340E+00    0.5526812813E-01    0.5240842690E+00    0.2858831954E-03
    0.1300000000E+07    0.9769679261E-03    0.6957587140E+00    0.4939505888E-01    0.5400847399E+00    0.2885493234E-03
    0.1500000000E+07    0.7774412954E-03    0.6957567570E+00    0.4464163658E-01    0.5528449508E+00    0.2908529195E-03
    0.1700000000E+07    0.6335125195E-03    0.6957550068E+00    0.4071676480E-01    0.5632667883E+00    0.2928828249E-03
    0.1900000000E+07    0.5262272068E-03    0.6957534237E+00    0.3742182048E-01    0.5719431255E+00    0.2946985709E-03
    0.2100000000E+07    0.4440937396E-03    0.6957519780E+00    0.3461680325E-01    0.5792807230E+00    0.2963420378E-03
    0.2300000000E+07    0.3798070387E-03    0.6957506475E+00    0.3220025718E-01    0.5855683970E+00    0.2978438290E-03
    0.2500000000E+07    0.3285391552E-03    0.6957494149E+00    0.3009688686E-01    0.5910170995E+00    0.2992270003E-03
    0.2700000000E+07    0.2869936571E-03    0.6957482664E+00    0.2824964872E-01    0.5957846151E+00    0.3005093618E-03
    0.2900000000E+07    0.2528565944E-03    0.6957471911E+00    0.2661454310E-01    0.5999913796E+00    0.3017049629E-03
    0.3100000000E+07    0.2244644502E-03    0.6957461800E+00    0.2515709107E-01    0.6037309481E+00    0.3028250852E-03
    0.3300000000E+07    0.2005961886E-03    0.6957452257E+00    0.2384989361E-01    0.6070771181E+00    0.3038789275E-03
    0.3500000000E+07    0.1803390250E-03    0.6957443221E+00    0.2267090448E-01    0.6100888955E+00    0.3048740906E-03
    0.3700000000E+07    0.1629994595E-03    0.6957434639E+00    0.2160218477E-01    0.6128140313E+00    0.3058169285E-03
    0.3900000000E+07    0.1480429161E-03    0.6957426466E+00    0.2062898965E-01    0.6152915874E+00    0.3067128081E-03
    0.4100000000E+07    0.1350519298E-03    0.6957418664E+00    0.1973908817E-01    0.6175538298E+00    0.3075663042E-03
    0.4300000000E+07    0.1236966370E-03    0.6957411201E+00    0.1892224976E-01    0.6196276470E+00    0.3083813489E-03
    0.4500000000E+07    0.1137135962E-03    0.6957404047E+00    0.1816985163E-01    0.6215356266E+00    0.3091613470E-03
    0.4700000000E+07    0.1048903538E-03    0.6957397177E+00    0.1747457501E-01    0.6232968830E+00    0.3099092664E-03
    0.4900000000E+07    0.9705404040E-04    0.6957390569E+00    0.1683016783E-01    0.6249277009E+00    0.3106277103E-03
    0.1000000000E+07    0.1460344168E-02    0.6957621665E+00    0.5875457628E-01    0.5144481630E+00    0.2843731224E-03
    0.3000000000E+07    0.2380272458E-03    0.6957466780E+00    0.2586546571E-01    0.6019145546E+00    0.3022738416E-03
    0.5000000000E+07    0.9346063864E-04    0.6957387357E+00    0.1652533123E-01    0.6256986373E+00    0.3109766071E-03
    0.7000000000E+07    0.4949734277E-04    0.6957333068E+00    0.1212204000E-01    0.6367989798E+00    0.3168453466E-03
    0.9000000000E+07    0.3055804436E-04    0.6957291586E+00    0.9562924443E-02    0.6432218080E+00    0.3213008771E-03
    0.1100000000E+08    0.2071574102E-04    0.6957257916E+00    0.7891313987E-02    0.6474070272E+00    0.3249034761E-03
    0.1300000000E+08    0.1495844422E-04    0.6957229526E+00    0.6714357085E-02    0.6503493909E+00    0.3279333416E-03
    0.1500000000E+08    0.1130380439E-04    0.6957204950E+00    0.5841111453E-02    0.6525303396E+00    0.3305512150E-03
    0.1700000000E+08    0.8840519171E-05    0.6957183263E+00    0.5167639853E-02    0.6542112080E+00    0.3328580578E-03
    0.1900000000E+08    0.7102220434E-05    0.6957163843E+00    0.4632540405E-02    0.6555460781E+00    0.3349215231E-03
    0.2100000000E+08    0.5830184958E-05    0.6957146248E+00    0.4197216055E-02    0.6566316654E+00    0.3367892049E-03
    0.2300000000E+08    0.4871544117E-05    0.6957130158E+00    0.3836191543E-02    0.6575317343E+00    0.3384958819E-03
    0.2500000000E+08    0.4131278768E-05    0.6957115330E+00    0.3531976570E-02    0.6582900255E+00    0.3400677552E-03
    0.2700000000E+08    0.3547814434E-05    0.6957101573E+00    0.3272166163E-02    0.6589375403E+00    0.3415250651E-03
