  Pressure (Pa) 22mC5-500 (mol/kg) 24mC5-500 (mol/kg) 2mC6-500 (mol/kg) 3mC6-500 (mol/kg) C7-500 (mol/kg)
    0.1000000000E+01    0.1073866588E-04    0.3666032974E-01    0.1068351149E-04    0.8988004821E-05    0.4170678319E-02
    0.3000000000E+01    0.2831894460E-04    0.9948847432E-01    0.2751510844E-04    0.2264749740E-04    0.4210179388E-02
    0.5000000000E+01    0.4223131758E-04    0.1513731201E+00    0.4036584689E-04    0.3516357245E-04    0.4237042538E-02
    0.7000000000E+01    0.5346205921E-04    0.1949448077E+00    0.5040638911E-04    0.4714758588E-04    0.4258818404E-02
    0.9000000000E+01    0.6267206499E-04    0.2320534964E+00    0.5839551402E-04    0.5880334648E-04    0.4277081150E-02
    0.1100000000E+02    0.7032707239E-04    0.2640381071E+00    0.6485582523E-04    0.7023213563E-04    0.4292662756E-02
    0.1300000000E+02    0.7676494017E-04    0.2918915893E+00    0.7015845167E-04    0.8149393870E-04    0.4306116163E-02
    0.1500000000E+02    0.8223633264E-04    0.3163658896E+00    0.7457295841E-04    0.9262813577E-04    0.4317840918E-02
    0.1700000000E+02    0.8693074789E-04    0.3380408892E+00    0.7829876917E-04    0.1036624146E-03    0.4328138104E-02
    0.1900000000E+02    0.9099377692E-04    0.3573709582E+00    0.8148573246E-04    0.1146172251E-03    0.4337240716E-02
    0.2100000000E+02    0.9453886931E-04    0.3747171716E+00    0.8424797281E-04    0.1255082442E-03    0.4345332591E-02
    0.2300000000E+02    0.9765554102E-04    0.3903700855E+00    0.8667343930E-04    0.1363478461E-03    0.4352561041E-02
    0.2500000000E+02    0.1004152155E-03    0.4045661525E+00    0.8883061932E-04    0.1471460318E-03    0.4359045656E-02
    0.2700000000E+02    0.1028754538E-03    0.4174997549E+00    0.9077334136E-04    0.1579110429E-03    0.4364884611E-02
    0.2900000000E+02    0.1050830667E-03    0.4293321633E+00    0.9254426372E-04    0.1686497837E-03    0.4370159301E-02
    0.3100000000E+02    0.1070764361E-03    0.4401982994E+00    0.9417744339E-04    0.1793681204E-03    0.4374937810E-02
    0.3300000000E+02    0.1088872689E-03    0.4502119061E+00    0.9570025130E-04    0.1900710978E-03    0.4379277542E-02
    0.3500000000E+02    0.1105419385E-03    0.4594695467E+00    0.9713481618E-04    0.2007631009E-03    0.4383227245E-02
    0.3700000000E+02    0.1120625194E-03    0.4680537303E+00    0.9849912430E-04    0.2114479777E-03    0.4386828597E-02
    0.3900000000E+02    0.1134675964E-03    0.4760353792E+00    0.9980786492E-04    0.2221291333E-03    0.4390117443E-02
    0.4100000000E+02    0.1147728993E-03    0.4834757937E+00    0.1010730859E-03    0.2328096041E-03    0.4393124789E-02
    0.4300000000E+02    0.1159918084E-03    0.4904282308E+00    0.1023047061E-03    0.2434921161E-03    0.4395877592E-02
    0.4500000000E+02    0.1171357576E-03    0.4969391814E+00    0.1035109189E-03    0.2541791325E-03    0.4398399406E-02
    0.4700000000E+02    0.1182145596E-03    0.5030494116E+00    0.1046985119E-03    0.2648728916E-03    0.4400710902E-02
    0.4900000000E+02    0.1192366696E-03    0.5087948180E+00    0.1058731225E-03    0.2755754383E-03    0.4402830295E-02
    0.1000000000E+02    0.6667039817E-04    0.2486175935E+00    0.6179072663E-04    0.6454172581E-04    0.4285168020E-02
    0.3000000000E+02    0.1061044111E-03    0.4348784618E+00    0.9337622287E-04    0.1740111702E-03    0.4372606767E-02
    0.5000000000E+02    0.1197287899E-03    0.5115407747E+00    0.1064570576E-03    0.2809305996E-03    0.4403823064E-02
    0.7000000000E+02    0.1279298091E-03    0.5533540775E+00    0.1182462649E-03    0.3888832388E-03    0.4416670169E-02
    0.9000000000E+02    0.1348663049E-03    0.5796818994E+00    0.1311065932E-03    0.4992137762E-03    0.4421011390E-02
    0.1100000000E+03    0.1417511766E-03    0.5977834260E+00    0.1453766345E-03    0.6127191756E-03    0.4420572453E-02
    0.1300000000E+03    0.1490097271E-03    0.6109935783E+00    0.1610379264E-03    0.7299911066E-03    0.4417070036E-02
    0.1500000000E+03    0.1568096441E-03    0.6210591569E+00    0.1780241935E-03    0.8515326395E-03    0.4411399197E-02
    0.1700000000E+03    0.1652247032E-03    0.6289836454E+00    0.1962848072E-03    0.9778096107E-03    0.4404065901E-02
    0.1900000000E+03    0.1742932984E-03    0.6353845862E+00    0.2157949335E-03    0.1109277535E-02    0.4395371203E-02
    0.2100000000E+03    0.1840415556E-03    0.6406628530E+00    0.2365538707E-03    0.1246397853E-02    0.4385498979E-02
    0.2300000000E+03    0.1944931258E-03    0.6450900159E+00    0.2585815173E-03    0.1389649073E-02    0.4374561370E-02
    0.2500000000E+03    0.2056735686E-03    0.6488565872E+00    0.2819153172E-03    0.1539535364E-02    0.4362623903E-02
    0.2700000000E+03    0.2176124272E-03    0.6521001648E+00    0.3066080891E-03    0.1696593905E-02    0.4349720072E-02
    0.2900000000E+03    0.2303443001E-03    0.6549226109E+00    0.3327266667E-03    0.1861401705E-02    0.4335860139E-02
    0.3100000000E+03    0.2439094881E-03    0.6574009467E+00    0.3603511978E-03    0.2034582369E-02    0.4321036566E-02
    0.3300000000E+03    0.2583544879E-03    0.6595944897E+00    0.3895749660E-03    0.2216813095E-02    0.4305227404E-02
    0.3500000000E+03    0.2737324612E-03    0.6615496640E+00    0.4205046358E-03    0.2408832146E-02    0.4288398392E-02
    0.3700000000E+03    0.2901037477E-03    0.6633033231E+00    0.4532608572E-03    0.2611446998E-02    0.4270504190E-02
    0.3900000000E+03    0.3075364592E-03    0.6648850956E+00    0.4879791881E-03    0.2825543337E-02    0.4251489013E-02
    0.4100000000E+03    0.3261071775E-03    0.6663190726E+00    0.5248113179E-03    0.3052095092E-02    0.4231286836E-02
    0.4300000000E+03    0.3459017745E-03    0.6676250440E+00    0.5639265859E-03    0.3292175688E-02    0.4209821252E-02
    0.4500000000E+03    0.3670163705E-03    0.6688194175E+00    0.6055138039E-03    0.3546970729E-02    0.4187005070E-02
    0.4700000000E+03    0.3895584461E-03    0.6699159111E+00    0.6497833989E-03    0.3817792311E-02    0.4162739660E-02
    0.4900000000E+03    0.4136481262E-03    0.6709260831E+00    0.6969699016E-03    0.4106095207E-02    0.4136914092E-02
    0.1000000000E+03    0.1382793135E-03    0.5894995215E+00    0.1380639135E-03    0.5555296830E-03    0.4421254840E-02
    0.3000000000E+03    0.2370199743E-03    0.6562007356E+00    0.3463451667E-03    0.1946904445E-02    0.4328569871E-02
    0.5000000000E+03    0.4263146726E-03    0.6714019225E+00    0.7217375717E-03    0.4257300239E-02    0.4123377963E-02
    0.7000000000E+03    0.8055113293E-03    0.6781355801E+00    0.1456827461E-02    0.8731422111E-02    0.3729814049E-02
    0.9000000000E+03    0.1671717583E-02    0.6819353448E+00    0.3128175329E-02    0.1891077601E-01    0.2890114805E-02
    0.1100000000E+04    0.3416825465E-02    0.6843755588E+00    0.6514550266E-02    0.3968513901E-01    0.1402628923E-02
    0.1300000000E+04    0.4833827883E-02    0.6860750690E+00    0.9327627375E-02    0.5732285565E-01    0.5605022464E-03
    0.1500000000E+04    0.5524634241E-02    0.6873266181E+00    0.1077220796E-01    0.6680942585E-01    0.4397493099E-03
    0.1700000000E+04    0.6047156478E-02    0.6882866443E+00    0.1190931002E-01    0.7453449953E-01    0.4314776974E-03
    0.1900000000E+04    0.6516885040E-02    0.6890463411E+00    0.1295978157E-01    0.8183648487E-01    0.4334354332E-03
    0.2100000000E+04    0.6948840285E-02    0.6896624593E+00    0.1395102391E-01    0.8887459555E-01    0.4360337215E-03
    0.2300000000E+04    0.7347004234E-02    0.6901721652E+00    0.1488913161E-01    0.9567768780E-01    0.4384641100E-03
    0.2500000000E+04    0.7714048655E-02    0.6906008173E+00    0.1577779031E-01    0.1022604517E+00    0.4406921300E-03
    0.2700000000E+04    0.8052319539E-02    0.6909663105E+00    0.1662019398E-01    0.1086352389E+00    0.4427444603E-03
    0.2900000000E+04    0.8363953282E-02    0.6912816337E+00    0.1741926074E-01    0.1148133422E+00    0.4446468353E-03
    0.3100000000E+04    0.8650905251E-02    0.6915564433E+00    0.1817767624E-01    0.1208052034E+00    0.4464200853E-03
    0.3300000000E+04    0.8914967896E-02    0.6917980672E+00    0.1889791727E-01    0.1266205027E+00    0.4480810025E-03
    0.3500000000E+04    0.9157786262E-02    0.6920121671E+00    0.1958227144E-01    0.1322682283E+00    0.4496432915E-03
    0.3700000000E+04    0.9380871826E-02    0.6922031862E+00    0.2023285444E-01    0.1377567383E+00    0.4511182802E-03
    0.3900000000E+04    0.9585614903E-02    0.6923746606E+00    0.2085162565E-01    0.1430938153E+00    0.4525154398E-03
    0.4100000000E+04    0.9773295762E-02    0.6925294391E+00    0.2144040199E-01    0.1482867157E+00    0.4538427700E-03
    0.4300000000E+04    0.9945094608E-02    0.6926698429E+00    0.2200087043E-01    0.1533422139E+00    0.4551070901E-03
    0.4500000000E+04    0.1010210055E-01    0.6927977820E+00    0.2253459916E-01    0.1582666424E+00    0.4563142599E-03
    0.4700000000E+04    0.1024531963E-01    0.6929148425E+00    0.2304304772E-01    0.1630659275E+00    0.4574693529E-03
    0.4900000000E+04    0.1037568214E-01    0.6930223524E+00    0.2352757607E-01    0.1677456219E+00    0.4585767910E-03
    0.1000000000E+04    0.2453419870E-02    0.6832753212E+00    0.4640258799E-02    0.2815647963E-01    0.2187877999E-02
    0.3000000000E+04    0.8510398833E-02    0.6914235992E+00    0.1780339045E-01    0.1178319311E+00    0.4455484692E-03
    0.5000000000E+04    0.1043631378E-01    0.6930728831E+00    0.2376126996E-01    0.1700422630E+00    0.4591138700E-03
    0.7000000000E+04    0.1115183998E-01    0.6937801251E+00    0.2744601310E-01    0.2108048552E+00    0.4680866830E-03
    0.9000000000E+04    0.1125105265E-01    0.6941724380E+00    0.2976607842E-01    0.2439456524E+00    0.4748371446E-03
    0.1100000000E+05    0.1102938113E-01    0.6944214977E+00    0.3121791075E-01    0.2716820383E+00    0.4802666015E-03
    0.1300000000E+05    0.1064266666E-01    0.6945934333E+00    0.3209357480E-01    0.2954006153E+00    0.4848172071E-03
    0.1500000000E+05    0.1017647638E-01    0.6947191234E+00    0.3257486249E-01    0.3160213247E+00    0.4887395525E-03
    0.1700000000E+05    0.9678957730E-02    0.6948149172E+00    0.3278002557E-01    0.3341839738E+00    0.4921897214E-03
    0.1900000000E+05    0.9177467328E-02    0.6948902782E+00    0.3278872631E-01    0.3503508917E+00    0.4952716647E-03
    0.2100000000E+05    0.8687436268E-02    0.6949510625E+00    0.3265616541E-01    0.3648668389E+00    0.4980581701E-03
    0.2300000000E+05    0.8217296711E-02    0.6950010872E+00    0.3242147950E-01    0.3779957258E+00    0.5006022304E-03
    0.2500000000E+05    0.7771312418E-02    0.6950429464E+00    0.3211293974E-01    0.3899440703E+00    0.5029436497E-03
    0.2700000000E+05    0.7351248780E-02    0.6950784641E+00    0.3175128292E-01    0.4008765285E+00    0.5051131006E-03
    0.2900000000E+05    0.6957378839E-02    0.6951089603E+00    0.3135190971E-01    0.4109264983E+00    0.5071347288E-03
    0.3100000000E+05    0.6589098797E-02    0.6951354133E+00    0.3092637262E-01    0.4202035580E+00    0.5090278894E-03
    0.3300000000E+05    0.6245308577E-02    0.6951585638E+00    0.3048340565E-01    0.4287988087E+00    0.5108083402E-03
    0.3500000000E+05    0.5924648331E-02    0.6951789825E+00    0.3002965063E-01    0.4367887930E+00    0.5124890845E-03
    0.3700000000E+05    0.5625645289E-02    0.6951971164E+00    0.2957017833E-01    0.4442384235E+00    0.5140809802E-03
    0.3900000000E+05    0.5346804139E-02    0.6952133203E+00    0.2910886792E-01    0.4512032071E+00    0.5155931891E-03
    0.4100000000E+05    0.5086661543E-02    0.6952278797E+00    0.2864868698E-01    0.4577309606E+00    0.5170335139E-03
    0.4300000000E+05    0.4843817786E-02    0.6952410265E+00    0.2819190050E-01    0.4638631511E+00    0.5184086553E-03
    0.4500000000E+05    0.4616953809E-02    0.6952529514E+00    0.2774022865E-01    0.4696359567E+00    0.5197244114E-03
    0.4700000000E+05    0.4404838970E-02    0.6952638123E+00    0.2729496678E-01    0.4750811137E+00    0.5209858331E-03
    0.4900000000E+05    0.4206332971E-02    0.6952737412E+00    0.2685707765E-01    0.4802266019E+00    0.5221973479E-03
    0.1000000000E+05    0.1116838218E-01    0.6943095027E+00    0.3057890917E-01    0.2583887432E+00    0.4776830786E-03
    0.3000000000E+05    0.6770100517E-02    0.6951226413E+00    0.3114180943E-01    0.4156555667E+00    0.5080963096E-03
    0.5000000000E+05    0.4111851286E-02    0.6952783916E+00    0.2664112568E-01    0.4826948262E+00    0.5227856281E-03
    0.7000000000E+05    0.2724452496E-02    0.6953420686E+00    0.2279245622E-01    0.5210764072E+00    0.5326754470E-03
    0.9000000000E+05    0.1929391328E-02    0.6953756888E+00    0.1978729189E-01    0.5461211666E+00    0.5401782240E-03
    0.1100000000E+06    0.1435334801E-02    0.6953959421E+00    0.1743395582E-01    0.5637962309E+00    0.5462421657E-03
    0.1300000000E+06    0.1108463272E-02    0.6954091599E+00    0.1555856378E-01    0.5769518536E+00    0.5513406840E-03
    0.1500000000E+06    0.8813857842E-03    0.6954182554E+00    0.1403563161E-01    0.5871305665E+00    0.5557450833E-03
    0.1700000000E+06    0.7173976597E-03    0.6954247485E+00    0.1277734014E-01    0.5952425354E+00    0.5596256511E-03
    0.1900000000E+06    0.5951868847E-03    0.6954295058E+00    0.1172173523E-01    0.6018603430E+00    0.5630964378E-03
    0.2100000000E+06    0.5017132905E-03    0.6954330558E+00    0.1082432133E-01    0.6073625522E+00    0.5662376473E-03
    0.2300000000E+06    0.4286437174E-03    0.6954357376E+00    0.1005250231E-01    0.6120096095E+00    0.5691078701E-03
    0.2500000000E+06    0.3704549589E-03    0.6954377781E+00    0.9381936280E-02    0.6159866453E+00    0.5717512363E-03
    0.2700000000E+06    0.3233707288E-03    0.6954393345E+00    0.8794119025E-02    0.6194288958E+00    0.5742018287E-03
    0.2900000000E+06    0.2847391686E-03    0.6954405184E+00    0.8274754222E-02    0.6224374676E+00    0.5764865291E-03
    0.3100000000E+06    0.2526542453E-03    0.6954414114E+00    0.7812633373E-02    0.6250894747E+00    0.5786269204E-03
    0.3300000000E+06    0.2257177746E-03    0.6954420741E+00    0.7398851615E-02    0.6274447618E+00    0.5806405987E-03
    0.3500000000E+06    0.2028854544E-03    0.6954425525E+00    0.7026248889E-02    0.6295504853E+00    0.5825421018E-03
    0.3700000000E+06    0.1833646794E-03    0.6954428819E+00    0.6689005085E-02    0.6314443086E+00    0.5843435818E-03
    0.3900000000E+06    0.1665451658E-03    0.6954430899E+00    0.6382342230E-02    0.6331566774E+00    0.5860553022E-03
    0.4100000000E+06    0.1519508853E-03    0.6954431981E+00    0.6102302302E-02    0.6347124703E+00    0.5876860112E-03
    0.4300000000E+06    0.1392061478E-03    0.6954432240E+00    0.5845579299E-02    0.6361322163E+00    0.5892432272E-03
    0.4500000000E+06    0.1280112700E-03    0.6954431815E+00    0.5609390790E-02    0.6374330052E+00    0.5907334601E-03
    0.4700000000E+06    0.1181248541E-03    0.6954430819E+00    0.5391378566E-02    0.6386291799E+00    0.5921623843E-03
    0.4900000000E+06    0.1093507045E-03    0.6954429345E+00    0.5189531015E-02    0.6397328662E+00    0.5935349767E-03
    0.1000000000E+06    0.1655316292E-02    0.6953869700E+00    0.1854120121E-01    0.5556586801E+00    0.5433538672E-03
    0.3000000000E+06    0.2679755491E-03    0.6954409971E+00    0.8037141406E-02    0.6238039586E+00    0.5775735826E-03
    0.5000000000E+06    0.1053293187E-03    0.6954428453E+00    0.5094119796E-02    0.6402533128E+00    0.5942015406E-03
    0.7000000000E+06    0.5623876584E-04    0.6954398495E+00    0.3721352478E-02    0.6476561910E+00    0.6054131840E-03
    0.9000000000E+06    0.3514478566E-04    0.6954360559E+00    0.2928420374E-02    0.6518642808E+00    0.6139244913E-03
    0.1100000000E+07    0.2418188727E-04    0.6954322694E+00    0.2412521652E-02    0.6545779155E+00    0.6208061967E-03
    0.1300000000E+07    0.1775826549E-04    0.6954286869E+00    0.2050279520E-02    0.6564727985E+00    0.6265937109E-03
    0.1500000000E+07    0.1366928242E-04    0.6954253478E+00    0.1782053009E-02    0.6578707127E+00    0.6315941587E-03
    0.1700000000E+07    0.1090330927E-04    0.6954222450E+00    0.1575506561E-02    0.6589443900E+00    0.6360004343E-03
    0.1900000000E+07    0.8943120526E-05    0.6954193583E+00    0.1411595822E-02    0.6597948456E+00    0.6399417887E-03
    0.2100000000E+07    0.7501865018E-05    0.6954166650E+00    0.1278378333E-02    0.6604850930E+00    0.6435091469E-03
    0.2300000000E+07    0.6410024136E-05    0.6954141437E+00    0.1167987017E-02    0.6610564750E+00    0.6467689499E-03
    0.2500000000E+07    0.5562171380E-05    0.6954117754E+00    0.1075029323E-02    0.6615372408E+00    0.6497712511E-03
    0.2700000000E+07    0.4889929839E-05    0.6954095435E+00    0.9956857370E-03    0.6619473479E+00    0.6525547155E-03
    0.2900000000E+07    0.4347366096E-05    0.6954074336E+00    0.9271755052E-03    0.6623012964E+00    0.6551498432E-03
    0.3100000000E+07    0.3902688253E-05    0.6954054333E+00    0.8674261790E-03    0.6626098739E+00    0.6575811254E-03
    0.3300000000E+07    0.3533319349E-05    0.6954035319E+00    0.8148617227E-03    0.6628812725E+00    0.6598685313E-03
    0.3500000000E+07    0.3222863891E-05    0.6954017202E+00    0.7682623645E-03    0.6631218250E+00    0.6620285611E-03
    0.3700000000E+07    0.2959179334E-05    0.6953999899E+00    0.7266693722E-03    0.6633365034E+00    0.6640750083E-03
    0.3900000000E+07    0.2733115211E-05    0.6953983342E+00    0.6893188105E-03    0.6635292662E+00    0.6660195233E-03
    0.4100000000E+07    0.2537668159E-05    0.6953967467E+00    0.6555944885E-03    0.6637033040E+00    0.6678720374E-03
    0.4300000000E+07    0.2367403064E-05    0.6953952221E+00    0.6249939112E-03    0.6638612168E+00    0.6696410861E-03
    0.4500000000E+07    0.2218048617E-05    0.6953937554E+00    0.5971032287E-03    0.6640051448E+00    0.6713340603E-03
    0.4700000000E+07    0.2086209699E-05    0.6953923423E+00    0.5715785269E-03    0.6641368656E+00    0.6729574028E-03
    0.4900000000E+07    0.1969159502E-05    0.6953909791E+00    0.5481316622E-03    0.6642578680E+00    0.6745167645E-03
    0.1000000000E+07    0.2887215575E-04    0.6954341434E+00    0.2645758038E-02    0.6533533425E+00    0.6175281369E-03
    0.3000000000E+07    0.4114376103E-05    0.6954064205E+00    0.8963139536E-03    0.6624606937E+00    0.6563846250E-03
    0.5000000000E+07    0.1915472419E-05    0.6953903150E+00    0.5371098988E-03    0.6643147502E+00    0.6752740333E-03
    0.7000000000E+07    0.1251370001E-05    0.6953789706E+00    0.3827370589E-03    0.6651117672E+00    0.6880117692E-03
    0.9000000000E+07    0.9503718155E-06    0.6953701753E+00    0.2969903948E-03    0.6655549906E+00    0.6976820219E-03
    0.1100000000E+08    0.7820960267E-06    0.6953629725E+00    0.2424763026E-03    0.6658371476E+00    0.7055009554E-03
    0.1300000000E+08    0.6751476254E-06    0.6953568616E+00    0.2047801213E-03    0.6660325162E+00    0.7120767680E-03
    0.1500000000E+08    0.6010777474E-06    0.6953515474E+00    0.1771699651E-03    0.6661757957E+00    0.7177583603E-03
    0.1700000000E+08    0.5465474258E-06    0.6953468409E+00    0.1560816053E-03    0.6662853665E+00    0.7227648736E-03
    0.1900000000E+08    0.5045415031E-06    0.6953426135E+00    0.1394520639E-03    0.6663718729E+00    0.7272431508E-03
    0.2100000000E+08    0.4710408218E-06    0.6953387742E+00    0.1260048094E-03    0.6664419055E+00    0.7312964947E-03
    0.2300000000E+08    0.4435846750E-06    0.6953352554E+00    0.1149077603E-03    0.6664997626E+00    0.7350003922E-03
    0.2500000000E+08    0.4205845542E-06    0.6953320064E+00    0.1055954287E-03    0.6665483672E+00    0.7384117124E-03
    0.2700000000E+08    0.4009696947E-06    0.6953289873E+00    0.9767011902E-04    0.6665897760E+00    0.7415743858E-03
