  Pressure (Pa) 22mC5-500 (mol/kg) 24mC5-500 (mol/kg) 2mC6-500 (mol/kg) 3mC6-500 (mol/kg) C7-500 (mol/kg)
    0.1000000000E+01    0.8632796359E-05    0.1514001233E+00    0.2243246635E-04    0.8980124930E-06    0.4168454144E-02
    0.3000000000E+01    0.1684110845E-04    0.3164785152E+00    0.4167069132E-04    0.2259356649E-05    0.4194091937E-02
    0.5000000000E+01    0.2062828410E-04    0.4047435843E+00    0.4999614960E-04    0.3503035503E-05    0.4204584586E-02
    0.7000000000E+01    0.2276894836E-04    0.4596914827E+00    0.5497008353E-04    0.4690492651E-05    0.4210643871E-02
    0.9000000000E+01    0.2417373618E-04    0.4971921925E+00    0.5877145280E-04    0.5842266517E-05    0.4214566869E-02
    0.1100000000E+02    0.2521280923E-04    0.5244173939E+00    0.6216370527E-04    0.6968583634E-05    0.4217269753E-02
    0.1300000000E+02    0.2605806295E-04    0.5450817584E+00    0.6544391686E-04    0.8075509860E-05    0.4219203924E-02
    0.1500000000E+02    0.2679689754E-04    0.5613019588E+00    0.6873297153E-04    0.9167031620E-05    0.4220620372E-02
    0.1700000000E+02    0.2747671781E-04    0.5743725376E+00    0.7207910959E-04    0.1024595351E-04    0.4221670600E-02
    0.1900000000E+02    0.2812446998E-04    0.5851297374E+00    0.7549901478E-04    0.1131434737E-04    0.4222451771E-02
    0.2100000000E+02    0.2875599571E-04    0.5941378257E+00    0.7899538307E-04    0.1237380110E-04    0.4223029201E-02
    0.2300000000E+02    0.2938082360E-04    0.6017913525E+00    0.8256483269E-04    0.1342556720E-04    0.4223448476E-02
    0.2500000000E+02    0.3000475930E-04    0.6083744973E+00    0.8620157956E-04    0.1447065673E-04    0.4223742422E-02
    0.2700000000E+02    0.3063134869E-04    0.6140971407E+00    0.8989916371E-04    0.1550990154E-04    0.4223935290E-02
    0.2900000000E+02    0.3126273463E-04    0.6191176570E+00    0.9365124683E-04    0.1654399698E-04    0.4224045402E-02
    0.3100000000E+02    0.3190017406E-04    0.6235578012E+00    0.9745195772E-04    0.1757353228E-04    0.4224086864E-02
    0.3300000000E+02    0.3254435796E-04    0.6275127148E+00    0.1012960160E-03    0.1859901256E-04    0.4224070717E-02
    0.3500000000E+02    0.3319561347E-04    0.6310578205E+00    0.1051787487E-03    0.1962087527E-04    0.4224005732E-02
    0.3700000000E+02    0.3385403377E-04    0.6342536794E+00    0.1090960572E-03    0.2063950264E-04    0.4223898964E-02
    0.3900000000E+02    0.3451956276E-04    0.6371494797E+00    0.1130443641E-03    0.2165523130E-04    0.4223756157E-02
    0.4100000000E+02    0.3519205072E-04    0.6397855864E+00    0.1170205540E-03    0.2266835983E-04    0.4223582032E-02
    0.4300000000E+02    0.3587129128E-04    0.6421954353E+00    0.1210219160E-03    0.2367915473E-04    0.4223380512E-02
    0.4500000000E+02    0.3655704607E-04    0.6444069582E+00    0.1250460907E-03    0.2468785525E-04    0.4223154875E-02
    0.4700000000E+02    0.3724906103E-04    0.6464436710E+00    0.1290910229E-03    0.2569467727E-04    0.4222907892E-02
    0.4900000000E+02    0.3794707731E-04    0.6483255131E+00    0.1331549203E-03    0.2669981656E-04    0.4222641913E-02
    0.1000000000E+02    0.2472545085E-04    0.5118058382E+00    0.6049405465E-04    0.6408163751E-05    0.4216036076E-02
    0.3000000000E+02    0.3158064402E-04    0.6214037983E+00    0.9554586821E-04    0.1705930132E-04    0.4224073963E-02
    0.5000000000E+02    0.3829825555E-04    0.6492137750E+00    0.1351934839E-03    0.2720181150E-04    0.4222502440E-02
    0.7000000000E+02    0.4557988798E-04    0.6619104652E+00    0.1766717119E-03    0.3718948401E-04    0.4219078578E-02
    0.9000000000E+02    0.5323886244E-04    0.6691815504E+00    0.2190919659E-03    0.4714414198E-04    0.4214950397E-02
    0.1100000000E+03    0.6117300233E-04    0.6738925427E+00    0.2622042468E-03    0.5712858139E-04    0.4210460271E-02
    0.1300000000E+03    0.6933076389E-04    0.6771931299E+00    0.3059440289E-03    0.6718185485E-04    0.4205744343E-02
    0.1500000000E+03    0.7768567128E-04    0.6796342249E+00    0.3503101138E-03    0.7733126583E-04    0.4200865969E-02
    0.1700000000E+03    0.8622427459E-04    0.6815128729E+00    0.3953252447E-03    0.8759755063E-04    0.4195857470E-02
    0.1900000000E+03    0.9494034256E-04    0.6830033779E+00    0.4410216765E-03    0.9799747286E-04    0.4190736146E-02
    0.2100000000E+03    0.1038318914E-03    0.6842147640E+00    0.4874354544E-03    0.1085452621E-03    0.4185511330E-02
    0.2300000000E+03    0.1128995765E-03    0.6852187197E+00    0.5346040632E-03    0.1192534745E-03    0.4180187813E-02
    0.2500000000E+03    0.1221457793E-03    0.6860643196E+00    0.5825654825E-03    0.1301335393E-03    0.4174767650E-02
    0.2700000000E+03    0.1315740685E-03    0.6867862897E+00    0.6313578569E-03    0.1411961233E-03    0.4169251159E-02
    0.2900000000E+03    0.1411888715E-03    0.6874098941E+00    0.6810194402E-03    0.1524513841E-03    0.4163637510E-02
    0.3100000000E+03    0.1509952706E-03    0.6879539522E+00    0.7315886647E-03    0.1639091526E-03    0.4157925077E-02
    0.3300000000E+03    0.1609988732E-03    0.6884327704E+00    0.7831042616E-03    0.1755790691E-03    0.4152111663E-02
    0.3500000000E+03    0.1712057303E-03    0.6888574188E+00    0.8356054022E-03    0.1874706879E-03    0.4146194638E-02
    0.3700000000E+03    0.1816222853E-03    0.6892365967E+00    0.8891318433E-03    0.1995935605E-03    0.4140171034E-02
    0.3900000000E+03    0.1922553423E-03    0.6895772356E+00    0.9437240710E-03    0.2119573027E-03    0.4134037605E-02
    0.4100000000E+03    0.2031120492E-03    0.6898849262E+00    0.9994234393E-03    0.2245716516E-03    0.4127790862E-02
    0.4300000000E+03    0.2141998894E-03    0.6901642276E+00    0.1056272305E-02    0.2374465140E-03    0.4121427107E-02
    0.4500000000E+03    0.2255266813E-03    0.6904188951E+00    0.1114314158E-02    0.2505920097E-03    0.4114942438E-02
    0.4700000000E+03    0.2371005823E-03    0.6906520496E+00    0.1173593748E-02    0.2640185103E-03    0.4108332768E-02
    0.4900000000E+03    0.2489300970E-03    0.6908663061E+00    0.1234157209E-02    0.2777366755E-03    0.4101593822E-02
    0.1000000000E+03    0.5717555457E-04    0.6717643961E+00    0.2405678949E-03    0.5212983303E-04    0.4212739546E-02
    0.3000000000E+03    0.1460677823E-03    0.6876908839E+00    0.7061881852E-03    0.1581543493E-03    0.4160793768E-02
    0.5000000000E+03    0.2549434647E-03    0.6909670512E+00    0.1264935217E-02    0.2847085506E-03    0.4098174485E-02
    0.7000000000E+03    0.3910428818E-03    0.6923804413E+00    0.1960678125E-02    0.4423939423E-03    0.4021790352E-02
    0.9000000000E+03    0.5660394885E-03    0.6931679783E+00    0.2854606623E-02    0.6452403613E-03    0.3925842457E-02
    0.1100000000E+04    0.7982201120E-03    0.6936699419E+00    0.4041080008E-02    0.9148291832E-03    0.3801447960E-02
    0.1300000000E+04    0.1117355610E-02    0.6940177843E+00    0.5673404971E-02    0.1286258401E-02    0.3634523378E-02
    0.1500000000E+04    0.1573415217E-02    0.6942730154E+00    0.8009173179E-02    0.1818610654E-02    0.3402184215E-02
    0.1700000000E+04    0.2250377623E-02    0.6944682590E+00    0.1148246653E-01    0.2611737077E-02    0.3067759586E-02
    0.1900000000E+04    0.3276696603E-02    0.6946224275E+00    0.1676094502E-01    0.3820055995E-02    0.2580090718E-02
    0.2100000000E+04    0.4773976738E-02    0.6947472401E+00    0.2448910729E-01    0.5595403752E-02    0.1906340482E-02
    0.2300000000E+04    0.6616044197E-02    0.6948503457E+00    0.3405267741E-01    0.7804972957E-02    0.1146219090E-02
    0.2500000000E+04    0.8274963498E-02    0.6949369487E+00    0.4275726191E-01    0.9836709877E-02    0.5616068716E-03
    0.2700000000E+04    0.9415617232E-02    0.6950107132E+00    0.4885684094E-01    0.1128597149E-01    0.2667067300E-03
    0.2900000000E+04    0.1017629002E-01    0.6950742936E+00    0.5303359958E-01    0.1230249552E-01    0.1542834697E-03
    0.3100000000E+04    0.1075715230E-01    0.6951296598E+00    0.5630545744E-01    0.1311676468E-01    0.1164587306E-03
    0.3300000000E+04    0.1125952601E-01    0.6951783049E+00    0.5919082364E-01    0.1384689032E-01    0.1043454562E-03
    0.3500000000E+04    0.1172252300E-01    0.6952213805E+00    0.6189002732E-01    0.1453858120E-01    0.1006268381E-03
    0.3700000000E+04    0.1216036376E-01    0.6952597896E+00    0.6447543092E-01    0.1520825822E-01    0.9961410130E-04
    0.3900000000E+04    0.1257845739E-01    0.6952942503E+00    0.6697393734E-01    0.1586189974E-01    0.9947103150E-04
    0.4100000000E+04    0.1297917905E-01    0.6953253402E+00    0.6939678201E-01    0.1650187972E-01    0.9960437153E-04
    0.4300000000E+04    0.1336384554E-01    0.6953535298E+00    0.7174976178E-01    0.1712932527E-01    0.9982134848E-04
    0.4500000000E+04    0.1373338444E-01    0.6953792059E+00    0.7403671121E-01    0.1774492049E-01    0.1000590947E-03
    0.4700000000E+04    0.1408856254E-01    0.6954026894E+00    0.7626068987E-01    0.1834918153E-01    0.1002972521E-03
    0.4900000000E+04    0.1443006531E-01    0.6954242491E+00    0.7842439473E-01    0.1894255186E-01    0.1005294833E-03
    0.1000000000E+04    0.6734687868E-03    0.6934439851E+00    0.3403483892E-02    0.7699093816E-03    0.3867925685E-02
    0.3000000000E+04    0.1048078808E-01    0.6951029008E+00    0.5473964870E-01    0.1272512509E-01    0.1301939928E-03
    0.5000000000E+04    0.1459588803E-01    0.6954343796E+00    0.7948442679E-01    0.1923528057E-01    0.1006427694E-03
    0.7000000000E+04    0.1732922544E-01    0.6955759752E+00    0.9805171727E-01    0.2460482601E-01    0.1025529484E-03
    0.9000000000E+04    0.1922570074E-01    0.6956543402E+00    0.1127005490E+00    0.2923234145E-01    0.1040013984E-03
    0.1100000000E+05    0.2056041464E-01    0.6957040064E+00    0.1245614828E+00    0.3330918386E-01    0.1051715277E-03
    0.1300000000E+05    0.2150487705E-01    0.6957382453E+00    0.1343656139E+00    0.3696278323E-01    0.1061550706E-03
    0.1500000000E+05    0.2217073996E-01    0.6957632445E+00    0.1426070897E+00    0.4028174484E-01    0.1070045380E-03
    0.1700000000E+05    0.2263328947E-01    0.6957822763E+00    0.1496321872E+00    0.4332988974E-01    0.1077528632E-03
    0.1900000000E+05    0.2294479022E-01    0.6957972332E+00    0.1556909702E+00    0.4615455634E-01    0.1084220911E-03
    0.2100000000E+05    0.2314242333E-01    0.6958092852E+00    0.1609686730E+00    0.4879173893E-01    0.1090277176E-03
    0.2300000000E+05    0.2325319506E-01    0.6958191944E+00    0.1656055293E+00    0.5126939336E-01    0.1095810590E-03
    0.2500000000E+05    0.2329707417E-01    0.6958274786E+00    0.1697097271E+00    0.5360963471E-01    0.1100906364E-03
    0.2700000000E+05    0.2328905518E-01    0.6958345014E+00    0.1733661202E+00    0.5583024057E-01    0.1105630295E-03
    0.2900000000E+05    0.2324054949E-01    0.6958405260E+00    0.1766422369E+00    0.5794570512E-01    0.1110034267E-03
    0.3100000000E+05    0.2316034384E-01    0.6958457474E+00    0.1795925162E+00    0.5996799457E-01    0.1114159934E-03
    0.3300000000E+05    0.2305527386E-01    0.6958503130E+00    0.1822613552E+00    0.6190709922E-01    0.1118041246E-03
    0.3500000000E+05    0.2293070532E-01    0.6958543363E+00    0.1846853400E+00    0.6377144390E-01    0.1121706255E-03
    0.3700000000E+05    0.2279088363E-01    0.6958579065E+00    0.1868949039E+00    0.6556819796E-01    0.1125178402E-03
    0.3900000000E+05    0.2263919102E-01    0.6958610940E+00    0.1889155792E+00    0.6730351265E-01    0.1128477486E-03
    0.4100000000E+05    0.2247833832E-01    0.6958639556E+00    0.1907689540E+00    0.6898270533E-01    0.1131620382E-03
    0.4300000000E+05    0.2231050950E-01    0.6958665373E+00    0.1924734117E+00    0.7061040402E-01    0.1134621589E-03
    0.4500000000E+05    0.2213747191E-01    0.6958688772E+00    0.1940447094E+00    0.7219066203E-01    0.1137493664E-03
    0.4700000000E+05    0.2196066102E-01    0.6958710064E+00    0.1954964355E+00    0.7372704992E-01    0.1140247549E-03
    0.4900000000E+05    0.2178124621E-01    0.6958729513E+00    0.1968403729E+00    0.7522272970E-01    0.1142892842E-03
    0.1000000000E+05    0.1995077810E-01    0.6956816821E+00    0.1189268388E+00    0.3133050116E-01    0.1046142393E-03
    0.3000000000E+05    0.2320394261E-01    0.6958432270E+00    0.1781551254E+00    0.5896783141E-01    0.1112129610E-03
    0.5000000000E+05    0.2169086791E-01    0.6958738617E+00    0.1974751827E+00    0.7595619560E-01    0.1144177451E-03
    0.7000000000E+05    0.1990233423E-01    0.6958862771E+00    0.2064260534E+00    0.8903379484E-01    0.1165783932E-03
    0.9000000000E+05    0.1829985513E-01    0.6958927725E+00    0.2111035359E+00    0.9998126926E-01    0.1182185845E-03
    0.1100000000E+06    0.1692015088E-01    0.6958966466E+00    0.2136086047E+00    0.1095491972E+00    0.1195447179E-03
    0.1300000000E+06    0.1573467915E-01    0.6958991471E+00    0.2148672661E+00    0.1181322137E+00    0.1206599883E-03
    0.1500000000E+06    0.1470899519E-01    0.6959008462E+00    0.2153527328E+00    0.1259668379E+00    0.1216235865E-03
    0.1700000000E+06    0.1381358113E-01    0.6959020417E+00    0.2153321077E+00    0.1332076899E+00    0.1224726863E-03
    0.1900000000E+06    0.1302489668E-01    0.6959029029E+00    0.2149673285E+00    0.1399622998E+00    0.1232321959E-03
    0.2100000000E+06    0.1232446507E-01    0.6959035327E+00    0.2143620028E+00    0.1463089914E+00    0.1239196370E-03
    0.2300000000E+06    0.1169775942E-01    0.6959039970E+00    0.2135852521E+00    0.1523069018E+00    0.1245478131E-03
    0.2500000000E+06    0.1113326727E-01    0.6959043397E+00    0.2126847554E+00    0.1580019809E+00    0.1251263694E-03
    0.2700000000E+06    0.1062177256E-01    0.6959045912E+00    0.2116943039E+00    0.1634307783E+00    0.1256627568E-03
    0.2900000000E+06    0.1015581950E-01    0.6959047728E+00    0.2106383853E+00    0.1686229389E+00    0.1261628523E-03
    0.3100000000E+06    0.9729313998E-02    0.6959049004E+00    0.2095350767E+00    0.1736029066E+00    0.1266313756E-03
    0.3300000000E+06    0.9337226230E-02    0.6959049854E+00    0.2083979306E+00    0.1783911232E+00    0.1270721744E-03
    0.3500000000E+06    0.8975366926E-02    0.6959050365E+00    0.2072372387E+00    0.1830048937E+00    0.1274884284E-03
    0.3700000000E+06    0.8640217392E-02    0.6959050606E+00    0.2060609014E+00    0.1874590243E+00    0.1278827955E-03
    0.3900000000E+06    0.8328799092E-02    0.6959050628E+00    0.2048750374E+00    0.1917663038E+00    0.1282575206E-03
    0.4100000000E+06    0.8038572551E-02    0.6959050473E+00    0.2036844194E+00    0.1959378705E+00    0.1286145175E-03
    0.4300000000E+06    0.7767358222E-02    0.6959050171E+00    0.2024927915E+00    0.1999834980E+00    0.1289554309E-03
    0.4500000000E+06    0.7513273956E-02    0.6959049750E+00    0.2013031028E+00    0.2039118207E+00    0.1292816849E-03
    0.4700000000E+06    0.7274685150E-02    0.6959049231E+00    0.2001176822E+00    0.2077305122E+00    0.1295945211E-03
    0.4900000000E+06    0.7050164684E-02    0.6959048631E+00    0.1989383711E+00    0.2114464307E+00    0.1298950283E-03
    0.1000000000E+06    0.1758352869E-01    0.6958949354E+00    0.2125544489E+00    0.1049079254E+00    0.1189130238E-03
    0.3000000000E+06    0.9937972189E-02    0.6959048426E+00    0.2100917188E+00    0.1711380869E+00    0.1264008023E-03
    0.5000000000E+06    0.6942782718E-02    0.6959048305E+00    0.1983514741E+00    0.2132677996E+00    0.1300409632E-03
    0.7000000000E+06    0.5297729338E-02    0.6959039889E+00    0.1871546269E+00    0.2455159738E+00    0.1324957112E-03
    0.9000000000E+06    0.4247206648E-02    0.6959030528E+00    0.1771262534E+00    0.2719108094E+00    0.1343593527E-03
    0.1100000000E+07    0.3516157524E-02    0.6959021560E+00    0.1681888904E+00    0.2943064862E+00    0.1358662380E-03
    0.1300000000E+07    0.2978134563E-02    0.6959013245E+00    0.1601868859E+00    0.3137484850E+00    0.1371335659E-03
    0.1500000000E+07    0.2566176198E-02    0.6959005591E+00    0.1529769888E+00    0.3308988371E+00    0.1382285698E-03
    0.1700000000E+07    0.2241260579E-02    0.6958998538E+00    0.1464404629E+00    0.3462096960E+00    0.1391934786E-03
    0.1900000000E+07    0.1979014215E-02    0.6958992016E+00    0.1404808959E+00    0.3600067497E+00    0.1400565895E-03
    0.2100000000E+07    0.1763389016E-02    0.6958985959E+00    0.1350199121E+00    0.3725340273E+00    0.1408378096E-03
    0.2300000000E+07    0.1583370945E-02    0.6958980310E+00    0.1299933027E+00    0.3839800068E+00    0.1415516858E-03
    0.2500000000E+07    0.1431143103E-02    0.6958975019E+00    0.1253479591E+00    0.3944938070E+00    0.1422091772E-03
    0.2700000000E+07    0.1301001856E-02    0.6958970046E+00    0.1210395257E+00    0.4041957335E+00    0.1428187497E-03
    0.2900000000E+07    0.1188687509E-02    0.6958965355E+00    0.1170306160E+00    0.4131844295E+00    0.1433870814E-03
    0.3100000000E+07    0.1090954962E-02    0.6958960916E+00    0.1132894483E+00    0.4215418849E+00    0.1439195349E-03
    0.3300000000E+07    0.1005289304E-02    0.6958956703E+00    0.1097887954E+00    0.4293370446E+00    0.1444204827E-03
    0.3500000000E+07    0.9297121279E-03    0.6958952695E+00    0.1065051666E+00    0.4366284698E+00    0.1448935378E-03
    0.3700000000E+07    0.8626464374E-03    0.6958948872E+00    0.1034181643E+00    0.4434663402E+00    0.1453417204E-03
    0.3900000000E+07    0.8028204032E-03    0.6958945218E+00    0.1005099723E+00    0.4498939876E+00    0.1457675817E-03
    0.4100000000E+07    0.7491975191E-03    0.6958941719E+00    0.9776494550E-01    0.4559490889E+00    0.1461732962E-03
    0.4300000000E+07    0.7009250662E-03    0.6958938361E+00    0.9516927791E-01    0.4616646068E+00    0.1465607330E-03
    0.4500000000E+07    0.6572955172E-03    0.6958935133E+00    0.9271073095E-01    0.4670695400E+00    0.1469315106E-03
    0.4700000000E+07    0.6177172420E-03    0.6958932027E+00    0.9037841019E-01    0.4721895292E+00    0.1472870397E-03
    0.4900000000E+07    0.5816920023E-03    0.6958929032E+00    0.8816258022E-01    0.4770473502E+00    0.1476285578E-03
    0.1000000000E+07    0.3851636527E-02    0.6959025968E+00    0.1725308477E+00    0.2835311412E+00    0.1351484357E-03
    0.3000000000E+07    0.1138170189E-02    0.6958963106E+00    0.1151283623E+00    0.4174374825E+00    0.1436574995E-03
    0.5000000000E+07    0.5648772240E-03    0.6958927574E+00    0.8709558530E-01    0.4793843832E+00    0.1477944088E-03
    0.7000000000E+07    0.3400977341E-03    0.6958902738E+00    0.7016216691E-01    0.5163048895E+00    0.1505841746E-03
    0.9000000000E+07    0.2277560267E-03    0.6958883566E+00    0.5876565222E-01    0.5410005149E+00    0.1527021716E-03
    0.1100000000E+08    0.1633319802E-03    0.6958867913E+00    0.5055661014E-01    0.5587264222E+00    0.1544147253E-03
    0.1300000000E+08    0.1228994989E-03    0.6958854663E+00    0.4435712220E-01    0.5720826255E+00    0.1558550273E-03
    0.1500000000E+08    0.9583999881E-04    0.6958843162E+00    0.3950816535E-01    0.5825126951E+00    0.1570994860E-03
    0.1700000000E+08    0.7683406744E-04    0.6958832992E+00    0.3561124685E-01    0.5908851981E+00    0.1581960938E-03
    0.1900000000E+08    0.6297139752E-04    0.6958823871E+00    0.3241090528E-01    0.5977550196E+00    0.1591770097E-03
    0.2100000000E+08    0.5254869449E-04    0.6958815596E+00    0.2973569432E-01    0.6034936073E+00    0.1600648577E-03
    0.2300000000E+08    0.4451439024E-04    0.6958808022E+00    0.2746621584E-01    0.6083591387E+00    0.1608761702E-03
    0.2500000000E+08    0.3819043659E-04    0.6958801035E+00    0.2551673893E-01    0.6125367067E+00    0.1616234019E-03
    0.2700000000E+08    0.3312355380E-04    0.6958794549E+00    0.2382410416E-01    0.6161625028E+00    0.1623161743E-03
