  Pressure (Pa) 22mC5-500 (mol/kg) 24mC5-500 (mol/kg) 2mC6-500 (mol/kg) 3mC6-500 (mol/kg) C7-500 (mol/kg)
    0.1000000000E+01    0.9970282707E-05    0.6964648334E-01    0.1946282148E-04    0.7348883910E-06    0.4225985576E-02
    0.3000000000E+01    0.2391504667E-04    0.1740586381E+00    0.4512723453E-04    0.1900198843E-05    0.4322675157E-02
    0.5000000000E+01    0.3309667936E-04    0.2485979936E+00    0.6092070839E-04    0.2976461865E-05    0.4391049488E-02
    0.7000000000E+01    0.3947705234E-04    0.3044813585E+00    0.7126853374E-04    0.4009264425E-05    0.4442661116E-02
    0.9000000000E+01    0.4409694413E-04    0.3479343642E+00    0.7841737424E-04    0.5014116147E-05    0.4483136850E-02
    0.1100000000E+02    0.4755584317E-04    0.3826897602E+00    0.8360537909E-04    0.5998815031E-05    0.4515798761E-02
    0.1300000000E+02    0.5022022541E-04    0.4111216528E+00    0.8755489731E-04    0.6968018364E-05    0.4542754714E-02
    0.1500000000E+02    0.5232474927E-04    0.4348121105E+00    0.9070605351E-04    0.7924803237E-05    0.4565410861E-02
    0.1700000000E+02    0.5402537734E-04    0.4548560403E+00    0.9333631902E-04    0.8871343921E-05    0.4584742673E-02
    0.1900000000E+02    0.5542899676E-04    0.4720353037E+00    0.9562543963E-04    0.9809252503E-05    0.4601448788E-02
    0.2100000000E+02    0.5661076503E-04    0.4869231357E+00    0.9769240715E-04    0.1073976839E-04    0.4616043102E-02
    0.2300000000E+02    0.5762469065E-04    0.4999493812E+00    0.9961735598E-04    0.1166387186E-04    0.4628912293E-02
    0.2500000000E+02    0.5851031392E-04    0.5114426934E+00    0.1014549677E-03    0.1258235616E-04    0.4640353056E-02
    0.2700000000E+02    0.5929705220E-04    0.5216586569E+00    0.1032429119E-03    0.1349587527E-04    0.4650596956E-02
    0.2900000000E+02    0.6000709990E-04    0.5307990261E+00    0.1050072920E-03    0.1440497696E-04    0.4659827454E-02
    0.3100000000E+02    0.6065740790E-04    0.5390251886E+00    0.1067662343E-03    0.1531012612E-04    0.4668191844E-02
    0.3300000000E+02    0.6126106199E-04    0.5464677805E+00    0.1085322955E-03    0.1621172191E-04    0.4675809790E-02
    0.3500000000E+02    0.6182825990E-04    0.5532336782E+00    0.1103141066E-03    0.1711011047E-04    0.4682779556E-02
    0.3700000000E+02    0.6236701487E-04    0.5594111652E+00    0.1121175085E-03    0.1800559459E-04    0.4689182612E-02
    0.3900000000E+02    0.6288366965E-04    0.5650738072E+00    0.1139463480E-03    0.1889844125E-04    0.4695087094E-02
    0.4100000000E+02    0.6338327693E-04    0.5702833961E+00    0.1158030415E-03    0.1978888742E-04    0.4700550446E-02
    0.4300000000E+02    0.6386988407E-04    0.5750922155E+00    0.1176889775E-03    0.2067714481E-04    0.4705621453E-02
    0.4500000000E+02    0.6434674872E-04    0.5795448014E+00    0.1196048066E-03    0.2156340361E-04    0.4710341821E-02
    0.4700000000E+02    0.6481650359E-04    0.5836793263E+00    0.1215506519E-03    0.2244783550E-04    0.4714747430E-02
    0.4900000000E+02    0.6528128342E-04    0.5875286967E+00    0.1235262626E-03    0.2333059626E-04    0.4718869324E-02
    0.1000000000E+02    0.4594466160E-04    0.3662274278E+00    0.8120275606E-04    0.5508644860E-05    0.4500291978E-02
    0.3000000000E+02    0.6033882595E-04    0.5350175901E+00    0.1058865498E-03    0.1485801928E-04    0.4664109868E-02
    0.5000000000E+02    0.6551236345E-04    0.5893555120E+00    0.1245250775E-03    0.2377139480E-04    0.4720832454E-02
    0.7000000000E+02    0.7015445134E-04    0.6161793800E+00    0.1458766323E-03    0.3252838508E-04    0.4750213099E-02
    0.9000000000E+02    0.7510601738E-04    0.6321651284E+00    0.1692616345E-03    0.4122587961E-04    0.4768209929E-02
    0.1100000000E+03    0.8044095088E-04    0.6427773602E+00    0.1940330108E-03    0.4991353171E-04    0.4780255778E-02
    0.1300000000E+03    0.8612125903E-04    0.6503355357E+00    0.2198063472E-03    0.5862177253E-04    0.4788740585E-02
    0.1500000000E+03    0.9209929908E-04    0.6559921000E+00    0.2463576933E-03    0.6737140997E-04    0.4794892804E-02
    0.1700000000E+03    0.9833533506E-04    0.6603844494E+00    0.2735536542E-03    0.7617779955E-04    0.4799414209E-02
    0.1900000000E+03    0.1047989253E-03    0.6638937473E+00    0.3013130708E-03    0.8505294143E-04    0.4802737623E-02
    0.2100000000E+03    0.1114673023E-03    0.6667619233E+00    0.3295860755E-03    0.9400664631E-04    0.4805145971E-02
    0.2300000000E+03    0.1183235553E-03    0.6691499289E+00    0.3583422745E-03    0.1030472335E-03    0.4806832828E-02
    0.2500000000E+03    0.1253551594E-03    0.6711690020E+00    0.3875638275E-03    0.1121819735E-03    0.4807935582E-02
    0.2700000000E+03    0.1325528795E-03    0.6728984851E+00    0.4172412514E-03    0.1214173823E-03    0.4808554717E-02
    0.2900000000E+03    0.1399099697E-03    0.6743964926E+00    0.4473707931E-03    0.1307594241E-03    0.4808765581E-02
    0.3100000000E+03    0.1474215921E-03    0.6757065647E+00    0.4779527395E-03    0.1402136555E-03    0.4808625878E-02
    0.3300000000E+03    0.1550843915E-03    0.6768619667E+00    0.5089903033E-03    0.1497853321E-03    0.4808180587E-02
    0.3500000000E+03    0.1628961822E-03    0.6778885511E+00    0.5404888733E-03    0.1594794872E-03    0.4807465307E-02
    0.3700000000E+03    0.1708557137E-03    0.6788067135E+00    0.5724555017E-03    0.1693009936E-03    0.4806508580E-02
    0.3900000000E+03    0.1789624958E-03    0.6796327600E+00    0.6048985473E-03    0.1792546112E-03    0.4805333542E-02
    0.4100000000E+03    0.1872166650E-03    0.6803798831E+00    0.6378274251E-03    0.1893450252E-03    0.4803959126E-02
    0.4300000000E+03    0.1956188822E-03    0.6810588715E+00    0.6712524298E-03    0.1995768774E-03    0.4802400948E-02
    0.4500000000E+03    0.2041702543E-03    0.6816786333E+00    0.7051846096E-03    0.2099547921E-03    0.4800671971E-02
    0.4700000000E+03    0.2128722725E-03    0.6822465886E+00    0.7396356766E-03    0.2204833979E-03    0.4798783016E-02
    0.4900000000E+03    0.2217267650E-03    0.6827689680E+00    0.7746179448E-03    0.2311673461E-03    0.4796743146E-02
    0.1000000000E+03    0.7772725910E-04    0.6379580687E+00    0.1815029240E-03    0.4556873633E-04    0.4774788027E-02
    0.3000000000E+03    0.1436467046E-03    0.6750727396E+00    0.4626050733E-03    0.1354721816E-03    0.4808736486E-02
    0.5000000000E+03    0.2262118432E-03    0.6830147461E+00    0.7923122807E-03    0.2365690375E-03    0.4795669047E-02
    0.7000000000E+03    0.3245833595E-03    0.6864727669E+00    0.1177547110E-02    0.3539516014E-03    0.4767561818E-02
    0.9000000000E+03    0.4421544090E-03    0.6884070743E+00    0.1634285788E-02    0.4929323134E-03    0.4728096057E-02
    0.1100000000E+04    0.5843718080E-03    0.6896423338E+00    0.2184695764E-02    0.6604155877E-03    0.4676896691E-02
    0.1300000000E+04    0.7591293723E-03    0.6904991382E+00    0.2859847066E-02    0.8659608380E-03    0.4611776852E-02
    0.1500000000E+04    0.9778917968E-03    0.6911280772E+00    0.3704423032E-02    0.1123281274E-02    0.4528910305E-02
    0.1700000000E+04    0.1257624942E-02    0.6916092253E+00    0.4784362526E-02    0.1452613459E-02    0.4422362563E-02
    0.1900000000E+04    0.1623961805E-02    0.6919890861E+00    0.6199270696E-02    0.1884554912E-02    0.4283123242E-02
    0.2100000000E+04    0.2116210722E-02    0.6922965142E+00    0.8102063012E-02    0.2466153150E-02    0.4097574895E-02
    0.2300000000E+04    0.2794385217E-02    0.6925503608E+00    0.1072672294E-01    0.3269569079E-02    0.3845557661E-02
    0.2500000000E+04    0.3745017321E-02    0.6927634622E+00    0.1441199818E-01    0.4399692807E-02    0.3499636311E-02
    0.2700000000E+04    0.5068655447E-02    0.6929448607E+00    0.1955529797E-01    0.5980712780E-02    0.3032312977E-02
    0.2900000000E+04    0.6801447950E-02    0.6931011096E+00    0.2631163525E-01    0.8064656564E-02    0.2447307623E-02
    0.3100000000E+04    0.8751434681E-02    0.6932370745E+00    0.3395616521E-01    0.1043502343E-01    0.1833946685E-02
    0.3300000000E+04    0.1049993856E-01    0.6933564431E+00    0.4087342804E-01    0.1259864524E-01    0.1346581128E-02
    0.3500000000E+04    0.1178367404E-01    0.6934620613E+00    0.4602937518E-01    0.1423440548E-01    0.1058335376E-02
    0.3700000000E+04    0.1266834074E-01    0.6935561604E+00    0.4966091160E-01    0.1540969239E-01    0.9214872654E-03
    0.3900000000E+04    0.1332108456E-01    0.6936405145E+00    0.5240664627E-01    0.1631762020E-01    0.8643671805E-03
    0.4100000000E+04    0.1385748863E-01    0.6937165515E+00    0.5471168811E-01    0.1709385720E-01    0.8424580773E-03
    0.4300000000E+04    0.1433529767E-01    0.6937854341E+00    0.5679918713E-01    0.1780666285E-01    0.8349779934E-03
    0.4500000000E+04    0.1478022884E-01    0.6938481181E+00    0.5876857833E-01    0.1848647956E-01    0.8332310254E-03
    0.4700000000E+04    0.1520341874E-01    0.6939053966E+00    0.6066273944E-01    0.1914638926E-01    0.8337204104E-03
    0.4900000000E+04    0.1560979951E-01    0.6939579333E+00    0.6250040754E-01    0.1979204057E-01    0.8350575747E-03
    0.1000000000E+04    0.5097562281E-03    0.6890860888E+00    0.1896092875E-02    0.5725903582E-03    0.4704063420E-02
    0.3000000000E+04    0.7773395399E-02    0.6931713741E+00    0.3011532093E-01    0.9242090829E-02    0.2134593970E-02
    0.5000000000E+04    0.1580747126E-01    0.6939826019E+00    0.6340096340E-01    0.2011037479E-01    0.8358561086E-03
    0.7000000000E+04    0.1914897408E-01    0.6943258107E+00    0.7938893889E-01    0.2598855546E-01    0.8515931494E-03
    0.9000000000E+04    0.2159571315E-01    0.6945137704E+00    0.9234086827E-01    0.3112087799E-01    0.8637012794E-03
    0.1100000000E+05    0.2341334871E-01    0.6946315830E+00    0.1030572801E+00    0.3568475997E-01    0.8734670623E-03
    0.1300000000E+05    0.2477553757E-01    0.6947118689E+00    0.1120761211E+00    0.3980209388E-01    0.8816669522E-03
    0.1500000000E+05    0.2580033627E-01    0.6947697920E+00    0.1197741073E+00    0.4356027296E-01    0.8887437861E-03
    0.1700000000E+05    0.2657039565E-01    0.6948133470E+00    0.1264230983E+00    0.4702382290E-01    0.8949745863E-03
    0.1900000000E+05    0.2714503125E-01    0.6948471425E+00    0.1322243403E+00    0.5024158403E-01    0.9005444358E-03
    0.2100000000E+05    0.2756772223E-01    0.6948740185E+00    0.1373300938E+00    0.5325132008E-01    0.9055832496E-03
    0.2300000000E+05    0.2787092675E-01    0.6948958188E+00    0.1418577576E+00    0.5608277417E-01    0.9101857942E-03
    0.2500000000E+05    0.2807926361E-01    0.6949137912E+00    0.1458993619E+00    0.5875975361E-01    0.9144233626E-03
    0.2700000000E+05    0.2821166748E-01    0.6949288097E+00    0.1495281124E+00    0.6130158773E-01    0.9183509636E-03
    0.2900000000E+05    0.2828288128E-01    0.6949415041E+00    0.1528030019E+00    0.6372416993E-01    0.9220119477E-03
    0.3100000000E+05    0.2830450989E-01    0.6949523393E+00    0.1557721253E+00    0.6604071696E-01    0.9254410967E-03
    0.3300000000E+05    0.2828577705E-01    0.6949616659E+00    0.1584751050E+00    0.6826233201E-01    0.9286667504E-03
    0.3500000000E+05    0.2823407778E-01    0.6949697528E+00    0.1609448935E+00    0.7039842868E-01    0.9317123111E-03
    0.3700000000E+05    0.2815538711E-01    0.6949768098E+00    0.1632091325E+00    0.7245705492E-01    0.9345973318E-03
    0.3900000000E+05    0.2805456654E-01    0.6949830028E+00    0.1652911915E+00    0.7444514356E-01    0.9373383201E-03
    0.4100000000E+05    0.2793559636E-01    0.6949884646E+00    0.1672109705E+00    0.7636870850E-01    0.9399493413E-03
    0.4300000000E+05    0.2780175380E-01    0.6949933028E+00    0.1689855271E+00    0.7823299987E-01    0.9424424800E-03
    0.4500000000E+05    0.2765575085E-01    0.6949976053E+00    0.1706295719E+00    0.8004262804E-01    0.9448281964E-03
    0.4700000000E+05    0.2749984195E-01    0.6950014446E+00    0.1721558630E+00    0.8180166361E-01    0.9471156062E-03
    0.4900000000E+05    0.2733590874E-01    0.6950048812E+00    0.1735755233E+00    0.8351371871E-01    0.9493127025E-03
    0.1000000000E+05    0.2257069629E-01    0.6945787921E+00    0.9794023828E-01    0.3346526811E-01    0.8688175254E-03
    0.3000000000E+05    0.2829926874E-01    0.6949471299E+00    0.1543231330E+00    0.6489495989E-01    0.9237535994E-03
    0.5000000000E+05    0.2725143595E-01    0.6950064647E+00    0.1742484598E+00    0.8435314867E-01    0.9503796184E-03
    0.7000000000E+05    0.2541148257E-01    0.6950258445E+00    0.1839401086E+00    0.9930110082E-01    0.9683212528E-03
    0.9000000000E+05    0.2360029022E-01    0.6950332181E+00    0.1892475649E+00    0.1117824177E+00    0.9819376596E-03
    0.1100000000E+06    0.2196586036E-01    0.6950357273E+00    0.1922636416E+00    0.1226647540E+00    0.9929451779E-03
    0.1300000000E+06    0.2051971027E-01    0.6950359377E+00    0.1939347453E+00    0.1324050334E+00    0.1002201489E-02
    0.1500000000E+06    0.1924269071E-01    0.6950349625E+00    0.1947544992E+00    0.1412771753E+00    0.1010198383E-02
    0.1700000000E+06    0.1811088653E-01    0.6950333461E+00    0.1950064414E+00    0.1494602467E+00    0.1017244654E-02
    0.1900000000E+06    0.1710229847E-01    0.6950313778E+00    0.1948651768E+00    0.1570787833E+00    0.1023547169E-02
    0.2100000000E+06    0.1619824590E-01    0.6950292206E+00    0.1944440258E+00    0.1642235089E+00    0.1029251437E-02
    0.2300000000E+06    0.1538327025E-01    0.6950269701E+00    0.1938196071E+00    0.1709629409E+00    0.1034463768E-02
    0.2500000000E+06    0.1464466386E-01    0.6950246841E+00    0.1930454460E+00    0.1773503366E+00    0.1039264245E-02
    0.2700000000E+06    0.1397196691E-01    0.6950223981E+00    0.1921599435E+00    0.1834280763E+00    0.1043714727E-02
    0.2900000000E+06    0.1335652872E-01    0.6950201342E+00    0.1911912614E+00    0.1892305511E+00    0.1047864004E-02
    0.3100000000E+06    0.1279114999E-01    0.6950179061E+00    0.1901604345E+00    0.1947861332E+00    0.1051751254E-02
    0.3300000000E+06    0.1226979849E-01    0.6950157217E+00    0.1890834186E+00    0.2001185625E+00    0.1055408418E-02
    0.3500000000E+06    0.1178738522E-01    0.6950135860E+00    0.1879724746E+00    0.2052479475E+00    0.1058861890E-02
    0.3700000000E+06    0.1133958810E-01    0.6950115012E+00    0.1868371289E+00    0.2101915033E+00    0.1062133729E-02
    0.3900000000E+06    0.1092271298E-01    0.6950094681E+00    0.1856848521E+00    0.2149641077E+00    0.1065242571E-02
    0.4100000000E+06    0.1053358321E-01    0.6950074868E+00    0.1845215478E+00    0.2195787261E+00    0.1068204298E-02
    0.4300000000E+06    0.1016945158E-01    0.6950055563E+00    0.1833519116E+00    0.2240467420E+00    0.1071032561E-02
    0.4500000000E+06    0.9827929527E-02    0.6950036756E+00    0.1821796973E+00    0.2283782175E+00    0.1073739181E-02
    0.4700000000E+06    0.9506929865E-02    0.6950018431E+00    0.1810079176E+00    0.2325821004E+00    0.1076334461E-02
    0.4900000000E+06    0.9204620192E-02    0.6950000573E+00    0.1798389970E+00    0.2366663918E+00    0.1078827438E-02
    0.1000000000E+06    0.2275897343E-01    0.6950348684E+00    0.1909676915E+00    0.1173890164E+00    0.9877019908E-03
    0.3000000000E+06    0.1306798340E-01    0.6950190151E+00    0.1906825185E+00    0.1920376247E+00    0.1049838239E-02
    0.5000000000E+06    0.9059961596E-02    0.6949991813E+00    0.1792562354E+00    0.2386659661E+00    0.1080038090E-02
    0.7000000000E+06    0.6840996510E-02    0.6949837084E+00    0.1680608681E+00    0.2738001981E+00    0.1100401558E-02
    0.9000000000E+06    0.5426397666E-02    0.6949712128E+00    0.1579963645E+00    0.3021502097E+00    0.1115860622E-02
    0.1100000000E+07    0.4447083545E-02    0.6949607560E+00    0.1490520729E+00    0.3258923625E+00    0.1128359865E-02
    0.1300000000E+07    0.3731102842E-02    0.6949517668E+00    0.1410867698E+00    0.3462559064E+00    0.1138871710E-02
    0.1500000000E+07    0.3186812904E-02    0.6949438809E+00    0.1339561117E+00    0.3640191141E+00    0.1147953980E-02
    0.1700000000E+07    0.2760670514E-02    0.6949368541E+00    0.1275357519E+00    0.3797126114E+00    0.1155957030E-02
    0.1900000000E+07    0.2419223248E-02    0.6949305146E+00    0.1217228209E+00    0.3937174682E+00    0.1163115622E-02
    0.2100000000E+07    0.2140472938E-02    0.6949247378E+00    0.1164328887E+00    0.4063180744E+00    0.1169594907E-02
    0.2300000000E+07    0.1909356447E-02    0.6949194301E+00    0.1115964703E+00    0.4177330417E+00    0.1175515565E-02
    0.2500000000E+07    0.1715215181E-02    0.6949145194E+00    0.1071560092E+00    0.4281344123E+00    0.1180968510E-02
    0.2700000000E+07    0.1550299216E-02    0.6949099494E+00    0.1030634629E+00    0.4376601932E+00    0.1186023972E-02
    0.2900000000E+07    0.1408842804E-02    0.6949056747E+00    0.9927841671E-01    0.4464228621E+00    0.1190737351E-02
    0.3100000000E+07    0.1286471385E-02    0.6949016587E+00    0.9576661622E-01    0.4545153285E+00    0.1195153131E-02
    0.3300000000E+07    0.1179809043E-02    0.6948978711E+00    0.9249882221E-01    0.4620152274E+00    0.1199307584E-02
    0.3500000000E+07    0.1086211503E-02    0.6948942868E+00    0.8944991182E-01    0.4689880811E+00    0.1203230679E-02
    0.3700000000E+07    0.1003580193E-02    0.6948908845E+00    0.8659816714E-01    0.4754896775E+00    0.1206947471E-02
    0.3900000000E+07    0.9302300437E-03    0.6948876462E+00    0.8392470773E-01    0.4815678860E+00    0.1210479121E-02
    0.4100000000E+07    0.8647937558E-03    0.6948845565E+00    0.8141303412E-01    0.4872640683E+00    0.1213843669E-02
    0.4300000000E+07    0.8061513396E-03    0.6948816019E+00    0.7904865780E-01    0.4926141867E+00    0.1217056616E-02
    0.4500000000E+07    0.7533774793E-03    0.6948787708E+00    0.7681879900E-01    0.4976496866E+00    0.1220131389E-02
    0.4700000000E+07    0.7057016952E-03    0.6948760531E+00    0.7471213808E-01    0.5023982060E+00    0.1223079689E-02
    0.4900000000E+07    0.6624778233E-03    0.6948734398E+00    0.7271860967E-01    0.5068841512E+00    0.1225911780E-02
    0.1000000000E+07    0.4895745573E-02    0.6949657715E+00    0.1533923558E+00    0.3145062783E+00    0.1122405925E-02
    0.3000000000E+07    0.1345502261E-02    0.6949036364E+00    0.9749029418E-01    0.4505477020E+00    0.1192980007E-02
    0.5000000000E+07    0.6423614918E-03    0.6948721697E+00    0.7176142489E-01    0.5090355197E+00    0.1227287119E-02
    0.7000000000E+07    0.3775513175E-03    0.6948507284E+00    0.5681531890E-01    0.5424345227E+00    0.1250420915E-02
    0.9000000000E+07    0.2487321048E-03    0.6948343699E+00    0.4702059206E-01    0.5641497556E+00    0.1267983327E-02
    0.1100000000E+08    0.1762763599E-03    0.6948211045E+00    0.4009963063E-01    0.5794241893E+00    0.1282183292E-02
    0.1300000000E+08    0.1314606105E-03    0.6948099267E+00    0.3494816976E-01    0.5907599870E+00    0.1294125475E-02
    0.1500000000E+08    0.1018057781E-03    0.6948002555E+00    0.3096432209E-01    0.5995084907E+00    0.1304443573E-02
    0.1700000000E+08    0.8116509760E-04    0.6947917246E+00    0.2779163049E-01    0.6064652128E+00    0.1313535604E-02
    0.1900000000E+08    0.6622138204E-04    0.6947840876E+00    0.2520540869E-01    0.6121294742E+00    0.1321668268E-02
    0.2100000000E+08    0.5505509745E-04    0.6947771707E+00    0.2305695742E-01    0.6168306956E+00    0.1329029188E-02
    0.2300000000E+08    0.4649242304E-04    0.6947708467E+00    0.2124392964E-01    0.6207950656E+00    0.1335755464E-02
    0.2500000000E+08    0.3978261029E-04    0.6947650196E+00    0.1969356954E-01    0.6241830690E+00    0.1341950381E-02
    0.2700000000E+08    0.3442728486E-04    0.6947596151E+00    0.1835273718E-01    0.6271117406E+00    0.1347693726E-02
