  Pressure (Pa) 22mC5-500 (mol/kg) 24mC5-500 (mol/kg) 2mC6-500 (mol/kg) 3mC6-500 (mol/kg) C7-500 (mol/kg)
    0.1000000000E+01    0.8464349976E-05    0.1513955179E+00    0.2701621249E-05    0.1441267238E-05    0.4226570509E-02
    0.3000000000E+01    0.1646823774E-04    0.3164548425E+00    0.4982210069E-05    0.3734452218E-05    0.4298088917E-02
    0.5000000000E+01    0.2008003309E-04    0.4047004065E+00    0.5916357333E-05    0.5853042808E-05    0.4336545845E-02
    0.7000000000E+01    0.2205824313E-04    0.4596312427E+00    0.6439353768E-05    0.7885688613E-05    0.4361000130E-02
    0.9000000000E+01    0.2330830946E-04    0.4971174172E+00    0.6820404344E-05    0.9862622302E-05    0.4378065151E-02
    0.1100000000E+02    0.2419785647E-04    0.5243302373E+00    0.7153402643E-05    0.1179906771E-04    0.4390727340E-02
    0.1300000000E+02    0.2489729928E-04    0.5449839809E+00    0.7474590643E-05    0.1370412832E-04    0.4400542318E-02
    0.1500000000E+02    0.2549308065E-04    0.5611949889E+00    0.7798503727E-05    0.1558382521E-04    0.4408403203E-02
    0.1700000000E+02    0.2603194213E-04    0.5742575395E+00    0.8130774555E-05    0.1744241688E-04    0.4414860765E-02
    0.1900000000E+02    0.2654034711E-04    0.5850076679E+00    0.8473199804E-05    0.1928306336E-04    0.4420273873E-02
    0.2100000000E+02    0.2703377237E-04    0.5940094785E+00    0.8825898399E-05    0.2110819601E-04    0.4424886819E-02
    0.2300000000E+02    0.2752146232E-04    0.6016573923E+00    0.9188277889E-05    0.2291973917E-04    0.4428871943E-02
    0.2500000000E+02    0.2800899602E-04    0.6082354857E+00    0.9559479894E-05    0.2471925093E-04    0.4432354482E-02
    0.2700000000E+02    0.2849973494E-04    0.6139535566E+00    0.9938586736E-05    0.2650801659E-04    0.4435427759E-02
    0.2900000000E+02    0.2899566934E-04    0.6189699117E+00    0.1032471492E-04    0.2828711315E-04    0.4438162823E-02
    0.3100000000E+02    0.2949792806E-04    0.6234062507E+00    0.1071705391E-04    0.3005745510E-04    0.4440614779E-02
    0.3300000000E+02    0.3000709320E-04    0.6273576691E+00    0.1111487848E-04    0.3181982789E-04    0.4442827067E-02
    0.3500000000E+02    0.3052339828E-04    0.6308995515E+00    0.1151754844E-04    0.3357491280E-04    0.4444834428E-02
    0.3700000000E+02    0.3104685528E-04    0.6340924267E+00    0.1192450279E-04    0.3532330600E-04    0.4446665001E-02
    0.3900000000E+02    0.3157733699E-04    0.6369854557E+00    0.1233525167E-04    0.3706553315E-04    0.4448341837E-02
    0.4100000000E+02    0.3211463097E-04    0.6396189804E+00    0.1274936799E-04    0.3880206099E-04    0.4449884019E-02
    0.4300000000E+02    0.3265847512E-04    0.6420264166E+00    0.1316647940E-04    0.4053330644E-04    0.4451307485E-02
    0.4500000000E+02    0.3320858124E-04    0.6442356788E+00    0.1358626099E-04    0.4225964405E-04    0.4452625667E-02
    0.4700000000E+02    0.3376465046E-04    0.6462702681E+00    0.1400842888E-04    0.4398141197E-04    0.4453849967E-02
    0.4900000000E+02    0.3432638341E-04    0.6481501109E+00    0.1443273462E-04    0.4569891690E-04    0.4454990132E-02
    0.1000000000E+02    0.2378472043E-04    0.5117246288E+00    0.6989892686E-05    0.1083524200E-04    0.4384828164E-02
    0.3000000000E+02    0.2924596172E-04    0.6212541090E+00    0.1052015542E-04    0.2917332666E-04    0.4439421241E-02
    0.5000000000E+02    0.3460928176E-04    0.6490374160E+00    0.1464562002E-04    0.4655615901E-04    0.4455531333E-02
    0.7000000000E+02    0.4050014090E-04    0.6617193582E+00    0.1897497209E-04    0.6353376616E-04    0.4463471148E-02
    0.9000000000E+02    0.4670657879E-04    0.6689808126E+00    0.2338183426E-04    0.8029650339E-04    0.4468120411E-02
    0.1100000000E+03    0.5311295206E-04    0.6736848802E+00    0.2782672963E-04    0.9694113731E-04    0.4471049910E-02
    0.1300000000E+03    0.5965866966E-04    0.6769801669E+00    0.3229601808E-04    0.1135261170E-03    0.4472939170E-02
    0.1500000000E+03    0.6631023316E-04    0.6794170229E+00    0.3678518977E-04    0.1300905792E-03    0.4474136943E-02
    0.1700000000E+03    0.7304819771E-04    0.6812921700E+00    0.4129334156E-04    0.1466626315E-03    0.4474843557E-02
    0.1900000000E+03    0.7986088001E-04    0.6827797113E+00    0.4582108086E-04    0.1632635269E-03    0.4475183664E-02
    0.2100000000E+03    0.8674112377E-04    0.6839885395E+00    0.5036965130E-04    0.1799099902E-03    0.4475239615E-02
    0.2300000000E+03    0.9368453607E-04    0.6849902527E+00    0.5494054484E-04    0.1966156124E-03    0.4475068395E-02
    0.2500000000E+03    0.1006884755E-03    0.6858338611E+00    0.5953532378E-04    0.2133917363E-03    0.4474710924E-02
    0.2700000000E+03    0.1077514468E-03    0.6865540436E+00    0.6415553901E-04    0.2302480436E-03    0.4474197482E-02
    0.2900000000E+03    0.1148727245E-03    0.6871760288E+00    0.6880269394E-04    0.2471929604E-03    0.4473551044E-02
    0.3100000000E+03    0.1220521130E-03    0.6877186088E+00    0.7347823103E-04    0.2642339447E-03    0.4472789407E-02
    0.3300000000E+03    0.1292897886E-03    0.6881960688E+00    0.7818352909E-04    0.2813776957E-03    0.4471926608E-02
    0.3500000000E+03    0.1365861931E-03    0.6886194616E+00    0.8291990603E-04    0.2986303108E-03    0.4470973885E-02
    0.3700000000E+03    0.1439419617E-03    0.6889974729E+00    0.8768862386E-04    0.3159974042E-03    0.4469940357E-02
    0.3900000000E+03    0.1513578729E-03    0.6893370229E+00    0.9249089460E-04    0.3334841993E-03    0.4468833505E-02
    0.4100000000E+03    0.1588348120E-03    0.6896436930E+00    0.9732788632E-04    0.3510956003E-03    0.4467659530E-02
    0.4300000000E+03    0.1663737471E-03    0.6899220346E+00    0.1022007288E-03    0.3688362508E-03    0.4466423614E-02
    0.4500000000E+03    0.1739757097E-03    0.6901757964E+00    0.1071105190E-03    0.3867105792E-03    0.4465130120E-02
    0.4700000000E+03    0.1816417827E-03    0.6904080936E+00    0.1120583258E-03    0.4047228378E-03    0.4463782750E-02
    0.4900000000E+03    0.1893730900E-03    0.6906215366E+00    0.1170451944E-03    0.4228771329E-03    0.4462384657E-02
    0.1000000000E+03    0.4988942180E-04    0.6715599428E+00    0.2560070169E-04    0.8862933448E-04    0.4469746398E-02
    0.3000000000E+03    0.1184551512E-03    0.6874562634E+00    0.7113682707E-04    0.2557010097E-03    0.4473183673E-02
    0.5000000000E+03    0.1932635672E-03    0.6907218900E+00    0.1195535979E-03    0.4320087942E-03    0.4461667448E-02
    0.7000000000E+03    0.2747966453E-03    0.6921289841E+00    0.1720166993E-03    0.6230334877E-03    0.4445144343E-02
    0.9000000000E+03    0.3643399825E-03    0.6929120427E+00    0.2295197291E-03    0.8325393046E-03    0.4425092562E-02
    0.1100000000E+04    0.4634011454E-03    0.6934105303E+00    0.2930908650E-03    0.1064323308E-02    0.4401788693E-02
    0.1300000000E+04    0.5737602842E-03    0.6937555304E+00    0.3639030095E-03    0.1322698026E-02    0.4375104499E-02
    0.1500000000E+04    0.6975658116E-03    0.6940083556E+00    0.4433551476E-03    0.1612804980E-02    0.4344688235E-02
    0.1700000000E+04    0.8374562224E-03    0.6942015121E+00    0.5331578544E-03    0.1940933453E-02    0.4310007919E-02
    0.1900000000E+04    0.9967185396E-03    0.6943538366E+00    0.6354387080E-03    0.2314910653E-02    0.4270345632E-02
    0.2100000000E+04    0.1179500152E-02    0.6944769967E+00    0.7528809881E-03    0.2744614575E-02    0.4224764585E-02
    0.2300000000E+04    0.1391097195E-02    0.6945786047E+00    0.8889115994E-03    0.3242669246E-02    0.4172052955E-02
    0.2500000000E+04    0.1638351621E-02    0.6946638378E+00    0.1047959578E-02    0.3825402054E-02    0.4110641536E-02
    0.2700000000E+04    0.1930201185E-02    0.6947363396E+00    0.1235814337E-02    0.4514172132E-02    0.4038488343E-02
    0.2900000000E+04    0.2278440454E-02    0.6947987488E+00    0.1460122056E-02    0.5337214041E-02    0.3952920673E-02
    0.3100000000E+04    0.2698760816E-02    0.6948530225E+00    0.1731065547E-02    0.6332168571E-02    0.3850425049E-02
    0.3300000000E+04    0.3212123421E-02    0.6949006436E+00    0.2062264878E-02    0.7549446723E-02    0.3726383066E-02
    0.3500000000E+04    0.3846425117E-02    0.6949427556E+00    0.2471877126E-02    0.9056362231E-02    0.3574780504E-02
    0.3700000000E+04    0.4638100441E-02    0.6949802546E+00    0.2983671317E-02    0.1094123256E-01    0.3388001833E-02
    0.3900000000E+04    0.5632443399E-02    0.6950138527E+00    0.3627301660E-02    0.1331462123E-01    0.3157032212E-02
    0.4100000000E+04    0.6879503001E-02    0.6950441230E+00    0.4435752166E-02    0.1630028183E-01    0.2872823165E-02
    0.4300000000E+04    0.8419293794E-02    0.6950715316E+00    0.5435889283E-02    0.2000077710E-01    0.2530187921E-02
    0.4500000000E+04    0.1024911955E-01    0.6950964617E+00    0.6627373064E-02    0.2441994424E-01    0.2135464702E-02
    0.4700000000E+04    0.1227920970E-01    0.6951192314E+00    0.7953723205E-02    0.2935542422E-01    0.1715563922E-02
    0.4900000000E+04    0.1431979682E-01    0.6951401064E+00    0.9293275944E-02    0.3436287497E-01    0.1317815251E-02
    0.1000000000E+04    0.4125769723E-03    0.6931862149E+00    0.2604778510E-03    0.9453929466E-03    0.4413848865E-02
    0.3000000000E+04    0.2478422376E-02    0.6948268006E+00    0.1589005764E-02    0.5810396249E-02    0.3904048192E-02
    0.5000000000E+04    0.1527365206E-01    0.6951499049E+00    0.9922489589E-02    0.3672592697E-01    0.1143029839E-02
    0.7000000000E+04    0.2323321354E-01    0.6952859485E+00    0.1545280399E-01    0.5851365557E-01    0.4120467836E-03
    0.9000000000E+04    0.2712256681E-01    0.6953601329E+00    0.1846541173E-01    0.7150377973E-01    0.4158448688E-03
    0.1100000000E+05    0.3025556609E-01    0.6954064349E+00    0.2106704658E-01    0.8334148246E-01    0.4205167492E-03
    0.1300000000E+05    0.3279673929E-01    0.6954378536E+00    0.2333836054E-01    0.9423855530E-01    0.4244477124E-03
    0.1500000000E+05    0.3486248565E-01    0.6954604215E+00    0.2533597118E-01    0.1043394739E+00    0.4278428021E-03
    0.1700000000E+05    0.3654224654E-01    0.6954773146E+00    0.2710414251E-01    0.1137587338E+00    0.4308336368E-03
    0.1900000000E+05    0.3790573040E-01    0.6954903608E+00    0.2867799375E-01    0.1225883944E+00    0.4335083287E-03
    0.2100000000E+05    0.3900794419E-01    0.6955006852E+00    0.3008574893E-01    0.1309034038E+00    0.4359288144E-03
    0.2300000000E+05    0.3989277863E-01    0.6955090171E+00    0.3135035440E-01    0.1387654672E+00    0.4381403247E-03
    0.2500000000E+05    0.4059560642E-01    0.6955158496E+00    0.3249066190E-01    0.1462259054E+00    0.4401769176E-03
    0.2700000000E+05    0.4114519405E-01    0.6955215273E+00    0.3352230723E-01    0.1533277984E+00    0.4420648915E-03
    0.2900000000E+05    0.4156512800E-01    0.6955262985E+00    0.3445837190E-01    0.1601076155E+00    0.4438249845E-03
    0.3100000000E+05    0.4187489236E-01    0.6955303461E+00    0.3530988794E-01    0.1665964697E+00    0.4454738442E-03
    0.3300000000E+05    0.4209069222E-01    0.6955338078E+00    0.3608622732E-01    0.1728210943E+00    0.4470250411E-03
    0.3500000000E+05    0.4222608981E-01    0.6955367891E+00    0.3679540574E-01    0.1788046118E+00    0.4484897860E-03
    0.3700000000E+05    0.4229250050E-01    0.6955393722E+00    0.3744432196E-01    0.1845671442E+00    0.4498774491E-03
    0.3900000000E+05    0.4229958327E-01    0.6955416221E+00    0.3803894800E-01    0.1901263023E+00    0.4511959432E-03
    0.4100000000E+05    0.4225555051E-01    0.6955435907E+00    0.3858448164E-01    0.1954975809E+00    0.4524520127E-03
    0.4300000000E+05    0.4216741582E-01    0.6955453198E+00    0.3908546964E-01    0.2006946812E+00    0.4536514534E-03
    0.4500000000E+05    0.4204119365E-01    0.6955468439E+00    0.3954590809E-01    0.2057297747E+00    0.4547992832E-03
    0.4700000000E+05    0.4188206121E-01    0.6955481911E+00    0.3996932460E-01    0.2106137211E+00    0.4558998760E-03
    0.4900000000E+05    0.4169449062E-01    0.6955493848E+00    0.4035884615E-01    0.2153562500E+00    0.4569570676E-03
    0.1000000000E+05    0.2877163722E-01    0.6953857115E+00    0.1981165854E-01    0.7755069207E-01    0.4182896466E-03
    0.3000000000E+05    0.4173269995E-01    0.6955284033E+00    0.3489407777E-01    0.1633866494E+00    0.4446624078E-03
    0.5000000000E+05    0.4159127286E-01    0.6955499305E+00    0.4054177799E-01    0.2176772521E+00    0.4574704609E-03
    0.7000000000E+05    0.3874228114E-01    0.6955562143E+00    0.4295813486E-01    0.2583988098E+00    0.4661054053E-03
    0.9000000000E+05    0.3537976598E-01    0.6955580582E+00    0.4387878314E-01    0.2912262031E+00    0.4726602704E-03
    0.1100000000E+06    0.3211640574E-01    0.6955581730E+00    0.4399924159E-01    0.3187164989E+00    0.4779599737E-03
    0.1300000000E+06    0.2913051125E-01    0.6955575127E+00    0.4365818761E-01    0.3422792080E+00    0.4824169513E-03
    0.1500000000E+06    0.2645880750E-01    0.6955564814E+00    0.4304133495E-01    0.3627971089E+00    0.4862677676E-03
    0.1700000000E+06    0.2408887222E-01    0.6955552713E+00    0.4225862831E-01    0.3808722711E+00    0.4896609922E-03
    0.1900000000E+06    0.2199219706E-01    0.6955539809E+00    0.4137855058E-01    0.3969402109E+00    0.4926961720E-03
    0.2100000000E+06    0.2013679776E-01    0.6955526634E+00    0.4044522649E-01    0.4113294463E+00    0.4954433341E-03
    0.2300000000E+06    0.1849204842E-01    0.6955513485E+00    0.3948770957E-01    0.4242955184E+00    0.4979536475E-03
    0.2500000000E+06    0.1703037365E-01    0.6955500525E+00    0.3852536274E-01    0.4360418736E+00    0.5002656603E-03
    0.2700000000E+06    0.1572763801E-01    0.6955487848E+00    0.3757113580E-01    0.4467334385E+00    0.5024091490E-03
    0.2900000000E+06    0.1456300517E-01    0.6955475502E+00    0.3663364162E-01    0.4565058617E+00    0.5044076024E-03
    0.3100000000E+06    0.1351860218E-01    0.6955463509E+00    0.3571851269E-01    0.4654720442E+00    0.5062798811E-03
    0.3300000000E+06    0.1257913525E-01    0.6955451876E+00    0.3482930976E-01    0.4737268961E+00    0.5080413636E-03
    0.3500000000E+06    0.1173151945E-01    0.6955440600E+00    0.3396814265E-01    0.4813508880E+00    0.5097047566E-03
    0.3700000000E+06    0.1096454600E-01    0.6955429674E+00    0.3313610130E-01    0.4884127581E+00    0.5112806823E-03
    0.3900000000E+06    0.1026859374E-01    0.6955419085E+00    0.3233355892E-01    0.4949716105E+00    0.5127781126E-03
    0.4100000000E+06    0.9635383335E-02    0.6955408820E+00    0.3156038741E-01    0.5010785662E+00    0.5142046955E-03
    0.4300000000E+06    0.9057770072E-02    0.6955398865E+00    0.3081611165E-01    0.5067780778E+00    0.5155670039E-03
    0.4500000000E+06    0.8529570082E-02    0.6955389207E+00    0.3010002067E-01    0.5121089876E+00    0.5168707296E-03
    0.4700000000E+06    0.8045414848E-02    0.6955379829E+00    0.2941124806E-01    0.5171053885E+00    0.5181208339E-03
    0.4900000000E+06    0.7600629490E-02    0.6955370720E+00    0.2874883015E-01    0.5217973278E+00    0.5193216686E-03
    0.1000000000E+06    0.3371939626E-01    0.6955582524E+00    0.4401287066E-01    0.3055336267E+00    0.4754355047E-03
    0.3000000000E+06    0.1402678677E-01    0.6955469461E+00    0.3617301879E-01    0.4610834259E+00    0.5053584816E-03
    0.5000000000E+06    0.7391703846E-02    0.6955366262E+00    0.2842718711E-01    0.5240375536E+00    0.5199048270E-03
    0.7000000000E+06    0.4521960931E-02    0.6955288342E+00    0.2312935143E-01    0.5579297598E+00    0.5297139477E-03
    0.9000000000E+06    0.3040301842E-02    0.6955226217E+00    0.1941464018E-01    0.5789943549E+00    0.5371608962E-03
    0.1100000000E+07    0.2180212784E-02    0.6955174585E+00    0.1669581235E-01    0.5933143048E+00    0.5431822004E-03
    0.1300000000E+07    0.1638074961E-02    0.6955130389E+00    0.1462946161E-01    0.6036656649E+00    0.5482462126E-03
    0.1500000000E+07    0.1274902882E-02    0.6955091733E+00    0.1300978694E-01    0.6114900643E+00    0.5526216093E-03
    0.1700000000E+07    0.1019971309E-02    0.6955057360E+00    0.1170789928E-01    0.6176084787E+00    0.5564771441E-03
    0.1900000000E+07    0.8342701083E-03    0.6955026401E+00    0.1063956782E-01    0.6225220022E+00    0.5599258958E-03
    0.2100000000E+07    0.6948745707E-03    0.6954998225E+00    0.9747644744E-02    0.6265534822E+00    0.5630474150E-03
    0.2300000000E+07    0.5876058476E-03    0.6954972363E+00    0.8992084701E-02    0.6299201491E+00    0.5658998317E-03
    0.2500000000E+07    0.5033169092E-03    0.6954948457E+00    0.8344036384E-02    0.6327734636E+00    0.5685269395E-03
    0.2700000000E+07    0.4358946479E-03    0.6954926224E+00    0.7782208691E-02    0.6352222152E+00    0.5709625679E-03
    0.2900000000E+07    0.3811289609E-03    0.6954905441E+00    0.7290558421E-02    0.6373465379E+00    0.5732334030E-03
    0.3100000000E+07    0.3360443653E-03    0.6954885925E+00    0.6856773864E-02    0.6392067491E+00    0.5753608736E-03
    0.3300000000E+07    0.2984900802E-03    0.6954867528E+00    0.6471253448E-02    0.6408491104E+00    0.5773624522E-03
    0.3500000000E+07    0.2668804225E-03    0.6954850125E+00    0.6126401309E-02    0.6423096917E+00    0.5792525759E-03
    0.3700000000E+07    0.2400257081E-03    0.6954833612E+00    0.5816131078E-02    0.6436170276E+00    0.5810433137E-03
    0.3900000000E+07    0.2170193353E-03    0.6954817899E+00    0.5535509647E-02    0.6447939859E+00    0.5827448597E-03
    0.4100000000E+07    0.1971606988E-03    0.6954802911E+00    0.5280497030E-02    0.6458591059E+00    0.5843659033E-03
    0.4300000000E+07    0.1799015127E-03    0.6954788582E+00    0.5047753449E-02    0.6468275752E+00    0.5859139133E-03
    0.4500000000E+07    0.1648077599E-03    0.6954774855E+00    0.4834494254E-02    0.6477119543E+00    0.5873953566E-03
    0.4700000000E+07    0.1515322814E-03    0.6954761681E+00    0.4638379408E-02    0.6485227197E+00    0.5888158706E-03
    0.4900000000E+07    0.1397947361E-03    0.6954749015E+00    0.4457428322E-02    0.6492686792E+00    0.5901803999E-03
    0.1000000000E+07    0.2557278687E-02    0.6955199316E+00    0.1795642204E-01    0.5867792912E+00    0.5403139707E-03
    0.3000000000E+07    0.3575266850E-03    0.6954895535E+00    0.7067087063E-02    0.6383064891E+00    0.5743138864E-03
    0.5000000000E+07    0.1344296171E-03    0.6954742860E+00    0.4372101909E-02    0.6496197330E+00    0.5908430534E-03
    0.7000000000E+07    0.6976801264E-04    0.6954639020E+00    0.3158914080E-02    0.6545639957E+00    0.6019893641E-03
    0.9000000000E+07    0.4257266672E-04    0.6954559862E+00    0.2470223454E-02    0.6573333100E+00    0.6104515104E-03
    0.1100000000E+08    0.2864327460E-04    0.6954495701E+00    0.2026772029E-02    0.6591031312E+00    0.6172936666E-03
    0.1300000000E+08    0.2057405597E-04    0.6954441652E+00    0.1717546341E-02    0.6603314505E+00    0.6230480273E-03
    0.1500000000E+08    0.1548745995E-04    0.6954394897E+00    0.1489706964E-02    0.6612336183E+00    0.6280198947E-03
    0.1700000000E+08    0.1207696423E-04    0.6954353660E+00    0.1314911602E-02    0.6619242038E+00    0.6324010277E-03
    0.1900000000E+08    0.9680059505E-05    0.6954316748E+00    0.1176599107E-02    0.6624697621E+00    0.6363199207E-03
    0.2100000000E+08    0.7931809563E-05    0.6954283318E+00    0.1064447074E-02    0.6629115951E+00    0.6398669693E-03
    0.2300000000E+08    0.6617803917E-05    0.6954252754E+00    0.9716883318E-03    0.6632766886E+00    0.6431082287E-03
    0.2500000000E+08    0.5605383417E-05    0.6954224593E+00    0.8937024270E-03    0.6635834184E+00    0.6460934627E-03
    0.2700000000E+08    0.4808910850E-05    0.6954198476E+00    0.8272273579E-03    0.6638447299E+00    0.6488611129E-03
