  Pressure (Pa) 22mC5-500 (mol/kg) 24mC5-500 (mol/kg) 2mC6-500 (mol/kg) 3mC6-500 (mol/kg) C7-500 (mol/kg)
    0.1000000000E+01    0.9457980061E-05    0.9949726975E-01    0.3068111487E-05    0.5412037486E-05    0.4203982351E-02
    0.3000000000E+01    0.2092200918E-04    0.2320984116E+00    0.6505904157E-05    0.1391156649E-04    0.4264132432E-02
    0.5000000000E+01    0.2744094390E-04    0.3164447445E+00    0.8300420255E-05    0.2175072953E-04    0.4301160843E-02
    0.7000000000E+01    0.3152613143E-04    0.3748222432E+00    0.9364406254E-05    0.2927320320E-04    0.4326822514E-02
    0.9000000000E+01    0.3427734138E-04    0.4176242317E+00    0.1007109242E-04    0.3659525302E-04    0.4345722367E-02
    0.1100000000E+02    0.3624233712E-04    0.4503506099E+00    0.1059321562E-04    0.4377513143E-04    0.4360239196E-02
    0.1300000000E+02    0.3771930305E-04    0.4761845039E+00    0.1101756642E-04    0.5084753766E-04    0.4371742761E-02
    0.1500000000E+02    0.3888159668E-04    0.4970959394E+00    0.1139034638E-04    0.5783534945E-04    0.4381081079E-02
    0.1700000000E+02    0.3983523828E-04    0.5143694711E+00    0.1173717275E-04    0.6475470449E-04    0.4388808469E-02
    0.1900000000E+02    0.4064771551E-04    0.5288784627E+00    0.1207264141E-04    0.7161755111E-04    0.4395303123E-02
    0.2100000000E+02    0.4136339697E-04    0.5412374270E+00    0.1240519417E-04    0.7843306508E-04    0.4400832220E-02
    0.2300000000E+02    0.4201223104E-04    0.5518913100E+00    0.1273972310E-04    0.8520849744E-04    0.4405590053E-02
    0.2500000000E+02    0.4261487587E-04    0.5611702039E+00    0.1307902169E-04    0.9194971170E-04    0.4409721414E-02
    0.2700000000E+02    0.4318583869E-04    0.5693241605E+00    0.1342462076E-04    0.9866154013E-04    0.4413336494E-02
    0.2900000000E+02    0.4373545834E-04    0.5765460642E+00    0.1377728310E-04    0.1053480289E-03    0.4416520691E-02
    0.3100000000E+02    0.4427119168E-04    0.5829870865E+00    0.1413730272E-04    0.1120126123E-03    0.4419341251E-02
    0.3300000000E+02    0.4479846826E-04    0.5887673837E+00    0.1450468912E-04    0.1186582393E-03    0.4421851879E-02
    0.3500000000E+02    0.4532126996E-04    0.5939836625E+00    0.1487928216E-04    0.1252874681E-03    0.4424096002E-02
    0.3700000000E+02    0.4584253143E-04    0.5987146351E+00    0.1526082439E-04    0.1319025380E-03    0.4426109135E-02
    0.3900000000E+02    0.4636442104E-04    0.6030250180E+00    0.1564900678E-04    0.1385054247E-03    0.4427920617E-02
    0.4100000000E+02    0.4688854106E-04    0.6069685106E+00    0.1604349754E-04    0.1450978838E-03    0.4429554906E-02
    0.4300000000E+02    0.4741607201E-04    0.6105900438E+00    0.1644396022E-04    0.1516814854E-03    0.4431032562E-02
    0.4500000000E+02    0.4794787795E-04    0.6139274997E+00    0.1685006480E-04    0.1582576419E-03    0.4432371001E-02
    0.4700000000E+02    0.4848458411E-04    0.6170130417E+00    0.1726149436E-04    0.1648276304E-03    0.4433585078E-02
    0.4900000000E+02    0.4902663469E-04    0.6198741540E+00    0.1767794871E-04    0.1713926115E-03    0.4434687546E-02
    0.1000000000E+02    0.3533556905E-04    0.4350106050E+00    0.1034849900E-04    0.4020042990E-04    0.4353426957E-02
    0.3000000000E+02    0.4400468179E-04    0.5798560498E+00    0.1395636759E-04    0.1086828644E-03    0.4417972795E-02
    0.5000000000E+02    0.4929976432E-04    0.6212280642E+00    0.1788797143E-04    0.1746735589E-03    0.4435200427E-02
    0.7000000000E+02    0.5507447745E-04    0.6408234432E+00    0.2229409552E-04    0.2402453993E-03    0.4441619704E-02
    0.9000000000E+02    0.6140377748E-04    0.6522533788E+00    0.2698868108E-04    0.3061309832E-03    0.4443653030E-02
    0.1100000000E+03    0.6819315739E-04    0.6597415645E+00    0.3188795934E-04    0.3727216745E-03    0.4443386785E-02
    0.1300000000E+03    0.7536864776E-04    0.6650270756E+00    0.3695444583E-04    0.4402724538E-03    0.4441714808E-02
    0.1500000000E+03    0.8288248437E-04    0.6689571269E+00    0.4217131443E-04    0.5089717421E-03    0.4439087562E-02
    0.1700000000E+03    0.9070514854E-04    0.6719938257E+00    0.4753177062E-04    0.5789716565E-03    0.4435757631E-02
    0.1900000000E+03    0.9881908545E-04    0.6744106595E+00    0.5303431561E-04    0.6504032288E-03    0.4431877559E-02
    0.2100000000E+03    0.1072146853E-03    0.6763798217E+00    0.5868047033E-04    0.7233849093E-03    0.4427544484E-02
    0.2300000000E+03    0.1158877824E-03    0.6780151339E+00    0.6447361088E-04    0.7980277176E-03    0.4422822613E-02
    0.2500000000E+03    0.1248380833E-03    0.6793948472E+00    0.7041834312E-04    0.8744385782E-03    0.4417755443E-02
    0.2700000000E+03    0.1340681617E-03    0.6805745308E+00    0.7652015520E-04    0.9527226089E-03    0.4412372821E-02
    0.2900000000E+03    0.1435828039E-03    0.6815947346E+00    0.8278522106E-04    0.1032984777E-02    0.4406695223E-02
    0.3100000000E+03    0.1533885765E-03    0.6824857426E+00    0.8922028977E-04    0.1115331160E-02    0.4400736460E-02
    0.3300000000E+03    0.1634935400E-03    0.6832706277E+00    0.9583262580E-04    0.1199869951E-02    0.4394505444E-02
    0.3500000000E+03    0.1739070582E-03    0.6839672779E+00    0.1026299808E-03    0.1286712303E-02    0.4388007371E-02
    0.3700000000E+03    0.1846396755E-03    0.6845897750E+00    0.1096205854E-03    0.1375973062E-02    0.4381244537E-02
    0.3900000000E+03    0.1957030400E-03    0.6851493559E+00    0.1168131552E-03    0.1467771437E-02    0.4374216907E-02
    0.4100000000E+03    0.2071098621E-03    0.6856550964E+00    0.1242169057E-03    0.1562231625E-02    0.4366922517E-02
    0.4300000000E+03    0.2188738974E-03    0.6861144069E+00    0.1318415753E-03    0.1659483420E-02    0.4359357762E-02
    0.4500000000E+03    0.2310099508E-03    0.6865333976E+00    0.1396974535E-03    0.1759662814E-02    0.4351517604E-02
    0.4700000000E+03    0.2435338955E-03    0.6869171519E+00    0.1477954144E-03    0.1862912607E-02    0.4343395715E-02
    0.4900000000E+03    0.2564627061E-03    0.6872699330E+00    0.1561469546E-03    0.1969383030E-02    0.4334984582E-02
    0.1000000000E+03    0.6474628162E-04    0.6563507349E+00    0.2941575250E-04    0.3393201705E-03    0.4443736374E-02
    0.3000000000E+03    0.1484488275E-03    0.6820548046E+00    0.8598106265E-04    0.1073890740E-02    0.4403750331E-02
    0.5000000000E+03    0.2630845527E-03    0.6874358565E+00    0.1604215904E-03    0.2023875117E-02    0.4330667894E-02
    0.7000000000E+03    0.4220131548E-03    0.6897664331E+00    0.2626905266E-03    0.3327630429E-02    0.4226393521E-02
    0.9000000000E+03    0.6531786418E-03    0.6910670342E+00    0.4110743092E-03    0.5221084547E-02    0.4075372423E-02
    0.1100000000E+04    0.1011233290E-02    0.6918965736E+00    0.6409017062E-03    0.8158539397E-02    0.3845557183E-02
    0.1300000000E+04    0.1608246605E-02    0.6924715550E+00    0.1024635328E-02    0.1307369864E-01    0.3473082150E-02
    0.1500000000E+04    0.2664586735E-02    0.6928934518E+00    0.1705452425E-02    0.2182086707E-01    0.2841752319E-02
    0.1700000000E+04    0.4415689444E-02    0.6932161414E+00    0.2839734744E-02    0.3646828855E-01    0.1867981288E-02
    0.1900000000E+04    0.6365426091E-02    0.6934708799E+00    0.4116135349E-02    0.5312125028E-01    0.9316939642E-03
    0.2100000000E+04    0.7604451524E-02    0.6936770460E+00    0.4947267103E-02    0.6421602523E-01    0.5193715279E-03
    0.2300000000E+04    0.8324866873E-02    0.6938472922E+00    0.5449897583E-02    0.7116593957E-01    0.4169333721E-03
    0.2500000000E+04    0.8873001577E-02    0.6939902297E+00    0.5845182919E-02    0.7678812983E-01    0.3970967192E-03
    0.2700000000E+04    0.9361687625E-02    0.6941119227E+00    0.6205594846E-02    0.8201147371E-01    0.3944761352E-03
    0.2900000000E+04    0.9817969080E-02    0.6942167644E+00    0.6548396508E-02    0.8705628814E-01    0.3952077466E-03
    0.3100000000E+04    0.1024867993E-01    0.6943080160E+00    0.6877769935E-02    0.9197401243E-01    0.3965299017E-03
    0.3300000000E+04    0.1065624971E-01    0.6943881487E+00    0.7195043261E-02    0.9677916176E-01    0.3979015600E-03
    0.3500000000E+04    0.1104211617E-01    0.6944590693E+00    0.7500911987E-02    0.1014781554E+00    0.3992218381E-03
    0.3700000000E+04    0.1140745109E-01    0.6945222726E+00    0.7795913348E-02    0.1060754999E+00    0.4004768561E-03
    0.3900000000E+04    0.1175331778E-01    0.6945789469E+00    0.8080528882E-02    0.1105751249E+00    0.4016693640E-03
    0.4100000000E+04    0.1208070823E-01    0.6946300488E+00    0.8355207869E-02    0.1149806815E+00    0.4028047040E-03
    0.4300000000E+04    0.1239055435E-01    0.6946763570E+00    0.8620373747E-02    0.1192956166E+00    0.4038880883E-03
    0.4500000000E+04    0.1268373344E-01    0.6947185115E+00    0.8876426758E-02    0.1235231986E+00    0.4049241536E-03
    0.4700000000E+04    0.1296107226E-01    0.6947570437E+00    0.9123745678E-02    0.1276665315E+00    0.4059169619E-03
    0.4900000000E+04    0.1322335040E-01    0.6947923979E+00    0.9362689254E-02    0.1317285656E+00    0.4068700746E-03
    0.1000000000E+04    0.8112233129E-03    0.6915231190E+00    0.5124995907E-03    0.6516748600E-02    0.3973294347E-02
    0.3000000000E+04    0.1003632872E-01    0.6942639191E+00    0.6714652802E-02    0.8952979486E-01    0.3958476057E-03
    0.5000000000E+04    0.1334907325E-01    0.6948090028E+00    0.9479127243E-02    0.1337299778E+00    0.4073327400E-03
    0.7000000000E+04    0.1523096998E-01    0.6950404171E+00    0.1144201563E-01    0.1701042195E+00    0.4150988588E-03
    0.9000000000E+04    0.1623106581E-01    0.6951676557E+00    0.1286294067E-01    0.2008328550E+00    0.4209785577E-03
    0.1100000000E+05    0.1667282057E-01    0.6952477490E+00    0.1390293775E-01    0.2273173637E+00    0.4257251408E-03
    0.1300000000E+05    0.1675508247E-01    0.6953025761E+00    0.1466691180E-01    0.2505044459E+00    0.4297130231E-03
    0.1500000000E+05    0.1660420470E-01    0.6953423183E+00    0.1522595313E-01    0.2710598684E+00    0.4331561784E-03
    0.1700000000E+05    0.1630258475E-01    0.6953723494E+00    0.1562983479E-01    0.2894679367E+00    0.4361886544E-03
    0.1900000000E+05    0.1590504678E-01    0.6953957708E+00    0.1591436833E-01    0.3060912311E+00    0.4389001058E-03
    0.2100000000E+05    0.1544862417E-01    0.6954144961E+00    0.1610591977E-01    0.3212079798E+00    0.4413535145E-03
    0.2300000000E+05    0.1495859906E-01    0.6954297692E+00    0.1622428405E-01    0.3350362813E+00    0.4435948520E-03
    0.2500000000E+05    0.1445233887E-01    0.6954424331E+00    0.1628457312E-01    0.3477502939E+00    0.4456587208E-03
    0.2700000000E+05    0.1394179347E-01    0.6954530789E+00    0.1629849051E-01    0.3594913536E+00    0.4475718310E-03
    0.2900000000E+05    0.1343515517E-01    0.6954621333E+00    0.1627521289E-01    0.3703757959E+00    0.4493552394E-03
    0.3100000000E+05    0.1293798235E-01    0.6954699117E+00    0.1622201297E-01    0.3805005778E+00    0.4510258460E-03
    0.3300000000E+05    0.1245397213E-01    0.6954766520E+00    0.1614470817E-01    0.3899474000E+00    0.4525974243E-03
    0.3500000000E+05    0.1198549891E-01    0.6954825374E+00    0.1604798935E-01    0.3987857814E+00    0.4540813505E-03
    0.3700000000E+05    0.1153399409E-01    0.6954877107E+00    0.1593566535E-01    0.4070753904E+00    0.4554871317E-03
    0.3900000000E+05    0.1110021644E-01    0.6954922850E+00    0.1581084753E-01    0.4148678385E+00    0.4568227957E-03
    0.4100000000E+05    0.1068444626E-01    0.6954963512E+00    0.1567609060E-01    0.4222080785E+00    0.4580951836E-03
    0.4300000000E+05    0.1028662569E-01    0.6954999828E+00    0.1553350155E-01    0.4291355086E+00    0.4593101739E-03
    0.4500000000E+05    0.9906460667E-02    0.6955032401E+00    0.1538482455E-01    0.4356848533E+00    0.4604728557E-03
    0.4700000000E+05    0.9543495283E-02    0.6955061730E+00    0.1523150790E-01    0.4418868744E+00    0.4615876643E-03
    0.4900000000E+05    0.9197166100E-02    0.6955088228E+00    0.1507475716E-01    0.4477689499E+00    0.4626584893E-03
    0.1000000000E+05    0.1650715335E-01    0.6952118166E+00    0.1342300896E-01    0.2145383185E+00    0.4234648457E-03
    0.3000000000E+05    0.1318511812E-01    0.6954661656E+00    0.1625195985E-01    0.3755277208E+00    0.4502037186E-03
    0.5000000000E+05    0.9030044614E-02    0.6955100528E+00    0.1499541501E-01    0.4505977572E+00    0.4631784959E-03
    0.7000000000E+05    0.6398562526E-02    0.6955259127E+00    0.1339820847E-01    0.4951447605E+00    0.4719240508E-03
    0.9000000000E+05    0.4727142037E-02    0.6955330690E+00    0.1196253395E-01    0.5246836525E+00    0.4785622637E-03
    0.1100000000E+06    0.3619374448E-02    0.6955365579E+00    0.1074759940E-01    0.5456780822E+00    0.4839290714E-03
    0.1300000000E+06    0.2853468265E-02    0.6955382283E+00    0.9729814512E-02    0.5613457897E+00    0.4884423300E-03
    0.1500000000E+06    0.2304155675E-02    0.6955389019E+00    0.8873858438E-02    0.5734730963E+00    0.4923416813E-03
    0.1700000000E+06    0.1897796051E-02    0.6955389919E+00    0.8148066199E-02    0.5831307711E+00    0.4957776145E-03
    0.1900000000E+06    0.1589225884E-02    0.6955387250E+00    0.7526905722E-02    0.5909990419E+00    0.4988509561E-03
    0.2100000000E+06    0.1349649359E-02    0.6955382335E+00    0.6990399340E-02    0.5975303299E+00    0.5016326302E-03
    0.2300000000E+06    0.1160064808E-02    0.6955375987E+00    0.6523002484E-02    0.6030369873E+00    0.5041744591E-03
    0.2500000000E+06    0.1007550249E-02    0.6955368721E+00    0.6112572851E-02    0.6077414587E+00    0.5065154819E-03
    0.2700000000E+06    0.8830831982E-03    0.6955360878E+00    0.5749551886E-02    0.6118063690E+00    0.5086858539E-03
    0.2900000000E+06    0.7802159588E-03    0.6955352684E+00    0.5426345193E-02    0.6153533121E+00    0.5107093618E-03
    0.3100000000E+06    0.6942452914E-03    0.6955344294E+00    0.5136860661E-02    0.6184749898E+00    0.5126051054E-03
    0.3300000000E+06    0.6216772645E-03    0.6955335815E+00    0.4876164810E-02    0.6212432920E+00    0.5143886579E-03
    0.3500000000E+06    0.5598736347E-03    0.6955327322E+00    0.4640226015E-02    0.6237148126E+00    0.5160728866E-03
    0.3700000000E+06    0.5068128753E-03    0.6955318868E+00    0.4425721238E-02    0.6259347039E+00    0.5176685480E-03
    0.3900000000E+06    0.4609253840E-03    0.6955310489E+00    0.4229889336E-02    0.6279394226E+00    0.5191847274E-03
    0.4100000000E+06    0.4209777408E-03    0.6955302210E+00    0.4050418706E-02    0.6297587231E+00    0.5206291691E-03
    0.4300000000E+06    0.3859900530E-03    0.6955294048E+00    0.3885360438E-02    0.6314171272E+00    0.5220085291E-03
    0.4500000000E+06    0.3551760253E-03    0.6955286017E+00    0.3733060597E-02    0.6329350237E+00    0.5233285707E-03
    0.4700000000E+06    0.3278988979E-03    0.6955278122E+00    0.3592106963E-02    0.6343295027E+00    0.5245943179E-03
    0.4900000000E+06    0.3036386354E-03    0.6955270367E+00    0.3461286786E-02    0.6356149956E+00    0.5258101771E-03
    0.1000000000E+06    0.4119667700E-02    0.6955351198E+00    0.1132831002E-01    0.5360013381E+00    0.4813726651E-03
    0.3000000000E+06    0.7353604365E-03    0.6955348506E+00    0.5277719786E-02    0.6169624027E+00    0.5116721591E-03
    0.5000000000E+06    0.2925030218E-03    0.6955266544E+00    0.3399343854E-02    0.6362207798E+00    0.5264006313E-03
    0.7000000000E+06    0.1556890904E-03    0.6955197313E+00    0.2500768021E-02    0.6448088624E+00    0.5363324212E-03
    0.9000000000E+06    0.9639735880E-04    0.6955139765E+00    0.1975653070E-02    0.6496654908E+00    0.5438724482E-03
    0.1100000000E+07    0.6548832920E-04    0.6955090878E+00    0.1631689158E-02    0.6527871821E+00    0.5499689885E-03
    0.1300000000E+07    0.4737237826E-04    0.6955048461E+00    0.1389104782E-02    0.6549622065E+00    0.5550962628E-03
    0.1500000000E+07    0.3585664045E-04    0.6955011015E+00    0.1208920401E-02    0.6565642629E+00    0.5595263111E-03
    0.1700000000E+07    0.2808651282E-04    0.6954977494E+00    0.1069848768E-02    0.6577932904E+00    0.5634299989E-03
    0.1900000000E+07    0.2259842562E-04    0.6954947148E+00    0.9592868359E-03    0.6587659228E+00    0.5669218195E-03
    0.2100000000E+07    0.1857934948E-04    0.6954919418E+00    0.8693000649E-03    0.6595547733E+00    0.5700823182E-03
    0.2300000000E+07    0.1554840033E-04    0.6954893884E+00    0.7946453456E-03    0.6602074087E+00    0.5729703522E-03
    0.2500000000E+07    0.1320642437E-04    0.6954870216E+00    0.7317197435E-03    0.6607562888E+00    0.5756302622E-03
    0.2700000000E+07    0.1135942998E-04    0.6954848155E+00    0.6779660614E-03    0.6612243216E+00    0.5780963007E-03
    0.2900000000E+07    0.9877167025E-05    0.6954827493E+00    0.6315193418E-03    0.6616281355E+00    0.5803954873E-03
    0.3100000000E+07    0.8669557864E-05    0.6954808058E+00    0.5909876218E-03    0.6619800925E+00    0.5825495187E-03
    0.3300000000E+07    0.7672700733E-05    0.6954789711E+00    0.5553110158E-03    0.6622895742E+00    0.5845760855E-03
    0.3500000000E+07    0.6840247757E-05    0.6954772332E+00    0.5236683226E-03    0.6625638280E+00    0.5864898054E-03
    0.3700000000E+07    0.6137922463E-05    0.6954755823E+00    0.4954134596E-03    0.6628085422E+00    0.5883028982E-03
    0.3900000000E+07    0.5539935354E-05    0.6954740098E+00    0.4700311760E-03    0.6630282428E+00    0.5900256851E-03
    0.4100000000E+07    0.5026582215E-05    0.6954725084E+00    0.4471055527E-03    0.6632265768E+00    0.5916669644E-03
    0.4300000000E+07    0.4582599332E-05    0.6954710719E+00    0.4262971812E-03    0.6634065150E+00    0.5932342980E-03
    0.4500000000E+07    0.4196014856E-05    0.6954696947E+00    0.4073263554E-03    0.6635705021E+00    0.5947342335E-03
    0.4700000000E+07    0.3857332356E-05    0.6954683719E+00    0.3899605060E-03    0.6637205680E+00    0.5961724789E-03
    0.4900000000E+07    0.3558941184E-05    0.6954670994E+00    0.3740046785E-03    0.6638584125E+00    0.5975540405E-03
    0.1000000000E+07    0.7871699761E-04    0.6955114395E+00    0.1787417132E-02    0.6513794656E+00    0.5470649227E-03
    0.3000000000E+07    0.9243517663E-05    0.6954817632E+00    0.6105868594E-03    0.6618099515E+00    0.5814894603E-03
    0.5000000000E+07    0.3422883390E-05    0.6954664808E+00    0.3665030521E-03    0.6639232087E+00    0.5982249653E-03
    0.7000000000E+07    0.1799868610E-05    0.6954560185E+00    0.2613529139E-03    0.6648309184E+00    0.6095103957E-03
    0.9000000000E+07    0.1125978106E-05    0.6954480164E+00    0.2028817812E-03    0.6653355720E+00    0.6180781490E-03
    0.1100000000E+08    0.7818336935E-06    0.6954415166E+00    0.1656840400E-03    0.6656568026E+00    0.6250056880E-03
    0.1300000000E+08    0.5820353010E-06    0.6954360329E+00    0.1399509639E-03    0.6658792129E+00    0.6308318522E-03
    0.1500000000E+08    0.4554090402E-06    0.6954312836E+00    0.1210973109E-03    0.6660423152E+00    0.6358657556E-03
    0.1700000000E+08    0.3698621715E-06    0.6954270908E+00    0.1066938044E-03    0.6661670371E+00    0.6403015509E-03
    0.1900000000E+08    0.3091836711E-06    0.6954233347E+00    0.9533370018E-04    0.6662654977E+00    0.6442693367E-03
    0.2100000000E+08    0.2644600734E-06    0.6954199306E+00    0.8614621097E-04    0.6663452005E+00    0.6478606372E-03
    0.2300000000E+08    0.2304564334E-06    0.6954168166E+00    0.7856356627E-04    0.6664110392E+00    0.6511423319E-03
    0.2500000000E+08    0.2039315440E-06    0.6954139458E+00    0.7219981435E-04    0.6664663418E+00    0.6541648059E-03
    0.2700000000E+08    0.1827898514E-06    0.6954112819E+00    0.6678347040E-04    0.6665134501E+00    0.6569669806E-03
