  Pressure (Pa) 22mC5-500 (mol/kg) 24mC5-500 (mol/kg) 2mC6-500 (mol/kg) 3mC6-500 (mol/kg) C7-500 (mol/kg)
    0.1000000000E+01    0.8576562591E-05    0.1514037570E+00    0.2769785602E-05    0.5869441170E-05    0.4180819974E-02
    0.3000000000E+01    0.1672060022E-04    0.3164911359E+00    0.5135297380E-05    0.1492086169E-04    0.4211823927E-02
    0.5000000000E+01    0.2045430622E-04    0.4047601670E+00    0.6143388172E-05    0.2323113177E-04    0.4226300630E-02
    0.7000000000E+01    0.2254676776E-04    0.4597087780E+00    0.6735814092E-05    0.3118831942E-04    0.4234993044E-02
    0.9000000000E+01    0.2390690767E-04    0.4972085824E+00    0.7183874299E-05    0.3892279728E-04    0.4240760756E-02
    0.1100000000E+02    0.2490405105E-04    0.5244321246E+00    0.7582475113E-05    0.4649963972E-04    0.4244820538E-02
    0.1300000000E+02    0.2570959761E-04    0.5450945140E+00    0.7968441503E-05    0.5395750746E-04    0.4247789993E-02
    0.1500000000E+02    0.2641062080E-04    0.5613126453E+00    0.8356681296E-05    0.6132183852E-04    0.4250018408E-02
    0.1700000000E+02    0.2705429512E-04    0.5743811736E+00    0.8753082566E-05    0.6861054722E-04    0.4251718977E-02
    0.1900000000E+02    0.2766739662E-04    0.5851363971E+00    0.9159626461E-05    0.7583687906E-04    0.4253029516E-02
    0.2100000000E+02    0.2826563679E-04    0.5941426090E+00    0.9576570540E-05    0.8301099402E-04    0.4254043228E-02
    0.2300000000E+02    0.2885844193E-04    0.6017943685E+00    0.1000342988E-04    0.9014091264E-04    0.4254825490E-02
    0.2500000000E+02    0.2945153557E-04    0.6083758561E+00    0.1043943167E-04    0.9723311476E-04    0.4255423563E-02
    0.2700000000E+02    0.3004839644E-04    0.6140969486E+00    0.1088372782E-04    0.1042929363E-03    0.4255872494E-02
    0.2900000000E+02    0.3065111175E-04    0.6191160146E+00    0.1133549243E-04    0.1113248418E-03    0.4256198840E-02
    0.3100000000E+02    0.3126089173E-04    0.6235548022E+00    0.1179396345E-04    0.1183326181E-03    0.4256423104E-02
    0.3300000000E+02    0.3187838771E-04    0.6275084459E+00    0.1225845697E-04    0.1253195150E-03    0.4256561382E-02
    0.3500000000E+02    0.3250389292E-04    0.6310523616E+00    0.1272836848E-04    0.1322883503E-03    0.4256626485E-02
    0.3700000000E+02    0.3313747131E-04    0.6342471040E+00    0.1320316809E-04    0.1392415889E-03    0.4256628749E-02
    0.3900000000E+02    0.3377904137E-04    0.6371418550E+00    0.1368239340E-04    0.1461814048E-03    0.4256576602E-02
    0.4100000000E+02    0.3442843122E-04    0.6397769745E+00    0.1416564169E-04    0.1531097291E-03    0.4256476990E-02
    0.4300000000E+02    0.3508541508E-04    0.6421858929E+00    0.1465256248E-04    0.1600282878E-03    0.4256335692E-02
    0.4500000000E+02    0.3574973744E-04    0.6443965376E+00    0.1514285060E-04    0.1669386333E-03    0.4256157554E-02
    0.4700000000E+02    0.3642112910E-04    0.6464324203E+00    0.1563624012E-04    0.1738421688E-03    0.4255946673E-02
    0.4900000000E+02    0.3709931783E-04    0.6483134765E+00    0.1613249901E-04    0.1807401690E-03    0.4255706536E-02
    0.1000000000E+02    0.2443735394E-04    0.5118214586E+00    0.7386296785E-05    0.4272809796E-04    0.4242956874E-02
    0.3000000000E+02    0.3095506764E-04    0.6214014664E+00    0.1156393427E-04    0.1148315317E-03    0.4256322638E-02
    0.5000000000E+02    0.3744087692E-04    0.6492013610E+00    0.1638164008E-04    0.1841874608E-03    0.4255576447E-02
    0.7000000000E+02    0.4456963409E-04    0.6618921559E+00    0.2147766781E-04    0.2530795336E-03    0.4251979692E-02
    0.9000000000E+02    0.5214764910E-04    0.6691593669E+00    0.2673681085E-04    0.3223117264E-03    0.4247246299E-02
    0.1100000000E+03    0.6007096950E-04    0.6738676004E+00    0.3212685491E-04    0.3923132402E-03    0.4241897752E-02
    0.1300000000E+03    0.6828855685E-04    0.6771661098E+00    0.3764015877E-04    0.4633640186E-03    0.4236145253E-02
    0.1500000000E+03    0.7677572381E-04    0.6796055742E+00    0.4327778402E-04    0.5356714231E-03    0.4230088691E-02
    0.1700000000E+03    0.8552166760E-04    0.6814829021E+00    0.4904431548E-04    0.6094034034E-03    0.4223779625E-02
    0.1900000000E+03    0.9452345808E-04    0.6829723118E+00    0.5494593408E-04    0.6847051671E-03    0.4217245734E-02
    0.2100000000E+03    0.1037829616E-03    0.6841827711E+00    0.6098963860E-04    0.7617084915E-03    0.4210501705E-02
    0.2300000000E+03    0.1133051789E-03    0.6851859297E+00    0.6718291998E-04    0.8405373694E-03    0.4203554591E-02
    0.2500000000E+03    0.1230973077E-03    0.6860308349E+00    0.7353362898E-04    0.9213116716E-03    0.4196406666E-02
    0.2700000000E+03    0.1331681965E-03    0.6867521925E+00    0.8004993168E-04    0.1004149668E-02    0.4189057019E-02
    0.2900000000E+03    0.1435280219E-03    0.6873752516E+00    0.8674030670E-04    0.1089169862E-02    0.4181502508E-02
    0.3100000000E+03    0.1541880982E-03    0.6879188200E+00    0.9361356322E-04    0.1176492397E-02    0.4173738326E-02
    0.3300000000E+03    0.1651607685E-03    0.6883971954E+00    0.1006788698E-03    0.1266240188E-02    0.4165758365E-02
    0.3500000000E+03    0.1764593496E-03    0.6888214406E+00    0.1079457892E-03    0.1358539880E-02    0.4157555440E-02
    0.3700000000E+03    0.1880981118E-03    0.6892002493E+00    0.1154243169E-03    0.1453522692E-02    0.4149121432E-02
    0.3900000000E+03    0.2000922839E-03    0.6895405483E+00    0.1231249229E-03    0.1551325192E-02    0.4140447375E-02
    0.4100000000E+03    0.2124580765E-03    0.6898479246E+00    0.1310585949E-03    0.1652090035E-02    0.4131523505E-02
    0.4300000000E+03    0.2252127200E-03    0.6901269342E+00    0.1392368851E-03    0.1755966687E-02    0.4122339284E-02
    0.4500000000E+03    0.2383745139E-03    0.6903813297E+00    0.1476719587E-03    0.1863112138E-02    0.4112883399E-02
    0.4700000000E+03    0.2519628870E-03    0.6906142297E+00    0.1563766458E-03    0.1973691646E-02    0.4103143759E-02
    0.4900000000E+03    0.2659984661E-03    0.6908282475E+00    0.1653644968E-03    0.2087879489E-02    0.4093107467E-02
    0.1000000000E+03    0.5607016990E-04    0.6717407275E+00    0.2941625314E-04    0.3571965461E-03    0.4244631885E-02
    0.3000000000E+03    0.1488197805E-03    0.6876559902E+00    0.9015351055E-04    0.1132535732E-02    0.4177646980E-02
    0.5000000000E+03    0.2731907505E-03    0.6909288786E+00    0.1699690544E-03    0.2146383661E-02    0.4087973818E-02
    0.7000000000E+03    0.4468074118E-03    0.6923405199E+00    0.2810161018E-03    0.3558378354E-02    0.3965778041E-02
    0.9000000000E+03    0.7033213872E-03    0.6931269057E+00    0.4450708960E-03    0.5647826884E-02    0.3790125473E-02
    0.1100000000E+04    0.1109261947E-02    0.6936280247E+00    0.7050018357E-03    0.8964920475E-02    0.3520738774E-02
    0.1300000000E+04    0.1801825624E-02    0.6939752055E+00    0.1149409523E-02    0.1465028069E-01    0.3078651506E-02
    0.1500000000E+04    0.3031812682E-02    0.6942298954E+00    0.1941403510E-02    0.2481848274E-01    0.2335232381E-02
    0.1700000000E+04    0.4917066690E-02    0.6944246822E+00    0.3162986459E-02    0.4059959518E-01    0.1296512235E-02
    0.1900000000E+04    0.6670028809E-02    0.6945784562E+00    0.4314486598E-02    0.5567246854E-01    0.5046888808E-03
    0.2100000000E+04    0.7692967232E-02    0.6947029220E+00    0.5006615870E-02    0.6498502603E-01    0.2246447343E-03
    0.2300000000E+04    0.8342726208E-02    0.6948057183E+00    0.5463425203E-02    0.7134327991E-01    0.1608689875E-03
    0.2500000000E+04    0.8874570910E-02    0.6948920424E+00    0.5848029500E-02    0.7682662101E-01    0.1484543188E-03
    0.2700000000E+04    0.9359833000E-02    0.6949655530E+00    0.6206136520E-02    0.8201975775E-01    0.1464772556E-03
    0.2900000000E+04    0.9815456152E-02    0.6950289003E+00    0.6548449472E-02    0.8705807394E-01    0.1465428631E-03
    0.3100000000E+04    0.1024608943E-01    0.6950840513E+00    0.6877721677E-02    0.9197439526E-01    0.1469874333E-03
    0.3300000000E+04    0.1065369975E-01    0.6951324963E+00    0.7194976345E-02    0.9677923921E-01    0.1474831244E-03
    0.3500000000E+04    0.1103962734E-01    0.6951753851E+00    0.7500843878E-02    0.1014781656E+00    0.1479668583E-03
    0.3700000000E+04    0.1140502374E-01    0.6952136191E+00    0.7795847556E-02    0.1060754950E+00    0.1484281947E-03
    0.3900000000E+04    0.1175094843E-01    0.6952479147E+00    0.8080465930E-02    0.1105751165E+00    0.1488670098E-03
    0.4100000000E+04    0.1207839297E-01    0.6952788487E+00    0.8355147661E-02    0.1149806721E+00    0.1492850049E-03
    0.4300000000E+04    0.1238828953E-01    0.6953068906E+00    0.8620316078E-02    0.1192956068E+00    0.1496840205E-03
    0.4500000000E+04    0.1268151578E-01    0.6953324262E+00    0.8876371421E-02    0.1235231887E+00    0.1500657294E-03
    0.4700000000E+04    0.1295889880E-01    0.6953557760E+00    0.9123692485E-02    0.1276665214E+00    0.1504316054E-03
    0.4900000000E+04    0.1322121850E-01    0.6953772078E+00    0.9362638040E-02    0.1317285552E+00    0.1507829433E-03
    0.1000000000E+04    0.8813294273E-03    0.6934024616E+00    0.5590007190E-03    0.7100861857E-02    0.3670874911E-02
    0.3000000000E+04    0.1003374866E-01    0.6950573979E+00    0.6714635826E-02    0.8953062342E-01    0.1467495597E-03
    0.5000000000E+04    0.1334696121E-01    0.6953872765E+00    0.9479076962E-02    0.1337299674E+00    0.1509535226E-03
    0.7000000000E+04    0.1522916322E-01    0.6955278544E+00    0.1144197861E-01    0.1701042075E+00    0.1538194062E-03
    0.9000000000E+04    0.1622945825E-01    0.6956054691E+00    0.1286291123E-01    0.2008328416E+00    0.1559917827E-03
    0.1100000000E+05    0.1667135632E-01    0.6956545393E+00    0.1390291324E-01    0.2273173491E+00    0.1577467342E-03
    0.1300000000E+05    0.1675372781E-01    0.6956882829E+00    0.1466689075E-01    0.2505044302E+00    0.1592218437E-03
    0.1500000000E+05    0.1660293741E-01    0.6957128579E+00    0.1522593466E-01    0.2710598517E+00    0.1604958670E-03
    0.1700000000E+05    0.1630138927E-01    0.6957315182E+00    0.1562981831E-01    0.2894679191E+00    0.1616181975E-03
    0.1900000000E+05    0.1590391172E-01    0.6957461445E+00    0.1591435344E-01    0.3060912127E+00    0.1626218980E-03
    0.2100000000E+05    0.1544754086E-01    0.6957578984E+00    0.1610590618E-01    0.3212079605E+00    0.1635302093E-03
    0.2300000000E+05    0.1495756075E-01    0.6957675362E+00    0.1622427154E-01    0.3350362612E+00    0.1643601035E-03
    0.2500000000E+05    0.1445134017E-01    0.6957755710E+00    0.1628456153E-01    0.3477502731E+00    0.1651243607E-03
    0.2700000000E+05    0.1394083000E-01    0.6957823632E+00    0.1629847971E-01    0.3594913322E+00    0.1658328489E-03
    0.2900000000E+05    0.1343422330E-01    0.6957881732E+00    0.1627520277E-01    0.3703757737E+00    0.1664933500E-03
    0.3100000000E+05    0.1293707903E-01    0.6957931939E+00    0.1622200345E-01    0.3805005550E+00    0.1671121109E-03
    0.3300000000E+05    0.1245309478E-01    0.6957975709E+00    0.1614469917E-01    0.3899473766E+00    0.1676942238E-03
    0.3500000000E+05    0.1198464534E-01    0.6958014164E+00    0.1604798082E-01    0.3987857574E+00    0.1682438954E-03
    0.3700000000E+05    0.1153316237E-01    0.6958048183E+00    0.1593565725E-01    0.4070753658E+00    0.1687646419E-03
    0.3900000000E+05    0.1109940491E-01    0.6958078460E+00    0.1581083981E-01    0.4148678133E+00    0.1692594325E-03
    0.4100000000E+05    0.1068365346E-01    0.6958105555E+00    0.1567608323E-01    0.4222080527E+00    0.1697307980E-03
    0.4300000000E+05    0.1028585032E-01    0.6958129922E+00    0.1553349449E-01    0.4291354823E+00    0.1701809133E-03
    0.4500000000E+05    0.9905701578E-02    0.6958151933E+00    0.1538481778E-01    0.4356848265E+00    0.1706116614E-03
    0.4700000000E+05    0.9542751450E-02    0.6958171896E+00    0.1523150139E-01    0.4418868471E+00    0.1710246835E-03
    0.4900000000E+05    0.9196436599E-02    0.6958190069E+00    0.1507475089E-01    0.4477689221E+00    0.1714214190E-03
    0.1000000000E+05    0.1650562269E-01    0.6956324978E+00    0.1342298222E-01    0.2145383045E+00    0.1569109172E-03
    0.3000000000E+05    0.1318420087E-01    0.6957907722E+00    0.1625195004E-01    0.3755276983E+00    0.1668076063E-03
    0.5000000000E+05    0.9029321963E-02    0.6958198553E+00    0.1499540886E-01    0.4505977291E+00    0.1716140819E-03
    0.7000000000E+05    0.6397944951E-02    0.6958312308E+00    0.1339820395E-01    0.4951447280E+00    0.1748545717E-03
    0.9000000000E+05    0.4726592860E-02    0.6958369388E+00    0.1196253036E-01    0.5246836161E+00    0.1773144869E-03
    0.1100000000E+06    0.3618874411E-02    0.6958401771E+00    0.1074759641E-01    0.5456780425E+00    0.1793033828E-03
    0.1300000000E+06    0.2853005767E-02    0.6958421433E+00    0.9729811942E-02    0.5613457471E+00    0.1809760299E-03
    0.1500000000E+06    0.2303723086E-02    0.6958433810E+00    0.8873856184E-02    0.5734730509E+00    0.1824212020E-03
    0.1700000000E+06    0.1897388033E-02    0.6958441699E+00    0.8148064188E-02    0.5831307231E+00    0.1836946519E-03
    0.1900000000E+06    0.1588838527E-02    0.6958446676E+00    0.7526903905E-02    0.5909989915E+00    0.1848337363E-03
    0.2100000000E+06    0.1349279699E-02    0.6958449683E+00    0.6990397682E-02    0.5975302772E+00    0.1858647341E-03
    0.2300000000E+06    0.1159710531E-02    0.6958451319E+00    0.6523000958E-02    0.6030369325E+00    0.1868068477E-03
    0.2500000000E+06    0.1007209509E-02    0.6958451977E+00    0.6112571437E-02    0.6077414018E+00    0.1876745428E-03
    0.2700000000E+06    0.8827544935E-03    0.6958451923E+00    0.5749550569E-02    0.6118063102E+00    0.1884789940E-03
    0.2900000000E+06    0.7798980483E-03    0.6958451345E+00    0.5426343959E-02    0.6153532514E+00    0.1892290159E-03
    0.3100000000E+06    0.6939371349E-03    0.6958450377E+00    0.5136859499E-02    0.6184749274E+00    0.1899316865E-03
    0.3300000000E+06    0.6213779802E-03    0.6958449116E+00    0.4876163714E-02    0.6212432278E+00    0.1905927768E-03
    0.3500000000E+06    0.5595824669E-03    0.6958447634E+00    0.4640224976E-02    0.6237147467E+00    0.1912170556E-03
    0.3700000000E+06    0.5065291708E-03    0.6958445985E+00    0.4425720250E-02    0.6259346363E+00    0.1918085090E-03
    0.3900000000E+06    0.4606485732E-03    0.6958444212E+00    0.4229888395E-02    0.6279393535E+00    0.1923705040E-03
    0.4100000000E+06    0.4207073237E-03    0.6958442345E+00    0.4050417807E-02    0.6297586525E+00    0.1929059108E-03
    0.4300000000E+06    0.3857255878E-03    0.6958440410E+00    0.3885359577E-02    0.6314170550E+00    0.1934171961E-03
    0.4500000000E+06    0.3549171191E-03    0.6958438426E+00    0.3733059771E-02    0.6329349501E+00    0.1939064958E-03
    0.4700000000E+06    0.3276451996E-03    0.6958436407E+00    0.3592106169E-02    0.6343294276E+00    0.1943756719E-03
    0.4900000000E+06    0.3033898296E-03    0.6958434366E+00    0.3461286022E-02    0.6356149192E+00    0.1948263575E-03
    0.1000000000E+06    0.4119144897E-02    0.6958387687E+00    0.1132830675E-01    0.5360013001E+00    0.1783559869E-03
    0.3000000000E+06    0.7350475223E-03    0.6958450903E+00    0.5277718590E-02    0.6169623411E+00    0.1895858828E-03
    0.5000000000E+06    0.2922565538E-03    0.6958433340E+00    0.3399343104E-02    0.6362207027E+00    0.1950452231E-03
    0.7000000000E+06    0.1554784822E-03    0.6958413142E+00    0.2500767469E-02    0.6448087730E+00    0.1987267224E-03
    0.9000000000E+06    0.9621008755E-04    0.6958394825E+00    0.1975652631E-02    0.6496653909E+00    0.2015217038E-03
    0.1100000000E+07    0.6531782127E-04    0.6958378604E+00    0.1631688793E-02    0.6527870729E+00    0.2037816377E-03
    0.1300000000E+07    0.4721467514E-04    0.6958364184E+00    0.1389104469E-02    0.6549620890E+00    0.2056822946E-03
    0.1500000000E+07    0.3570913870E-04    0.6958351247E+00    0.1208920127E-02    0.6565641378E+00    0.2073245082E-03
    0.1700000000E+07    0.2794739124E-04    0.6958339534E+00    0.1069848523E-02    0.6577931582E+00    0.2087716118E-03
    0.1900000000E+07    0.2246635069E-04    0.6958328840E+00    0.9592866145E-03    0.6587657839E+00    0.2100660444E-03
    0.2100000000E+07    0.1845330970E-04    0.6958319004E+00    0.8692998629E-03    0.6595546282E+00    0.2112376616E-03
    0.2300000000E+07    0.1542760668E-04    0.6958309898E+00    0.7946451596E-03    0.6602072576E+00    0.2123082801E-03
    0.2500000000E+07    0.1309024714E-04    0.6958301421E+00    0.7317195712E-03    0.6607561320E+00    0.2132943360E-03
    0.2700000000E+07    0.1124735698E-04    0.6958293492E+00    0.6779659008E-03    0.6612241594E+00    0.2142085259E-03
    0.2900000000E+07    0.9768774917E-05    0.6958286042E+00    0.6315191913E-03    0.6616279681E+00    0.2150608653E-03
    0.3100000000E+07    0.8564491929E-05    0.6958279017E+00    0.5909874803E-03    0.6619799202E+00    0.2158593968E-03
    0.3300000000E+07    0.7570660198E-05    0.6958272370E+00    0.5553108822E-03    0.6622893970E+00    0.2166106780E-03
    0.3500000000E+07    0.6740974935E-05    0.6958266061E+00    0.5236681959E-03    0.6625636462E+00    0.2173201273E-03
    0.3700000000E+07    0.6041194551E-05    0.6958260057E+00    0.4954133392E-03    0.6628083558E+00    0.2179922746E-03
    0.3900000000E+07    0.5445558145E-05    0.6958254329E+00    0.4700310613E-03    0.6630280521E+00    0.2186309458E-03
    0.4100000000E+07    0.4934385191E-05    0.6958248852E+00    0.4471054431E-03    0.6632263818E+00    0.2192394022E-03
    0.4300000000E+07    0.4492431799E-05    0.6958243605E+00    0.4262970762E-03    0.6634063159E+00    0.2198204469E-03
    0.4500000000E+07    0.4107742845E-05    0.6958238569E+00    0.4073262547E-03    0.6635702990E+00    0.2203765072E-03
    0.4700000000E+07    0.3770836131E-05    0.6958233727E+00    0.3899604092E-03    0.6637203610E+00    0.2209096988E-03
    0.4900000000E+07    0.3474113203E-05    0.6958229064E+00    0.3740045854E-03    0.6638582016E+00    0.2214218777E-03
    0.1000000000E+07    0.7853872360E-04    0.6958386469E+00    0.1787416734E-02    0.6513793610E+00    0.2027051225E-03
    0.3000000000E+07    0.9136829317E-05    0.6958282480E+00    0.6105867135E-03    0.6618097816E+00    0.2154664170E-03
    0.5000000000E+07    0.3338852547E-05    0.6958226796E+00    0.3665029607E-03    0.6639229959E+00    0.2216706064E-03
    0.7000000000E+07    0.1728064890E-05    0.6958188298E+00    0.2613528467E-03    0.6648306715E+00    0.2258544418E-03
    0.9000000000E+07    0.1062131350E-05    0.6958158709E+00    0.2028817277E-03    0.6653352961E+00    0.2290308081E-03
    0.1100000000E+08    0.7237024680E-06    0.6958134602E+00    0.1656839955E-03    0.6656565012E+00    0.2315991225E-03
    0.1300000000E+08    0.5282698813E-06    0.6958114219E+00    0.1399509257E-03    0.6658788884E+00    0.2337591362E-03
    0.1500000000E+08    0.4051217498E-06    0.6958096537E+00    0.1210972774E-03    0.6660419695E+00    0.2356254408E-03
    0.1700000000E+08    0.3224320607E-06    0.6958080907E+00    0.1066937746E-03    0.6661666718E+00    0.2372700116E-03
    0.1900000000E+08    0.2641560644E-06    0.6958066889E+00    0.9533367319E-04    0.6662651140E+00    0.2387410780E-03
    0.2100000000E+08    0.2214901025E-06    0.6958054173E+00    0.8614618634E-04    0.6663447994E+00    0.2400725699E-03
    0.2300000000E+08    0.1892750804E-06    0.6958042531E+00    0.7856354361E-04    0.6664106217E+00    0.2412892808E-03
    0.2500000000E+08    0.1643241101E-06    0.6958031790E+00    0.7219979335E-04    0.6664659086E+00    0.2424098897E-03
    0.2700000000E+08    0.1445817059E-06    0.6958021817E+00    0.6678345082E-04    0.6665130020E+00    0.2434488256E-03
