  Pressure (Pa) 22mC5-500 (mol/kg) 24mC5-500 (mol/kg) 2mC6-500 (mol/kg) 3mC6-500 (mol/kg) C7-500 (mol/kg)
    0.1000000000E+01    0.1024303393E-04    0.6965211871E-01    0.1704769783E-04    0.8172749378E-05    0.4146414281E-02
    0.3000000000E+01    0.2451196029E-04    0.1740937966E+00    0.3941589414E-04    0.2019634163E-04    0.4176133085E-02
    0.5000000000E+01    0.3397305111E-04    0.2486696456E+00    0.5342112012E-04    0.3112572487E-04    0.4187564076E-02
    0.7000000000E+01    0.4061349811E-04    0.3045887650E+00    0.6282974213E-04    0.4154936675E-04    0.4194678247E-02
    0.9000000000E+01    0.4548208701E-04    0.3480745342E+00    0.6953885133E-04    0.5166124652E-04    0.4199610534E-02
    0.1100000000E+02    0.4918227380E-04    0.3828592614E+00    0.7459243952E-04    0.6155719154E-04    0.4203184462E-02
    0.1300000000E+02    0.5208290090E-04    0.4113172208E+00    0.7859965480E-04    0.7129372231E-04    0.4205828958E-02
    0.1500000000E+02    0.5442018958E-04    0.4350308309E+00    0.8193196442E-04    0.8090782438E-04    0.4207801142E-02
    0.1700000000E+02    0.5635120369E-04    0.4550953760E+00    0.8482387368E-04    0.9042543211E-04    0.4209268137E-02
    0.1900000000E+02    0.5798364264E-04    0.4722930661E+00    0.8742757143E-04    0.9986565551E-04    0.4210344550E-02
    0.2100000000E+02    0.5939328400E-04    0.4871974415E+00    0.8984403957E-04    0.1092431136E-03    0.4211112098E-02
    0.2300000000E+02    0.6063462275E-04    0.5002386075E+00    0.9214148000E-04    0.1185693234E-03    0.4211630836E-02
    0.2500000000E+02    0.6174758953E-04    0.5117454371E+00    0.9436659899E-04    0.1278535756E-03    0.4211945983E-02
    0.2700000000E+02    0.6276192096E-04    0.5219736999E+00    0.9655171672E-04    0.1371035134E-03    0.4212092288E-02
    0.2900000000E+02    0.6370007681E-04    0.5311253063E+00    0.9871935730E-04    0.1463255290E-03    0.4212096912E-02
    0.3100000000E+02    0.6457923179E-04    0.5393617755E+00    0.1008852758E-03    0.1555250438E-03    0.4211981410E-02
    0.3300000000E+02    0.6541266294E-04    0.5468138551E+00    0.1030604916E-03    0.1647067127E-03    0.4211763106E-02
    0.3500000000E+02    0.6621073321E-04    0.5535885166E+00    0.1052526773E-03    0.1738745749E-03    0.4211456088E-02
    0.3700000000E+02    0.6698160016E-04    0.5597741245E+00    0.1074671200E-03    0.1830321689E-03    0.4211071928E-02
    0.3900000000E+02    0.6773173379E-04    0.5654443142E+00    0.1097073960E-03    0.1921826207E-03    0.4210620222E-02
    0.4100000000E+02    0.6846629992E-04    0.5706609378E+00    0.1119758491E-03    0.2013287128E-03    0.4210108992E-02
    0.4300000000E+02    0.6918944739E-04    0.5754763308E+00    0.1142739329E-03    0.2104729389E-03    0.4209544993E-02
    0.4500000000E+02    0.6990452551E-04    0.5799350748E+00    0.1166024581E-03    0.2196175482E-03    0.4208933958E-02
    0.4700000000E+02    0.7061425035E-04    0.5840753818E+00    0.1189617722E-03    0.2287645808E-03    0.4208280777E-02
    0.4900000000E+02    0.7132083300E-04    0.5879301931E+00    0.1213518907E-03    0.2379158969E-03    0.4207589650E-02
    0.1000000000E+02    0.4745120186E-04    0.3663826892E+00    0.7222728812E-04    0.5663207308E-04    0.4201534968E-02
    0.3000000000E+02    0.6414612137E-04    0.5353491326E+00    0.9980175087E-04    0.1509277921E-03    0.4212053008E-02
    0.5000000000E+02    0.7167352394E-04    0.5897596105E+00    0.1225584402E-03    0.2424936994E-03    0.4207231008E-02
    0.7000000000E+02    0.7885877915E-04    0.6166234007E+00    0.1481941936E-03    0.3346254509E-03    0.4198728712E-02
    0.9000000000E+02    0.8659515144E-04    0.6326349025E+00    0.1762990806E-03    0.4285326158E-03    0.4188636589E-02
    0.1100000000E+03    0.9499130599E-04    0.6432654231E+00    0.2064404217E-03    0.5249149951E-03    0.4177599184E-02
    0.1300000000E+03    0.1040387584E-03    0.6508374415E+00    0.2383897588E-03    0.6242796327E-03    0.4165864292E-02
    0.1500000000E+03    0.1137180317E-03    0.6565049674E+00    0.2720489920E-03    0.7270482298E-03    0.4153534926E-02
    0.1700000000E+03    0.1240178957E-03    0.6609062923E+00    0.3073970294E-03    0.8336040470E-03    0.4140650795E-02
    0.1900000000E+03    0.1349376562E-03    0.6644231312E+00    0.3444605266E-03    0.9443161586E-03    0.4127219935E-02
    0.2100000000E+03    0.1464861219E-03    0.6672977731E+00    0.3832982065E-03    0.1059553798E-02    0.4113232593E-02
    0.2300000000E+03    0.1586802387E-03    0.6696914145E+00    0.4239924012E-03    0.1179695915E-02    0.4098667853E-02
    0.2500000000E+03    0.1715440173E-03    0.6717154669E+00    0.4666445259E-03    0.1305138294E-02    0.4083496973E-02
    0.2700000000E+03    0.1851078199E-03    0.6734493992E+00    0.5113727905E-03    0.1436299401E-02    0.4067685097E-02
    0.2900000000E+03    0.1994079527E-03    0.6749514203E+00    0.5583112556E-03    0.1573625625E-02    0.4051192093E-02
    0.3100000000E+03    0.2144865022E-03    0.6762651429E+00    0.6076097532E-03    0.1717596305E-02    0.4033972910E-02
    0.3300000000E+03    0.2303913621E-03    0.6774238887E+00    0.6594344038E-03    0.1868728793E-02    0.4015977633E-02
    0.3500000000E+03    0.2471764178E-03    0.6784535549E+00    0.7139685845E-03    0.2027583741E-02    0.3997151331E-02
    0.3700000000E+03    0.2649018651E-03    0.6793745731E+00    0.7714142699E-03    0.2194770756E-02    0.3977433776E-02
    0.3900000000E+03    0.2836346494E-03    0.6802032785E+00    0.8319937082E-03    0.2370954558E-02    0.3956759036E-02
    0.4100000000E+03    0.3034490203E-03    0.6809528880E+00    0.8959514194E-03    0.2556861741E-02    0.3935054976E-02
    0.4300000000E+03    0.3244271995E-03    0.6816342104E+00    0.9635565219E-03    0.2753288270E-02    0.3912242671E-02
    0.4500000000E+03    0.3466601660E-03    0.6822561704E+00    0.1035105403E-02    0.2961107822E-02    0.3888235723E-02
    0.4700000000E+03    0.3702485632E-03    0.6828262027E+00    0.1110924762E-02    0.3181281091E-02    0.3862939489E-02
    0.4900000000E+03    0.3953037375E-03    0.6833505502E+00    0.1191375048E-02    0.3414866200E-02    0.3836250219E-02
    0.1000000000E+03    0.9071054721E-04    0.6384376827E+00    0.1911333708E-03    0.4763799068E-03    0.4183215586E-02
    0.3000000000E+03    0.2068470696E-03    0.6756295342E+00    0.5826555089E-03    0.1644749025E-02    0.4042676279E-02
    0.5000000000E+03    0.4084193754E-03    0.6835972746E+00    0.1233459605E-02    0.3537048332E-02    0.3822348049E-02
    0.7000000000E+03    0.7875743873E-03    0.6870704254E+00    0.2446607304E-02    0.7060644012E-02    0.3435305752E-02
    0.9000000000E+03    0.1597845561E-02    0.6890154153E+00    0.5039315321E-02    0.1461330280E-01    0.2667399066E-02
    0.1100000000E+04    0.3214653717E-02    0.6902589326E+00    0.1024365427E-01    0.2987619861E-01    0.1308842814E-02
    0.1300000000E+04    0.4766856993E-02    0.6911224730E+00    0.1532901994E-01    0.4504774813E-01    0.3354273374E-03
    0.1500000000E+04    0.5559517834E-02    0.6917571052E+00    0.1803879036E-01    0.5345318065E-01    0.1376987659E-03
    0.1700000000E+04    0.6116057658E-02    0.6922431870E+00    0.2002013101E-01    0.5981987221E-01    0.1151411633E-03
    0.1900000000E+04    0.6608005658E-02    0.6926274041E+00    0.2181869229E-01    0.6573156065E-01    0.1133266219E-03
    0.2100000000E+04    0.7061288242E-02    0.6929387343E+00    0.2351529452E-01    0.7141888749E-01    0.1137090412E-03
    0.2300000000E+04    0.7481354638E-02    0.6931961164E+00    0.2512500781E-01    0.7691988766E-01    0.1142813938E-03
    0.2500000000E+04    0.7870979925E-02    0.6934124509E+00    0.2665446547E-01    0.8224819683E-01    0.1148320216E-03
    0.2700000000E+04    0.8232435607E-02    0.6935968289E+00    0.2810888969E-01    0.8741379144E-01    0.1153437836E-03
    0.2900000000E+04    0.8567766762E-02    0.6937558417E+00    0.2949297522E-01    0.9242556943E-01    0.1158198999E-03
    0.3100000000E+04    0.8878841798E-02    0.6938943844E+00    0.3081103125E-01    0.9729172532E-01    0.1162648871E-03
    0.3300000000E+04    0.9167373096E-02    0.6940161688E+00    0.3206702950E-01    0.1020198492E+00    0.1166826353E-03
    0.3500000000E+04    0.9434932508E-02    0.6941240606E+00    0.3326463747E-01    0.1066169861E+00    0.1170763662E-03
    0.3700000000E+04    0.9682964812E-02    0.6942203072E+00    0.3440724677E-01    0.1110896849E+00    0.1174487606E-03
    0.3900000000E+04    0.9912799663E-02    0.6943066964E+00    0.3549799829E-01    0.1154440420E+00    0.1178020711E-03
    0.4100000000E+04    0.1012566227E-01    0.6943846676E+00    0.3653980466E-01    0.1196857401E+00    0.1181382088E-03
    0.4300000000E+04    0.1032268293E-01    0.6944553931E+00    0.3753537039E-01    0.1238200833E+00    0.1184588090E-03
    0.4500000000E+04    0.1050490560E-01    0.6945198373E+00    0.3848720990E-01    0.1278520283E+00    0.1187652823E-03
    0.4700000000E+04    0.1067329554E-01    0.6945788006E+00    0.3939766371E-01    0.1317862131E+00    0.1190588540E-03
    0.4900000000E+04    0.1082874620E-01    0.6946329530E+00    0.4026891312E-01    0.1356269824E+00    0.1193405952E-03
    0.1000000000E+04    0.2306758690E-02    0.6896987910E+00    0.7315012765E-02    0.2126871122E-01    0.2043174528E-02
    0.3000000000E+04    0.8726225808E-02    0.6938274167E+00    0.3016000120E-01    0.9487636236E-01    0.1160460245E-03
    0.5000000000E+04    0.1090188041E-01    0.6946584053E+00    0.4069047753E-01    0.1375136196E+00    0.1194773282E-03
    0.7000000000E+04    0.1185673812E-01    0.6950147208E+00    0.4749162018E-01    0.1712087110E+00    0.1217698205E-03
    0.9000000000E+04    0.1216561469E-01    0.6952125546E+00    0.5202311877E-01    0.1989523027E+00    0.1235027865E-03
    0.1100000000E+05    0.1211949933E-01    0.6953383157E+00    0.5508615556E-01    0.2224745466E+00    0.1249005359E-03
    0.1300000000E+05    0.1187564427E-01    0.6954252673E+00    0.5715495763E-01    0.2428551820E+00    0.1260741885E-03
    0.1500000000E+05    0.1152312279E-01    0.6954889381E+00    0.5852697024E-01    0.2608088925E+00    0.1270871160E-03
    0.1700000000E+05    0.1111409749E-01    0.6955375504E+00    0.5939747881E-01    0.2768314813E+00    0.1279789622E-03
    0.1900000000E+05    0.1067979316E-01    0.6955758645E+00    0.5989949836E-01    0.2912803271E+00    0.1287762140E-03
    0.2100000000E+05    0.1023911503E-01    0.6956068266E+00    0.6012639494E-01    0.3044213289E+00    0.1294974638E-03
    0.2300000000E+05    0.9803509612E-02    0.6956323580E+00    0.6014535643E-01    0.3164576566E+00    0.1301562738E-03
    0.2500000000E+05    0.9379807692E-02    0.6956537648E+00    0.6000575008E-01    0.3275480933E+00    0.1307628472E-03
    0.2700000000E+05    0.8971937803E-02    0.6956719658E+00    0.5974449168E-01    0.3378191552E+00    0.1313250565E-03
    0.2900000000E+05    0.8581984719E-02    0.6956876260E+00    0.5938960021E-01    0.3473733453E+00    0.1318491059E-03
    0.3100000000E+05    0.8210856796E-02    0.6957012388E+00    0.5896261312E-01    0.3562949259E+00    0.1323399734E-03
    0.3300000000E+05    0.7858713649E-02    0.6957131778E+00    0.5848026541E-01    0.3646540512E+00    0.1328017149E-03
    0.3500000000E+05    0.7525243771E-02    0.6957237309E+00    0.5795568057E-01    0.3725097876E+00    0.1332376798E-03
    0.3700000000E+05    0.7209846445E-02    0.6957331239E+00    0.5739923041E-01    0.3799123619E+00    0.1336506666E-03
    0.3900000000E+05    0.6911751634E-02    0.6957415360E+00    0.5681916586E-01    0.3869048639E+00    0.1340430378E-03
    0.4100000000E+05    0.6630099155E-02    0.6957491115E+00    0.5622208618E-01    0.3935245544E+00    0.1344168065E-03
    0.4300000000E+05    0.6363990824E-02    0.6957559678E+00    0.5561329270E-01    0.3998038838E+00    0.1347737024E-03
    0.4500000000E+05    0.6112524508E-02    0.6957622012E+00    0.5499705833E-01    0.4057712955E+00    0.1351152225E-03
    0.4700000000E+05    0.5874815984E-02    0.6957678919E+00    0.5437683522E-01    0.4114518666E+00    0.1354426715E-03
    0.4900000000E+05    0.5650012561E-02    0.6957731066E+00    0.5375541626E-01    0.4168678241E+00    0.1357571935E-03
    0.1000000000E+05    0.1217497550E-01    0.6952817420E+00    0.5370317386E-01    0.2111626607E+00    0.1242350565E-03
    0.3000000000E+05    0.8394043913E-02    0.6956946627E+00    0.5918397601E-01    0.3519085363E+00    0.1320984152E-03
    0.5000000000E+05    0.5542194482E-02    0.6957755534E+00    0.5344498255E-01    0.4194828443E+00    0.1359099268E-03
    0.7000000000E+05    0.3890573087E-02    0.6958094492E+00    0.4753275822E-01    0.4617316050E+00    0.1384783982E-03
    0.9000000000E+05    0.2873812110E-02    0.6958278356E+00    0.4248072964E-01    0.4911745091E+00    0.1404277512E-03
    0.1100000000E+06    0.2207464871E-02    0.6958392457E+00    0.3827929977E-01    0.5130313604E+00    0.1420036534E-03
    0.1300000000E+06    0.1748046707E-02    0.6958469398E+00    0.3477874844E-01    0.5299625661E+00    0.1433288720E-03
    0.1500000000E+06    0.1418203329E-02    0.6958524292E+00    0.3183561557E-01    0.5434926146E+00    0.1444738027E-03
    0.1700000000E+06    0.1173501610E-02    0.6958565084E+00    0.2933479848E-01    0.5545665653E+00    0.1454826475E-03
    0.1900000000E+06    0.9870059674E-03    0.6958596341E+00    0.2718766001E-01    0.5638048159E+00    0.1463850189E-03
    0.2100000000E+06    0.8416349571E-03    0.6958620869E+00    0.2532635815E-01    0.5716329456E+00    0.1472017461E-03
    0.2300000000E+06    0.7261376306E-03    0.6958640485E+00    0.2369867421E-01    0.5783533028E+00    0.1479480476E-03
    0.2500000000E+06    0.6328608727E-03    0.6958656416E+00    0.2226401834E-01    0.5841869413E+00    0.1486353875E-03
    0.2700000000E+06    0.5564530154E-03    0.6958669517E+00    0.2099048705E-01    0.5892994043E+00    0.1492726209E-03
    0.2900000000E+06    0.4930810234E-03    0.6958680403E+00    0.1985272148E-01    0.5938172213E+00    0.1498667326E-03
    0.3100000000E+06    0.4399414311E-03    0.6958689528E+00    0.1883034591E-01    0.5978388205E+00    0.1504233309E-03
    0.3300000000E+06    0.3949455628E-03    0.6958697230E+00    0.1790682106E-01    0.6014419547E+00    0.1509469886E-03
    0.3500000000E+06    0.3565115378E-03    0.6958703772E+00    0.1706859366E-01    0.6046888812E+00    0.1514414840E-03
    0.3700000000E+06    0.3234235929E-03    0.6958709354E+00    0.1630445902E-01    0.6076300523E+00    0.1519099754E-03
    0.3900000000E+06    0.2947349335E-03    0.6958714136E+00    0.1560507818E-01    0.6103067957E+00    0.1523551303E-03
    0.4100000000E+06    0.2696993767E-03    0.6958718246E+00    0.1496260811E-01    0.6127532938E+00    0.1527792228E-03
    0.4300000000E+06    0.2477224337E-03    0.6958721786E+00    0.1437041581E-01    0.6149980681E+00    0.1531842070E-03
    0.4500000000E+06    0.2283257606E-03    0.6958724840E+00    0.1382285502E-01    0.6170651070E+00    0.1535717752E-03
    0.4700000000E+06    0.2111209620E-03    0.6958727476E+00    0.1331509034E-01    0.6189747339E+00    0.1539434024E-03
    0.4900000000E+06    0.1957900357E-03    0.6958729751E+00    0.1284295735E-01    0.6207442828E+00    0.1543003825E-03
    0.1000000000E+06    0.2507941320E-02    0.6958341473E+00    0.4028256423E-01    0.5028482482E+00    0.1412530026E-03
    0.3000000000E+06    0.4653766314E-03    0.6958685162E+00    0.1932822239E-01    0.5958847734E+00    0.1501494140E-03
    0.5000000000E+06    0.1887434364E-03    0.6958730769E+00    0.1261910682E-01    0.6215812605E+00    0.1544737418E-03
    0.7000000000E+06    0.1015853984E-03    0.6958740472E+00    0.9349399174E-02    0.6336671003E+00    0.1573897552E-03
    0.9000000000E+06    0.6338318690E-04    0.6958740311E+00    0.7418108732E-02    0.6406922756E+00    0.1596035527E-03
    0.1100000000E+07    0.4331944041E-04    0.6958736623E+00    0.6144338820E-02    0.6452841537E+00    0.1613935468E-03
    0.1300000000E+07    0.3149677061E-04    0.6958731553E+00    0.5241691435E-02    0.6485196965E+00    0.1628989668E-03
    0.1500000000E+07    0.2395042171E-04    0.6958725969E+00    0.4568869682E-02    0.6509221223E+00    0.1641996825E-03
    0.1700000000E+07    0.1884158853E-04    0.6958720257E+00    0.4048164990E-02    0.6527762594E+00    0.1653458592E-03
    0.1900000000E+07    0.1522304758E-04    0.6958714599E+00    0.3633322573E-02    0.6542504209E+00    0.1663711115E-03
    0.2100000000E+07    0.1256662170E-04    0.6958709082E+00    0.3295098067E-02    0.6554504477E+00    0.1672990872E-03
    0.2300000000E+07    0.1055894222E-04    0.6958703743E+00    0.3014100577E-02    0.6564462273E+00    0.1681470667E-03
    0.2500000000E+07    0.9004558224E-05    0.6958698599E+00    0.2776967390E-02    0.6572857622E+00    0.1689280681E-03
    0.2700000000E+07    0.7776443575E-05    0.6958693652E+00    0.2574191689E-02    0.6580031122E+00    0.1696521481E-03
    0.2900000000E+07    0.6789144482E-05    0.6958688897E+00    0.2398826120E-02    0.6586231131E+00    0.1703272395E-03
    0.3100000000E+07    0.5983461761E-05    0.6958684325E+00    0.2245676270E-02    0.6591643000E+00    0.1709597124E-03
    0.3300000000E+07    0.5317334428E-05    0.6958679929E+00    0.2110780923E-02    0.6596407861E+00    0.1715547608E-03
    0.3500000000E+07    0.4760213179E-05    0.6958675698E+00    0.1991066819E-02    0.6600635065E+00    0.1721166765E-03
    0.3700000000E+07    0.4289476530E-05    0.6958671621E+00    0.1884113198E-02    0.6604410647E+00    0.1726490472E-03
    0.3900000000E+07    0.3888084130E-05    0.6958667691E+00    0.1787987463E-02    0.6607803226E+00    0.1731549032E-03
    0.4100000000E+07    0.3543002206E-05    0.6958663897E+00    0.1701128112E-02    0.6610868201E+00    0.1736368278E-03
    0.4300000000E+07    0.3244123894E-05    0.6958660231E+00    0.1622259799E-02    0.6613650779E+00    0.1740970411E-03
    0.4500000000E+07    0.2983514361E-05    0.6958656685E+00    0.1550330697E-02    0.6616188225E+00    0.1745374657E-03
    0.4700000000E+07    0.2754873686E-05    0.6958653253E+00    0.1484465620E-02    0.6618511525E+00    0.1749597772E-03
    0.4900000000E+07    0.2553148550E-05    0.6958649926E+00    0.1423930456E-02    0.6620646657E+00    0.1753654457E-03
    0.1000000000E+07    0.5192139645E-04    0.6958738727E+00    0.6721907865E-02    0.6432059426E+00    0.1605408877E-03
    0.3000000000E+07    0.6366553030E-05    0.6958686588E+00    0.2319746005E-02    0.6589025895E+00    0.1706484547E-03
    0.5000000000E+07    0.2461069323E-05    0.6958648301E+00    0.1395463903E-02    0.6621650653E+00    0.1755624499E-03
    0.7000000000E+07    0.1355720647E-05    0.6958620107E+00    0.9960459200E-03    0.6635736763E+00    0.1788762346E-03
    0.9000000000E+07    0.8898306324E-06    0.6958597806E+00    0.7736136999E-03    0.6643583314E+00    0.1813920600E-03
    0.1100000000E+08    0.6481143710E-06    0.6958579325E+00    0.6319863098E-03    0.6648582175E+00    0.1834262819E-03
    0.1300000000E+08    0.5054271422E-06    0.6958563521E+00    0.5339540221E-03    0.6652044522E+00    0.1851371119E-03
    0.1500000000E+08    0.4134149818E-06    0.6958549696E+00    0.4621005228E-03    0.6654583931E+00    0.1866153116E-03
    0.1700000000E+08    0.3501320038E-06    0.6958537397E+00    0.4071905495E-03    0.6656525777E+00    0.1879178883E-03
    0.1900000000E+08    0.3044182431E-06    0.6958526309E+00    0.3638727378E-03    0.6658058630E+00    0.1890830419E-03
    0.2100000000E+08    0.2700950802E-06    0.6958516208E+00    0.3288329273E-03    0.6659299301E+00    0.1901376462E-03
    0.2300000000E+08    0.2435079239E-06    0.6958506926E+00    0.2999093842E-03    0.6660324005E+00    0.1911013390E-03
    0.2500000000E+08    0.2223774722E-06    0.6958498336E+00    0.2756321720E-03    0.6661184580E+00    0.1919889146E-03
    0.2700000000E+08    0.2052190086E-06    0.6958490337E+00    0.2549670448E-03    0.6661917511E+00    0.1928118015E-03
