  Pressure (Pa) 22mC5-500 (mol/kg) 24mC5-500 (mol/kg) 2mC6-500 (mol/kg) 3mC6-500 (mol/kg) C7-500 (mol/kg)
    0.1000000000E+01    0.7025979760E-05    0.2487113485E+00    0.4554382956E-05    0.3061676861E-05    0.4145264443E-02
    0.3000000000E+01    0.1135781672E-04    0.4351395676E+00    0.7128304436E-05    0.7552884376E-05    0.4167953341E-02
    0.5000000000E+01    0.1299962854E-04    0.5118793014E+00    0.8335551893E-05    0.1162143841E-04    0.4173020567E-02
    0.7000000000E+01    0.1402821898E-04    0.5537317215E+00    0.9369172747E-05    0.1548922877E-04    0.4175088723E-02
    0.9000000000E+01    0.1487070127E-04    0.5800813776E+00    0.1039985880E-04    0.1922962009E-04    0.4176063812E-02
    0.1100000000E+02    0.1565270166E-04    0.5981959996E+00    0.1145517728E-04    0.2287894172E-04    0.4176515298E-02
    0.1300000000E+02    0.1641823067E-04    0.6114144183E+00    0.1253548964E-04    0.2645866311E-04    0.4176675651E-02
    0.1500000000E+02    0.1718401638E-04    0.6214854097E+00    0.1363614209E-04    0.2998285503E-04    0.4176657950E-02
    0.1700000000E+02    0.1795643039E-04    0.6294135357E+00    0.1475235170E-04    0.3346139517E-04    0.4176523873E-02
    0.1900000000E+02    0.1873760369E-04    0.6358169641E+00    0.1588019295E-04    0.3690156724E-04    0.4176309914E-02
    0.2100000000E+02    0.1952787015E-04    0.6410969494E+00    0.1701664210E-04    0.4030894485E-04    0.4176039024E-02
    0.2300000000E+02    0.2032681134E-04    0.6455253033E+00    0.1815941779E-04    0.4368791831E-04    0.4175726342E-02
    0.2500000000E+02    0.2113372275E-04    0.6492926961E+00    0.1930680821E-04    0.4704202716E-04    0.4175382239E-02
    0.2700000000E+02    0.2194782534E-04    0.6525368320E+00    0.2045752845E-04    0.5037418017E-04    0.4175014044E-02
    0.2900000000E+02    0.2276836025E-04    0.6553596468E+00    0.2161061177E-04    0.5368680627E-04    0.4174627076E-02
    0.3100000000E+02    0.2359462823E-04    0.6578382132E+00    0.2276532901E-04    0.5698196144E-04    0.4174225278E-02
    0.3300000000E+02    0.2442600294E-04    0.6600318855E+00    0.2392112926E-04    0.6026140644E-04    0.4173811628E-02
    0.3500000000E+02    0.2526193177E-04    0.6619871144E+00    0.2507759628E-04    0.6352666464E-04    0.4173388416E-02
    0.3700000000E+02    0.2610193118E-04    0.6637407733E+00    0.2623441618E-04    0.6677906580E-04    0.4172957422E-02
    0.3900000000E+02    0.2694557993E-04    0.6653225051E+00    0.2739135340E-04    0.7001977991E-04    0.4172520051E-02
    0.4100000000E+02    0.2779251179E-04    0.6667564120E+00    0.2854823274E-04    0.7324984369E-04    0.4172077424E-02
    0.4300000000E+02    0.2864240855E-04    0.6680622921E+00    0.2970492565E-04    0.7647018153E-04    0.4171630441E-02
    0.4500000000E+02    0.2949499366E-04    0.6692565592E+00    0.3086133996E-04    0.7968162245E-04    0.4171179833E-02
    0.4700000000E+02    0.3035002661E-04    0.6703529363E+00    0.3201741184E-04    0.8288491376E-04    0.4170726200E-02
    0.4900000000E+02    0.3120729797E-04    0.6713629852E+00    0.3317309970E-04    0.8608073235E-04    0.4170270032E-02
    0.1000000000E+02    0.1526553569E-04    0.5899063310E+00    0.1092418597E-04    0.2106409370E-04    0.4176336350E-02
    0.3000000000E+02    0.2318081851E-04    0.6566379015E+00    0.2218780418E-04    0.5533645151E-04    0.4174427826E-02
    0.5000000000E+02    0.3163671506E-04    0.6718387614E+00    0.3375079150E-04    0.8767603394E-04    0.4170041129E-02
    0.7000000000E+02    0.4030906967E-04    0.6785712211E+00    0.4528442537E-04    0.1193141902E-03    0.4165399296E-02
    0.9000000000E+02    0.4909552992E-04    0.6823701805E+00    0.5679786518E-04    0.1506694494E-03    0.4160716014E-02
    0.1100000000E+03    0.5796954332E-04    0.6848099597E+00    0.6832378947E-04    0.1819540722E-03    0.4156030396E-02
    0.1300000000E+03    0.6692650809E-04    0.6865092997E+00    0.7989118589E-04    0.2132972530E-03    0.4151347386E-02
    0.1500000000E+03    0.7596911537E-04    0.6877608608E+00    0.9152353572E-04    0.2447869181E-03    0.4146663350E-02
    0.1700000000E+03    0.8510260958E-04    0.6887210249E+00    0.1032399287E-03    0.2764877611E-03    0.4141972526E-02
    0.1900000000E+03    0.9433307329E-04    0.6894809472E+00    0.1150562373E-03    0.3084502590E-03    0.4137268920E-02
    0.2100000000E+03    0.1036667714E-03    0.6900973527E+00    0.1269860036E-03    0.3407156639E-03    0.4132546862E-02
    0.2300000000E+03    0.1131099030E-03    0.6906073894E+00    0.1390410717E-03    0.3733189795E-03    0.4127801141E-02
    0.2500000000E+03    0.1226685193E-03    0.6910364028E+00    0.1512320364E-03    0.4062908438E-03    0.4123027001E-02
    0.2700000000E+03    0.1323485110E-03    0.6914022787E+00    0.1635685660E-03    0.4396587764E-03    0.4118220083E-02
    0.2900000000E+03    0.1421556246E-03    0.6917179994E+00    0.1760596392E-03    0.4734480373E-03    0.4113376367E-02
    0.3100000000E+03    0.1520954894E-03    0.6919932160E+00    0.1887137209E-03    0.5076822378E-03    0.4108492112E-02
    0.3300000000E+03    0.1621736461E-03    0.6922352530E+00    0.2015388967E-03    0.5423837887E-03    0.4103563808E-02
    0.3500000000E+03    0.1723955767E-03    0.6924497691E+00    0.2145429764E-03    0.5775742365E-03    0.4098588131E-02
    0.3700000000E+03    0.1827667307E-03    0.6926412055E+00    0.2277335768E-03    0.6132745225E-03    0.4093561904E-02
    0.3900000000E+03    0.1932925493E-03    0.6928130966E+00    0.2411181866E-03    0.6495051856E-03    0.4088482071E-02
    0.4100000000E+03    0.2039784885E-03    0.6929682902E+00    0.2547042212E-03    0.6862865265E-03    0.4083345668E-02
    0.4300000000E+03    0.2148300382E-03    0.6931091065E+00    0.2684990668E-03    0.7236387405E-03    0.4078149802E-02
    0.4500000000E+03    0.2258527408E-03    0.6932374547E+00    0.2825101185E-03    0.7615820295E-03    0.4072891632E-02
    0.4700000000E+03    0.2370522080E-03    0.6933549205E+00    0.2967448132E-03    0.8001366964E-03    0.4067568353E-02
    0.4900000000E+03    0.2484341362E-03    0.6934628315E+00    0.3112106575E-03    0.8393232274E-03    0.4062177181E-02
    0.1000000000E+03    0.5352214438E-04    0.6837099001E+00    0.6255731814E-04    0.1663112357E-03    0.4158372849E-02
    0.3000000000E+03    0.1471086151E-03    0.6918601674E+00    0.1823657911E-03    0.4905080956E-03    0.4110939531E-02
    0.5000000000E+03    0.2541953299E-03    0.6935135610E+00    0.3185326321E-03    0.8591599119E-03    0.4059455269E-02
    0.7000000000E+03    0.3804984316E-03    0.6942245253E+00    0.4790606060E-03    0.1294395319E-02    0.4000763150E-02
    0.9000000000E+03    0.5328275177E-03    0.6946200955E+00    0.6727711460E-03    0.1820297581E-02    0.3931859151E-02
    0.1100000000E+04    0.7204409295E-03    0.6948720272E+00    0.9115523391E-03    0.2469366050E-02    0.3848980153E-02
    0.1300000000E+04    0.9566257600E-03    0.6950465261E+00    0.1212448602E-02    0.3288265386E-02    0.3746938322E-02
    0.1500000000E+04    0.1261091417E-02    0.6951745301E+00    0.1600760171E-02    0.4346361194E-02    0.3618256831E-02
    0.1700000000E+04    0.1663771306E-02    0.6952724332E+00    0.2114963455E-02    0.5749310670E-02    0.3451898254E-02
    0.1900000000E+04    0.2210608777E-02    0.6953497330E+00    0.2814230855E-02    0.7659931749E-02    0.3231501961E-02
    0.2100000000E+04    0.2970724890E-02    0.6954123119E+00    0.3787856681E-02    0.1032465989E-01    0.2933685142E-02
    0.2300000000E+04    0.4038048357E-02    0.6954640078E+00    0.5157866319E-02    0.1408209743E-01    0.2529624523E-02
    0.2500000000E+04    0.5499822382E-02    0.6955074312E+00    0.7039539836E-02    0.1925730749E-01    0.2000573677E-02
    0.2700000000E+04    0.7320582267E-02    0.6955444197E+00    0.9393134333E-02    0.2575692213E-01    0.1382689236E-02
    0.2900000000E+04    0.9204375283E-02    0.6955763040E+00    0.1184446019E-01    0.3257018652E-01    0.8051451169E-03
    0.3100000000E+04    0.1076395594E-01    0.6956040718E+00    0.1389636447E-01    0.3833363704E-01    0.4030980506E-03
    0.3300000000E+04    0.1188670243E-01    0.6956284714E+00    0.1539889901E-01    0.4262176783E-01    0.1886065239E-03
    0.3500000000E+04    0.1269964973E-01    0.6956500800E+00    0.1651046946E-01    0.4585665359E-01    0.9210497923E-04
    0.3700000000E+04    0.1334514951E-01    0.6956693503E+00    0.1741178320E-01    0.4852859303E-01    0.5220040332E-04
    0.3900000000E+04    0.1390651178E-01    0.6956866419E+00    0.1820918132E-01    0.5092772911E-01    0.3627814618E-04
    0.4100000000E+04    0.1442304660E-01    0.6957022443E+00    0.1895294995E-01    0.5319159982E-01    0.3002004560E-04
    0.4300000000E+04    0.1491197726E-01    0.6957163934E+00    0.1966508685E-01    0.5538031991E-01    0.2758747652E-04
    0.4500000000E+04    0.1538078910E-01    0.6957292829E+00    0.2035507024E-01    0.5751960813E-01    0.2666221415E-04
    0.4700000000E+04    0.1583286912E-01    0.6957410736E+00    0.2102709497E-01    0.5962062568E-01    0.2633089780E-04
    0.4900000000E+04    0.1626990240E-01    0.6957519001E+00    0.2168315944E-01    0.6168847251E-01    0.2623372970E-04
    0.1000000000E+04    0.6215104132E-03    0.6947586391E+00    0.7856130132E-03    0.2126932711E-02    0.3892448795E-02
    0.3000000000E+04    0.1004022052E-01    0.6955906510E+00    0.1294056044E-01    0.3563935404E-01    0.5781693784E-03
    0.5000000000E+04    0.1648309573E-01    0.6957569879E+00    0.2200556400E-01    0.6271081416E-01    0.2622435192E-04
    0.7000000000E+04    0.2010723504E-01    0.6958281600E+00    0.2777048965E-01    0.8174956943E-01    0.2665131521E-04
    0.9000000000E+04    0.2275942961E-01    0.6958676254E+00    0.3246790770E-01    0.9854374820E-01    0.2702690118E-04
    0.1100000000E+05    0.2470399758E-01    0.6958926889E+00    0.3635112569E-01    0.1135684377E+00    0.2733047657E-04
    0.1300000000E+05    0.2612292908E-01    0.6959100039E+00    0.3959913759E-01    0.1271661989E+00    0.2758572574E-04
    0.1500000000E+05    0.2714498155E-01    0.6959226739E+00    0.4234211934E-01    0.1395912561E+00    0.2780622864E-04
    0.1700000000E+05    0.2786330275E-01    0.6959323411E+00    0.4467699577E-01    0.1510366602E+00    0.2800050909E-04
    0.1900000000E+05    0.2834658100E-01    0.6959399558E+00    0.4667742073E-01    0.1616519649E+00    0.2817427603E-04
    0.2100000000E+05    0.2864631378E-01    0.6959461058E+00    0.4840037223E-01    0.1715550741E+00    0.2833154422E-04
    0.2300000000E+05    0.2880167124E-01    0.6959511743E+00    0.4989062764E-01    0.1808403924E+00    0.2847524658E-04
    0.2500000000E+05    0.2884282585E-01    0.6959554218E+00    0.5118387207E-01    0.1895845604E+00    0.2860759217E-04
    0.2700000000E+05    0.2879327866E-01    0.6959590313E+00    0.5230890254E-01    0.1978505734E+00    0.2873028715E-04
    0.2900000000E+05    0.2867151434E-01    0.6959621354E+00    0.5328922026E-01    0.2056907932E+00    0.2884467719E-04
    0.3100000000E+05    0.2849219794E-01    0.6959648324E+00    0.5414420027E-01    0.2131491868E+00    0.2895184274E-04
    0.3300000000E+05    0.2826705306E-01    0.6959671965E+00    0.5488996356E-01    0.2202630146E+00    0.2905266464E-04
    0.3500000000E+05    0.2800551486E-01    0.6959692853E+00    0.5554003653E-01    0.2270641216E+00    0.2914787068E-04
    0.3700000000E+05    0.2771522156E-01    0.6959711436E+00    0.5610585571E-01    0.2335799360E+00    0.2923806920E-04
    0.3900000000E+05    0.2740238844E-01    0.6959728070E+00    0.5659715876E-01    0.2398342510E+00    0.2932377400E-04
    0.4100000000E+05    0.2707209534E-01    0.6959743043E+00    0.5702229039E-01    0.2458478428E+00    0.2940542302E-04
    0.4300000000E+05    0.2672850975E-01    0.6959756589E+00    0.5738844419E-01    0.2516389644E+00    0.2948339265E-04
    0.4500000000E+05    0.2637506139E-01    0.6959768898E+00    0.5770185549E-01    0.2572237425E+00    0.2955800878E-04
    0.4700000000E+05    0.2601457988E-01    0.6959780130E+00    0.5796795646E-01    0.2626165004E+00    0.2962955550E-04
    0.4900000000E+05    0.2564940416E-01    0.6959790419E+00    0.5819150184E-01    0.2678300223E+00    0.2969828196E-04
    0.1000000000E+05    0.2380727758E-01    0.6958814168E+00    0.3449872579E-01    0.1062533924E+00    0.2718588061E-04
    0.3000000000E+05    0.2858825706E-01    0.6959635297E+00    0.5373130225E-01    0.2094652491E+00    0.2889910392E-04
    0.5000000000E+05    0.2546567461E-01    0.6959795244E+00    0.5828864248E-01    0.2703731982E+00    0.2973165728E-04
    0.7000000000E+05    0.2186646762E-01    0.6959861957E+00    0.5878638866E-01    0.3140794514E+00    0.3029304202E-04
    0.9000000000E+05    0.1873198622E-01    0.6959897983E+00    0.5774063896E-01    0.3480022886E+00    0.3071922894E-04
    0.1100000000E+06    0.1613778557E-01    0.6959920237E+00    0.5604918265E-01    0.3754731713E+00    0.3106382438E-04
    0.1300000000E+06    0.1400929316E-01    0.6959935174E+00    0.5409974303E-01    0.3983332899E+00    0.3135363435E-04
    0.1500000000E+06    0.1225700350E-01    0.6959945778E+00    0.5207721973E-01    0.4177297047E+00    0.3160403576E-04
    0.1700000000E+06    0.1080391191E-01    0.6959953618E+00    0.5007400908E-01    0.4344334771E+00    0.3182468643E-04
    0.1900000000E+06    0.9588792278E-02    0.6959959593E+00    0.4813651664E-01    0.4489905570E+00    0.3202205778E-04
    0.2100000000E+06    0.8564053183E-02    0.6959964254E+00    0.4628698788E-01    0.4618023572E+00    0.3220070239E-04
    0.2300000000E+06    0.7692837336E-02    0.6959967959E+00    0.4453455035E-01    0.4731726221E+00    0.3236394692E-04
    0.2500000000E+06    0.6946490908E-02    0.6959970948E+00    0.4288110532E-01    0.4833364846E+00    0.3251429757E-04
    0.2700000000E+06    0.6302581977E-02    0.6959973389E+00    0.4132459374E-01    0.4924793843E+00    0.3265369032E-04
    0.2900000000E+06    0.5743404947E-02    0.6959975402E+00    0.3986085493E-01    0.5007498688E+00    0.3278365235E-04
    0.3100000000E+06    0.5254864802E-02    0.6959977075E+00    0.3848470175E-01    0.5082685297E+00    0.3290540995E-04
    0.3300000000E+06    0.4825645436E-02    0.6959978474E+00    0.3719054623E-01    0.5151344040E+00    0.3301996304E-04
    0.3500000000E+06    0.4446587176E-02    0.6959979651E+00    0.3597276161E-01    0.5214296591E+00    0.3312813780E-04
    0.3700000000E+06    0.4110217811E-02    0.6959980644E+00    0.3482588734E-01    0.5272230870E+00    0.3323062491E-04
    0.3900000000E+06    0.3810396564E-02    0.6959981484E+00    0.3374473950E-01    0.5325727506E+00    0.3332800774E-04
    0.4100000000E+06    0.3542041611E-02    0.6959982197E+00    0.3272446424E-01    0.5375280189E+00    0.3342078358E-04
    0.4300000000E+06    0.3300919832E-02    0.6959982802E+00    0.3176055685E-01    0.5421311499E+00    0.3350937982E-04
    0.4500000000E+06    0.3083483283E-02    0.6959983314E+00    0.3084886057E-01    0.5464185366E+00    0.3359416655E-04
    0.4700000000E+06    0.2886741013E-02    0.6959983748E+00    0.2998555380E-01    0.5504216973E+00    0.3367546639E-04
    0.4900000000E+06    0.2708157836E-02    0.6959984114E+00    0.2916713092E-01    0.5541680708E+00    0.3375356230E-04
    0.1000000000E+06    0.1737099244E-01    0.6959910306E+00    0.5694457569E-01    0.3624072077E+00    0.3089967753E-04
    0.3000000000E+06    0.5491069489E-02    0.6959976276E+00    0.3916217520E-01    0.5045965440E+00    0.3284548960E-04
    0.5000000000E+06    0.2624988124E-02    0.6959984275E+00    0.2877373645E-01    0.5559525822E+00    0.3379148793E-04
    0.7000000000E+06    0.1529308836E-02    0.6959985514E+00    0.2261598307E-01    0.5826572975E+00    0.3442943267E-04
    0.9000000000E+06    0.9987891408E-03    0.6959984974E+00    0.1859259685E-01    0.5990356790E+00    0.3491376331E-04
    0.1100000000E+07    0.7026514886E-03    0.6959983840E+00    0.1576908290E-01    0.6101067741E+00    0.3530538078E-04
    0.1300000000E+07    0.5208294077E-03    0.6959982500E+00    0.1368208068E-01    0.6180896232E+00    0.3563474206E-04
    0.1500000000E+07    0.4013000979E-03    0.6959981107E+00    0.1207822107E-01    0.6241174784E+00    0.3591931953E-04
    0.1700000000E+07    0.3185726740E-03    0.6959979726E+00    0.1080789791E-01    0.6288296208E+00    0.3617008761E-04
    0.1900000000E+07    0.2589695421E-03    0.6959978384E+00    0.9777282418E-02    0.6326140662E+00    0.3639440013E-04
    0.2100000000E+07    0.2146200326E-03    0.6959977091E+00    0.8924621034E-02    0.6357199618E+00    0.3659743058E-04
    0.2300000000E+07    0.1807359858E-03    0.6959975853E+00    0.8207641241E-02    0.6383146025E+00    0.3678295939E-04
    0.2500000000E+07    0.1542694257E-03    0.6959974669E+00    0.7596446831E-02    0.6405144879E+00    0.3695383466E-04
    0.2700000000E+07    0.1332056212E-03    0.6959973537E+00    0.7069305591E-02    0.6424032371E+00    0.3711225650E-04
    0.2900000000E+07    0.1161697570E-03    0.6959972454E+00    0.6610045108E-02    0.6440424214E+00    0.3725996046E-04
    0.3100000000E+07    0.1021977693E-03    0.6959971417E+00    0.6206384284E-02    0.6454783802E+00    0.3739834017E-04
    0.3300000000E+07    0.9059748342E-04    0.6959970422E+00    0.5848830949E-02    0.6467466552E+00    0.3752853199E-04
    0.3500000000E+07    0.8086157078E-04    0.6959969468E+00    0.5529933720E-02    0.6478749614E+00    0.3765147486E-04
    0.3700000000E+07    0.7261135335E-04    0.6959968552E+00    0.5243762177E-02    0.6488852288E+00    0.3776795371E-04
    0.3900000000E+07    0.6555956882E-04    0.6959967669E+00    0.4985538081E-02    0.6497950361E+00    0.3787863152E-04
    0.4100000000E+07    0.5948512416E-04    0.6959966820E+00    0.4751368831E-02    0.6506186387E+00    0.3798407346E-04
    0.4300000000E+07    0.5421562185E-04    0.6959966000E+00    0.4538051570E-02    0.6513677182E+00    0.3808476525E-04
    0.4500000000E+07    0.4961504026E-04    0.6959965208E+00    0.4342927059E-02    0.6520519384E+00    0.3818112750E-04
    0.4700000000E+07    0.4557490151E-04    0.6959964443E+00    0.4163769141E-02    0.6526793622E+00    0.3827352686E-04
    0.4900000000E+07    0.4200784282E-04    0.6959963703E+00    0.3998700121E-02    0.6532567703E+00    0.3836228491E-04
    0.1000000000E+07    0.8313580629E-03    0.6959984448E+00    0.1706665304E-01    0.6050592819E+00    0.3511883423E-04
    0.3000000000E+07    0.1088492028E-03    0.6959971930E+00    0.6401913241E-02    0.6447833700E+00    0.3733023959E-04
    0.5000000000E+07    0.4037899751E-04    0.6959963341E+00    0.3920941007E-02    0.6535285482E+00    0.3840538840E-04
    0.7000000000E+07    0.2083637906E-04    0.6959957099E+00    0.2820668121E-02    0.6573595463E+00    0.3913043059E-04
    0.9000000000E+07    0.1267452276E-04    0.6959952193E+00    0.2200392065E-02    0.6595081168E+00    0.3968088696E-04
    0.1100000000E+08    0.8510891381E-05    0.6959948144E+00    0.1802600725E-02    0.6608823251E+00    0.4012597234E-04
    0.1300000000E+08    0.6105261897E-05    0.6959944691E+00    0.1525947284E-02    0.6618365741E+00    0.4050030177E-04
    0.1500000000E+08    0.4591624986E-05    0.6959941677E+00    0.1322488318E-02    0.6625376987E+00    0.4082373304E-04
    0.1700000000E+08    0.3578137360E-05    0.6959939000E+00    0.1166614714E-02    0.6630745309E+00    0.4110873888E-04
    0.1900000000E+08    0.2866602107E-05    0.6959936591E+00    0.1043407705E-02    0.6634987067E+00    0.4136367716E-04
    0.2100000000E+08    0.2348052718E-05    0.6959934399E+00    0.9435900211E-03    0.6638422853E+00    0.4159442767E-04
    0.2300000000E+08    0.1958564263E-05    0.6959932386E+00    0.8610907213E-03    0.6641262212E+00    0.4180528701E-04
    0.2500000000E+08    0.1658633269E-05    0.6959930526E+00    0.7917708167E-03    0.6643647879E+00    0.4199949212E-04
    0.2700000000E+08    0.1422783989E-05    0.6959928796E+00    0.7327117693E-03    0.6645680430E+00    0.4217954350E-04
