  Pressure (Pa) 22mC5-500 (mol/kg) 24mC5-500 (mol/kg) 2mC6-500 (mol/kg) 3mC6-500 (mol/kg) C7-500 (mol/kg)
    0.1000000000E+01    0.8576472444E-05    0.1514030025E+00    0.5539485007E-05    0.5030653452E-05    0.4180878316E-02
    0.3000000000E+01    0.1672013557E-04    0.3164882958E+00    0.1027011336E-04    0.1278725391E-04    0.4211951311E-02
    0.5000000000E+01    0.2045333350E-04    0.4047560903E+00    0.1228570080E-04    0.1990728162E-04    0.4226486794E-02
    0.7000000000E+01    0.2254514751E-04    0.4597040915E+00    0.1346975946E-04    0.2672347933E-04    0.4235233421E-02
    0.9000000000E+01    0.2390449072E-04    0.4972036358E+00    0.1436488558E-04    0.3334765476E-04    0.4241052551E-02
    0.1100000000E+02    0.2490068481E-04    0.5244271086E+00    0.1516089342E-04    0.3983562427E-04    0.4245161808E-02
    0.1300000000E+02    0.2570512917E-04    0.5450895331E+00    0.1593143571E-04    0.4622055247E-04    0.4248179285E-02
    0.1500000000E+02    0.2640489820E-04    0.5613077564E+00    0.1670633100E-04    0.5252426319E-04    0.4250454594E-02
    0.1700000000E+02    0.2704716770E-04    0.5743764068E+00    0.1749735801E-04    0.5876212653E-04    0.4252201147E-02
    0.1900000000E+02    0.2765871504E-04    0.5851317670E+00    0.1830848122E-04    0.6494550739E-04    0.4253556926E-02
    0.2100000000E+02    0.2825525297E-04    0.5941381212E+00    0.1914021755E-04    0.7108312338E-04    0.4254615258E-02
    0.2300000000E+02    0.2884620883E-04    0.6017900233E+00    0.1999159861E-04    0.7718185630E-04    0.4255441617E-02
    0.2500000000E+02    0.2943730704E-04    0.6083716506E+00    0.2086107994E-04    0.8324726581E-04    0.4256083341E-02
    0.2700000000E+02    0.3003202708E-04    0.6140928783E+00    0.2174696628E-04    0.8928392975E-04    0.4256575542E-02
    0.2900000000E+02    0.3063245675E-04    0.6191120740E+00    0.2264760655E-04    0.9529567812E-04    0.4256944828E-02
    0.3100000000E+02    0.3123980672E-04    0.6235509855E+00    0.2356147716E-04    0.1012857590E-03    0.4257211751E-02
    0.3300000000E+02    0.3185472868E-04    0.6275047470E+00    0.2448721070E-04    0.1072569596E-03    0.4257392440E-02
    0.3500000000E+02    0.3247751609E-04    0.6310487746E+00    0.2542359839E-04    0.1132116958E-03    0.4257499743E-02
    0.3700000000E+02    0.3310823306E-04    0.6342436230E+00    0.2636958059E-04    0.1191520810E-03    0.4257544022E-02
    0.3900000000E+02    0.3374679813E-04    0.6371384748E+00    0.2732423252E-04    0.1250799782E-03    0.4257533731E-02
    0.4100000000E+02    0.3439303945E-04    0.6397736897E+00    0.2828674870E-04    0.1309970420E-03    0.4257475840E-02
    0.4300000000E+02    0.3504673113E-04    0.6421826986E+00    0.2925642802E-04    0.1369047510E-03    0.4257376146E-02
    0.4500000000E+02    0.3570761756E-04    0.6443934293E+00    0.3023265994E-04    0.1428044343E-03    0.4257239514E-02
    0.4700000000E+02    0.3637542936E-04    0.6464293936E+00    0.3121491234E-04    0.1486972929E-03    0.4257070056E-02
    0.4900000000E+02    0.3704989407E-04    0.6483105274E+00    0.3220272082E-04    0.1545844175E-03    0.4256871273E-02
    0.1000000000E+02    0.2443448148E-04    0.5118164600E+00    0.1476915843E-04    0.3660624197E-04    0.4243273613E-02
    0.3000000000E+02    0.3093521565E-04    0.6213975885E+00    0.2310297730E-04    0.9829324319E-04    0.4257089989E-02
    0.5000000000E+02    0.3738953700E-04    0.6491984492E+00    0.3269857969E-04    0.1575261438E-03    0.4256761839E-02
    0.7000000000E+02    0.4447231577E-04    0.6618898333E+00    0.4283246183E-04    0.2162619505E-03    0.4253577292E-02
    0.9000000000E+02    0.5198941640E-04    0.6691574331E+00    0.5327361526E-04    0.2751864020E-03    0.4249259331E-02
    0.1100000000E+03    0.5983621856E-04    0.6738659416E+00    0.6395674300E-04    0.3346625714E-03    0.4244334228E-02
    0.1300000000E+03    0.6796086816E-04    0.6771646557E+00    0.7486551038E-04    0.3949246152E-03    0.4239016334E-02
    0.1500000000E+03    0.7633774281E-04    0.6796042785E+00    0.8600083818E-04    0.4561436675E-03    0.4233407921E-02
    0.1700000000E+03    0.8495499662E-04    0.6814817326E+00    0.9737055684E-04    0.5184563401E-03    0.4227562538E-02
    0.1900000000E+03    0.9380855185E-04    0.6829712453E+00    0.1089855562E-03    0.5819790286E-03    0.4221509638E-02
    0.2100000000E+03    0.1028990221E-03    0.6841817904E+00    0.1208582277E-03    0.6468158863E-03    0.4215265575E-02
    0.2300000000E+03    0.1122300468E-03    0.6851850215E+00    0.1330018086E-03    0.7130636375E-03    0.4208839026E-02
    0.2500000000E+03    0.1218073489E-03    0.6860299889E+00    0.1454301103E-03    0.7808146784E-03    0.4202233877E-02
    0.2700000000E+03    0.1316381815E-03    0.6867514004E+00    0.1581574212E-03    0.8501591908E-03    0.4195450860E-02
    0.2900000000E+03    0.1417309979E-03    0.6873745067E+00    0.1711984899E-03    0.9211866572E-03    0.4188488515E-02
    0.3100000000E+03    0.1520952514E-03    0.6879181168E+00    0.1845685506E-03    0.9939870009E-03    0.4181343787E-02
    0.3300000000E+03    0.1627412766E-03    0.6883965293E+00    0.1982833667E-03    0.1068651484E-02    0.4174012398E-02
    0.3500000000E+03    0.1736802229E-03    0.6888208077E+00    0.2123592857E-03    0.1145273445E-02    0.4166489086E-02
    0.3700000000E+03    0.1849240207E-03    0.6891996463E+00    0.2268133005E-03    0.1223948935E-02    0.4158767765E-02
    0.3900000000E+03    0.1964853735E-03    0.6895399725E+00    0.2416631135E-03    0.1304777280E-02    0.4150841619E-02
    0.4100000000E+03    0.2083777650E-03    0.6898473735E+00    0.2569272046E-03    0.1387861606E-02    0.4142703171E-02
    0.4300000000E+03    0.2206154800E-03    0.6901264057E+00    0.2726249016E-03    0.1473309332E-02    0.4134344316E-02
    0.4500000000E+03    0.2332136353E-03    0.6903808219E+00    0.2887764538E-03    0.1561232657E-02    0.4125756339E-02
    0.4700000000E+03    0.2461882192E-03    0.6906137411E+00    0.3054031091E-03    0.1651749047E-02    0.4116929921E-02
    0.4900000000E+03    0.2595561374E-03    0.6908277764E+00    0.3225271949E-03    0.1744981720E-02    0.4107855132E-02
    0.1000000000E+03    0.5587567654E-04    0.6717389421E+00    0.5858656010E-04    0.3048389165E-03    0.4246855416E-02
    0.3000000000E+03    0.1468785687E-03    0.6876552668E+00    0.1778414241E-03    0.9573595562E-03    0.4184939191E-02
    0.5000000000E+03    0.2663931439E-03    0.6909284159E+00    0.3312830676E-03    0.1792656866E-02    0.4103221324E-02
    0.7000000000E+03    0.4288558540E-03    0.6923401770E+00    0.5391290772E-03    0.2925151196E-02    0.3994496306E-02
    0.9000000000E+03    0.6607558559E-03    0.6931266321E+00    0.8357281153E-03    0.4543707404E-02    0.3843127102E-02
    0.1100000000E+04    0.1011742929E-02    0.6936277966E+00    0.1285067522E-02    0.7000166056E-02    0.3620380454E-02
    0.1300000000E+04    0.1579617715E-02    0.6939750096E+00    0.2013348123E-02    0.1099011498E-01    0.3271878190E-02
    0.1500000000E+04    0.2551346302E-02    0.6942297234E+00    0.3262933256E-02    0.1785569465E-01    0.2701245595E-02
    0.1700000000E+04    0.4156134063E-02    0.6944245289E+00    0.5335819456E-02    0.2929554877E-01    0.1819937526E-02
    0.1900000000E+04    0.6117247411E-02    0.6945783178E+00    0.7890872207E-02    0.4351505718E-01    0.8686354401E-03
    0.2100000000E+04    0.7539134336E-02    0.6947027958E+00    0.9778653856E-02    0.5421106346E-01    0.3491199899E-03
    0.2300000000E+04    0.8367569348E-02    0.6948056023E+00    0.1091634204E-01    0.6085898956E-01    0.1921952425E-03
    0.2500000000E+04    0.8958997059E-02    0.6948919351E+00    0.1175655279E-01    0.6591561485E-01    0.1557375867E-03
    0.2700000000E+04    0.9469758402E-02    0.6949654531E+00    0.1249953406E-01    0.7047750597E-01    0.1481482389E-03
    0.2900000000E+04    0.9942722785E-02    0.6950288069E+00    0.1320016392E-01    0.7484531549E-01    0.1469274086E-03
    0.3100000000E+04    0.1038908886E-01    0.6950839636E+00    0.1387248178E-01    0.7909463258E-01    0.1470766064E-03
    0.3300000000E+04    0.1081238511E-01    0.6951324136E+00    0.1452060298E-01    0.8324614198E-01    0.1475039922E-03
    0.3500000000E+04    0.1121429606E-01    0.6951753068E+00    0.1514626858E-01    0.8730742612E-01    0.1479717846E-03
    0.3700000000E+04    0.1159602554E-01    0.6952135448E+00    0.1575062045E-01    0.9128284233E-01    0.1484293622E-03
    0.3900000000E+04    0.1195861679E-01    0.6952478441E+00    0.1633461867E-01    0.9517585111E-01    0.1488672815E-03
    0.4100000000E+04    0.1230303044E-01    0.6952787814E+00    0.1689914215E-01    0.9898957354E-01    0.1492850610E-03
    0.4300000000E+04    0.1263016591E-01    0.6953068262E+00    0.1744501494E-01    0.1027269317E+00    0.1496840245E-03
    0.4500000000E+04    0.1294086930E-01    0.6953323646E+00    0.1797301482E-01    0.1063906895E+00    0.1500657209E-03
    0.4700000000E+04    0.1323593795E-01    0.6953557169E+00    0.1848387761E-01    0.1099834702E+00    0.1504315941E-03
    0.4900000000E+04    0.1351612388E-01    0.6953771511E+00    0.1897830012E-01    0.1135077661E+00    0.1507829316E-03
    0.1000000000E+04    0.8168060908E-03    0.6934022129E+00    0.1035431511E-02    0.5634870208E-02    0.3743268119E-02
    0.3000000000E+04    0.1016893581E-01    0.6950573074E+00    0.1353950861E-01    0.7698296132E-01    0.1469345373E-03
    0.5000000000E+04    0.1365085922E-01    0.6953872209E+00    0.1921955402E-01    0.1152449775E+00    0.1509535110E-03
    0.7000000000E+04    0.1571692877E-01    0.6955278145E+00    0.2332493957E-01    0.1469123952E+00    0.1538193976E-03
    0.9000000000E+04    0.1689839542E-01    0.6956054383E+00    0.2636055691E-01    0.1738285068E+00    0.1559917759E-03
    0.1100000000E+05    0.1750977679E-01    0.6956545145E+00    0.2863959231E-01    0.1971752853E+00    0.1577467287E-03
    0.1300000000E+05    0.1774590811E-01    0.6956882624E+00    0.3036639264E-01    0.2177503467E+00    0.1592218391E-03
    0.1500000000E+05    0.1773178893E-01    0.6957128405E+00    0.3167972278E-01    0.2361139193E+00    0.1604958631E-03
    0.1700000000E+05    0.1754989100E-01    0.6957315034E+00    0.3267698245E-01    0.2526729074E+00    0.1616181941E-03
    0.1900000000E+05    0.1725585864E-01    0.6957461317E+00    0.3342846152E-01    0.2677313851E+00    0.1626218950E-03
    0.2100000000E+05    0.1688790755E-01    0.6957578874E+00    0.3398609447E-01    0.2815222052E+00    0.1635302067E-03
    0.2300000000E+05    0.1647264721E-01    0.6957675266E+00    0.3438903487E-01    0.2942274964E+00    0.1643601012E-03
    0.2500000000E+05    0.1602879487E-01    0.6957755626E+00    0.3466731799E-01    0.3059923700E+00    0.1651243586E-03
    0.2700000000E+05    0.1556960521E-01    0.6957823559E+00    0.3484433415E-01    0.3169343351E+00    0.1658328472E-03
    0.2900000000E+05    0.1510449507E-01    0.6957881669E+00    0.3493853971E-01    0.3271499209E+00    0.1664933485E-03
    0.3100000000E+05    0.1464015077E-01    0.6957931884E+00    0.3496466632E-01    0.3367194353E+00    0.1671121095E-03
    0.3300000000E+05    0.1418129565E-01    0.6957975661E+00    0.3493459213E-01    0.3457104498E+00    0.1676942226E-03
    0.3500000000E+05    0.1373122982E-01    0.6958014124E+00    0.3485798024E-01    0.3541803953E+00    0.1682438943E-03
    0.3700000000E+05    0.1329221476E-01    0.6958048149E+00    0.3474275392E-01    0.3621785276E+00    0.1687646410E-03
    0.3900000000E+05    0.1286575029E-01    0.6958078432E+00    0.3459545529E-01    0.3697474350E+00    0.1692594317E-03
    0.4100000000E+05    0.1245277620E-01    0.6958105532E+00    0.3442151957E-01    0.3769242119E+00    0.1697307974E-03
    0.4300000000E+05    0.1205382016E-01    0.6958129904E+00    0.3422548709E-01    0.3837413820E+00    0.1701809128E-03
    0.4500000000E+05    0.1166910698E-01    0.6958151920E+00    0.3401116906E-01    0.3902276332E+00    0.1706116610E-03
    0.4700000000E+05    0.1129863995E-01    0.6958171887E+00    0.3378177832E-01    0.3964084086E+00    0.1710246832E-03
    0.4900000000E+05    0.1094226158E-01    0.6958190064E+00    0.3354003355E-01    0.4023063865E+00    0.1714214188E-03
    0.1000000000E+05    0.1726109729E-01    0.6956324703E+00    0.2757995654E-01    0.1858913350E+00    0.1569109111E-03
    0.3000000000E+05    0.1487189320E-01    0.6957907663E+00    0.3495931204E-01    0.3320109493E+00    0.1668076048E-03
    0.5000000000E+05    0.1076927392E-01    0.6958198550E+00    0.3341526376E-01    0.4051557552E+00    0.1716140817E-03
    0.7000000000E+05    0.7953618632E-02    0.6958312334E+00    0.3067687302E-01    0.4512727693E+00    0.1748545722E-03
    0.9000000000E+05    0.6064316788E-02    0.6958369434E+00    0.2797514395E-01    0.4833865769E+00    0.1773144879E-03
    0.1100000000E+06    0.4759138698E-02    0.6958401833E+00    0.2556019415E-01    0.5071263723E+00    0.1793033841E-03
    0.1300000000E+06    0.3826834878E-02    0.6958421506E+00    0.2345725928E-01    0.5254173052E+00    0.1809760316E-03
    0.1500000000E+06    0.3140343257E-02    0.6958433893E+00    0.2163554696E-01    0.5399517288E+00    0.1824212039E-03
    0.1700000000E+06    0.2621367574E-02    0.6958441792E+00    0.2005391282E-01    0.5517827236E+00    0.1836946540E-03
    0.1900000000E+06    0.2220055557E-02    0.6958446776E+00    0.1867376167E-01    0.5616018157E+00    0.1848337386E-03
    0.2100000000E+06    0.1903626643E-02    0.6958449791E+00    0.1746215390E-01    0.5698825650E+00    0.1858647367E-03
    0.2300000000E+06    0.1649881606E-02    0.6958451434E+00    0.1639189666E-01    0.5769604420E+00    0.1868068504E-03
    0.2500000000E+06    0.1443385856E-02    0.6958452098E+00    0.1544078970E-01    0.5830798567E+00    0.1876745457E-03
    0.2700000000E+06    0.1273153988E-02    0.6958452050E+00    0.1459073736E-01    0.5884231443E+00    0.1884789971E-03
    0.2900000000E+06    0.1131202887E-02    0.6958451478E+00    0.1382694704E-01    0.5931291206E+00    0.1892290191E-03
    0.3100000000E+06    0.1011622591E-02    0.6958450515E+00    0.1313726529E-01    0.5973053465E+00    0.1899316898E-03
    0.3300000000E+06    0.9099646599E-03    0.6958449258E+00    0.1251164683E-01    0.6010364623E+00    0.1905927803E-03
    0.3500000000E+06    0.8228303823E-03    0.6958447781E+00    0.1194173571E-01    0.6043899871E+00    0.1912170592E-03
    0.3700000000E+06    0.7475878259E-03    0.6958446137E+00    0.1142053640E-01    0.6074204413E+00    0.1918085127E-03
    0.3900000000E+06    0.6821737781E-03    0.6958444368E+00    0.1094215536E-01    0.6101723319E+00    0.1923705079E-03
    0.4100000000E+06    0.6249527529E-03    0.6958442506E+00    0.1050159720E-01    0.6126823507E+00    0.1929059148E-03
    0.4300000000E+06    0.5746150622E-03    0.6958440575E+00    0.1009460315E-01    0.6149810181E+00    0.1934172002E-03
    0.4500000000E+06    0.5301020833E-03    0.6958438594E+00    0.9717522446E-02    0.6170939278E+00    0.1939065000E-03
    0.4700000000E+06    0.4905507490E-03    0.6958436579E+00    0.9367209073E-02    0.6190427028E+00    0.1943756762E-03
    0.4900000000E+06    0.4552518223E-03    0.6958434542E+00    0.9040938612E-02    0.6208457365E+00    0.1948263619E-03
    0.1000000000E+06    0.5354434058E-02    0.6958387741E+00    0.2672796129E-01    0.4960809178E+00    0.1783559881E-03
    0.3000000000E+06    0.1068923079E-02    0.6958451038E+00    0.1347351444E-01    0.5952777029E+00    0.1895858861E-03
    0.5000000000E+06    0.4390094737E-03    0.6958433518E+00    0.8886066485E-02    0.6216976108E+00    0.1950452276E-03
    0.7000000000E+06    0.2371313069E-03    0.6958413352E+00    0.6611485239E-02    0.6339299275E+00    0.1987267278E-03
    0.9000000000E+06    0.1480272147E-03    0.6958395061E+00    0.5257854390E-02    0.6409800692E+00    0.2015217100E-03
    0.1100000000E+07    0.1010643613E-03    0.6958378864E+00    0.4361326699E-02    0.6455639960E+00    0.2037816446E-03
    0.1300000000E+07    0.7333786771E-04    0.6958364464E+00    0.3724309244E-02    0.6487824085E+00    0.2056823021E-03
    0.1500000000E+07    0.5562185717E-04    0.6958351546E+00    0.3248604584E-02    0.6511659906E+00    0.2073245162E-03
    0.1700000000E+07    0.4362248888E-04    0.6958339851E+00    0.2879950581E-02    0.6530020544E+00    0.2087716204E-03
    0.1900000000E+07    0.3512260037E-04    0.6958329173E+00    0.2585940605E-02    0.6544596810E+00    0.2100660534E-03
    0.2100000000E+07    0.2888379708E-04    0.6958319352E+00    0.2346034919E-02    0.6556448529E+00    0.2112376711E-03
    0.2300000000E+07    0.2417043298E-04    0.6958310261E+00    0.2146588299E-02    0.6566273715E+00    0.2123082901E-03
    0.2500000000E+07    0.2052326403E-04    0.6958301798E+00    0.1978183203E-02    0.6574550791E+00    0.2132943464E-03
    0.2700000000E+07    0.1764362293E-04    0.6958293882E+00    0.1834111276E-02    0.6581618630E+00    0.2142085367E-03
    0.2900000000E+07    0.1533049144E-04    0.6958286445E+00    0.1709465172E-02    0.6587723967E+00    0.2150608765E-03
    0.3100000000E+07    0.1344456434E-04    0.6958279432E+00    0.1600572568E-02    0.6593050712E+00    0.2158594084E-03
    0.3300000000E+07    0.1188684301E-04    0.6958272797E+00    0.1504630906E-02    0.6597738746E+00    0.2166106899E-03
    0.3500000000E+07    0.1058541434E-04    0.6958266499E+00    0.1419464458E-02    0.6601896349E+00    0.2173201397E-03
    0.3700000000E+07    0.9487024479E-05    0.6958260506E+00    0.1343358475E-02    0.6605608647E+00    0.2179922873E-03
    0.3900000000E+07    0.8551558777E-05    0.6958254789E+00    0.1274943323E-02    0.6608943481E+00    0.2186309588E-03
    0.4100000000E+07    0.7748336613E-05    0.6958249322E+00    0.1213111878E-02    0.6611955585E+00    0.2192394155E-03
    0.4300000000E+07    0.7053569953E-05    0.6958244086E+00    0.1156959548E-02    0.6614689603E+00    0.2198204606E-03
    0.4500000000E+07    0.6448586020E-05    0.6958239059E+00    0.1105740022E-02    0.6617182311E+00    0.2203765211E-03
    0.4700000000E+07    0.5918562408E-05    0.6958234227E+00    0.1058832118E-02    0.6619464278E+00    0.2209097131E-03
    0.4900000000E+07    0.5451612521E-05    0.6958229573E+00    0.1015714638E-02    0.6621561120E+00    0.2214218923E-03
    0.1000000000E+07    0.1212130186E-03    0.6958386717E+00    0.4768197190E-02    0.6434917648E+00    0.2027051290E-03
    0.3000000000E+07    0.1434107494E-04    0.6958282889E+00    0.1653241918E-02    0.6590475058E+00    0.2154664284E-03
    0.5000000000E+07    0.5238709558E-05    0.6958227310E+00    0.9954369215E-03    0.6622547013E+00    0.2216706211E-03
    0.7000000000E+07    0.2701276325E-05    0.6958188894E+00    0.7107967397E-03    0.6636373066E+00    0.2258544592E-03
    0.9000000000E+07    0.1651538109E-05    0.6958159376E+00    0.5521859086E-03    0.6644070688E+00    0.2290308279E-03
    0.1100000000E+08    0.1118279977E-05    0.6958135330E+00    0.4511588442E-03    0.6648973679E+00    0.2315991444E-03
    0.1300000000E+08    0.8106518084E-06    0.6958115003E+00    0.3812130244E-03    0.6652369392E+00    0.2337591599E-03
    0.1500000000E+08    0.6170787264E-06    0.6958097373E+00    0.3299371608E-03    0.6654859912E+00    0.2356254663E-03
    0.1700000000E+08    0.4873214358E-06    0.6958081790E+00    0.2907475999E-03    0.6656764416E+00    0.2372700387E-03
    0.1900000000E+08    0.3960497767E-06    0.6958067817E+00    0.2598284420E-03    0.6658267846E+00    0.2387411067E-03
    0.2100000000E+08    0.3293669543E-06    0.6958055143E+00    0.2348159801E-03    0.6659484754E+00    0.2400726000E-03
    0.2300000000E+08    0.2791315420E-06    0.6958043541E+00    0.2141681884E-03    0.6660489873E+00    0.2412893123E-03
    0.2500000000E+08    0.2403164709E-06    0.6958032838E+00    0.1968363840E-03    0.6661334033E+00    0.2424099225E-03
    0.2700000000E+08    0.2096810343E-06    0.6958022901E+00    0.1820826353E-03    0.6662053011E+00    0.2434488598E-03
