  Pressure (Pa) 22mC5-500 (mol/kg) 24mC5-500 (mol/kg) 2mC6-500 (mol/kg) 3mC6-500 (mol/kg) C7-500 (mol/kg)
    0.1000000000E+01    0.7852666836E-05    0.1949962105E+00    0.1518349948E-04    0.8978665095E-06    0.4167421866E-02
    0.3000000000E+01    0.1395619657E-04    0.3748943879E+00    0.2569930798E-04    0.2258373016E-05    0.4189558483E-02
    0.5000000000E+01    0.1640734987E-04    0.4597224088E+00    0.2997071953E-04    0.3500624873E-05    0.4197370505E-02
    0.7000000000E+01    0.1776756269E-04    0.5090924505E+00    0.3288408400E-04    0.4686122978E-05    0.4201522776E-02
    0.9000000000E+01    0.1871442564E-04    0.5413938034E+00    0.3548872023E-04    0.5835435621E-05    0.4204054939E-02
    0.1100000000E+02    0.1948559435E-04    0.5641737713E+00    0.3806743907E-04    0.6958808830E-05    0.4205711600E-02
    0.1300000000E+02    0.2017890111E-04    0.5811015752E+00    0.4069979586E-04    0.8062322501E-05    0.4206837606E-02
    0.1500000000E+02    0.2083884080E-04    0.5941756978E+00    0.4340331399E-04    0.9149973741E-05    0.4207616290E-02
    0.1700000000E+02    0.2148694490E-04    0.6045776444E+00    0.4617573912E-04    0.1022457556E-04    0.4208154635E-02
    0.1900000000E+02    0.2213398399E-04    0.6130507109E+00    0.4900903943E-04    0.1128820662E-04    0.4208519470E-02
    0.2100000000E+02    0.2278537130E-04    0.6200859065E+00    0.5189424847E-04    0.1234246038E-04    0.4208754782E-02
    0.2300000000E+02    0.2344373692E-04    0.6260206199E+00    0.5482309102E-04    0.1338859400E-04    0.4208890753E-02
    0.2500000000E+02    0.2411022496E-04    0.6310943406E+00    0.5778843108E-04    0.1442762243E-04    0.4208948802E-02
    0.2700000000E+02    0.2478517588E-04    0.6354817658E+00    0.6078429063E-04    0.1546038079E-04    0.4208944567E-02
    0.2900000000E+02    0.2546849749E-04    0.6393133245E+00    0.6380572462E-04    0.1648756726E-04    0.4208889740E-02
    0.3100000000E+02    0.2615987132E-04    0.6426883638E+00    0.6684866241E-04    0.1750977340E-04    0.4208793240E-02
    0.3300000000E+02    0.2685886932E-04    0.6456838873E+00    0.6990975610E-04    0.1852750635E-04    0.4208661997E-02
    0.3500000000E+02    0.2756502002E-04    0.6483605020E+00    0.7298624897E-04    0.1954120525E-04    0.4208501473E-02
    0.3700000000E+02    0.2827784597E-04    0.6507665623E+00    0.7607586593E-04    0.2055125377E-04    0.4208316040E-02
    0.3900000000E+02    0.2899688431E-04    0.6529411169E+00    0.7917672424E-04    0.2155798972E-04    0.4208109231E-02
    0.4100000000E+02    0.2972169753E-04    0.6549160451E+00    0.8228726133E-04    0.2256171269E-04    0.4207883941E-02
    0.4300000000E+02    0.3045187849E-04    0.6567176297E+00    0.8540617663E-04    0.2356268997E-04    0.4207642560E-02
    0.4500000000E+02    0.3118705198E-04    0.6583677337E+00    0.8853238482E-04    0.2456116146E-04    0.4207387078E-02
    0.4700000000E+02    0.3192687441E-04    0.6598846915E+00    0.9166497805E-04    0.2555734353E-04    0.4207119171E-02
    0.4900000000E+02    0.3267103239E-04    0.6612839938E+00    0.9480319537E-04    0.2655143230E-04    0.4206840254E-02
    0.1000000000E+02    0.1911403013E-04    0.5536898991E+00    0.3677403384E-04    0.6399920263E-05    0.4204965778E-02
    0.3000000000E+02    0.2581320302E-04    0.6410526531E+00    0.6532473007E-04    0.1699925941E-04    0.4208846227E-02
    0.5000000000E+02    0.3304464705E-04    0.6619437202E+00    0.9637420923E-04    0.2704774811E-04    0.4206697051E-02
    0.7000000000E+02    0.4068816908E-04    0.6713202311E+00    0.1279805223E-03    0.3690028319E-04    0.4203471487E-02
    0.9000000000E+02    0.4856471697E-04    0.6766452377E+00    0.1598210440E-03    0.4667844537E-04    0.4199853787E-02
    0.1100000000E+03    0.5660277482E-04    0.6800781344E+00    0.1918559493E-03    0.5644420698E-04    0.4196041860E-02
    0.1300000000E+03    0.6477205698E-04    0.6824752480E+00    0.2241057304E-03    0.6623545083E-04    0.4192112281E-02
    0.1500000000E+03    0.7305957186E-04    0.6842439012E+00    0.2566039224E-03    0.7607806440E-04    0.4188099612E-02
    0.1700000000E+03    0.8146035540E-04    0.6856025946E+00    0.2893850978E-03    0.8599117115E-04    0.4184020832E-02
    0.1900000000E+03    0.8997347753E-04    0.6866790585E+00    0.3224817876E-03    0.9598975140E-04    0.4179884579E-02
    0.2100000000E+03    0.9860016430E-04    0.6875529534E+00    0.3559239514E-03    0.1060860953E-03    0.4175695170E-02
    0.2300000000E+03    0.1073428534E-03    0.6882765384E+00    0.3897391850E-03    0.1162906707E-03    0.4171454524E-02
    0.2500000000E+03    0.1162046941E-03    0.6888855204E+00    0.4239531097E-03    0.1266126730E-03    0.4167163164E-02
    0.2700000000E+03    0.1251892729E-03    0.6894051264E+00    0.4585897645E-03    0.1370603890E-03    0.4162820760E-02
    0.2900000000E+03    0.1343004584E-03    0.6898536854E+00    0.4936719515E-03    0.1476414490E-03    0.4158426444E-02
    0.3100000000E+03    0.1435423130E-03    0.6902448354E+00    0.5292215274E-03    0.1583630050E-03    0.4153978996E-02
    0.3300000000E+03    0.1529190427E-03    0.6905889336E+00    0.5652596432E-03    0.1692318627E-03    0.4149476958E-02
    0.3500000000E+03    0.1624349691E-03    0.6908939875E+00    0.6018069431E-03    0.1802545801E-03    0.4144918706E-02
    0.3700000000E+03    0.1720945148E-03    0.6911662849E+00    0.6388837292E-03    0.1914375431E-03    0.4140302493E-02
    0.3900000000E+03    0.1819021981E-03    0.6914108323E+00    0.6765100987E-03    0.2027870261E-03    0.4135626480E-02
    0.4100000000E+03    0.1918626310E-03    0.6916316655E+00    0.7147060608E-03    0.2143092398E-03    0.4130888751E-02
    0.4300000000E+03    0.2019805224E-03    0.6918320739E+00    0.7534916360E-03    0.2260103708E-03    0.4126087329E-02
    0.4500000000E+03    0.2122606822E-03    0.6920147653E+00    0.7928869433E-03    0.2378966143E-03    0.4121220178E-02
    0.4700000000E+03    0.2227080270E-03    0.6921819894E+00    0.8329122755E-03    0.2499742025E-03    0.4116285209E-02
    0.4900000000E+03    0.2333275868E-03    0.6923356303E+00    0.8735881678E-03    0.2622494290E-03    0.4111280285E-02
    0.1000000000E+03    0.5256602581E-04    0.6785290260E+00    0.1758134851E-03    0.5156013678E-04    0.4197965851E-02
    0.3000000000E+03    0.1389047922E-03    0.6900557250E+00    0.5113869799E-03    0.1529842328E-03    0.4156209448E-02
    0.5000000000E+03    0.2387035520E-03    0.6924078638E+00    0.8941765727E-03    0.2684631454E-03    0.4108750906E-02
    0.7000000000E+03    0.3566114450E-03    0.6934206001E+00    0.1345470534E-02    0.4047534718E-03    0.4053920543E-02
    0.9000000000E+03    0.4987913747E-03    0.6939843591E+00    0.1889581379E-02    0.5692718987E-03    0.3989143709E-02
    0.1100000000E+04    0.6737316470E-03    0.6943434864E+00    0.2559387693E-02    0.7720344560E-03    0.3910966570E-02
    0.1300000000E+04    0.8936412454E-03    0.6945922533E+00    0.3402026064E-02    0.1027413946E-02    0.3814537532E-02
    0.1500000000E+04    0.1176640497E-02    0.6947747365E+00    0.4487453605E-02    0.1356767864E-02    0.3692812143E-02
    0.1700000000E+04    0.1550291669E-02    0.6949143005E+00    0.5922191997E-02    0.1792664407E-02    0.3535330103E-02
    0.1900000000E+04    0.2057105330E-02    0.6950244844E+00    0.7870825959E-02    0.2385519433E-02    0.3326441424E-02
    0.2100000000E+04    0.2761857623E-02    0.6951136752E+00    0.1058483723E-01    0.3212579169E-02    0.3043333959E-02
    0.2300000000E+04    0.3755487814E-02    0.6951873455E+00    0.1441903450E-01    0.4383353698E-02    0.2656456215E-02
    0.2500000000E+04    0.5131867020E-02    0.6952492181E+00    0.1974459451E-01    0.6013870562E-02    0.2141965214E-02
    0.2700000000E+04    0.6884130846E-02    0.6953019138E+00    0.2655144341E-01    0.8105990813E-02    0.1523912754E-02
    0.2900000000E+04    0.8749181446E-02    0.6953473305E+00    0.3384213252E-01    0.1036051796E-01    0.9233815677E-03
    0.3100000000E+04    0.1032313553E-01    0.6953868770E+00    0.4005989985E-01    0.1230269073E-01    0.4897459302E-03
    0.3300000000E+04    0.1145204887E-01    0.6954216204E+00    0.4459478510E-01    0.1374156699E-01    0.2531982054E-03
    0.3500000000E+04    0.1225204731E-01    0.6954523843E+00    0.4787988391E-01    0.1480495298E-01    0.1459342176E-03
    0.3700000000E+04    0.1287266345E-01    0.6954798139E+00    0.5048552981E-01    0.1566503635E-01    0.1015885161E-03
    0.3900000000E+04    0.1340383164E-01    0.6955044225E+00    0.5275679602E-01    0.1642662568E-01    0.8397078836E-04
    0.4100000000E+04    0.1388816178E-01    0.6955266230E+00    0.5485756436E-01    0.1713962511E-01    0.7711201194E-04
    0.4300000000E+04    0.1434428865E-01    0.6955467515E+00    0.5685941558E-01    0.1782581592E-01    0.7450709716E-04
    0.4500000000E+04    0.1478029873E-01    0.6955650846E+00    0.5879316757E-01    0.1849451229E-01    0.7357755408E-04
    0.4700000000E+04    0.1519985532E-01    0.6955818515E+00    0.6067250109E-01    0.1914977275E-01    0.7330788834E-04
    0.4900000000E+04    0.1560478806E-01    0.6955972441E+00    0.6250398706E-01    0.1979347267E-01    0.7329750021E-04
    0.1000000000E+04    0.5815112721E-03    0.6941818466E+00    0.2206241960E-02    0.6651013952E-03    0.3951992991E-02
    0.3000000000E+04    0.9591079883E-02    0.6953677642E+00    0.3715744239E-01    0.1139296043E-01    0.6802080862E-03
    0.5000000000E+04    0.1580211842E-01    0.6956044767E+00    0.6340297486E-01    0.2011130802E-01    0.7333527238E-04
    0.7000000000E+04    0.1914375938E-01    0.6957055522E+00    0.7938823777E-01    0.2598855134E-01    0.7464327061E-04
    0.9000000000E+04    0.2159107254E-01    0.6957614766E+00    0.9234030992E-01    0.3112087312E-01    0.7569614065E-04
    0.1100000000E+05    0.2340912142E-01    0.6957969126E+00    0.1030568151E+00    0.3568475467E-01    0.7654695756E-04
    0.1300000000E+05    0.2477162641E-01    0.6958213366E+00    0.1120757218E+00    0.3980208818E-01    0.7726223708E-04
    0.1500000000E+05    0.2579667720E-01    0.6958391663E+00    0.1197737568E+00    0.4356026690E-01    0.7788009017E-04
    0.1700000000E+05    0.2656694381E-01    0.6958527376E+00    0.1264227857E+00    0.4702381650E-01    0.7842443007E-04
    0.1900000000E+05    0.2714175375E-01    0.6958634013E+00    0.1322240579E+00    0.5024157732E-01    0.7891126907E-04
    0.2100000000E+05    0.2756459412E-01    0.6958719925E+00    0.1373298360E+00    0.5325131308E-01    0.7935186562E-04
    0.2300000000E+05    0.2786792854E-01    0.6958790551E+00    0.1418575203E+00    0.5608276689E-01    0.7975444315E-04
    0.2500000000E+05    0.2807637974E-01    0.6958849585E+00    0.1458991420E+00    0.5875974605E-01    0.8012519481E-04
    0.2700000000E+05    0.2820888529E-01    0.6958899623E+00    0.1495279074E+00    0.6130157992E-01    0.8046890338E-04
    0.2900000000E+05    0.2828019030E-01    0.6958942541E+00    0.1528028099E+00    0.6372416187E-01    0.8078934081E-04
    0.3100000000E+05    0.2830190135E-01    0.6958979732E+00    0.1557719446E+00    0.6604070867E-01    0.8108953539E-04
    0.3300000000E+05    0.2828324350E-01    0.6959012246E+00    0.1584749344E+00    0.6826232349E-01    0.8137195588E-04
    0.3500000000E+05    0.2823161285E-01    0.6959040894E+00    0.1609447318E+00    0.7039841994E-01    0.8163864187E-04
    0.3700000000E+05    0.2815298528E-01    0.6959066311E+00    0.1632089788E+00    0.7245704596E-01    0.8189129819E-04
    0.3900000000E+05    0.2805222299E-01    0.6959089000E+00    0.1652910450E+00    0.7444513440E-01    0.8213136466E-04
    0.4100000000E+05    0.2793330688E-01    0.6959109365E+00    0.1672108306E+00    0.7636869914E-01    0.8236006847E-04
    0.4300000000E+05    0.2779951466E-01    0.6959127737E+00    0.1689853931E+00    0.7823299031E-01    0.8257846433E-04
    0.4500000000E+05    0.2765355873E-01    0.6959144384E+00    0.1706294433E+00    0.8004261829E-01    0.8278746538E-04
    0.4700000000E+05    0.2749769388E-01    0.6959159530E+00    0.1721557394E+00    0.8180165367E-01    0.8298786760E-04
    0.4900000000E+05    0.2733380206E-01    0.6959173363E+00    0.1735754043E+00    0.8351370859E-01    0.8318036909E-04
    0.1000000000E+05    0.2256627743E-01    0.6957809855E+00    0.9793973104E-01    0.3346526302E-01    0.7614172207E-04
    0.3000000000E+05    0.2829661999E-01    0.6958961780E+00    0.1543229469E+00    0.6489495171E-01    0.8094180279E-04
    0.5000000000E+05    0.2724934904E-01    0.6959179837E+00    0.1742483430E+00    0.8435313846E-01    0.8327385233E-04
    0.7000000000E+05    0.2540969908E-01    0.6959268057E+00    0.1839400228E+00    0.9930108900E-01    0.8484623984E-04
    0.9000000000E+05    0.2359870425E-01    0.6959314124E+00    0.1892474967E+00    0.1117824045E+00    0.8603991666E-04
    0.1100000000E+06    0.2196441629E-01    0.6959341543E+00    0.1922635848E+00    0.1226647396E+00    0.8700505377E-04
    0.1300000000E+06    0.2051837462E-01    0.6959359198E+00    0.1939346966E+00    0.1324050179E+00    0.8781673992E-04
    0.1500000000E+06    0.1924144143E-01    0.6959371161E+00    0.1947544564E+00    0.1412771588E+00    0.8851804705E-04
    0.1700000000E+06    0.1810970821E-01    0.6959379551E+00    0.1950064033E+00    0.1494602292E+00    0.8913602680E-04
    0.1900000000E+06    0.1710117983E-01    0.6959385571E+00    0.1948651424E+00    0.1570787650E+00    0.8968880535E-04
    0.2100000000E+06    0.1619717836E-01    0.6959389952E+00    0.1944439944E+00    0.1642234898E+00    0.9018913402E-04
    0.2300000000E+06    0.1538224714E-01    0.6959393163E+00    0.1938195781E+00    0.1709629210E+00    0.9064633045E-04
    0.2500000000E+06    0.1464367984E-01    0.6959395515E+00    0.1930454192E+00    0.1773503159E+00    0.9106741414E-04
    0.2700000000E+06    0.1397101765E-01    0.6959397223E+00    0.1921599185E+00    0.1834280550E+00    0.9145780745E-04
    0.2900000000E+06    0.1335561064E-01    0.6959398439E+00    0.1911912379E+00    0.1892305291E+00    0.9182178772E-04
    0.3100000000E+06    0.1279026007E-01    0.6959399274E+00    0.1901604125E+00    0.1947861105E+00    0.9216278960E-04
    0.3300000000E+06    0.1226893421E-01    0.6959399810E+00    0.1890833977E+00    0.2001185392E+00    0.9248361358E-04
    0.3500000000E+06    0.1178654437E-01    0.6959400109E+00    0.1879724548E+00    0.2052479236E+00    0.9278657367E-04
    0.3700000000E+06    0.1133876881E-01    0.6959400219E+00    0.1868371102E+00    0.2101914788E+00    0.9307360427E-04
    0.3900000000E+06    0.1092191360E-01    0.6959400175E+00    0.1856848342E+00    0.2149640826E+00    0.9334633928E-04
    0.4100000000E+06    0.1053280230E-01    0.6959400008E+00    0.1845215307E+00    0.2195787004E+00    0.9360617145E-04
    0.4300000000E+06    0.1016868786E-01    0.6959399740E+00    0.1833518953E+00    0.2240467158E+00    0.9385429785E-04
    0.4500000000E+06    0.9827181854E-02    0.6959399388E+00    0.1821796816E+00    0.2283781907E+00    0.9409175498E-04
    0.4700000000E+06    0.9506197232E-02    0.6959398969E+00    0.1810079025E+00    0.2325820731E+00    0.9431944641E-04
    0.4900000000E+06    0.9203901689E-02    0.6959398494E+00    0.1798389825E+00    0.2366663640E+00    0.9453816463E-04
    0.1000000000E+06    0.2275746363E-01    0.6959329440E+00    0.1909676295E+00    0.1173890025E+00    0.8654531557E-04
    0.3000000000E+06    0.1306707975E-01    0.6959398898E+00    0.1906824958E+00    0.1920376023E+00    0.9199497303E-04
    0.5000000000E+06    0.9059249844E-02    0.6959398239E+00    0.1792562212E+00    0.2386659381E+00    0.9464438048E-04
    0.7000000000E+06    0.6840388324E-02    0.6959391855E+00    0.1680608576E+00    0.2738001656E+00    0.9643102568E-04
    0.9000000000E+06    0.5425856877E-02    0.6959384892E+00    0.1579963561E+00    0.3021501734E+00    0.9778744961E-04
    0.1100000000E+07    0.4446591168E-02    0.6959378265E+00    0.1490520660E+00    0.3258923229E+00    0.9888421650E-04
    0.1300000000E+07    0.3730647446E-02    0.6959372143E+00    0.1410867638E+00    0.3462558637E+00    0.9980662628E-04
    0.1500000000E+07    0.3186386969E-02    0.6959366519E+00    0.1339561064E+00    0.3640190687E+00    0.1006036131E-03
    0.1700000000E+07    0.2760268780E-02    0.6959361343E+00    0.1275357473E+00    0.3797125634E+00    0.1013059123E-03
    0.1900000000E+07    0.2418841864E-02    0.6959356561E+00    0.1217228167E+00    0.3937174178E+00    0.1019341196E-03
    0.2100000000E+07    0.2140108984E-02    0.6959352124E+00    0.1164328848E+00    0.4063180217E+00    0.1025027239E-03
    0.2300000000E+07    0.1909007643E-02    0.6959347989E+00    0.1115964668E+00    0.4177329868E+00    0.1030223128E-03
    0.2500000000E+07    0.1714879709E-02    0.6959344117E+00    0.1071560059E+00    0.4281343553E+00    0.1035008629E-03
    0.2700000000E+07    0.1549975597E-02    0.6959340480E+00    0.1030634598E+00    0.4376601343E+00    0.1039445357E-03
    0.2900000000E+07    0.1408529815E-02    0.6959337049E+00    0.9927841385E-01    0.4464228013E+00    0.1043581920E-03
    0.3100000000E+07    0.1286168002E-02    0.6959333804E+00    0.9576661354E-01    0.4545152660E+00    0.1047457347E-03
    0.3300000000E+07    0.1179514396E-02    0.6959330725E+00    0.9249881968E-01    0.4620151630E+00    0.1051103464E-03
    0.3500000000E+07    0.1085924849E-02    0.6959327796E+00    0.8944990942E-01    0.4689880151E+00    0.1054546567E-03
    0.3700000000E+07    0.1003300889E-02    0.6959325003E+00    0.8659816486E-01    0.4754896099E+00    0.1057808639E-03
    0.3900000000E+07    0.9299575276E-03    0.6959322334E+00    0.8392470555E-01    0.4815678168E+00    0.1060908246E-03
    0.4100000000E+07    0.8645275358E-03    0.6959319778E+00    0.8141303204E-01    0.4872639975E+00    0.1063861218E-03
    0.4300000000E+07    0.8058909804E-03    0.6959317326E+00    0.7904865581E-01    0.4926141144E+00    0.1066681158E-03
    0.4500000000E+07    0.7531225941E-03    0.6959314970E+00    0.7681879709E-01    0.4976496128E+00    0.1069379845E-03
    0.4700000000E+07    0.7054519382E-03    0.6959312701E+00    0.7471213624E-01    0.5023981308E+00    0.1071967547E-03
    0.4900000000E+07    0.6622328839E-03    0.6959310515E+00    0.7271860790E-01    0.5068840746E+00    0.1074453271E-03
    0.1000000000E+07    0.4895230767E-02    0.6959381519E+00    0.1533923482E+00    0.3145062403E+00    0.9836177313E-04
    0.3000000000E+07    0.1345194192E-02    0.6959335405E+00    0.9749029141E-01    0.4505476403E+00    0.1045550140E-03
    0.5000000000E+07    0.6421188544E-03    0.6959309451E+00    0.7176142316E-01    0.5090354424E+00    0.1075660411E-03
    0.7000000000E+07    0.3773439896E-03    0.6959291327E+00    0.5681531762E-01    0.5424344331E+00    0.1095965624E-03
    0.9000000000E+07    0.2485477546E-03    0.6959277342E+00    0.4702059104E-01    0.5641496554E+00    0.1111381420E-03
    0.1100000000E+08    0.1761085146E-03    0.6959265926E+00    0.4009962979E-01    0.5794240798E+00    0.1123846222E-03
    0.1300000000E+08    0.1313053723E-03    0.6959256265E+00    0.3494816904E-01    0.5907598692E+00    0.1134329456E-03
    0.1500000000E+08    0.1016605836E-03    0.6959247880E+00    0.3096432146E-01    0.5995083651E+00    0.1143387254E-03
    0.1700000000E+08    0.8102815366E-04    0.6959240466E+00    0.2779162992E-01    0.6064650802E+00    0.1151368925E-03
    0.1900000000E+08    0.6609137566E-04    0.6959233816E+00    0.2520540818E-01    0.6121293349E+00    0.1158508536E-03
    0.2100000000E+08    0.5493103275E-04    0.6959227785E+00    0.2305695695E-01    0.6168305500E+00    0.1164970756E-03
    0.2300000000E+08    0.4637352316E-04    0.6959222263E+00    0.2124392921E-01    0.6207949140E+00    0.1170875913E-03
    0.2500000000E+08    0.3966825524E-04    0.6959217170E+00    0.1969356914E-01    0.6241829117E+00    0.1176314661E-03
    0.2700000000E+08    0.3431697038E-04    0.6959212443E+00    0.1835273681E-01    0.6271115779E+00    0.1181357028E-03
