  Pressure (Pa) 22mC5-500 (mol/kg) 24mC5-500 (mol/kg) 2mC6-500 (mol/kg) 3mC6-500 (mol/kg) C7-500 (mol/kg)
    0.1000000000E+01    0.9693470267E-05    0.9949864000E-01    0.2247947595E-04    0.5106532647E-05    0.4146368120E-02
    0.3000000000E+01    0.2143020028E-04    0.2321076550E+00    0.4770495288E-04    0.1261304002E-04    0.4174475801E-02
    0.5000000000E+01    0.2818060840E-04    0.3164647358E+00    0.6125148586E-04    0.1942983231E-04    0.4183923556E-02
    0.7000000000E+01    0.3247909485E-04    0.3748536512E+00    0.6960691723E-04    0.2592525826E-04    0.4189179677E-02
    0.9000000000E+01    0.3543265101E-04    0.4176668151E+00    0.7541482266E-04    0.3222083476E-04    0.4192483551E-02
    0.1100000000E+02    0.3759252791E-04    0.4504037626E+00    0.7989930583E-04    0.3837662565E-04    0.4194659519E-02
    0.1300000000E+02    0.3925893990E-04    0.4762474960E+00    0.8367658079E-04    0.4442807138E-04    0.4196110557E-02
    0.1500000000E+02    0.4060656021E-04    0.4971680261E+00    0.8707566847E-04    0.5039836884E-04    0.4197063790E-02
    0.1700000000E+02    0.4174232429E-04    0.5144499406E+00    0.9027977978E-04    0.5630378507E-04    0.4197658942E-02
    0.1900000000E+02    0.4273438911E-04    0.5289666557E+00    0.9339392315E-04    0.6215630573E-04    0.4197987349E-02
    0.2100000000E+02    0.4362763159E-04    0.5413327424E+00    0.9647934057E-04    0.6796509758E-04    0.4198111486E-02
    0.2300000000E+02    0.4445239769E-04    0.5519932043E+00    0.9957195417E-04    0.7373737931E-04    0.4198075626E-02
    0.2500000000E+02    0.4522966409E-04    0.5612781874E+00    0.1026926601E-03    0.7947897084E-04    0.4197912065E-02
    0.2700000000E+02    0.4597419825E-04    0.5694377922E+00    0.1058532687E-03    0.8519465636E-04    0.4197644927E-02
    0.2900000000E+02    0.4669655517E-04    0.5766649473E+00    0.1090600280E-03    0.9088843314E-04    0.4197292607E-02
    0.3100000000E+02    0.4740437391E-04    0.5831108633E+00    0.1123157612E-03    0.9656368765E-04    0.4196869372E-02
    0.3300000000E+02    0.4810323947E-04    0.5888957309E+00    0.1156211873E-03    0.1022233235E-03    0.4196386460E-02
    0.3500000000E+02    0.4879726783E-04    0.5941162880E+00    0.1189757482E-03    0.1078698567E-03    0.4195852838E-02
    0.3700000000E+02    0.4948951045E-04    0.5988512736E+00    0.1223781321E-03    0.1135054871E-03    0.4195275750E-02
    0.3900000000E+02    0.5018223837E-04    0.6031654285E+00    0.1258266066E-03    0.1191321547E-03    0.4194661107E-02
    0.4100000000E+02    0.5087714479E-04    0.6071124733E+00    0.1293192310E-03    0.1247515824E-03    0.4194013778E-02
    0.4300000000E+02    0.5157549134E-04    0.6107373581E+00    0.1328539909E-03    0.1303653108E-03    0.4193337809E-02
    0.4500000000E+02    0.5227821494E-04    0.6140779818E+00    0.1364288826E-03    0.1359747257E-03    0.4192636589E-02
    0.4700000000E+02    0.5298600663E-04    0.6171665229E+00    0.1400419642E-03    0.1415810809E-03    0.4191912975E-02
    0.4900000000E+02    0.5369937040E-04    0.6200304792E+00    0.1436913862E-03    0.1471855159E-03    0.4191169389E-02
    0.1000000000E+02    0.3658910330E-04    0.4350585601E+00    0.7777477618E-04    0.3531360909E-04    0.4193681584E-02
    0.3000000000E+02    0.4705189254E-04    0.5799774222E+00    0.1106816901E-03    0.9372818413E-04    0.4197089091E-02
    0.5000000000E+02    0.5405825926E-04    0.6213857571E+00    0.1455291763E-03    0.1499873421E-03    0.4190790766E-02
    0.7000000000E+02    0.6157129076E-04    0.6410027144E+00    0.1838331191E-03    0.2061356383E-03    0.4182541261E-02
    0.9000000000E+02    0.6970443159E-04    0.6524471296E+00    0.2244539423E-03    0.2628984443E-03    0.4173506655E-02
    0.1100000000E+03    0.7838528792E-04    0.6599458256E+00    0.2668998453E-03    0.3206738521E-03    0.4164013126E-02
    0.1300000000E+03    0.8755610176E-04    0.6652393903E+00    0.3109784753E-03    0.3797324605E-03    0.4154174699E-02
    0.1500000000E+03    0.9718284432E-04    0.6691758609E+00    0.3566318656E-03    0.4402848726E-03    0.4144032756E-02
    0.1700000000E+03    0.1072487124E-03    0.6722178316E+00    0.4038681560E-03    0.5025108563E-03    0.4133598761E-02
    0.1900000000E+03    0.1177485839E-03    0.6746390974E+00    0.4527315491E-03    0.5665740711E-03    0.4122870115E-02
    0.2100000000E+03    0.1286854280E-03    0.6766120562E+00    0.5032881984E-03    0.6326304105E-03    0.4111836830E-02
    0.2300000000E+03    0.1400680870E-03    0.6782506709E+00    0.5556192641E-03    0.7008331954E-03    0.4100484592E-02
    0.2500000000E+03    0.1519099124E-03    0.6796332940E+00    0.6098174337E-03    0.7713366898E-03    0.4088796240E-02
    0.2700000000E+03    0.1642279305E-03    0.6808155692E+00    0.6659852283E-03    0.8442986744E-03    0.4076752503E-02
    0.2900000000E+03    0.1770423380E-03    0.6818381026E+00    0.7242342891E-03    0.9198824756E-03    0.4064332348E-02
    0.3100000000E+03    0.1903762139E-03    0.6827312214E+00    0.7846852349E-03    0.9982586781E-03    0.4051513131E-02
    0.3300000000E+03    0.2042553752E-03    0.6835180325E+00    0.8474678765E-03    0.1079606660E-02    0.4038270628E-02
    0.3500000000E+03    0.2187083338E-03    0.6842164508E+00    0.9127216730E-03    0.1164116043E-02    0.4024578992E-02
    0.3700000000E+03    0.2337663284E-03    0.6848405799E+00    0.9805963674E-03    0.1251988112E-02    0.4010410671E-02
    0.3900000000E+03    0.2494634144E-03    0.6854016744E+00    0.1051252768E-02    0.1343437258E-02    0.3995736287E-02
    0.4100000000E+03    0.2658366016E-03    0.6859088246E+00    0.1124863662E-02    0.1438692476E-02    0.3980524493E-02
    0.4300000000E+03    0.2829260332E-03    0.6863694534E+00    0.1201614846E-02    0.1537998936E-02    0.3964741800E-02
    0.4500000000E+03    0.3007752039E-03    0.6867896811E+00    0.1281706295E-02    0.1641619672E-02    0.3948352398E-02
    0.4700000000E+03    0.3194312152E-03    0.6871745998E+00    0.1365353444E-02    0.1749837395E-02    0.3931317941E-02
    0.4900000000E+03    0.3389450667E-03    0.6875284802E+00    0.1452788627E-02    0.1862956460E-02    0.3913597323E-02
    0.1000000000E+03    0.7398062296E-04    0.6565501198E+00    0.2454651680E-03    0.2916407497E-03    0.4168807582E-02
    0.3000000000E+03    0.1836427921E-03    0.6822992531E+00    0.7541766330E-03    0.9587105389E-03    0.4057974099E-02
    0.5000000000E+03    0.3490407666E-03    0.6876949311E+00    0.1498004341E-02    0.1921455548E-02    0.3904466042E-02
    0.7000000000E+03    0.6127548254E-03    0.6900338058E+00    0.2676956239E-02    0.3447732234E-02    0.3672703257E-02
    0.9000000000E+03    0.1073301101E-02    0.6913401102E+00    0.4735198673E-02    0.6117837590E-02    0.3288286643E-02
    0.1100000000E+04    0.1950813742E-02    0.6921739696E+00    0.8666142782E-02    0.1123411164E-01    0.2600159008E-02
    0.1300000000E+04    0.3524801235E-02    0.6927524200E+00    0.1575557585E-01    0.2051396642E-01    0.1480669253E-02
    0.1500000000E+04    0.5236007274E-02    0.6931772123E+00    0.2356089272E-01    0.3085721504E-01    0.4891301867E-03
    0.1700000000E+04    0.6241155463E-02    0.6935023859E+00    0.2828365859E-01    0.3729177307E-01    0.1529726913E-03
    0.1900000000E+04    0.6868583974E-02    0.6937592993E+00    0.3135023436E-01    0.4161912494E-01    0.8962633815E-04
    0.2100000000E+04    0.7387533081E-02    0.6939673998E+00    0.3395836290E-01    0.4538894429E-01    0.7961503285E-04
    0.2300000000E+04    0.7861894534E-02    0.6941393880E+00    0.3639246462E-01    0.4896980593E-01    0.7832648304E-04
    0.2500000000E+04    0.8304945558E-02    0.6942839104E+00    0.3870990450E-01    0.5243411239E-01    0.7842022804E-04
    0.2700000000E+04    0.8720584727E-02    0.6944070572E+00    0.4092586777E-01    0.5579906191E-01    0.7871798597E-04
    0.2900000000E+04    0.9110947107E-02    0.6945132421E+00    0.4304774042E-01    0.5907177259E-01    0.7903062206E-04
    0.3100000000E+04    0.9477744351E-02    0.6946057421E+00    0.4508118333E-01    0.6225729045E-01    0.7932916164E-04
    0.3300000000E+04    0.9822508843E-02    0.6946870410E+00    0.4703122966E-01    0.6536002821E-01    0.7961071401E-04
    0.3500000000E+04    0.1014664630E-01    0.6947590560E+00    0.4890250803E-01    0.6838404450E-01    0.7987645169E-04
    0.3700000000E+04    0.1045145376E-01    0.6948232904E+00    0.5069930842E-01    0.7133311476E-01    0.8012797510E-04
    0.3900000000E+04    0.1073813055E-01    0.6948809396E+00    0.5242561726E-01    0.7421076253E-01    0.8036674330E-04
    0.4100000000E+04    0.1100778716E-01    0.6949329660E+00    0.5408514452E-01    0.7702028163E-01    0.8059401664E-04
    0.4300000000E+04    0.1126145302E-01    0.6949801534E+00    0.5568134731E-01    0.7976475516E-01    0.8081087912E-04
    0.4500000000E+04    0.1150008356E-01    0.6950231461E+00    0.5721745095E-01    0.8244707234E-01    0.8101826766E-04
    0.4700000000E+04    0.1172456641E-01    0.6950624792E+00    0.5869646794E-01    0.8506994379E-01    0.8121699721E-04
    0.4900000000E+04    0.1193572714E-01    0.6950986004E+00    0.6012121517E-01    0.8763591534E-01    0.8140778106E-04
    0.1000000000E+04    0.1439427094E-02    0.6917984860E+00    0.6373657692E-02    0.8247866452E-02    0.2995125772E-02
    0.3000000000E+04    0.9297192315E-02    0.6945610320E+00    0.4407519030E-01    0.6067514509E-01    0.7918202213E-04
    0.5000000000E+04    0.1203655399E-01    0.6951155769E+00    0.6081406826E-01    0.8889831727E-01    0.8150039253E-04
    0.7000000000E+04    0.1351449386E-01    0.6953531710E+00    0.7238030078E-01    0.1116707814E+00    0.8305494156E-04
    0.9000000000E+04    0.1427553279E-01    0.6954850288E+00    0.8068983926E-01    0.1307663875E+00    0.8423189750E-04
    0.1100000000E+05    0.1460884400E-01    0.6955688224E+00    0.8682378416E-01    0.1472306950E+00    0.8518204300E-04
    0.1300000000E+05    0.1467853936E-01    0.6956267424E+00    0.9143731408E-01    0.1617248779E+00    0.8598032200E-04
    0.1500000000E+05    0.1458256105E-01    0.6956691452E+00    0.9495010665E-01    0.1746905679E+00    0.8666956427E-04
    0.1700000000E+05    0.1438167401E-01    0.6957015131E+00    0.9764314220E-01    0.1864359817E+00    0.8727660140E-04
    0.1900000000E+05    0.1411473200E-01    0.6957270194E+00    0.9971145123E-01    0.1971840942E+00    0.8781937915E-04
    0.2100000000E+05    0.1380716419E-01    0.6957476280E+00    0.1012945215E+00    0.2071011173E+00    0.8831050435E-04
    0.2300000000E+05    0.1347590860E-01    0.6957646191E+00    0.1024946648E+00    0.2163141279E+00    0.8875917899E-04
    0.2500000000E+05    0.1313238879E-01    0.6957788632E+00    0.1033885562E+00    0.2249224113E+00    0.8917232936E-04
    0.2700000000E+05    0.1278436763E-01    0.6957909723E+00    0.1040347319E+00    0.2330050060E+00    0.8955530195E-04
    0.2900000000E+05    0.1243713313E-01    0.6958013896E+00    0.1044786050E+00    0.2406258692E+00    0.8991231172E-04
    0.3100000000E+05    0.1209427479E-01    0.6958104436E+00    0.1047559071E+00    0.2478375029E+00    0.9024674149E-04
    0.3300000000E+05    0.1175820215E-01    0.6958183833E+00    0.1048951030E+00    0.2546835566E+00    0.9056134829E-04
    0.3500000000E+05    0.1143049711E-01    0.6958254005E+00    0.1049191191E+00    0.2612007321E+00    0.9085840934E-04
    0.3700000000E+05    0.1111215697E-01    0.6958316454E+00    0.1048466024E+00    0.2674202034E+00    0.9113982768E-04
    0.3900000000E+05    0.1080376432E-01    0.6958372375E+00    0.1046928523E+00    0.2733686908E+00    0.9140721020E-04
    0.4100000000E+05    0.1050560701E-01    0.6958422728E+00    0.1044705207E+00    0.2790692861E+00    0.9166192634E-04
    0.4300000000E+05    0.1021776380E-01    0.6958468295E+00    0.1041901441E+00    0.2845420944E+00    0.9190515279E-04
    0.4500000000E+05    0.9940165880E-02    0.6958509718E+00    0.1038605534E+00    0.2898047390E+00    0.9213790824E-04
    0.4700000000E+05    0.9672641421E-02    0.6958547528E+00    0.1034891929E+00    0.2948727642E+00    0.9236108055E-04
    0.4900000000E+05    0.9414947954E-02    0.6958582173E+00    0.1030823704E+00    0.2997599576E+00    0.9257544831E-04
    0.1000000000E+05    0.1448336261E-01    0.6955311307E+00    0.8398070154E-01    0.1392795867E+00    0.8472958828E-04
    0.3000000000E+05    0.1226498346E-01    0.6958060699E+00    0.1046361510E+00    0.2442799293E+00    0.9008216407E-04
    0.5000000000E+05    0.9289698708E-02    0.6958598427E+00    0.1028673713E+00    0.3021396365E+00    0.9267954824E-04
    0.7000000000E+05    0.7221447540E-02    0.6958823472E+00    0.9766039809E-01    0.3426337521E+00    0.9443033401E-04
    0.9000000000E+05    0.5776926384E-02    0.6958945403E+00    0.9196896859E-01    0.3736175001E+00    0.9575926833E-04
    0.1100000000E+06    0.4732801928E-02    0.6959020982E+00    0.8652065842E-01    0.3984918352E+00    0.9683368720E-04
    0.1300000000E+06    0.3953177385E-02    0.6959071887E+00    0.8150386465E-01    0.4190855843E+00    0.9773723712E-04
    0.1500000000E+06    0.3354832253E-02    0.6959108162E+00    0.7694435217E-01    0.4365107216E+00    0.9851789007E-04
    0.1700000000E+06    0.2884961051E-02    0.6959135084E+00    0.7281545374E-01    0.4514990852E+00    0.9920577149E-04
    0.1900000000E+06    0.2508800193E-02    0.6959155685E+00    0.6907529897E-01    0.4645597569E+00    0.9982106536E-04
    0.2100000000E+06    0.2202692172E-02    0.6959171830E+00    0.6568024142E-01    0.4760616818E+00    0.1003779697E-03
    0.2300000000E+06    0.1950065251E-02    0.6959184723E+00    0.6258964130E-01    0.4862808403E+00    0.1008868586E-03
    0.2500000000E+06    0.1739016403E-02    0.6959195177E+00    0.5976731286E-01    0.4954289497E+00    0.1013555473E-03
    0.2700000000E+06    0.1560807353E-02    0.6959203760E+00    0.5718166312E-01    0.5036718181E+00    0.1017900726E-03
    0.2900000000E+06    0.1408899365E-02    0.6959210879E+00    0.5480534016E-01    0.5111415619E+00    0.1021951963E-03
    0.3100000000E+06    0.1278316445E-02    0.6959216835E+00    0.5261473010E-01    0.5179450086E+00    0.1025747420E-03
    0.3300000000E+06    0.1165214782E-02    0.6959221853E+00    0.5058944251E-01    0.5241696397E+00    0.1029318273E-03
    0.3500000000E+06    0.1066585194E-02    0.6959226105E+00    0.4871183836E-01    0.5298878907E+00    0.1032690281E-03
    0.3700000000E+06    0.9800434393E-03    0.6959229724E+00    0.4696661707E-01    0.5351603280E+00    0.1035884979E-03
    0.3900000000E+06    0.9036798124E-03    0.6959232817E+00    0.4534046392E-01    0.5400380357E+00    0.1038920555E-03
    0.4100000000E+06    0.8359495432E-03    0.6959235467E+00    0.4382175230E-01    0.5445644378E+00    0.1041812512E-03
    0.4300000000E+06    0.7755917703E-03    0.6959237742E+00    0.4240029383E-01    0.5487767077E+00    0.1044574174E-03
    0.4500000000E+06    0.7215688458E-03    0.6959239697E+00    0.4106712897E-01    0.5527068729E+00    0.1047217081E-03
    0.4700000000E+06    0.6730203225E-03    0.6959241378E+00    0.3981435142E-01    0.5563826887E+00    0.1049751290E-03
    0.4900000000E+06    0.6292276831E-03    0.6959242823E+00    0.3863496082E-01    0.5598283380E+00    0.1052185622E-03
    0.1000000000E+06    0.5214896581E-02    0.6958987222E+00    0.8919660039E-01    0.3866812017E+00    0.9632190084E-04
    0.3000000000E+06    0.1341205042E-02    0.6959213987E+00    0.5368816516E-01    0.5146207082E+00    0.1023879571E-03
    0.5000000000E+06    0.6089222422E-03    0.6959243467E+00    0.3807081479E-01    0.5614715717E+00    0.1053367801E-03
    0.7000000000E+06    0.3468473823E-03    0.6959249373E+00    0.2944692238E-01    0.5862279302E+00    0.1073252980E-03
    0.9000000000E+06    0.2237476056E-03    0.6959248867E+00    0.2398996032E-01    0.6015834207E+00    0.1088349702E-03
    0.1100000000E+07    0.1562121032E-03    0.6959246103E+00    0.2022922732E-01    0.6120464897E+00    0.1100556430E-03
    0.1300000000E+07    0.1152051905E-03    0.6959242477E+00    0.1748158171E-01    0.6196355677E+00    0.1110822575E-03
    0.1500000000E+07    0.8845428569E-04    0.6959238548E+00    0.1538696062E-01    0.6253919400E+00    0.1119692778E-03
    0.1700000000E+07    0.7004365625E-04    0.6959234565E+00    0.1373770387E-01    0.6299077824E+00    0.1127509126E-03
    0.1900000000E+07    0.5683580853E-04    0.6959230640E+00    0.1240568186E-01    0.6335448816E+00    0.1134500846E-03
    0.2100000000E+07    0.4704087995E-04    0.6959226826E+00    0.1130756946E-01    0.6365367956E+00    0.1140829199E-03
    0.2300000000E+07    0.3957727554E-04    0.6959223146E+00    0.1038684694E-01    0.6390410558E+00    0.1146612025E-03
    0.2500000000E+07    0.3376015285E-04    0.6959219608E+00    0.9603829196E-02    0.6411677790E+00    0.1151938099E-03
    0.2700000000E+07    0.2913878769E-04    0.6959216211E+00    0.8929835799E-02    0.6429962583E+00    0.1156876001E-03
    0.2900000000E+07    0.2540671869E-04    0.6959212950E+00    0.8343625943E-02    0.6445850431E+00    0.1161479827E-03
    0.3100000000E+07    0.2234969507E-04    0.6959209819E+00    0.7829134477E-02    0.6459783055E+00    0.1165793018E-03
    0.3300000000E+07    0.1981428619E-04    0.6959206811E+00    0.7373986929E-02    0.6472099970E+00    0.1169850995E-03
    0.3500000000E+07    0.1768828481E-04    0.6959203918E+00    0.6968497871E-02    0.6483066432E+00    0.1173683023E-03
    0.3700000000E+07    0.1588809934E-04    0.6959201133E+00    0.6604978568E-02    0.6492892675E+00    0.1177313569E-03
    0.3900000000E+07    0.1435042508E-04    0.6959198450E+00    0.6277247977E-02    0.6501747477E+00    0.1180763300E-03
    0.4100000000E+07    0.1302661194E-04    0.6959195861E+00    0.5980280692E-02    0.6509767892E+00    0.1184049830E-03
    0.4300000000E+07    0.1187877527E-04    0.6959193361E+00    0.5709949096E-02    0.6517066368E+00    0.1187188299E-03
    0.4500000000E+07    0.1087705945E-04    0.6959190945E+00    0.5462831570E-02    0.6523736029E+00    0.1190191819E-03
    0.4700000000E+07    0.9997679759E-05    0.6959188606E+00    0.5236067838E-02    0.6529854656E+00    0.1193071818E-03
    0.4900000000E+07    0.9221499469E-05    0.6959186342E+00    0.5027248461E-02    0.6535487717E+00    0.1195838318E-03
    0.1000000000E+07    0.1854545913E-03    0.6959247650E+00    0.2195100538E-01    0.6072674891E+00    0.1094741778E-03
    0.3000000000E+07    0.2380456854E-04    0.6959211369E+00    0.8078261736E-02    0.6453037910E+00    0.1163670375E-03
    0.5000000000E+07    0.8867135944E-05    0.6959185235E+00    0.4928916808E-02    0.6538139841E+00    0.1197181810E-03
    0.7000000000E+07    0.4617859078E-05    0.6959166074E+00    0.3540045422E-02    0.6575572096E+00    0.1219780585E-03
    0.9000000000E+07    0.2842596094E-05    0.6959150954E+00    0.2759088911E-02    0.6596602407E+00    0.1236937636E-03
    0.1100000000E+08    0.1935305656E-05    0.6959138446E+00    0.2258999301E-02    0.6610065604E+00    0.1250810357E-03
    0.1300000000E+08    0.1409665581E-05    0.6959127762E+00    0.1911540619E-02    0.6619419406E+00    0.1262477677E-03
    0.1500000000E+08    0.1077819505E-05    0.6959118427E+00    0.1656186364E-02    0.6626294236E+00    0.1272558550E-03
    0.1700000000E+08    0.8547717162E-06    0.6959110129E+00    0.1460655802E-02    0.6631559167E+00    0.1281441742E-03
    0.1900000000E+08    0.6975134579E-06    0.6959102654E+00    0.1306164571E-02    0.6635719751E+00    0.1289387761E-03
    0.2100000000E+08    0.5823820563E-06    0.6959095850E+00    0.1181041502E-02    0.6639090041E+00    0.1296579874E-03
    0.2300000000E+08    0.4954826698E-06    0.6959089602E+00    0.1077654234E-02    0.6641875391E+00    0.1303152003E-03
    0.2500000000E+08    0.4282189879E-06    0.6959083822E+00    0.9908020724E-03    0.6644215723E+00    0.1309205039E-03
    0.2700000000E+08    0.3750400985E-06    0.6959078444E+00    0.9168194776E-03    0.6646209656E+00    0.1314816922E-03
