  Pressure (Pa) 22mC5-500 (mol/kg) 24mC5-500 (mol/kg) 2mC6-500 (mol/kg) 3mC6-500 (mol/kg) C7-500 (mol/kg)
    0.1000000000E+01    0.7511620931E-05    0.2142780281E+00    0.1206231313E-04    0.8977937735E-06    0.4166975045E-02
    0.3000000000E+01    0.1285499989E-04    0.3978421516E+00    0.1970462497E-04    0.2257883393E-05    0.4187813114E-02
    0.5000000000E+01    0.1490497133E-04    0.4801014027E+00    0.2284273195E-04    0.3499424475E-05    0.4194756572E-02
    0.7000000000E+01    0.1606264281E-04    0.5267823468E+00    0.2516135651E-04    0.4683946382E-05    0.4198340360E-02
    0.9000000000E+01    0.1690749890E-04    0.5568633856E+00    0.2734895837E-04    0.5832032549E-05    0.4200482796E-02
    0.1100000000E+02    0.1763026359E-04    0.5778624631E+00    0.2956544168E-04    0.6953939009E-05    0.4201861433E-02
    0.1300000000E+02    0.1830518931E-04    0.5933531847E+00    0.3184483601E-04    0.8055752925E-05    0.4202783233E-02
    0.1500000000E+02    0.1896415547E-04    0.6052516601E+00    0.3418743723E-04    0.9141476981E-05    0.4203408873E-02
    0.1700000000E+02    0.1962157151E-04    0.6146776254E+00    0.3658494760E-04    0.1021392862E-04    0.4203831054E-02
    0.1900000000E+02    0.2028401009E-04    0.6223292389E+00    0.3902789480E-04    0.1127519010E-04    0.4204107177E-02
    0.2100000000E+02    0.2095432488E-04    0.6286644179E+00    0.4150776238E-04    0.1232685790E-04    0.4204274766E-02
    0.2300000000E+02    0.2163354438E-04    0.6339959896E+00    0.4401744658E-04    0.1337019167E-04    0.4204359424E-02
    0.2500000000E+02    0.2232179127E-04    0.6385449381E+00    0.4655119042E-04    0.1440620853E-04    0.4204379241E-02
    0.2700000000E+02    0.2301874641E-04    0.6424718052E+00    0.4910437892E-04    0.1543574541E-04    0.4204347373E-02
    0.2900000000E+02    0.2372388918E-04    0.6458960326E+00    0.5167332327E-04    0.1645950208E-04    0.4204273626E-02
    0.3100000000E+02    0.2443662329E-04    0.6489083236E+00    0.5425507226E-04    0.1747807146E-04    0.4204165459E-02
    0.3300000000E+02    0.2515634262E-04    0.6515787956E+00    0.5684725850E-04    0.1849196188E-04    0.4204028654E-02
    0.3500000000E+02    0.2588246447E-04    0.6539625072E+00    0.5944797636E-04    0.1950161352E-04    0.4203867761E-02
    0.3700000000E+02    0.2661444537E-04    0.6561032946E+00    0.6205568643E-04    0.2050741092E-04    0.4203686410E-02
    0.3900000000E+02    0.2735178721E-04    0.6580364923E+00    0.6466914086E-04    0.2150969270E-04    0.4203487537E-02
    0.4100000000E+02    0.2809403815E-04    0.6597908988E+00    0.6728732502E-04    0.2250875910E-04    0.4203273539E-02
    0.4300000000E+02    0.2884079094E-04    0.6613902213E+00    0.6990941182E-04    0.2350487801E-04    0.4203046393E-02
    0.4500000000E+02    0.2959167984E-04    0.6628541529E+00    0.7253472567E-04    0.2449828981E-04    0.4202807745E-02
    0.4700000000E+02    0.3034637704E-04    0.6641991879E+00    0.7516271406E-04    0.2548921132E-04    0.4202558978E-02
    0.4900000000E+02    0.3110458897E-04    0.6654392457E+00    0.7779292488E-04    0.2647783899E-04    0.4202301260E-02
    0.1000000000E+02    0.1727802800E-04    0.5682201129E+00    0.2845014186E-04    0.6395813347E-05    0.4201243502E-02
    0.3000000000E+02    0.2407934547E-04    0.6474488801E+00    0.5296275726E-04    0.1696940164E-04    0.4204223450E-02
    0.5000000000E+02    0.3148492973E-04    0.6660236753E+00    0.7910874535E-04    0.2697134914E-04    0.4202169361E-02
    0.7000000000E+02    0.3922558779E-04    0.6743149223E+00    0.1054821560E-03    0.3675728772E-04    0.4199239574E-02
    0.9000000000E+02    0.4714178376E-04    0.6790110714E+00    0.1319138089E-03    0.4644885922E-04    0.4195997005E-02
    0.1100000000E+03    0.5517589571E-04    0.6820337599E+00    0.1584083465E-03    0.5610781389E-04    0.4192603234E-02
    0.1300000000E+03    0.6330564568E-04    0.6841422056E+00    0.1849994320E-03    0.6577164973E-04    0.4189120385E-02
    0.1500000000E+03    0.7152271756E-04    0.6856966973E+00    0.2117228537E-03    0.7546575862E-04    0.4185576311E-02
    0.1700000000E+03    0.7982493006E-04    0.6868901926E+00    0.2386110992E-03    0.8520868401E-04    0.4181984593E-02
    0.1900000000E+03    0.8821300365E-04    0.6878353554E+00    0.2656927312E-03    0.9501475653E-04    0.4178352084E-02
    0.2100000000E+03    0.9668909923E-04    0.6886023854E+00    0.2929928646E-03    0.1048955555E-03    0.4174682176E-02
    0.2300000000E+03    0.1052561130E-03    0.6892373017E+00    0.3205338155E-03    0.1148607823E-03    0.4170976361E-02
    0.2500000000E+03    0.1139173207E-03    0.6897715287E+00    0.3483356857E-03    0.1249188124E-03    0.4167235036E-02
    0.2700000000E+03    0.1226761921E-03    0.6902272572E+00    0.3764168422E-03    0.1350770622E-03    0.4163457942E-02
    0.2900000000E+03    0.1315362951E-03    0.6906206033E+00    0.4047942966E-03    0.1453422404E-03    0.4159644416E-02
    0.3100000000E+03    0.1405012449E-03    0.6909635541E+00    0.4334840046E-03    0.1557205274E-03    0.4155793538E-02
    0.3300000000E+03    0.1495746800E-03    0.6912652105E+00    0.4625011019E-03    0.1662177058E-03    0.4151904221E-02
    0.3500000000E+03    0.1587602522E-03    0.6915326064E+00    0.4918600919E-03    0.1768392588E-03    0.4147975268E-02
    0.3700000000E+03    0.1680616246E-03    0.6917712643E+00    0.5215749975E-03    0.1875904444E-03    0.4144005404E-02
    0.3900000000E+03    0.1774824737E-03    0.6919855800E+00    0.5516594832E-03    0.1984763540E-03    0.4139993302E-02
    0.4100000000E+03    0.1870264944E-03    0.6921790966E+00    0.5821269562E-03    0.2095019591E-03    0.4135937593E-02
    0.4300000000E+03    0.1966974062E-03    0.6923547011E+00    0.6129906509E-03    0.2206721483E-03    0.4131836879E-02
    0.4500000000E+03    0.2064989599E-03    0.6925147703E+00    0.6442636991E-03    0.2319917584E-03    0.4127689735E-02
    0.4700000000E+03    0.2164349447E-03    0.6926612778E+00    0.6759591911E-03    0.2434655996E-03    0.4123494710E-02
    0.4900000000E+03    0.2265091951E-03    0.6927958768E+00    0.7080902276E-03    0.2550984781E-03    0.4119250336E-02
    0.1000000000E+03    0.5114596661E-04    0.6806702252E+00    0.1451512955E-03    0.5127969522E-04    0.4194313940E-02
    0.3000000000E+03    0.1360054371E-03    0.6907977528E+00    0.4190991561E-03    0.1505168758E-03    0.4157723711E-02
    0.5000000000E+03    0.2315993822E-03    0.6928591552E+00    0.7243231832E-03    0.2609760615E-03    0.4117109178E-02
    0.7000000000E+03    0.3416562747E-03    0.6937461588E+00    0.1075163212E-02    0.3880895415E-03    0.4071314989E-02
    0.9000000000E+03    0.4705920811E-03    0.6942397789E+00    0.1486183332E-02    0.5371817507E-03    0.4018674723E-02
    0.1100000000E+04    0.6240857908E-03    0.6945541700E+00    0.1975732075E-02    0.7149555919E-03    0.3957103824E-02
    0.1300000000E+04    0.8098202437E-03    0.6947719218E+00    0.2568531263E-02    0.9304519500E-03    0.3883850525E-02
    0.1500000000E+04    0.1038515643E-02    0.6949316398E+00    0.3299059198E-02    0.1196294196E-02    0.3795151945E-02
    0.1700000000E+04    0.1325490150E-02    0.6950537845E+00    0.4216611586E-02    0.1530552110E-02    0.3685734586E-02
    0.1900000000E+04    0.1693051864E-02    0.6951502109E+00    0.5393059515E-02    0.1959606003E-02    0.3548081201E-02
    0.2100000000E+04    0.2174058983E-02    0.6952282618E+00    0.6934433688E-02    0.2522439287E-02    0.3371407851E-02
    0.2300000000E+04    0.2816634154E-02    0.6952927283E+00    0.8996379581E-02    0.3276407490E-02    0.3140484797E-02
    0.2500000000E+04    0.3688059081E-02    0.6953468693E+00    0.1179731229E-01    0.4302285619E-02    0.2835227456E-02
    0.2700000000E+04    0.4868934363E-02    0.6953929786E+00    0.1560085346E-01    0.5698271286E-02    0.2434431650E-02
    0.2900000000E+04    0.6413125501E-02    0.6954327179E+00    0.2058870464E-01    0.7534007429E-02    0.1931672475E-02
    0.3100000000E+04    0.8248113906E-02    0.6954673198E+00    0.2654014450E-01    0.9733126575E-02    0.1368487709E-02
    0.3300000000E+04    0.1009882497E-01    0.6954977186E+00    0.3258060631E-01    0.1197880334E-01    0.8497627353E-03
    0.3500000000E+04    0.1164686260E-01    0.6955246349E+00    0.3768419461E-01    0.1389445822E-01    0.4757869490E-03
    0.3700000000E+04    0.1279076192E-01    0.6955486336E+00    0.4151303895E-01    0.1535218132E-01    0.2597526466E-03
    0.3900000000E+04    0.1362586018E-01    0.6955701638E+00    0.4436351353E-01    0.1645694797E-01    0.1522861303E-03
    0.4100000000E+04    0.1427848316E-01    0.6955895868E+00    0.4663693272E-01    0.1735407462E-01    0.1029656858E-03
    0.4300000000E+04    0.1483295544E-01    0.6956071968E+00    0.4860282045E-01    0.1814175638E-01    0.8117065953E-04
    0.4500000000E+04    0.1533394902E-01    0.6956232357E+00    0.5040437116E-01    0.1887231956E-01    0.7171079195E-04
    0.4700000000E+04    0.1580310338E-01    0.6956379042E+00    0.5211097374E-01    0.1957113761E-01    0.6766078282E-04
    0.4900000000E+04    0.1625063769E-01    0.6956513704E+00    0.5375528059E-01    0.2025011663E-01    0.6596754942E-04
    0.1000000000E+04    0.5438461516E-03    0.6944126710E+00    0.1719779489E-02    0.6219855689E-03    0.3989158504E-02
    0.3000000000E+04    0.7307030854E-02    0.6954505968E+00    0.2348419629E-01    0.8602586677E-02    0.1652251552E-02
    0.5000000000E+04    0.1646794093E-01    0.6956576977E+00    0.5455927769E-01    0.2058404931E-01    0.6555283556E-04
    0.7000000000E+04    0.2017688304E-01    0.6957461172E+00    0.6889601858E-01    0.2675716841E-01    0.6580205149E-04
    0.9000000000E+04    0.2296682991E-01    0.6957950346E+00    0.8067792806E-01    0.3218696765E-01    0.6672945220E-04
    0.1100000000E+05    0.2509571614E-01    0.6958260281E+00    0.9054702442E-01    0.3704346777E-01    0.6747925951E-04
    0.1300000000E+05    0.2673514269E-01    0.6958473886E+00    0.9893933277E-01    0.4144372477E-01    0.6810965616E-04
    0.1500000000E+05    0.2800462388E-01    0.6958629809E+00    0.1061665115E+00    0.4547319366E-01    0.6865420937E-04
    0.1700000000E+05    0.2898961463E-01    0.6958748484E+00    0.1124573788E+00    0.4919591479E-01    0.6913398455E-04
    0.1900000000E+05    0.2975260015E-01    0.6958841727E+00    0.1179838239E+00    0.5266096529E-01    0.6956308852E-04
    0.2100000000E+05    0.3034015972E-01    0.6958916843E+00    0.1228775530E+00    0.5590668904E-01    0.6995144075E-04
    0.2300000000E+05    0.3078760287E-01    0.6958978590E+00    0.1272412422E+00    0.5896355358E-01    0.7030628708E-04
    0.2500000000E+05    0.3112209251E-01    0.6959030200E+00    0.1311561648E+00    0.6185613017E-01    0.7063308471E-04
    0.2700000000E+05    0.3136479749E-01    0.6959073942E+00    0.1346875271E+00    0.6460449751E-01    0.7093604824E-04
    0.2900000000E+05    0.3153240656E-01    0.6959111458E+00    0.1378882803E+00    0.6722525720E-01    0.7121850164E-04
    0.3100000000E+05    0.3163821257E-01    0.6959143965E+00    0.1408018920E+00    0.6973228160E-01    0.7148311359E-04
    0.3300000000E+05    0.3169290161E-01    0.6959172383E+00    0.1434643962E+00    0.7213727347E-01    0.7173205977E-04
    0.3500000000E+05    0.3170513583E-01    0.6959197420E+00    0.1459059313E+00    0.7445019105E-01    0.7196713766E-04
    0.3700000000E+05    0.3168198956E-01    0.6959219632E+00    0.1481519097E+00    0.7667957509E-01    0.7218984975E-04
    0.3900000000E+05    0.3162927975E-01    0.6959239459E+00    0.1502239185E+00    0.7883280356E-01    0.7240146499E-04
    0.4100000000E+05    0.3155181894E-01    0.6959257254E+00    0.1521404205E+00    0.8091629221E-01    0.7260306497E-04
    0.4300000000E+05    0.3145361102E-01    0.6959273306E+00    0.1539173059E+00    0.8293565414E-01    0.7279557924E-04
    0.4500000000E+05    0.3133800408E-01    0.6959287851E+00    0.1555683305E+00    0.8489582786E-01    0.7297981261E-04
    0.4700000000E+05    0.3120781079E-01    0.6959301083E+00    0.1571054666E+00    0.8680118106E-01    0.7315646665E-04
    0.4900000000E+05    0.3106540399E-01    0.6959313167E+00    0.1585391861E+00    0.8865559527E-01    0.7332615665E-04
    0.1000000000E+05    0.2410168202E-01    0.6958120980E+00    0.8582077605E-01    0.3467866874E-01    0.6712212743E-04
    0.3000000000E+05    0.3159231363E-01    0.6959128274E+00    0.1393785726E+00    0.6849220957E-01    0.7135289179E-04
    0.5000000000E+05    0.3099026088E-01    0.6959318822E+00    0.1592201847E+00    0.8956479770E-01    0.7340856224E-04
    0.7000000000E+05    0.2919877164E-01    0.6959395860E+00    0.1691492655E+00    0.1057492945E+00    0.7479463585E-04
    0.9000000000E+05    0.2729643888E-01    0.6959436060E+00    0.1747302822E+00    0.1192498746E+00    0.7584688473E-04
    0.1100000000E+06    0.2551921183E-01    0.6959459966E+00    0.1779999838E+00    0.1310079094E+00    0.7669767710E-04
    0.1300000000E+06    0.2391343511E-01    0.6959475344E+00    0.1798939777E+00    0.1415200428E+00    0.7741320166E-04
    0.1500000000E+06    0.2247495402E-01    0.6959485753E+00    0.1809064062E+00    0.1510842243E+00    0.7803142579E-04
    0.1700000000E+06    0.2118650918E-01    0.6959493043E+00    0.1813241847E+00    0.1598953269E+00    0.7857619543E-04
    0.1900000000E+06    0.2002896266E-01    0.6959498266E+00    0.1813257157E+00    0.1680889471E+00    0.7906348886E-04
    0.2100000000E+06    0.1898468073E-01    0.6959502060E+00    0.1810278183E+00    0.1757639238E+00    0.7950454650E-04
    0.2300000000E+06    0.1803836343E-01    0.6959504833E+00    0.1805101360E+00    0.1829949520E+00    0.7990758196E-04
    0.2500000000E+06    0.1717702909E-01    0.6959506858E+00    0.1798287464E+00    0.1898401318E+00    0.8027878305E-04
    0.2700000000E+06    0.1638974363E-01    0.6959508323E+00    0.1790241850E+00    0.1963457323E+00    0.8062292968E-04
    0.2900000000E+06    0.1566730270E-01    0.6959509359E+00    0.1781263955E+00    0.2025493287E+00    0.8094379240E-04
    0.3100000000E+06    0.1500193700E-01    0.6959510063E+00    0.1771579023E+00    0.2084819446E+00    0.8124439895E-04
    0.3300000000E+06    0.1438706049E-01    0.6959510508E+00    0.1761359096E+00    0.2141695589E+00    0.8152721804E-04
    0.3500000000E+06    0.1381706212E-01    0.6959510747E+00    0.1750737292E+00    0.2196341929E+00    0.8179428951E-04
    0.3700000000E+06    0.1328713634E-01    0.6959510822E+00    0.1739817754E+00    0.2248947141E+00    0.8204731859E-04
    0.3900000000E+06    0.1279314566E-01    0.6959510763E+00    0.1728682714E+00    0.2299674400E+00    0.8228774562E-04
    0.4100000000E+06    0.1233150943E-01    0.6959510598E+00    0.1717397624E+00    0.2348666007E+00    0.8251679834E-04
    0.4300000000E+06    0.1189911341E-01    0.6959510344E+00    0.1706014920E+00    0.2396046989E+00    0.8273553200E-04
    0.4500000000E+06    0.1149323623E-01    0.6959510020E+00    0.1694576842E+00    0.2441927930E+00    0.8294486032E-04
    0.4700000000E+06    0.1111148906E-01    0.6959509636E+00    0.1683117563E+00    0.2486407231E+00    0.8314557981E-04
    0.4900000000E+06    0.1075176603E-01    0.6959509205E+00    0.1671664823E+00    0.2529572934E+00    0.8333838910E-04
    0.1000000000E+06    0.2638731924E-01    0.6959449416E+00    0.1765808351E+00    0.1253092844E+00    0.7629240590E-04
    0.3000000000E+06    0.1532792216E-01    0.6959509748E+00    0.1776498062E+00    0.2055477817E+00    0.8109646204E-04
    0.5000000000E+06    0.1057957262E-01    0.6959508973E+00    0.1665948131E+00    0.2550688238E+00    0.8343202283E-04
    0.7000000000E+06    0.7935708748E-02    0.6959503259E+00    0.1555605752E+00    0.2919694968E+00    0.8500702700E-04
    0.9000000000E+06    0.6252049922E-02    0.6959497071E+00    0.1456165141E+00    0.3214434567E+00    0.8620277407E-04
    0.1100000000E+07    0.5090536352E-02    0.6959491196E+00    0.1367967937E+00    0.3458985829E+00    0.8716962279E-04
    0.1300000000E+07    0.4245134053E-02    0.6959485775E+00    0.1289712688E+00    0.3666959216E+00    0.8798276841E-04
    0.1500000000E+07    0.3605553773E-02    0.6959480799E+00    0.1219962608E+00    0.3846962606E+00    0.8868534832E-04
    0.1700000000E+07    0.3107254668E-02    0.6959476222E+00    0.1157449198E+00    0.4004850795E+00    0.8930445711E-04
    0.1900000000E+07    0.2709916408E-02    0.6959471995E+00    0.1101111796E+00    0.4144814430E+00    0.8985825058E-04
    0.2100000000E+07    0.2387054930E-02    0.6959468075E+00    0.1050075765E+00    0.4269968531E+00    0.9035950141E-04
    0.2300000000E+07    0.2120568924E-02    0.6959464421E+00    0.1003620184E+00    0.4382697066E+00    0.9081754305E-04
    0.2500000000E+07    0.1897679655E-02    0.6959461001E+00    0.9611480971E-01    0.4484867371E+00    0.9123940710E-04
    0.2700000000E+07    0.1709120005E-02    0.6959457788E+00    0.9221619828E-01    0.4577970100E+00    0.9163052535E-04
    0.2900000000E+07    0.1548014928E-02    0.6959454759E+00    0.8862442694E-01    0.4663214176E+00    0.9199518264E-04
    0.3100000000E+07    0.1409163584E-02    0.6959451893E+00    0.8530420202E-01    0.4741593271E+00    0.9233681970E-04
    0.3300000000E+07    0.1288564485E-02    0.6959449175E+00    0.8222549121E-01    0.4813933620E+00    0.9265824201E-04
    0.3500000000E+07    0.1183092885E-02    0.6959446589E+00    0.7936257592E-01    0.4880929181E+00    0.9296176770E-04
    0.3700000000E+07    0.1090276424E-02    0.6959444124E+00    0.7669329994E-01    0.4943168001E+00    0.9324933466E-04
    0.3900000000E+07    0.1008135873E-02    0.6959441767E+00    0.7419846940E-01    0.5001152320E+00    0.9352257971E-04
    0.4100000000E+07    0.9350700250E-03    0.6959439511E+00    0.7186137018E-01    0.5055314135E+00    0.9378289814E-04
    0.4300000000E+07    0.8697711212E-03    0.6959437347E+00    0.6966737698E-01    0.5106027395E+00    0.9403148917E-04
    0.4500000000E+07    0.8111618122E-03    0.6959435267E+00    0.6760363439E-01    0.5153617683E+00    0.9426939121E-04
    0.4700000000E+07    0.7583475386E-03    0.6959433265E+00    0.6565879492E-01    0.5198369973E+00    0.9449750946E-04
    0.4900000000E+07    0.7105801294E-03    0.6959431335E+00    0.6382280253E-01    0.5240534904E+00    0.9471663787E-04
    0.1000000000E+07    0.5622073161E-02    0.6959494079E+00    0.1410731932E+00    0.3341976163E+00    0.8670906568E-04
    0.3000000000E+07    0.1476081379E-02    0.6959453307E+00    0.8693235932E-01    0.4703206744E+00    0.9216869044E-04
    0.5000000000E+07    0.6883881662E-03    0.6959430396E+00    0.6294278967E-01    0.5260717328E+00    0.9482305298E-04
    0.7000000000E+07    0.3989139318E-03    0.6959414403E+00    0.4933326523E-01    0.5570749996E+00    0.9661305493E-04
    0.9000000000E+07    0.2603141184E-03    0.6959402064E+00    0.4055213252E-01    0.5768948708E+00    0.9797203199E-04
    0.1100000000E+08    0.1832193979E-03    0.6959391993E+00    0.3441496589E-01    0.5906734858E+00    0.9907086521E-04
    0.1300000000E+08    0.1359253573E-03    0.6959383471E+00    0.2988384078E-01    0.6008113129E+00    0.9999501378E-04
    0.1500000000E+08    0.1048286658E-03    0.6959376074E+00    0.2640157513E-01    0.6085836954E+00    0.1007935034E-03
    0.1700000000E+08    0.8329341787E-04    0.6959369534E+00    0.2364207367E-01    0.6147319723E+00    0.1014971273E-03
    0.1900000000E+08    0.6776609203E-04    0.6959363668E+00    0.2140172527E-01    0.6197168062E+00    0.1021265197E-03
    0.2100000000E+08    0.5620338557E-04    0.6959358348E+00    0.1954681687E-01    0.6238396376E+00    0.1026961967E-03
    0.2300000000E+08    0.4736237328E-04    0.6959353478E+00    0.1798590680E-01    0.6273060423E+00    0.1032167660E-03
    0.2500000000E+08    0.4045165506E-04    0.6959348985E+00    0.1665434427E-01    0.6302610476E+00    0.1036962190E-03
    0.2700000000E+08    0.3494788132E-04    0.6959344815E+00    0.1550512854E-01    0.6328098996E+00    0.1041407291E-03
