  Pressure (Pa) 22mC5-500 (mol/kg) 24mC5-500 (mol/kg) 2mC6-500 (mol/kg) 3mC6-500 (mol/kg) C7-500 (mol/kg)
    0.1000000000E+01    0.9987070750E-05    0.6964944819E-01    0.3253905000E-05    0.5264863198E-05    0.4215993041E-02
    0.3000000000E+01    0.2395569126E-04    0.1740763579E+00    0.7545255150E-05    0.1358260197E-04    0.4299151871E-02
    0.5000000000E+01    0.3315974790E-04    0.2486326897E+00    0.1019050341E-04    0.2126574444E-04    0.4357456231E-02
    0.7000000000E+01    0.3956198473E-04    0.3045314674E+00    0.1192788844E-04    0.2864387124E-04    0.4401333152E-02
    0.9000000000E+01    0.4420354364E-04    0.3479975303E+00    0.1313211203E-04    0.3582873896E-04    0.4435654496E-02
    0.1100000000E+02    0.4768416701E-04    0.3827637146E+00    0.1400968575E-04    0.4287641346E-04    0.4463278294E-02
    0.1300000000E+02    0.5037051757E-04    0.4112044426E+00    0.1468110278E-04    0.4982032207E-04    0.4486014196E-02
    0.1500000000E+02    0.5249739171E-04    0.4349021216E+00    0.1521978739E-04    0.5668251951E-04    0.4505068248E-02
    0.1700000000E+02    0.5422085453E-04    0.4549519595E+00    0.1567203448E-04    0.6347857186E-04    0.4521276642E-02
    0.1900000000E+02    0.5564786993E-04    0.4721360673E+00    0.1606783761E-04    0.7022000973E-04    0.4535238033E-02
    0.2100000000E+02    0.5685365357E-04    0.4870278818E+00    0.1642705528E-04    0.7691569172E-04    0.4547392647E-02
    0.2300000000E+02    0.5789225860E-04    0.5000574096E+00    0.1676306316E-04    0.8357262071E-04    0.4558071646E-02
    0.2500000000E+02    0.5880326002E-04    0.5115534327E+00    0.1708499017E-04    0.9019646131E-04    0.4567529072E-02
    0.2700000000E+02    0.5961610260E-04    0.5217716388E+00    0.1739912654E-04    0.9679188319E-04    0.4575963160E-02
    0.2900000000E+02    0.6035300265E-04    0.5309138650E+00    0.1770983243E-04    0.1033627974E-03    0.4583530930E-02
    0.3100000000E+02    0.6103092886E-04    0.5391415654E+00    0.1802013661E-04    0.1099125240E-03    0.4590358426E-02
    0.3300000000E+02    0.6166298170E-04    0.5465854302E+00    0.1833213839E-04    0.1164439149E-03    0.4596548027E-02
    0.3500000000E+02    0.6225937115E-04    0.5533523794E+00    0.1864728168E-04    0.1229594443E-03    0.4602183788E-02
    0.3700000000E+02    0.6282812089E-04    0.5595307327E+00    0.1896654468E-04    0.1294612783E-03    0.4607335380E-02
    0.3900000000E+02    0.6337558268E-04    0.5651940850E+00    0.1929057268E-04    0.1359513284E-03    0.4612061065E-02
    0.4100000000E+02    0.6390681703E-04    0.5704042529E+00    0.1961977211E-04    0.1424312935E-03    0.4616409950E-02
    0.4300000000E+02    0.6442587831E-04    0.5752135399E+00    0.1995437775E-04    0.1489026930E-03    0.4620423731E-02
    0.4500000000E+02    0.6493603046E-04    0.5796664991E+00    0.2029450113E-04    0.1553668939E-03    0.4624138047E-02
    0.4700000000E+02    0.6543991191E-04    0.5838013172E+00    0.2064016569E-04    0.1618251324E-03    0.4627583551E-02
    0.4900000000E+02    0.6593966272E-04    0.5876509123E+00    0.2099133235E-04    0.1682785321E-03    0.4630786760E-02
    0.1000000000E+02    0.4606210313E-04    0.3662962538E+00    0.1360276869E-04    0.3936728508E-04    0.4450172565E-02
    0.3000000000E+02    0.6069844109E-04    0.5351332342E+00    0.1786488545E-04    0.1066401211E-03    0.4587030330E-02
    0.5000000000E+02    0.6618854644E-04    0.5894778175E+00    0.2116895440E-04    0.1715037414E-03    0.4632304828E-02
    0.7000000000E+02    0.7123213132E-04    0.6163016414E+00    0.2497962519E-04    0.2359628305E-03    0.4654224853E-02
    0.9000000000E+02    0.7667438983E-04    0.6322859906E+00    0.2918608600E-04    0.3007267944E-03    0.4666408185E-02
    0.1100000000E+03    0.8259306083E-04    0.6428966525E+00    0.3368290748E-04    0.3661746858E-03    0.4673477987E-02
    0.1300000000E+03    0.8895423046E-04    0.6504533822E+00    0.3840863195E-04    0.4325533638E-03    0.4677461143E-02
    0.1500000000E+03    0.9571467165E-04    0.6561086861E+00    0.4332877289E-04    0.5000450951E-03    0.4679395052E-02
    0.1700000000E+03    0.1028394224E-03    0.6604999560E+00    0.4842416849E-04    0.5687968621E-03    0.4679869082E-02
    0.1900000000E+03    0.1103031812E-03    0.6640083331E+00    0.5368459772E-04    0.6389351101E-03    0.4679244099E-02
    0.2100000000E+03    0.1180886948E-03    0.6668757232E+00    0.5910529423E-04    0.7105739875E-03    0.4677753744E-02
    0.2300000000E+03    0.1261849518E-03    0.6692630558E+00    0.6468498378E-04    0.7838203367E-03    0.4675555853E-02
    0.2500000000E+03    0.1345857266E-03    0.6712815505E+00    0.7042474053E-04    0.8587769235E-03    0.4672760586E-02
    0.2700000000E+03    0.1432885010E-03    0.6730105346E+00    0.7632729918E-04    0.9355446498E-03    0.4669446743E-02
    0.2900000000E+03    0.1522936846E-03    0.6745081098E+00    0.8239663091E-04    0.1014224153E-02    0.4665671709E-02
    0.3100000000E+03    0.1616040579E-03    0.6758178061E+00    0.8863767719E-04    0.1094917021E-02    0.4661477762E-02
    0.3300000000E+03    0.1712243736E-03    0.6769728805E+00    0.9505618156E-04    0.1177726756E-02    0.4656896211E-02
    0.3500000000E+03    0.1811610730E-03    0.6779991785E+00    0.1016585840E-03    0.1262759585E-02    0.4651950186E-02
    0.3700000000E+03    0.1914220850E-03    0.6789170900E+00    0.1084519564E-03    0.1350125157E-02    0.4646656575E-02
    0.3900000000E+03    0.2020166867E-03    0.6797429162E+00    0.1154439667E-03    0.1439937179E-02    0.4641027392E-02
    0.4100000000E+03    0.2129554091E-03    0.6804898459E+00    0.1226428622E-03    0.1532314010E-02    0.4635070752E-02
    0.4300000000E+03    0.2242499771E-03    0.6811686640E+00    0.1300574676E-03    0.1627379230E-02    0.4628791595E-02
    0.4500000000E+03    0.2359132776E-03    0.6817882760E+00    0.1376971937E-03    0.1725262212E-02    0.4622192208E-02
    0.4700000000E+03    0.2479593482E-03    0.6823560995E+00    0.1455720556E-03    0.1826098686E-02    0.4615272624E-02
    0.4900000000E+03    0.2604033842E-03    0.6828783630E+00    0.1536926967E-03    0.1930031327E-02    0.4608030907E-02
    0.1000000000E+03    0.7957562213E-04    0.6380781398E+00    0.3140286000E-04    0.3333477994E-03    0.4670422075E-02
    0.3000000000E+03    0.1569104679E-03    0.6751841624E+00    0.8549534808E-04    0.1054312502E-02    0.4663624924E-02
    0.5000000000E+03    0.2667797094E-03    0.6831240884E+00    0.1578486899E-03    0.1983205343E-02    0.4604288162E-02
    0.7000000000E+03    0.4199988141E-03    0.6865815654E+00    0.2571071214E-03    0.3251677520E-02    0.4510752883E-02
    0.9000000000E+03    0.6423990681E-03    0.6885158399E+00    0.4003723265E-03    0.5082206335E-02    0.4371096795E-02
    0.1100000000E+04    0.9848567540E-03    0.6897512728E+00    0.6206271552E-03    0.7899652732E-02    0.4156443659E-02
    0.1300000000E+04    0.1551501556E-02    0.6906083413E+00    0.9852626321E-03    0.1257287201E-01    0.3807995079E-02
    0.1500000000E+04    0.2550371635E-02    0.6912375843E+00    0.1629447859E-02    0.2085233146E-01    0.3215662797E-02
    0.1700000000E+04    0.4238910641E-02    0.6917190518E+00    0.2723343256E-02    0.3497817418E-01    0.2277082613E-02
    0.1900000000E+04    0.6236526270E-02    0.6920992350E+00    0.4030016395E-02    0.5201135382E-01    0.1303910836E-02
    0.2100000000E+04    0.7565042301E-02    0.6924069821E+00    0.4918779362E-02    0.6384492241E-01    0.8376155461E-03
    0.2300000000E+04    0.8319135655E-02    0.6926611408E+00    0.5443323427E-02    0.7107792988E-01    0.7176430238E-03
    0.2500000000E+04    0.8875225759E-02    0.6928745455E+00    0.5843890988E-02    0.7676891723E-01    0.6950041073E-03
    0.2700000000E+04    0.9365517391E-02    0.6930562380E+00    0.6205444624E-02    0.8200733727E-01    0.6928652048E-03
    0.2900000000E+04    0.9822035035E-02    0.6932127713E+00    0.6548483039E-02    0.8705539975E-01    0.6946734446E-03
    0.3100000000E+04    0.1025270056E-01    0.6933490110E+00    0.6877900479E-02    0.9197382559E-01    0.6971277316E-03
    0.3300000000E+04    0.1066017341E-01    0.6934686450E+00    0.7195177296E-02    0.9677912772E-01    0.6995869931E-03
    0.3500000000E+04    0.1104593902E-01    0.6935745198E+00    0.7501041414E-02    0.1014781550E+00    0.7019367593E-03
    0.3700000000E+04    0.1141117845E-01    0.6936688670E+00    0.7796036947E-02    0.1060755072E+00    0.7041658253E-03
    0.3900000000E+04    0.1175695625E-01    0.6937534610E+00    0.8080646844E-02    0.1105751341E+00    0.7062820546E-03
    0.4100000000E+04    0.1208426402E-01    0.6938297303E+00    0.8355320634E-02    0.1149806913E+00    0.7082957170E-03
    0.4300000000E+04    0.1239403306E-01    0.6938988379E+00    0.8620481755E-02    0.1192956267E+00    0.7102163599E-03
    0.4500000000E+04    0.1268714009E-01    0.6939617399E+00    0.8876530407E-02    0.1235232089E+00    0.7120523806E-03
    0.4700000000E+04    0.1296441132E-01    0.6940192300E+00    0.9123845319E-02    0.1276665420E+00    0.7138111081E-03
    0.4900000000E+04    0.1322662592E-01    0.6940719721E+00    0.9362785199E-02    0.1317285762E+00    0.7154989575E-03
    0.1000000000E+04    0.7938606589E-03    0.6891949248E+00    0.4977971513E-03    0.6327915024E-02    0.4275873515E-02
    0.3000000000E+04    0.1004038518E-01    0.6932831743E+00    0.6714770898E-02    0.8952938510E-01    0.6958823951E-03
    0.5000000000E+04    0.1335231838E-01    0.6940967411E+00    0.9479221446E-02    0.1337299886E+00    0.7163180931E-03
    0.7000000000E+04    0.1523374772E-01    0.6944417038E+00    0.1144208502E-01    0.1701042319E+00    0.7300517033E-03
    0.9000000000E+04    0.1623353810E-01    0.6946310614E+00    0.1286299588E-01    0.2008328688E+00    0.7404331357E-03
    0.1100000000E+05    0.1667507293E-01    0.6947500366E+00    0.1390298374E-01    0.2273173787E+00    0.7488062845E-03
    0.1300000000E+05    0.1675716656E-01    0.6948313184E+00    0.1466695129E-01    0.2505044620E+00    0.7558368866E-03
    0.1500000000E+05    0.1660615458E-01    0.6948901133E+00    0.1522598779E-01    0.2710598855E+00    0.7619046087E-03
    0.1700000000E+05    0.1630442428E-01    0.6949344441E+00    0.1562986571E-01    0.2894679548E+00    0.7672469581E-03
    0.1900000000E+05    0.1590679347E-01    0.6949689386E+00    0.1591439627E-01    0.3060912501E+00    0.7720226186E-03
    0.2100000000E+05    0.1545029129E-01    0.6949964512E+00    0.1610594527E-01    0.3212079996E+00    0.7763429751E-03
    0.2300000000E+05    0.1496019698E-01    0.6950188360E+00    0.1622430752E-01    0.3350363019E+00    0.7802892782E-03
    0.2500000000E+05    0.1445387588E-01    0.6950373490E+00    0.1628459487E-01    0.3477503152E+00    0.7839226528E-03
    0.2700000000E+05    0.1394327632E-01    0.6950528704E+00    0.1629851079E-01    0.3594913757E+00    0.7872902624E-03
    0.2900000000E+05    0.1343658943E-01    0.6950660350E+00    0.1627523188E-01    0.3703758187E+00    0.7904292750E-03
    0.3100000000E+05    0.1293937268E-01    0.6950773119E+00    0.1622203084E-01    0.3805006013E+00    0.7933695120E-03
    0.3300000000E+05    0.1245532251E-01    0.6950870549E+00    0.1614472505E-01    0.3899474241E+00    0.7961352716E-03
    0.3500000000E+05    0.1198681273E-01    0.6950955359E+00    0.1604800534E-01    0.3987858061E+00    0.7987466187E-03
    0.3700000000E+05    0.1153527429E-01    0.6951029669E+00    0.1593568056E-01    0.4070754157E+00    0.8012203180E-03
    0.3900000000E+05    0.1110146558E-01    0.6951095158E+00    0.1581086202E-01    0.4148678644E+00    0.8035705228E-03
    0.4100000000E+05    0.1068566659E-01    0.6951153171E+00    0.1567610445E-01    0.4222081049E+00    0.8058092928E-03
    0.4300000000E+05    0.1028781919E-01    0.6951204799E+00    0.1553351481E-01    0.4291355356E+00    0.8079469891E-03
    0.4500000000E+05    0.9907629116E-02    0.6951250934E+00    0.1538483727E-01    0.4356848808E+00    0.8099925805E-03
    0.4700000000E+05    0.9544640258E-02    0.6951292313E+00    0.1523152012E-01    0.4418869025E+00    0.8119538826E-03
    0.4900000000E+05    0.9198289020E-02    0.6951329550E+00    0.1507476892E-01    0.4477689785E+00    0.8138377487E-03
    0.1000000000E+05    0.1650950766E-01    0.6946966887E+00    0.1342305912E-01    0.2145383329E+00    0.7448197800E-03
    0.3000000000E+05    0.1318652988E-01    0.6950718851E+00    0.1625197827E-01    0.3755277439E+00    0.7919226096E-03
    0.5000000000E+05    0.9031156996E-02    0.6951346779E+00    0.1499542656E-01    0.4505977860E+00    0.8147525599E-03
    0.7000000000E+05    0.6399513205E-02    0.6951564118E+00    0.1339821696E-01    0.4951447939E+00    0.8301364108E-03
    0.9000000000E+05    0.4727987442E-02    0.6951655804E+00    0.1196254070E-01    0.5246836897E+00    0.8418117216E-03
    0.1100000000E+06    0.3620144216E-02    0.6951695445E+00    0.1074760502E-01    0.5456781228E+00    0.8512501029E-03
    0.1300000000E+06    0.2854180248E-02    0.6951709805E+00    0.9729819336E-02    0.5613458335E+00    0.8591869457E-03
    0.1500000000E+06    0.2304821618E-02    0.6951710652E+00    0.8873862671E-02    0.5734731429E+00    0.8660439223E-03
    0.1700000000E+06    0.1898424169E-02    0.6951703835E+00    0.8148069974E-02    0.5831308202E+00    0.8720857991E-03
    0.1900000000E+06    0.1589822194E-02    0.6951692517E+00    0.7526909132E-02    0.5909990935E+00    0.8774899516E-03
    0.2100000000E+06    0.1350218427E-02    0.6951678519E+00    0.6990402452E-02    0.5975303838E+00    0.8823811414E-03
    0.2300000000E+06    0.1160610194E-02    0.6951662937E+00    0.6523005348E-02    0.6030370435E+00    0.8868505238E-03
    0.2500000000E+06    0.1008074794E-02    0.6951646453E+00    0.6112575505E-02    0.6077415169E+00    0.8909667647E-03
    0.2700000000E+06    0.8835892152E-03    0.6951629507E+00    0.5749554360E-02    0.6118064293E+00    0.8947829030E-03
    0.2900000000E+06    0.7807053583E-03    0.6951612382E+00    0.5426347511E-02    0.6153533742E+00    0.8983407742E-03
    0.3100000000E+06    0.6947196743E-03    0.6951595266E+00    0.5136862841E-02    0.6184750538E+00    0.9016739705E-03
    0.3300000000E+06    0.6221379886E-03    0.6951578283E+00    0.4876166869E-02    0.6212433578E+00    0.9048098800E-03
    0.3500000000E+06    0.5603218632E-03    0.6951561515E+00    0.4640227966E-02    0.6237148801E+00    0.9077711324E-03
    0.3700000000E+06    0.5072496140E-03    0.6951545015E+00    0.4425723092E-02    0.6259347730E+00    0.9105766444E-03
    0.3900000000E+06    0.4613515095E-03    0.6951528816E+00    0.4229891104E-02    0.6279394934E+00    0.9132423932E-03
    0.4100000000E+06    0.4213940229E-03    0.6951512939E+00    0.4050420395E-02    0.6297587955E+00    0.9157819979E-03
    0.4300000000E+06    0.3863971720E-03    0.6951497393E+00    0.3885362054E-02    0.6314172011E+00    0.9182071636E-03
    0.4500000000E+06    0.3555745861E-03    0.6951482182E+00    0.3733062148E-02    0.6329350990E+00    0.9205280252E-03
    0.4700000000E+06    0.3282894409E-03    0.6951467306E+00    0.3592108453E-02    0.6343295795E+00    0.9227534175E-03
    0.4900000000E+06    0.3040216461E-03    0.6951452760E+00    0.3461288220E-02    0.6356150739E+00    0.9248910893E-03
    0.1000000000E+06    0.4120472511E-02    0.6951679923E+00    0.1132831615E-01    0.5360013771E+00    0.8467543342E-03
    0.3000000000E+06    0.7358421441E-03    0.6951603814E+00    0.5277722033E-02    0.6169624658E+00    0.9000336188E-03
    0.5000000000E+06    0.2928824334E-03    0.6951445609E+00    0.3399345263E-02    0.6362208587E+00    0.9259291974E-03
    0.7000000000E+06    0.1560132943E-03    0.6951317927E+00    0.2500769056E-02    0.6448089540E+00    0.9433904949E-03
    0.9000000000E+06    0.9668563469E-04    0.6951213488E+00    0.1975653892E-02    0.6496655930E+00    0.9566464401E-03
    0.1100000000E+07    0.6575079742E-04    0.6951125495E+00    0.1631689843E-02    0.6527872938E+00    0.9673644300E-03
    0.1300000000E+07    0.4761513317E-04    0.6951049532E+00    0.1389105370E-02    0.6549623267E+00    0.9763782800E-03
    0.1500000000E+07    0.3608369020E-04    0.6950982700E+00    0.1208920917E-02    0.6565643909E+00    0.9841663038E-03
    0.1700000000E+07    0.2830066123E-04    0.6950923020E+00    0.1069849229E-02    0.6577934257E+00    0.9910289192E-03
    0.1900000000E+07    0.2280172574E-04    0.6950869091E+00    0.9592872516E-03    0.6587660649E+00    0.9971674277E-03
    0.2100000000E+07    0.1877335852E-04    0.6950819885E+00    0.8693004442E-03    0.6595549218E+00    0.1002723442E-02
    0.2300000000E+07    0.1573433302E-04    0.6950774626E+00    0.7946456946E-03    0.6602075633E+00    0.1007800441E-02
    0.2500000000E+07    0.1338525018E-04    0.6950732716E+00    0.7317200670E-03    0.6607564492E+00    0.1012476384E-02
    0.2700000000E+07    0.1153193745E-04    0.6950693684E+00    0.6779663629E-03    0.6612244875E+00    0.1016811489E-02
    0.2900000000E+07    0.1004400787E-04    0.6950657151E+00    0.6315196242E-03    0.6616283067E+00    0.1020853262E-02
    0.3100000000E+07    0.8831278195E-05    0.6950622809E+00    0.5909878875E-03    0.6619802689E+00    0.1024639846E-02
    0.3300000000E+07    0.7829763593E-05    0.6950590405E+00    0.5553112668E-03    0.6622897554E+00    0.1028202343E-02
    0.3500000000E+07    0.6993049859E-05    0.6950559726E+00    0.5236685603E-03    0.6625640141E+00    0.1031566454E-02
    0.3700000000E+07    0.6286806811E-05    0.6950530594E+00    0.4954136856E-03    0.6628087328E+00    0.1034753660E-02
    0.3900000000E+07    0.5685200934E-05    0.6950502855E+00    0.4700313914E-03    0.6630284380E+00    0.1037782108E-02
    0.4100000000E+07    0.5168491535E-05    0.6950476380E+00    0.4471057585E-03    0.6632267763E+00    0.1040667266E-02
    0.4300000000E+07    0.4721384389E-05    0.6950451056E+00    0.4262973782E-03    0.6634067187E+00    0.1043422428E-02
    0.4500000000E+07    0.4331881890E-05    0.6950426784E+00    0.4073265444E-03    0.6635707100E+00    0.1046059104E-02
    0.4700000000E+07    0.3990465701E-05    0.6950403477E+00    0.3899606876E-03    0.6637207799E+00    0.1048587331E-02
    0.4900000000E+07    0.3689506399E-05    0.6950381061E+00    0.3740048534E-03    0.6638586283E+00    0.1051015908E-02
    0.1000000000E+07    0.7899142194E-04    0.6951167757E+00    0.1787417879E-02    0.6513795727E+00    0.9622589735E-03
    0.3000000000E+07    0.9407735632E-05    0.6950639723E+00    0.6105871331E-03    0.6618101253E+00    0.1022776365E-02
    0.5000000000E+07    0.3552221477E-05    0.6950370165E+00    0.3665032237E-03    0.6639234264E+00    0.1052195290E-02
    0.7000000000E+07    0.1910384239E-05    0.6950186047E+00    0.2613530401E-03    0.6648311710E+00    0.1072033096E-02
    0.9000000000E+07    0.1224244998E-05    0.6950045386E+00    0.2028818814E-03    0.6653358542E+00    0.1087093401E-02
    0.1100000000E+08    0.8713023785E-06    0.6949931217E+00    0.1656841235E-03    0.6656571110E+00    0.1099270366E-02
    0.1300000000E+08    0.6647835619E-06    0.6949834946E+00    0.1399510355E-03    0.6658795448E+00    0.1109511246E-02
    0.1500000000E+08    0.5328033622E-06    0.6949751602E+00    0.1210973738E-03    0.6660426688E+00    0.1118359441E-02
    0.1700000000E+08    0.4428584327E-06    0.6949678049E+00    0.1066938605E-03    0.6661674108E+00    0.1126156256E-02
    0.1900000000E+08    0.3784817845E-06    0.6949612174E+00    0.9533375083E-04    0.6662658902E+00    0.1133130391E-02
    0.2100000000E+08    0.3305909145E-06    0.6949552488E+00    0.8614625719E-04    0.6663456107E+00    0.1139442734E-02
    0.2300000000E+08    0.2938341140E-06    0.6949497898E+00    0.7856360880E-04    0.6664114662E+00    0.1145210851E-02
    0.2500000000E+08    0.2648865579E-06    0.6949447582E+00    0.7219985376E-04    0.6664667848E+00    0.1150523312E-02
    0.2700000000E+08    0.2415910125E-06    0.6949400901E+00    0.6678350713E-04    0.6665139085E+00    0.1155448535E-02
