  Pressure (Pa) 22mC5-500 (mol/kg) 24mC5-500 (mol/kg) 2mC6-500 (mol/kg) 3mC6-500 (mol/kg) C7-500 (mol/kg)
    0.1000000000E+01    0.8106245604E-05    0.1741054712E+00    0.5176649416E-05    0.2318396815E-05    0.4199201179E-02
    0.3000000000E+01    0.1500478617E-04    0.3481127531E+00    0.9080257738E-05    0.5954813809E-05    0.4240671638E-02
    0.5000000000E+01    0.1788953500E-04    0.4350808077E+00    0.1061596658E-04    0.9303638889E-05    0.4260725896E-02
    0.7000000000E+01    0.1944494341E-04    0.4872507874E+00    0.1154458073E-04    0.1251257088E-04    0.4272858480E-02
    0.9000000000E+01    0.2045665384E-04    0.5220264555E+00    0.1230138953E-04    0.1563165104E-04    0.4281039511E-02
    0.1100000000E+02    0.2121961133E-04    0.5468641904E+00    0.1301969435E-04    0.1868598240E-04    0.4286944117E-02
    0.1300000000E+02    0.2186219607E-04    0.5654914228E+00    0.1374396018E-04    0.2169053413E-04    0.4291409825E-02
    0.1500000000E+02    0.2244593849E-04    0.5799786563E+00    0.1448851375E-04    0.2465518475E-04    0.4294904197E-02
    0.1700000000E+02    0.2300229900E-04    0.5915680659E+00    0.1525666371E-04    0.2758690785E-04    0.4297709718E-02
    0.1900000000E+02    0.2354805560E-04    0.6010500654E+00    0.1604763636E-04    0.3049086993E-04    0.4300007588E-02
    0.2100000000E+02    0.2409236780E-04    0.6089515653E+00    0.1685926319E-04    0.3337104044E-04    0.4301919634E-02
    0.2300000000E+02    0.2464025787E-04    0.6156373323E+00    0.1768905290E-04    0.3623055720E-04    0.4303530944E-02
    0.2500000000E+02    0.2519442464E-04    0.6213679038E+00    0.1853461189E-04    0.3907195796E-04    0.4304902838E-02
    0.2700000000E+02    0.2575623123E-04    0.6263343344E+00    0.1939379278E-04    0.4189733411E-04    0.4306080691E-02
    0.2900000000E+02    0.2632626221E-04    0.6306799111E+00    0.2026472868E-04    0.4470843652E-04    0.4307098846E-02
    0.3100000000E+02    0.2690464678E-04    0.6345142038E+00    0.2114582111E-04    0.4750675071E-04    0.4307983798E-02
    0.3300000000E+02    0.2749125044E-04    0.6379224320E+00    0.2203571105E-04    0.5029355165E-04    0.4308756344E-02
    0.3500000000E+02    0.2808579031E-04    0.6409718729E+00    0.2293324624E-04    0.5306994460E-04    0.4309433046E-02
    0.3700000000E+02    0.2868790533E-04    0.6437163476E+00    0.2383744995E-04    0.5583689613E-04    0.4310027275E-02
    0.3900000000E+02    0.2929719914E-04    0.6461994249E+00    0.2474749330E-04    0.5859525818E-04    0.4310549949E-02
    0.4100000000E+02    0.2991326607E-04    0.6484567517E+00    0.2566267148E-04    0.6134578681E-04    0.4311010077E-02
    0.4300000000E+02    0.3053570673E-04    0.6505177751E+00    0.2658238371E-04    0.6408915724E-04    0.4311415168E-02
    0.4500000000E+02    0.3116413710E-04    0.6524070340E+00    0.2750611658E-04    0.6682597586E-04    0.4311771532E-02
    0.4700000000E+02    0.3179819343E-04    0.6541451411E+00    0.2843343011E-04    0.6955679004E-04    0.4312084514E-02
    0.4900000000E+02    0.3243753457E-04    0.6557495377E+00    0.2936394626E-04    0.7228209616E-04    0.4312358676E-02
    0.1000000000E+02    0.2085894984E-04    0.5354008260E+00    0.1266149319E-04    0.1716581760E-04    0.4284212009E-02
    0.3000000000E+02    0.2661441415E-04    0.6326551575E+00    0.2070409550E-04    0.4610910806E-04    0.4307556559E-02
    0.5000000000E+02    0.3275908671E-04    0.6565063250E+00    0.2983030174E-04    0.7364282655E-04    0.4312482446E-02
    0.7000000000E+02    0.3940238050E-04    0.6672876582E+00    0.3926680694E-04    0.1006598333E-03    0.4313633161E-02
    0.9000000000E+02    0.4633407280E-04    0.6734315090E+00    0.4883362935E-04    0.1274685440E-03    0.4313278220E-02
    0.1100000000E+03    0.5345803944E-04    0.6774003175E+00    0.5848573427E-04    0.1542266110E-03    0.4312136708E-02
    0.1300000000E+03    0.6072842107E-04    0.6801753341E+00    0.6821346276E-04    0.1810303912E-03    0.4310515697E-02
    0.1500000000E+03    0.6812203325E-04    0.6822247293E+00    0.7801818893E-04    0.2079455670E-03    0.4308570734E-02
    0.1700000000E+03    0.7562685558E-04    0.6838001749E+00    0.8790496047E-04    0.2350204412E-03    0.4306389882E-02
    0.1900000000E+03    0.8323679961E-04    0.6850490206E+00    0.9787996685E-04    0.2622926173E-03    0.4304027049E-02
    0.2100000000E+03    0.9094913013E-04    0.6860632723E+00    0.1079496107E-03    0.2897927118E-03    0.4301517177E-02
    0.2300000000E+03    0.9876310647E-04    0.6869033451E+00    0.1181201690E-03    0.3175465759E-03    0.4298883916E-02
    0.2500000000E+03    0.1066792269E-03    0.6876105497E+00    0.1283976855E-03    0.3455767037E-03    0.4296143809E-02
    0.2700000000E+03    0.1146987897E-03    0.6882140909E+00    0.1387879559E-03    0.3739031671E-03    0.4293308719E-02
    0.2900000000E+03    0.1228236287E-03    0.6887351990E+00    0.1492965489E-03    0.4025442600E-03    0.4290387318E-02
    0.3100000000E+03    0.1310559501E-03    0.6891896778E+00    0.1599288405E-03    0.4315169575E-03    0.4287386024E-02
    0.3300000000E+03    0.1393982287E-03    0.6895895342E+00    0.1706900497E-03    0.4608372514E-03    0.4284309628E-02
    0.3500000000E+03    0.1478531414E-03    0.6899440539E+00    0.1815852736E-03    0.4905204023E-03    0.4281161709E-02
    0.3700000000E+03    0.1564235241E-03    0.6902605308E+00    0.1926195187E-03    0.5205811331E-03    0.4277944932E-02
    0.3900000000E+03    0.1651123436E-03    0.6905447740E+00    0.2037977283E-03    0.5510337798E-03    0.4274661254E-02
    0.4100000000E+03    0.1739226797E-03    0.6908014672E+00    0.2151248077E-03    0.5818924125E-03    0.4271312078E-02
    0.4300000000E+03    0.1828577133E-03    0.6910344288E+00    0.2266056455E-03    0.6131709329E-03    0.4267898362E-02
    0.4500000000E+03    0.1919207203E-03    0.6912468027E+00    0.2382451330E-03    0.6448831559E-03    0.4264420703E-02
    0.4700000000E+03    0.2011150673E-03    0.6914412010E+00    0.2500481815E-03    0.6770428769E-03    0.4260879402E-02
    0.4900000000E+03    0.2104442110E-03    0.6916198120E+00    0.2620197370E-03    0.7096639299E-03    0.4257274510E-02
    0.1000000000E+03    0.4987562597E-04    0.6756086025E+00    0.5365003195E-04    0.1408469367E-03    0.4312781419E-02
    0.3000000000E+03    0.1269262048E-03    0.6889699423E+00    0.1545969029E-03    0.4169881390E-03    0.4288896326E-02
    0.5000000000E+03    0.2151604362E-03    0.6917037859E+00    0.2680702636E-03    0.7261518022E-03    0.4255448176E-02
    0.7000000000E+03    0.3174883079E-03    0.6928811045E+00    0.3991993685E-03    0.1083656573E-02    0.4215454339E-02
    0.9000000000E+03    0.4381035782E-03    0.6935363305E+00    0.5536345571E-03    0.1505129430E-02    0.4168056102E-02
    0.1100000000E+04    0.5826109818E-03    0.6939535606E+00    0.7386750840E-03    0.2010653171E-02    0.4111447860E-02
    0.1300000000E+04    0.7587585957E-03    0.6942424384E+00    0.9643379838E-03    0.2627791305E-02    0.4042948486E-02
    0.1500000000E+04    0.9775761264E-03    0.6944542343E+00    0.1244861331E-02    0.3395755720E-02    0.3958697493E-02
    0.1700000000E+04    0.1255182656E-02    0.6946161273E+00    0.1601057552E-02    0.4371925258E-02    0.3853088676E-02
    0.1900000000E+04    0.1615696767E-02    0.6947438660E+00    0.2064097694E-02    0.5642346449E-02    0.3717856053E-02
    0.2100000000E+04    0.2095843964E-02    0.6948472057E+00    0.2681517871E-02    0.7338452660E-02    0.3540684717E-02
    0.2300000000E+04    0.2751632861E-02    0.6949325111E+00    0.3525975593E-02    0.9661584041E-02    0.3303384546E-02
    0.2500000000E+04    0.3665102071E-02    0.6950041114E+00    0.4704282607E-02    0.1290877261E-01    0.2980676084E-02
    0.2700000000E+04    0.4938716142E-02    0.6950650538E+00    0.6350858319E-02    0.1745654875E-01    0.2544442448E-02
    0.2900000000E+04    0.6637627952E-02    0.6951175450E+00    0.8554223614E-02    0.2356100775E-01    0.1986856396E-02
    0.3100000000E+04    0.8637754623E-02    0.6951632222E+00    0.1116074659E-01    0.3081623260E-01    0.1371197127E-02
    0.3300000000E+04    0.1054645600E-01    0.6952033259E+00    0.1366783639E-01    0.3784786662E-01    0.8425706611E-03
    0.3500000000E+04    0.1201540863E-01    0.6952388128E+00    0.1562296723E-01    0.4340039978E-01    0.5046736005E-03
    0.3700000000E+04    0.1303641256E-01    0.6952704330E+00    0.1700929471E-01    0.4741069798E-01    0.3345888539E-03
    0.3900000000E+04    0.1377527624E-01    0.6952987823E+00    0.1803686751E-01    0.5044741367E-01    0.2602928461E-03
    0.4100000000E+04    0.1436881091E-01    0.6953243405E+00    0.1888086783E-01    0.5298992944E-01    0.2300548683E-03
    0.4300000000E+04    0.1489000520E-01    0.6953474980E+00    0.1963516672E-01    0.5529627444E-01    0.2182386540E-03
    0.4500000000E+04    0.1537216722E-01    0.6953685755E+00    0.2034267003E-01    0.5748461152E-01    0.2138387019E-03
    0.4700000000E+04    0.1582975094E-01    0.6953878394E+00    0.2102195418E-01    0.5960602402E-01    0.2123823163E-03
    0.4900000000E+04    0.1626905105E-01    0.6954055123E+00    0.2168102976E-01    0.6168236079E-01    0.2120860136E-03
    0.1000000000E+04    0.5069476208E-03    0.6937657921E+00    0.6417813677E-03    0.1745878053E-02    0.4141047925E-02
    0.3000000000E+04    0.7619818279E-02    0.6951411500E+00    0.9832218162E-02    0.2711297070E-01    0.1678307614E-02
    0.5000000000E+04    0.1648281249E-01    0.6954138121E+00    0.2200419537E-01    0.6270685476E-01    0.2121309393E-03
    0.7000000000E+04    0.2010788956E-01    0.6955294248E+00    0.2777050904E-01    0.8174957203E-01    0.2158065819E-03
    0.9000000000E+04    0.2276001198E-01    0.6955929330E+00    0.3246792335E-01    0.9854375206E-01    0.2188517111E-03
    0.1100000000E+05    0.2470452793E-01    0.6956328770E+00    0.3635113872E-01    0.1135684419E+00    0.2213121654E-03
    0.1300000000E+05    0.2612341968E-01    0.6956601993E+00    0.3959914878E-01    0.1271662034E+00    0.2233804988E-03
    0.1500000000E+05    0.2714544045E-01    0.6956799895E+00    0.4234212915E-01    0.1395912609E+00    0.2251670098E-03
    0.1700000000E+05    0.2786373562E-01    0.6956949329E+00    0.4467700453E-01    0.1510366653E+00    0.2267408935E-03
    0.1900000000E+05    0.2834699197E-01    0.6957065786E+00    0.4667742864E-01    0.1616519702E+00    0.2281484760E-03
    0.2100000000E+05    0.2864670599E-01    0.6957158824E+00    0.4840037945E-01    0.1715550797E+00    0.2294223266E-03
    0.2300000000E+05    0.2880204715E-01    0.6957234653E+00    0.4989063429E-01    0.1808403982E+00    0.2305862326E-03
    0.2500000000E+05    0.2884318741E-01    0.6957297478E+00    0.5118387823E-01    0.1895845665E+00    0.2316581070E-03
    0.2700000000E+05    0.2879362746E-01    0.6957350251E+00    0.5230890828E-01    0.1978505797E+00    0.2326517830E-03
    0.2900000000E+05    0.2867185169E-01    0.6957395099E+00    0.5328922564E-01    0.2056907997E+00    0.2335781695E-03
    0.3100000000E+05    0.2849252494E-01    0.6957433594E+00    0.5414420533E-01    0.2131491934E+00    0.2344460244E-03
    0.3300000000E+05    0.2826737065E-01    0.6957466925E+00    0.5488996834E-01    0.2202630214E+00    0.2352624869E-03
    0.3500000000E+05    0.2800582385E-01    0.6957496002E+00    0.5554004105E-01    0.2270641285E+00    0.2360334553E-03
    0.3700000000E+05    0.2771552264E-01    0.6957521539E+00    0.5610586001E-01    0.2335799431E+00    0.2367638596E-03
    0.3900000000E+05    0.2740268220E-01    0.6957544099E+00    0.5659716286E-01    0.2398342583E+00    0.2374578631E-03
    0.4100000000E+05    0.2707238231E-01    0.6957564133E+00    0.5702229431E-01    0.2458478503E+00    0.2381190145E-03
    0.4300000000E+05    0.2672879041E-01    0.6957582009E+00    0.5738844795E-01    0.2516389720E+00    0.2387503635E-03
    0.4500000000E+05    0.2637533615E-01    0.6957598027E+00    0.5770185909E-01    0.2572237502E+00    0.2393545505E-03
    0.4700000000E+05    0.2601484912E-01    0.6957612434E+00    0.5796795992E-01    0.2626165083E+00    0.2399338770E-03
    0.4900000000E+05    0.2564966821E-01    0.6957625437E+00    0.5819150517E-01    0.2678300303E+00    0.2404903616E-03
    0.1000000000E+05    0.2380783203E-01    0.6956149607E+00    0.3449874001E-01    0.1062533964E+00    0.2201403050E-03
    0.3000000000E+05    0.2858858911E-01    0.6957415059E+00    0.5373130746E-01    0.2094652556E+00    0.2340189343E-03
    0.5000000000E+05    0.2546593618E-01    0.6957631468E+00    0.5828864574E-01    0.2703732063E+00    0.2407606027E-03
    0.7000000000E+05    0.2186669115E-01    0.6957708788E+00    0.5878639106E-01    0.3140794609E+00    0.2453059859E-03
    0.9000000000E+05    0.1873218499E-01    0.6957743099E+00    0.5774064087E-01    0.3480022992E+00    0.2487565348E-03
    0.1100000000E+06    0.1613796655E-01    0.6957759374E+00    0.5604918424E-01    0.3754731828E+00    0.2515464081E-03
    0.1300000000E+06    0.1400946055E-01    0.6957766756E+00    0.5409974439E-01    0.3983333023E+00    0.2538926856E-03
    0.1500000000E+06    0.1225716006E-01    0.6957769294E+00    0.5207722093E-01    0.4177297179E+00    0.2559198840E-03
    0.1700000000E+06    0.1080405958E-01    0.6957769019E+00    0.5007401015E-01    0.4344334910E+00    0.2577062057E-03
    0.1900000000E+06    0.9588932473E-02    0.6957767041E+00    0.4813651760E-01    0.4489905716E+00    0.2593040502E-03
    0.2100000000E+06    0.8564186973E-02    0.6957764005E+00    0.4628698876E-01    0.4618023725E+00    0.2607502786E-03
    0.2300000000E+06    0.7692965558E-02    0.6957760306E+00    0.4453455116E-01    0.4731726380E+00    0.2620718261E-03
    0.2500000000E+06    0.6946614231E-02    0.6957756191E+00    0.4288110607E-01    0.4833365011E+00    0.2632889841E-03
    0.2700000000E+06    0.6302700943E-02    0.6957751825E+00    0.4132459444E-01    0.4924794014E+00    0.2644174273E-03
    0.2900000000E+06    0.5743520007E-02    0.6957747315E+00    0.3986085559E-01    0.5007498865E+00    0.2654695200E-03
    0.3100000000E+06    0.5254976332E-02    0.6957742735E+00    0.3848470237E-01    0.5082685479E+00    0.2664551910E-03
    0.3300000000E+06    0.4825753755E-02    0.6957738134E+00    0.3719054681E-01    0.5151344226E+00    0.2673825354E-03
    0.3500000000E+06    0.4446692557E-02    0.6957733548E+00    0.3597276216E-01    0.5214296783E+00    0.2682582424E-03
    0.3700000000E+06    0.4110320491E-02    0.6957729000E+00    0.3482588786E-01    0.5272231066E+00    0.2690879036E-03
    0.3900000000E+06    0.3810496749E-02    0.6957724506E+00    0.3374474000E-01    0.5325727707E+00    0.2698762421E-03
    0.4100000000E+06    0.3542139482E-02    0.6957720077E+00    0.3272446472E-01    0.5375280395E+00    0.2706272838E-03
    0.4300000000E+06    0.3301015549E-02    0.6957715721E+00    0.3176055730E-01    0.5421311709E+00    0.2713444890E-03
    0.4500000000E+06    0.3083576988E-02    0.6957711442E+00    0.3084886101E-01    0.5464185580E+00    0.2720308539E-03
    0.4700000000E+06    0.2886832833E-02    0.6957707243E+00    0.2998555422E-01    0.5504217191E+00    0.2726889904E-03
    0.4900000000E+06    0.2708247885E-02    0.6957703125E+00    0.2916713133E-01    0.5541680930E+00    0.2733211892E-03
    0.1000000000E+06    0.1737118166E-01    0.6957752739E+00    0.5694457742E-01    0.3624072188E+00    0.2502174700E-03
    0.3000000000E+06    0.5491182741E-02    0.6957745030E+00    0.3916217584E-01    0.5045965619E+00    0.2659701150E-03
    0.5000000000E+06    0.2625077327E-02    0.6957701096E+00    0.2877373684E-01    0.5559526046E+00    0.2736282028E-03
    0.7000000000E+06    0.1529385062E-02    0.6957664529E+00    0.2261598337E-01    0.5826573235E+00    0.2787924175E-03
    0.9000000000E+06    0.9988569204E-03    0.6957634293E+00    0.1859259708E-01    0.5990357081E+00    0.2827130640E-03
    0.1100000000E+07    0.7027132013E-03    0.6957608678E+00    0.1576908310E-01    0.6101068059E+00    0.2858831698E-03
    0.1300000000E+07    0.5208864862E-03    0.6957586492E+00    0.1368208084E-01    0.6180896573E+00    0.2885492982E-03
    0.1500000000E+07    0.4013534844E-03    0.6957566929E+00    0.1207822122E-01    0.6241175148E+00    0.2908528945E-03
    0.1700000000E+07    0.3186230276E-03    0.6957549433E+00    0.1080789804E-01    0.6288296593E+00    0.2928827999E-03
    0.1900000000E+07    0.2590173454E-03    0.6957533605E+00    0.9777282536E-02    0.6326141066E+00    0.2946985459E-03
    0.2100000000E+07    0.2146656518E-03    0.6957519150E+00    0.8924621142E-02    0.6357200041E+00    0.2963420128E-03
    0.2300000000E+07    0.1807797063E-03    0.6957505844E+00    0.8207641340E-02    0.6383146465E+00    0.2978438039E-03
    0.2500000000E+07    0.1543114754E-03    0.6957493517E+00    0.7596446922E-02    0.6405145335E+00    0.2992269751E-03
    0.2700000000E+07    0.1332461856E-03    0.6957482030E+00    0.7069305676E-02    0.6424032843E+00    0.3005093364E-03
    0.2900000000E+07    0.1162089891E-03    0.6957471275E+00    0.6610045188E-02    0.6440424701E+00    0.3017049373E-03
    0.3100000000E+07    0.1022357976E-03    0.6957461161E+00    0.6206384359E-02    0.6454784304E+00    0.3028250595E-03
    0.3300000000E+07    0.9063441685E-04    0.6957451616E+00    0.5848831020E-02    0.6467467067E+00    0.3038789016E-03
    0.3500000000E+07    0.8089750253E-04    0.6957442576E+00    0.5529933787E-02    0.6478750144E+00    0.3048740645E-03
    0.3700000000E+07    0.7264636404E-04    0.6957433990E+00    0.5243762240E-02    0.6488852831E+00    0.3058169022E-03
    0.3900000000E+07    0.6559372875E-04    0.6957425813E+00    0.4985538142E-02    0.6497950916E+00    0.3067127816E-03
    0.4100000000E+07    0.5951849503E-04    0.6957418008E+00    0.4751368889E-02    0.6506186954E+00    0.3075662775E-03
    0.4300000000E+07    0.5424825821E-04    0.6957410541E+00    0.4538051626E-02    0.6513677762E+00    0.3083813220E-03
    0.4500000000E+07    0.4964699059E-04    0.6957403383E+00    0.4342927112E-02    0.6520519975E+00    0.3091613198E-03
    0.4700000000E+07    0.4560620915E-04    0.6957396509E+00    0.4163769193E-02    0.6526794225E+00    0.3099092390E-03
    0.4900000000E+07    0.4203854668E-04    0.6957389896E+00    0.3998700170E-02    0.6532568317E+00    0.3106276827E-03
    0.1000000000E+07    0.8314225863E-03    0.6957620994E+00    0.1706665325E-01    0.6050593124E+00    0.2843730966E-03
    0.3000000000E+07    0.1088878184E-03    0.6957466143E+00    0.6401913319E-02    0.6447834194E+00    0.3022738160E-03
    0.5000000000E+07    0.4040941287E-04    0.6957386682E+00    0.3920941056E-02    0.6535286101E+00    0.3109765794E-03
    0.7000000000E+07    0.2086236912E-04    0.6957332349E+00    0.2820668156E-02    0.6573596182E+00    0.3168453166E-03
    0.9000000000E+07    0.1269763297E-04    0.6957290824E+00    0.2200392094E-02    0.6595081972E+00    0.3213008449E-03
    0.1100000000E+08    0.8531932961E-05    0.6957257112E+00    0.1802600749E-02    0.6608824128E+00    0.3249034419E-03
    0.1300000000E+08    0.6124723346E-05    0.6957228682E+00    0.1525947304E-02    0.6618366686E+00    0.3279333054E-03
    0.1500000000E+08    0.4609827576E-05    0.6957204069E+00    0.1322488336E-02    0.6625377994E+00    0.3305511769E-03
    0.1700000000E+08    0.3595305829E-05    0.6957182346E+00    0.1166614729E-02    0.6630746373E+00    0.3328580180E-03
    0.1900000000E+08    0.2882901016E-05    0.6957162891E+00    0.1043407719E-02    0.6634988185E+00    0.3349214816E-03
    0.2100000000E+08    0.2363606885E-05    0.6957145265E+00    0.9435900341E-03    0.6638424021E+00    0.3367891617E-03
    0.2300000000E+08    0.1973471054E-05    0.6957129143E+00    0.8610907333E-03    0.6641263428E+00    0.3384958371E-03
    0.2500000000E+08    0.1672970391E-05    0.6957114284E+00    0.7917708279E-03    0.6643649140E+00    0.3400677089E-03
    0.2700000000E+08    0.1436614646E-05    0.6957100499E+00    0.7327117797E-03    0.6645681735E+00    0.3415250173E-03
