  Pressure (Pa) 22mC5-500 (mol/kg) 24mC5-500 (mol/kg) 2mC6-500 (mol/kg) 3mC6-500 (mol/kg) C7-500 (mol/kg)
    0.1000000000E+01    0.1073829414E-04    0.3665962135E-01    0.2136599979E-04    0.6290451936E-05    0.4170877724E-02
    0.3000000000E+01    0.2831637140E-04    0.9948342753E-01    0.5502320504E-04    0.1584532110E-04    0.4210607172E-02
    0.5000000000E+01    0.4222538188E-04    0.1513618088E+00    0.8071534797E-04    0.2459482643E-04    0.4237662413E-02
    0.7000000000E+01    0.5345207579E-04    0.1949266296E+00    0.1007848424E-03    0.3296733998E-04    0.4259614561E-02
    0.9000000000E+01    0.6265757471E-04    0.2320285173E+00    0.1167497375E-03    0.4110574300E-04    0.4278044325E-02
    0.1100000000E+02    0.7030771979E-04    0.2640067187E+00    0.1296554516E-03    0.4908106462E-04    0.4293786829E-02
    0.1300000000E+02    0.7674041122E-04    0.2918543277E+00    0.1402443162E-03    0.5693538246E-04    0.4307396809E-02
    0.1500000000E+02    0.8220632291E-04    0.3163233376E+00    0.1490554686E-03    0.6469632320E-04    0.4319274945E-02
    0.1700000000E+02    0.8689494666E-04    0.3379936254E+00    0.1564877318E-03    0.7238331054E-04    0.4329723087E-02
    0.1900000000E+02    0.9095185973E-04    0.3573195311E+00    0.1628407651E-03    0.8001068850E-04    0.4338974772E-02
    0.2100000000E+02    0.9449049496E-04    0.3746620875E+00    0.1683427759E-03    0.8758945024E-04    0.4347214240E-02
    0.2300000000E+02    0.9760035088E-04    0.3903118044E+00    0.1731696209E-03    0.9512826950E-04    0.4354589113E-02
    0.2500000000E+02    0.1003528341E-03    0.4045050882E+00    0.1774582358E-03    0.1026341524E-03    0.4361219220E-02
    0.2700000000E+02    0.1028054899E-03    0.4174362774E+00    0.1813162419E-03    0.1101128687E-03    0.4367202930E-02
    0.2900000000E+02    0.1050051144E-03    0.4292666019E+00    0.1848289230E-03    0.1175692481E-03    0.4372621799E-02
    0.3100000000E+02    0.1069900765E-03    0.4401309464E+00    0.1880643637E-03    0.1250073896E-03    0.4377544044E-02
    0.3300000000E+02    0.1087920712E-03    0.4501430208E+00    0.1910772788E-03    0.1324308147E-03    0.4382027180E-02
    0.3500000000E+02    0.1104374607E-03    0.4593993588E+00    0.1939119012E-03    0.1398425801E-03    0.4386120055E-02
    0.3700000000E+02    0.1119483101E-03    0.4679824431E+00    0.1966041810E-03    0.1472453645E-03    0.4389864428E-02
    0.3900000000E+02    0.1133431948E-03    0.4759631726E+00    0.1991834754E-03    0.1546415344E-03    0.4393296222E-02
    0.4100000000E+02    0.1146378365E-03    0.4834028273E+00    0.2016738604E-03    0.1620331963E-03    0.4396446505E-02
    0.4300000000E+02    0.1158456078E-03    0.4903546457E+00    0.2040951550E-03    0.1694222378E-03    0.4399342298E-02
    0.4500000000E+02    0.1169779356E-03    0.4968651026E+00    0.2064637279E-03    0.1768103611E-03    0.4402007204E-02
    0.4700000000E+02    0.1180446257E-03    0.5029749500E+00    0.2087931371E-03    0.1841991092E-03    0.4404461943E-02
    0.4900000000E+02    0.1190541272E-03    0.5087200720E+00    0.2110946400E-03    0.1915898889E-03    0.4406724778E-02
    0.1000000000E+02    0.6665351757E-04    0.2485893488E+00    0.1235328960E-03    0.4511071204E-04    0.4286212277E-02
    0.3000000000E+02    0.1060223084E-03    0.4348119702E+00    0.1864776031E-03    0.1212903664E-03    0.4375141180E-02
    0.5000000000E+02    0.1195397551E-03    0.5114659198E+00    0.2122379179E-03    0.1952864472E-03    0.4407789354E-02
    0.7000000000E+02    0.1275834843E-03    0.5532801029E+00    0.2352185462E-03    0.2695888817E-03    0.4422091454E-02
    0.9000000000E+02    0.1343069294E-03    0.5796115255E+00    0.2601279828E-03    0.3451071975E-03    0.4427940789E-02
    0.1100000000E+03    0.1409177772E-03    0.5977172935E+00    0.2876245338E-03    0.4223594364E-03    0.4429081961E-02
    0.1300000000E+03    0.1478355539E-03    0.6109316238E+00    0.3176494507E-03    0.5017130515E-03    0.4427246549E-02
    0.1500000000E+03    0.1552214056E-03    0.6210010848E+00    0.3500451748E-03    0.5834667099E-03    0.4423342965E-02
    0.1700000000E+03    0.1631417045E-03    0.6289291013E+00    0.3846820561E-03    0.6678859142E-03    0.4417890096E-02
    0.1900000000E+03    0.1716264931E-03    0.6353332213E+00    0.4214783738E-03    0.7552212456E-03    0.4411202108E-02
    0.2100000000E+03    0.1806924984E-03    0.6406143477E+00    0.4603966505E-03    0.8457189461E-03    0.4403476584E-02
    0.2300000000E+03    0.1903528082E-03    0.6450440853E+00    0.5014361438E-03    0.9396277517E-03    0.4394840270E-02
    0.2500000000E+03    0.2006211171E-03    0.6488129805E+00    0.5446262078E-03    0.1037203765E-02    0.4385374455E-02
    0.2700000000E+03    0.2115136401E-03    0.6520586623E+00    0.5900213307E-03    0.1138714263E-02    0.4375129799E-02
    0.2900000000E+03    0.2230499983E-03    0.6548830206E+00    0.6376976970E-03    0.1244440935E-02    0.4364135371E-02
    0.3100000000E+03    0.2352536501E-03    0.6573631001E+00    0.6877509533E-03    0.1354682835E-02    0.4352404341E-02
    0.3300000000E+03    0.2481521368E-03    0.6595582387E+00    0.7402948934E-03    0.1469759228E-02    0.4339937643E-02
    0.3500000000E+03    0.2617772656E-03    0.6615148779E+00    0.7954608464E-03    0.1590012467E-02    0.4326726378E-02
    0.3700000000E+03    0.2761652941E-03    0.6632698864E+00    0.8533976140E-03    0.1715810971E-02    0.4312753380E-02
    0.3900000000E+03    0.2913571452E-03    0.6648529054E+00    0.9142718553E-03    0.1847552402E-02    0.4297994237E-02
    0.4100000000E+03    0.3073986705E-03    0.6662880374E+00    0.9782688507E-03    0.1985667085E-02    0.4282417918E-02
    0.4300000000E+03    0.3243409691E-03    0.6675950819E+00    0.1045593604E-02    0.2130621745E-02    0.4265987116E-02
    0.4500000000E+03    0.3422407707E-03    0.6687904547E+00    0.1116472262E-02    0.2282923610E-02    0.4248658386E-02
    0.4700000000E+03    0.3611608869E-03    0.6698878814E+00    0.1191153840E-02    0.2443124952E-02    0.4230382114E-02
    0.4900000000E+03    0.3811707361E-03    0.6708989265E+00    0.1269912265E-02    0.2611828118E-02    0.4211102347E-02
    0.1000000000E+03    0.1375908922E-03    0.5894312492E+00    0.2735511878E-03    0.3834913847E-03    0.4428964308E-02
    0.3000000000E+03    0.2290667891E-03    0.6561620369E+00    0.6624205169E-03    0.1298978035E-02    0.4358361619E-02
    0.5000000000E+03    0.3916079578E-03    0.6713751816E+00    0.1310913285E-02    0.2699571176E-02    0.4201066866E-02
    0.7000000000E+03    0.6820073007E-03    0.6781150575E+00    0.2440382071E-02    0.5107211183E-02    0.3927526800E-02
    0.9000000000E+03    0.1255654750E-02    0.6819186363E+00    0.4654586300E-02    0.9821453236E-02    0.3412545317E-02
    0.1100000000E+04    0.2471409161E-02    0.6843614344E+00    0.9351075941E-02    0.1985501267E-01    0.2400491996E-02
    0.1300000000E+04    0.4319108778E-02    0.6860628147E+00    0.1655299811E-01    0.3538726993E-01    0.1081112003E-02
    0.1500000000E+04    0.5519728009E-02    0.6873157820E+00    0.2136138324E-01    0.4602481417E-01    0.5293305800E-03
    0.1700000000E+04    0.6168685910E-02    0.6882769220E+00    0.2408766658E-01    0.5231651632E-01    0.4429710537E-03
    0.1900000000E+04    0.6681291534E-02    0.6890375176E+00    0.2631625549E-01    0.5761192854E-01    0.4348648602E-03
    0.2100000000E+04    0.7145480654E-02    0.6896543771E+00    0.2838363715E-01    0.6262509264E-01    0.4362103432E-03
    0.2300000000E+04    0.7575619068E-02    0.6901647051E+00    0.3034279943E-01    0.6746479878E-01    0.4384830041E-03
    0.2500000000E+04    0.7975620036E-02    0.6905938872E+00    0.3220634211E-01    0.7215330359E-01    0.4406909509E-03
    0.2700000000E+04    0.8347848322E-02    0.6909598374E+00    0.3398105080E-01    0.7670068987E-01    0.4427408544E-03
    0.2900000000E+04    0.8694308389E-02    0.6912755590E+00    0.3567252786E-01    0.8111486814E-01    0.4446430975E-03
    0.3100000000E+04    0.9016815936E-02    0.6915507191E+00    0.3728584684E-01    0.8540296665E-01    0.4464165028E-03
    0.3300000000E+04    0.9317034238E-02    0.6917926539E+00    0.3882567557E-01    0.8957156512E-01    0.4480775963E-03
    0.3500000000E+04    0.9596491088E-02    0.6920070314E+00    0.4029632416E-01    0.9362676702E-01    0.4496400488E-03
    0.3700000000E+04    0.9856591866E-02    0.6921983001E+00    0.4170177926E-01    0.9757424517E-01    0.4511151857E-03
    0.3900000000E+04    0.1009863096E-01    0.6923700000E+00    0.4304573367E-01    0.1014192800E+00    0.4525124797E-03
    0.4100000000E+04    0.1032380196E-01    0.6925249835E+00    0.4433161256E-01    0.1051667935E+00    0.4538399325E-03
    0.4300000000E+04    0.1053320678E-01    0.6926655743E+00    0.4556259699E-01    0.1088213793E+00    0.4551043646E-03
    0.4500000000E+04    0.1072786387E-01    0.6927936849E+00    0.4674164506E-01    0.1123873302E+00    0.4563116374E-03
    0.4700000000E+04    0.1090871557E-01    0.6929109031E+00    0.4787151087E-01    0.1158686629E+00    0.4574668255E-03
    0.4900000000E+04    0.1107663473E-01    0.6930185587E+00    0.4895476162E-01    0.1192691398E+00    0.4585743515E-03
    0.1000000000E+04    0.1754157227E-02    0.6832600177E+00    0.6578074656E-02    0.1392423674E-01    0.2985643738E-02
    0.3000000000E+04    0.8858448929E-02    0.6914177052E+00    0.3648865653E-01    0.8327425435E-01    0.4455448006E-03
    0.5000000000E+04    0.1115599986E-01    0.6930691580E+00    0.4947966133E-01    0.1209401687E+00    0.4591114720E-03
    0.7000000000E+04    0.1223225110E-01    0.6937773817E+00    0.5803452082E-01    0.1508662940E+00    0.4680848840E-03
    0.9000000000E+04    0.1265098828E-01    0.6941702590E+00    0.6387319494E-01    0.1756422960E+00    0.4748356958E-03
    0.1100000000E+05    0.1270008986E-01    0.6944196871E+00    0.6794200108E-01    0.1967660447E+00    0.4802653841E-03
    0.1300000000E+05    0.1253678351E-01    0.6945918831E+00    0.7080263934E-01    0.2151719816E+00    0.4848161549E-03
    0.1500000000E+05    0.1225129453E-01    0.6947177674E+00    0.7280854821E-01    0.2314782313E+00    0.4887386246E-03
    0.1700000000E+05    0.1189731269E-01    0.6948137119E+00    0.7419262253E-01    0.2461132340E+00    0.4921888907E-03
    0.1900000000E+05    0.1150762380E-01    0.6948891935E+00    0.7511415410E-01    0.2593854815E+00    0.4952709122E-03
    0.2100000000E+05    0.1110258817E-01    0.6949500765E+00    0.7568548193E-01    0.2715242255E+00    0.4980574822E-03
    0.2300000000E+05    0.1069495195E-01    0.6950001838E+00    0.7598788015E-01    0.2827044173E+00    0.5006015967E-03
    0.2500000000E+05    0.1029268144E-01    0.6950421130E+00    0.7608142664E-01    0.2930626206E+00    0.5029430622E-03
    0.2700000000E+05    0.9900685418E-02    0.6950776909E+00    0.7601135078E-01    0.3027075249E+00    0.5051125530E-03
    0.2900000000E+05    0.9521889329E-02    0.6951082395E+00    0.7581224110E-01    0.3117271024E+00    0.5071342161E-03
    0.3100000000E+05    0.9157919981E-02    0.6951347386E+00    0.7551090845E-01    0.3201936104E+00    0.5090274075E-03
    0.3300000000E+05    0.8809549992E-02    0.6951579298E+00    0.7512837939E-01    0.3281671702E+00    0.5108078857E-03
    0.3500000000E+05    0.8476990621E-02    0.6951783849E+00    0.7468131252E-01    0.3356983788E+00    0.5124886545E-03
    0.3700000000E+05    0.8160087039E-02    0.6951965515E+00    0.7418302305E-01    0.3428302524E+00    0.5140805724E-03
    0.3900000000E+05    0.7858449743E-02    0.6952127850E+00    0.7364423593E-01    0.3495996950E+00    0.5155928013E-03
    0.4100000000E+05    0.7571543568E-02    0.6952273713E+00    0.7307364769E-01    0.3560386257E+00    0.5170331443E-03
    0.4300000000E+05    0.7298748184E-02    0.6952405427E+00    0.7247835088E-01    0.3621748546E+00    0.5184083025E-03
    0.4500000000E+05    0.7039399206E-02    0.6952524900E+00    0.7186415861E-01    0.3680327740E+00    0.5197240740E-03
    0.4700000000E+05    0.6792816024E-02    0.6952633717E+00    0.7123585543E-01    0.3736339070E+00    0.5209855100E-03
    0.4900000000E+05    0.6558320466E-02    0.6952733198E+00    0.7059739302E-01    0.3789973500E+00    0.5221970380E-03
    0.1000000000E+05    0.1270983162E-01    0.6943075253E+00    0.6608738895E-01    0.1865928134E+00    0.4776817561E-03
    0.3000000000E+05    0.9337987017E-02    0.6951219442E+00    0.7567292179E-01    0.3160254825E+00    0.5080958128E-03
    0.5000000000E+05    0.6445397407E-02    0.6952779793E+00    0.7027539790E-01    0.3815953317E+00    0.5227853244E-03
    0.7000000000E+05    0.4675314652E-02    0.6953417865E+00    0.6385056652E-01    0.4243901151E+00    0.5326752340E-03
    0.9000000000E+05    0.3541666590E-02    0.6953754832E+00    0.5803124583E-01    0.4552540874E+00    0.5401780655E-03
    0.1100000000E+06    0.2775537334E-02    0.6953957878E+00    0.5300570273E-01    0.4788116230E+00    0.5462420442E-03
    0.1300000000E+06    0.2234081385E-02    0.6954090429E+00    0.4869930722E-01    0.4974832168E+00    0.5513405897E-03
    0.1500000000E+06    0.1837306612E-02    0.6954181670E+00    0.4499722550E-01    0.5126931172E+00    0.5557450102E-03
    0.1700000000E+06    0.1537842703E-02    0.6954246830E+00    0.4179356323E-01    0.5253464592E+00    0.5596255951E-03
    0.1900000000E+06    0.1306234267E-02    0.6954294592E+00    0.3900045145E-01    0.5360511088E+00    0.5630963960E-03
    0.2100000000E+06    0.1123392433E-02    0.6954330252E+00    0.3654719923E-01    0.5452327448E+00    0.5662376177E-03
    0.2300000000E+06    0.9765055981E-03    0.6954357207E+00    0.3437733854E-01    0.5531994831E+00    0.5691078511E-03
    0.2500000000E+06    0.8567143666E-03    0.6954377734E+00    0.3244566682E-01    0.5601804271E+00    0.5717512266E-03
    0.2700000000E+06    0.7577326213E-03    0.6954393404E+00    0.3071578312E-01    0.5663497908E+00    0.5742018274E-03
    0.2900000000E+06    0.6749991676E-03    0.6954405339E+00    0.2915815335E-01    0.5718425919E+00    0.5764865353E-03
    0.3100000000E+06    0.6051388293E-03    0.6954414356E+00    0.2774862243E-01    0.5767651973E+00    0.5786269335E-03
    0.3300000000E+06    0.5456103623E-03    0.6954421063E+00    0.2646727620E-01    0.5812026073E+00    0.5806406181E-03
    0.3500000000E+06    0.4944706393E-03    0.6954425920E+00    0.2529756953E-01    0.5852236055E+00    0.5825421270E-03
    0.3700000000E+06    0.4502131821E-03    0.6954429282E+00    0.2422565477E-01    0.5888844784E+00    0.5843436125E-03
    0.3900000000E+06    0.4116553924E-03    0.6954431425E+00    0.2323986123E-01    0.5922317474E+00    0.5860553380E-03
    0.4100000000E+06    0.3778583810E-03    0.6954432566E+00    0.2233028847E-01    0.5953042111E+00    0.5876860517E-03
    0.4300000000E+06    0.3480690466E-03    0.6954432880E+00    0.2148848623E-01    0.5981344922E+00    0.5892432722E-03
    0.4500000000E+06    0.3216776122E-03    0.6954432507E+00    0.2070720058E-01    0.6007502248E+00    0.5907335094E-03
    0.4700000000E+06    0.2981860759E-03    0.6954431561E+00    0.1998017095E-01    0.6031749775E+00    0.5921624377E-03
    0.4900000000E+06    0.2771844816E-03    0.6954430134E+00    0.1930196687E-01    0.6054289769E+00    0.5935350340E-03
    0.1000000000E+06    0.3123584377E-02    0.6953867923E+00    0.5542183380E-01    0.4677629671E+00    0.5433537287E-03
    0.3000000000E+06    0.6386350254E-03    0.6954410170E+00    0.2843620823E-01    0.5743694245E+00    0.5775735923E-03
    0.5000000000E+06    0.2675088435E-03    0.6954429265E+00    0.1897967127E-01    0.6064974950E+00    0.5942015997E-03
    0.7000000000E+06    0.1464795184E-03    0.6954399676E+00    0.1421689203E-01    0.6221027509E+00    0.6054132740E-03
    0.9000000000E+06    0.9245021785E-04    0.6954362011E+00    0.1135426923E-01    0.6313298570E+00    0.6139246047E-03
    0.1100000000E+07    0.6374184218E-04    0.6954324366E+00    0.9445655679E-02    0.6374253356E+00    0.6208063294E-03
    0.1300000000E+07    0.4668570975E-04    0.6954288728E+00    0.8083060443E-02    0.6417515500E+00    0.6265938602E-03
    0.1500000000E+07    0.3573082678E-04    0.6954255502E+00    0.7061901780E-02    0.6449807164E+00    0.6315943229E-03
    0.1700000000E+07    0.2827740048E-04    0.6954224623E+00    0.6268363310E-02    0.6474828442E+00    0.6360006121E-03
    0.1900000000E+07    0.2297625373E-04    0.6954195892E+00    0.5634111098E-02    0.6494784066E+00    0.6399419789E-03
    0.2100000000E+07    0.1907067732E-04    0.6954169085E+00    0.5115650587E-02    0.6511069456E+00    0.6435093488E-03
    0.2300000000E+07    0.1610957881E-04    0.6954143990E+00    0.4683986699E-02    0.6524610815E+00    0.6467691628E-03
    0.2500000000E+07    0.1381049191E-04    0.6954120418E+00    0.4319050057E-02    0.6536047018E+00    0.6497714744E-03
    0.2700000000E+07    0.1198921802E-04    0.6954098204E+00    0.4006509825E-02    0.6545832994E+00    0.6525549487E-03
    0.2900000000E+07    0.1052147936E-04    0.6954077205E+00    0.3735860670E-02    0.6554301465E+00    0.6551500859E-03
    0.3100000000E+07    0.9320959299E-05    0.6954057298E+00    0.3499226882E-02    0.6561701387E+00    0.6575813772E-03
    0.3300000000E+07    0.8326189254E-05    0.6954038376E+00    0.3290588536E-02    0.6568222747E+00    0.6598687918E-03
    0.3500000000E+07    0.7492431651E-05    0.6954020346E+00    0.3105265623E-02    0.6574013037E+00    0.6620288301E-03
    0.3700000000E+07    0.6786496341E-05    0.6954003129E+00    0.2939565128E-02    0.6579188505E+00    0.6640752854E-03
    0.3900000000E+07    0.6183338525E-05    0.6953986654E+00    0.2790534032E-02    0.6583842008E+00    0.6660198084E-03
    0.4100000000E+07    0.5663771302E-05    0.6953970859E+00    0.2655782920E-02    0.6588048612E+00    0.6678723302E-03
    0.4300000000E+07    0.5212894191E-05    0.6953955690E+00    0.2533357731E-02    0.6591869658E+00    0.6696413863E-03
    0.4500000000E+07    0.4818992488E-05    0.6953941098E+00    0.2421644989E-02    0.6595355758E+00    0.6713343678E-03
    0.4700000000E+07    0.4472752859E-05    0.6953927040E+00    0.2319300741E-02    0.6598549043E+00    0.6729577175E-03
    0.4900000000E+07    0.4166695433E-05    0.6953913479E+00    0.2225196576E-02    0.6601484868E+00    0.6745170862E-03
    0.1000000000E+07    0.7608303172E-04    0.6954343001E+00    0.1031313262E-01    0.6346602294E+00    0.6175282603E-03
    0.3000000000E+07    0.9892127975E-05    0.6954067122E+00    0.3613704574E-02    0.6558121963E+00    0.6563848722E-03
    0.5000000000E+07    0.4026793938E-05    0.6953906873E+00    0.2180930415E-02    0.6602865756E+00    0.6752743584E-03
    0.7000000000E+07    0.2333395634E-05    0.6953794054E+00    0.1558889616E-02    0.6622265293E+00    0.6880121562E-03
    0.9000000000E+07    0.1605848698E-05    0.6953706626E+00    0.1211720249E-02    0.6633091764E+00    0.6976824619E-03
    0.1100000000E+08    0.1220976872E-05    0.6953635060E+00    0.9903852936E-03    0.6639996150E+00    0.7055014426E-03
    0.1300000000E+08    0.9892718337E-06    0.6953574367E+00    0.8370505517E-03    0.6644781343E+00    0.7120772980E-03
    0.1500000000E+08    0.8368806977E-06    0.6953521605E+00    0.7245949645E-03    0.6648292444E+00    0.7177589299E-03
    0.1700000000E+08    0.7299995008E-06    0.6953474892E+00    0.6386184546E-03    0.6650978101E+00    0.7227654803E-03
    0.1900000000E+08    0.6512909986E-06    0.6953432948E+00    0.5707689495E-03    0.6653098538E+00    0.7272437922E-03
    0.2100000000E+08    0.5910734101E-06    0.6953394865E+00    0.5158701379E-03    0.6654815046E+00    0.7312971691E-03
    0.2300000000E+08    0.5435698287E-06    0.6953359972E+00    0.4705437053E-03    0.6656232910E+00    0.7350010980E-03
    0.2500000000E+08    0.5051453592E-06    0.6953327761E+00    0.4324913867E-03    0.6657423766E+00    0.7384124483E-03
    0.2700000000E+08    0.4734110959E-06    0.6953297838E+00    0.4000954962E-03    0.6658438048E+00    0.7415751506E-03
