  Pressure (Pa) 22mC5-500 (mol/kg) 24mC5-500 (mol/kg) 2mC6-500 (mol/kg) 3mC6-500 (mol/kg) C7-500 (mol/kg)
    0.1000000000E+01    0.1061873740E-04    0.3665794162E-01    0.2441865250E-04    0.2319276728E-05    0.4208402243E-02
    0.3000000000E+01    0.2805039534E-04    0.9947109493E-01    0.6306711322E-04    0.5960891945E-05    0.4291944529E-02
    0.5000000000E+01    0.4183083638E-04    0.1513333408E+00    0.9250198937E-04    0.9318652070E-05    0.4358941975E-02
    0.7000000000E+01    0.5293636715E-04    0.1948795410E+00    0.1154099437E-03    0.1253988839E-04    0.4415153702E-02
    0.9000000000E+01    0.6202504483E-04    0.2319619624E+00    0.1335480393E-03    0.1567445502E-04    0.4463136814E-02
    0.1100000000E+02    0.6956126133E-04    0.2639207540E+00    0.1481292219E-03    0.1874733663E-04    0.4504622074E-02
    0.1300000000E+02    0.7588205750E-04    0.2917494986E+00    0.1600155812E-03    0.2177341923E-04    0.4540869456E-02
    0.1500000000E+02    0.8123752610E-04    0.3162004431E+00    0.1698334671E-03    0.2476251924E-04    0.4572826953E-02
    0.1700000000E+02    0.8581673275E-04    0.3378535813E+00    0.1780462709E-03    0.2772156207E-04    0.4601223966E-02
    0.1900000000E+02    0.8976492548E-04    0.3571632909E+00    0.1850021546E-03    0.3065567578E-04    0.4626631760E-02
    0.2100000000E+02    0.9319527383E-04    0.3744905969E+00    0.1909662293E-03    0.3356879866E-04    0.4649504490E-02
    0.2300000000E+02    0.9619706049E-04    0.3901259761E+00    0.1961427502E-03    0.3646404290E-04    0.4670207950E-02
    0.2500000000E+02    0.9884151181E-04    0.4043057883E+00    0.2006907265E-03    0.3934392503E-04    0.4689040176E-02
    0.2700000000E+02    0.1011860204E-03    0.4172243191E+00    0.2047350899E-03    0.4221051879E-04    0.4706246516E-02
    0.2900000000E+02    0.1032772517E-03    0.4290427440E+00    0.2083748075E-03    0.4506556033E-04    0.4722030829E-02
    0.3100000000E+02    0.1051534610E-03    0.4398958938E+00    0.2116888559E-03    0.4791052293E-04    0.4736563939E-02
    0.3300000000E+02    0.1068462443E-03    0.4498974268E+00    0.2147406748E-03    0.5074667140E-04    0.4749990088E-02
    0.3500000000E+02    0.1083818769E-03    0.4591438280E+00    0.2175815241E-03    0.5357510265E-04    0.4762431939E-02
    0.3700000000E+02    0.1097823462E-03    0.4677175348E+00    0.2202530411E-03    0.5639677648E-04    0.4773994483E-02
    0.3900000000E+02    0.1110661588E-03    0.4756894041E+00    0.2227892052E-03    0.5921253941E-04    0.4784768120E-02
    0.4100000000E+02    0.1122489742E-03    0.4831206772E+00    0.2252178627E-03    0.6202314334E-04    0.4794831125E-02
    0.4300000000E+02    0.1133441089E-03    0.4900645571E+00    0.2275619167E-03    0.6482926037E-04    0.4804251621E-02
    0.4500000000E+02    0.1143629387E-03    0.4965674862E+00    0.2298402656E-03    0.6763149476E-04    0.4813089180E-02
    0.4700000000E+02    0.1153152228E-03    0.5026701868E+00    0.2320685454E-03    0.7043039263E-04    0.4821396133E-02
    0.4900000000E+02    0.1162093674E-03    0.5084085156E+00    0.2342597230E-03    0.7322644992E-04    0.4829218643E-02
    0.1000000000E+02    0.6596372425E-04    0.2485130443E+00    0.1412227548E-03    0.1721751954E-04    0.4484604201E-02
    0.3000000000E+02    0.1042401206E-03    0.4345824301E+00    0.2100682551E-03    0.4648921809E-04    0.4729444211E-02
    0.5000000000E+02    0.1166369477E-03    0.5111510915E+00    0.2353448398E-03    0.7462355625E-04    0.4832961192E-02
    0.7000000000E+02    0.1234614964E-03    0.5529133984E+00    0.2569103337E-03    0.1025085400E-03    0.4890196917E-02
    0.9000000000E+02    0.1288378083E-03    0.5792100278E+00    0.2801419306E-03    0.1304557562E-03    0.4926246040E-02
    0.1100000000E+03    0.1339541955E-03    0.5972907411E+00    0.3057283203E-03    0.1586295942E-03    0.4950694280E-02
    0.1300000000E+03    0.1392138711E-03    0.6104860675E+00    0.3335318673E-03    0.1871353481E-03    0.4968025121E-02
    0.1500000000E+03    0.1447624206E-03    0.6205405391E+00    0.3633013940E-03    0.2160492575E-03    0.4980627553E-02
    0.1700000000E+03    0.1506504307E-03    0.6284563686E+00    0.3948164293E-03    0.2454315219E-03    0.4989896477E-02
    0.1900000000E+03    0.1568914216E-03    0.6348503387E+00    0.4279086542E-03    0.2753328360E-03    0.4996703524E-02
    0.2100000000E+03    0.1634845388E-03    0.6401228447E+00    0.4624563446E-03    0.3057980304E-03    0.5001622550E-02
    0.2300000000E+03    0.1704239839E-03    0.6445451419E+00    0.4983746190E-03    0.3368682645E-03    0.5005047300E-02
    0.2500000000E+03    0.1777030474E-03    0.6483075279E+00    0.5356067982E-03    0.3685824323E-03    0.5007257078E-02
    0.2700000000E+03    0.1853158183E-03    0.6515474495E+00    0.5741177347E-03    0.4009781149E-03    0.5008455460E-02
    0.2900000000E+03    0.1932578605E-03    0.6543666600E+00    0.6138888864E-03    0.4340922551E-03    0.5008794171E-02
    0.3100000000E+03    0.2015264234E-03    0.6568420998E+00    0.6549147320E-03    0.4679616587E-03    0.5008388377E-02
    0.3300000000E+03    0.2101204475E-03    0.6590330252E+00    0.6972001714E-03    0.5026233814E-03    0.5007326801E-02
    0.3500000000E+03    0.2190404860E-03    0.6609858137E+00    0.7407586384E-03    0.5381150406E-03    0.5005678604E-02
    0.3700000000E+03    0.2282885989E-03    0.6627372822E+00    0.7856107300E-03    0.5744750760E-03    0.5003498187E-02
    0.3900000000E+03    0.2378682472E-03    0.6643170301E+00    0.8317832111E-03    0.6117429756E-03    0.5000828600E-02
    0.4100000000E+03    0.2477841970E-03    0.6657491254E+00    0.8793082956E-03    0.6499594792E-03    0.4997704020E-02
    0.4300000000E+03    0.2580424396E-03    0.6670533391E+00    0.9282231343E-03    0.6891667663E-03    0.4994151580E-02
    0.4500000000E+03    0.2686501273E-03    0.6682460632E+00    0.9785694584E-03    0.7294086349E-03    0.4990192728E-02
    0.4700000000E+03    0.2796155248E-03    0.6693410029E+00    0.1030393343E-02    0.7707306759E-03    0.4985844266E-02
    0.4900000000E+03    0.2909479749E-03    0.6703497058E+00    0.1083745066E-02    0.8131804463E-03    0.4981119137E-02
    0.1000000000E+03    0.1313940109E-03    0.5890162908E+00    0.2926432362E-03    0.1445068603E-03    0.4939570514E-02
    0.3000000000E+03    0.1973514320E-03    0.6556432984E+00    0.6342448854E-03    0.4509302428E-03    0.5008678266E-02
    0.5000000000E+03    0.2967550537E-03    0.6708248394E+00    0.1111010710E-02    0.8348436720E-03    0.4978618467E-02
    0.7000000000E+03    0.4353539356E-03    0.6775472127E+00    0.1752435167E-02    0.1341076325E-02    0.4909843685E-02
    0.9000000000E+03    0.6305582687E-03    0.6813388945E+00    0.2642011779E-02    0.2039255824E-02    0.4801488862E-02
    0.1100000000E+04    0.9159880494E-03    0.6837727315E+00    0.3933756020E-02    0.3051789081E-02    0.4637578582E-02
    0.1300000000E+04    0.1355598499E-02    0.6854669373E+00    0.5917890821E-02    0.4607893918E-02    0.4384571813E-02
    0.1500000000E+04    0.2071842546E-02    0.6867139257E+00    0.9150207337E-02    0.7147171289E-02    0.3979674223E-02
    0.1700000000E+04    0.3269277304E-02    0.6876699405E+00    0.1456502504E-01    0.1141343108E-01    0.3328241126E-02
    0.1900000000E+04    0.5060900988E-02    0.6884260500E+00    0.2270606328E-01    0.1786060094E-01    0.2420752628E-02
    0.2100000000E+04    0.6894832597E-02    0.6890389195E+00    0.3112690313E-01    0.2459744903E-01    0.1618109633E-02
    0.2300000000E+04    0.8089571414E-02    0.6895456537E+00    0.3673702109E-01    0.2918046832E-01    0.1246176185E-02
    0.2500000000E+04    0.8811801040E-02    0.6899715653E+00    0.4024883290E-01    0.3214006424E-01    0.1138683488E-02
    0.2700000000E+04    0.9353272623E-02    0.6903345143E+00    0.4296563819E-01    0.3449194033E-01    0.1115177355E-02
    0.2900000000E+04    0.9828101731E-02    0.6906474622E+00    0.4540037097E-01    0.3663837768E-01    0.1112934163E-02
    0.3100000000E+04    0.1026927401E-01    0.6909200433E+00    0.4770101486E-01    0.3869530618E-01    0.1115649132E-02
    0.3300000000E+04    0.1068627557E-01    0.6911595677E+00    0.4990925002E-01    0.4069477593E-01    0.1119370979E-02
    0.3500000000E+04    0.1108239730E-01    0.6913716824E+00    0.5203865978E-01    0.4264660095E-01    0.1123163988E-02
    0.3700000000E+04    0.1145928504E-01    0.6915608183E+00    0.5409540733E-01    0.4455474465E-01    0.1126818447E-02
    0.3900000000E+04    0.1181810907E-01    0.6917305011E+00    0.5608357248E-01    0.4642156712E-01    0.1130298773E-02
    0.4100000000E+04    0.1215986785E-01    0.6918835709E+00    0.5800653903E-01    0.4824893113E-01    0.1133609973E-02
    0.4300000000E+04    0.1248547018E-01    0.6920223411E+00    0.5986736650E-01    0.5003849637E-01    0.1136765229E-02
    0.4500000000E+04    0.1279576010E-01    0.6921487153E+00    0.6166889829E-01    0.5179180227E-01    0.1139778173E-02
    0.4700000000E+04    0.1309152648E-01    0.6922642737E+00    0.6341379986E-01    0.5351029471E-01    0.1142661206E-02
    0.4900000000E+04    0.1337350849E-01    0.6923703394E+00    0.6510457774E-01    0.5519533756E-01    0.1145425296E-02
    0.1000000000E+04    0.7589596171E-03    0.6826755192E+00    0.3223817426E-02    0.2495326785E-02    0.4728058042E-02
    0.3000000000E+04    0.1005205665E-01    0.6907882962E+00    0.4656373578E-01    0.3767514653E-01    0.1114041086E-02
    0.5000000000E+04    0.1350954875E-01    0.6924201682E+00    0.6593041340E-01    0.5602572096E-01    0.1146765804E-02
    0.7000000000E+04    0.1565410114E-01    0.6931155596E+00    0.8011196545E-01    0.7115588477E-01    0.1169160506E-02
    0.9000000000E+04    0.1699519713E-01    0.6934988234E+00    0.9087942176E-01    0.8405166214E-01    0.1186007678E-02
    0.1100000000E+05    0.1782066679E-01    0.6937405377E+00    0.9927656276E-01    0.9531312222E-01    0.1199557495E-02
    0.1300000000E+05    0.1830371604E-01    0.6939062780E+00    0.1059616715E+00    0.1053318398E+00    0.1210913708E-02
    0.1500000000E+05    0.1855344198E-01    0.6940266038E+00    0.1113703993E+00    0.1143757021E+00    0.1220701842E-02
    0.1700000000E+05    0.1864112368E-01    0.6941176625E+00    0.1158025541E+00    0.1226351470E+00    0.1229311498E-02
    0.1900000000E+05    0.1861474062E-01    0.6941887822E+00    0.1194712417E+00    0.1302499251E+00    0.1237002142E-02
    0.2100000000E+05    0.1850739108E-01    0.6942457233E+00    0.1225321161E+00    0.1373253702E+00    0.1243955451E-02
    0.2300000000E+05    0.1834237691E-01    0.6942922328E+00    0.1251015343E+00    0.1439427069E+00    0.1250303689E-02
    0.2500000000E+05    0.1813638287E-01    0.6943308518E+00    0.1272682326E+00    0.1501658127E+00    0.1256146204E-02
    0.2700000000E+05    0.1790152446E-01    0.6943633635E+00    0.1291010704E+00    0.1560457916E+00    0.1261559549E-02
    0.2900000000E+05    0.1764670127E-01    0.6943910552E+00    0.1306543046E+00    0.1616241475E+00    0.1266603989E-02
    0.3100000000E+05    0.1737851173E-01    0.6944148795E+00    0.1319712673E+00    0.1669350396E+00    0.1271327828E-02
    0.3300000000E+05    0.1710188369E-01    0.6944355556E+00    0.1330869837E+00    0.1720069174E+00    0.1275770394E-02
    0.3500000000E+05    0.1682051679E-01    0.6944536367E+00    0.1340300711E+00    0.1768637276E+00    0.1279964140E-02
    0.3700000000E+05    0.1653719769E-01    0.6944695550E+00    0.1348241381E+00    0.1815258204E+00    0.1283936164E-02
    0.3900000000E+05    0.1625402781E-01    0.6944836530E+00    0.1354888333E+00    0.1860106395E+00    0.1287709331E-02
    0.4100000000E+05    0.1597258994E-01    0.6944962055E+00    0.1360406393E+00    0.1903332553E+00    0.1291303113E-02
    0.4300000000E+05    0.1569407147E-01    0.6945074353E+00    0.1364934839E+00    0.1945067809E+00    0.1294734233E-02
    0.4500000000E+05    0.1541935655E-01    0.6945175251E+00    0.1368592140E+00    0.1985427013E+00    0.1298017162E-02
    0.4700000000E+05    0.1514909552E-01    0.6945266260E+00    0.1371479683E+00    0.2024511364E+00    0.1301164503E-02
    0.4900000000E+05    0.1488375769E-01    0.6945348639E+00    0.1373684721E+00    0.2062410521E+00    0.1304187307E-02
    0.1000000000E+05    0.1745962886E-01    0.6936320446E+00    0.9532652278E-01    0.8985857246E-01    0.1193110079E-02
    0.3000000000E+05    0.1751393608E-01    0.6944034013E+00    0.1313399613E+00    0.1643111305E+00    0.1269003343E-02
    0.5000000000E+05    0.1475304231E-01    0.6945386930E+00    0.1374555293E+00    0.2080940948E+00    0.1305655097E-02
    0.7000000000E+05    0.1243136312E-01    0.6945885434E+00    0.1369991710E+00    0.2404835132E+00    0.1330330149E-02
    0.9000000000E+05    0.1061866262E-01    0.6946116555E+00    0.1343453645E+00    0.2665564183E+00    0.1349048858E-02
    0.1100000000E+06    0.9194559551E-02    0.6946234069E+00    0.1308689845E+00    0.2884859355E+00    0.1364177388E-02
    0.1300000000E+06    0.8056279171E-02    0.6946294718E+00    0.1271125371E+00    0.3074352718E+00    0.1376897057E-02
    0.1500000000E+06    0.7130366384E-02    0.6946323852E+00    0.1233171112E+00    0.3241135772E+00    0.1387884844E-02
    0.1700000000E+06    0.6365257739E-02    0.6946334297E+00    0.1195961262E+00    0.3389915814E+00    0.1397565653E-02
    0.1900000000E+06    0.5724297648E-02    0.6946333127E+00    0.1160031990E+00    0.3524010176E+00    0.1406224059E-02
    0.2100000000E+06    0.5180915205E-02    0.6946324504E+00    0.1125620204E+00    0.3645862414E+00    0.1414060182E-02
    0.2300000000E+06    0.4715458797E-02    0.6946311000E+00    0.1092806773E+00    0.3757334652E+00    0.1421220212E-02
    0.2500000000E+06    0.4313117842E-02    0.6946294267E+00    0.1061589622E+00    0.3859884547E+00    0.1427814256E-02
    0.2700000000E+06    0.3962537537E-02    0.6946275397E+00    0.1031922774E+00    0.3954678203E+00    0.1433927353E-02
    0.2900000000E+06    0.3654877555E-02    0.6946255132E+00    0.1003737906E+00    0.4042665348E+00    0.1439626573E-02
    0.3100000000E+06    0.3383159650E-02    0.6946233985E+00    0.9769565079E-01    0.4124631190E+00    0.1444965766E-02
    0.3300000000E+06    0.3141806818E-02    0.6946212314E+00    0.9514967989E-01    0.4201233259E+00    0.1449988833E-02
    0.3500000000E+06    0.2926311977E-02    0.6946190376E+00    0.9272776531E-01    0.4273028248E+00    0.1454732046E-02
    0.3700000000E+06    0.2732995849E-02    0.6946168353E+00    0.9042207747E-01    0.4340492000E+00    0.1459225725E-02
    0.3900000000E+06    0.2558827358E-02    0.6946146376E+00    0.8822518383E-01    0.4404034675E+00    0.1463495474E-02
    0.4100000000E+06    0.2401288580E-02    0.6946124541E+00    0.8613010115E-01    0.4464012442E+00    0.1467563121E-02
    0.4300000000E+06    0.2258271905E-02    0.6946102915E+00    0.8413031120E-01    0.4520736645E+00    0.1471447422E-02
    0.4500000000E+06    0.2128000827E-02    0.6946081547E+00    0.8221975490E-01    0.4574481058E+00    0.1475164620E-02
    0.4700000000E+06    0.2008968276E-02    0.6946060469E+00    0.8039281434E-01    0.4625487716E+00    0.1478728871E-02
    0.4900000000E+06    0.1899888156E-02    0.6946039705E+00    0.7864428829E-01    0.4673971631E+00    0.1482152592E-02
    0.1000000000E+06    0.9865208255E-02    0.6946184852E+00    0.1326656662E+00    0.2779518659E+00    0.1356971608E-02
    0.3000000000E+06    0.3514902849E-02    0.6946244644E+00    0.9901768647E-01    0.4084357198E+00    0.1442338227E-02
    0.5000000000E+06    0.1848729145E-02    0.6946029446E+00    0.7779791252E-01    0.4697328331E+00    0.1483815227E-02
    0.7000000000E+06    0.1148228957E-02    0.6945841939E+00    0.6399767845E-01    0.5069314048E+00    0.1511780201E-02
    0.9000000000E+06    0.7844802239E-03    0.6945684424E+00    0.5433754842E-01    0.5321674572E+00    0.1533008983E-02
    0.1100000000E+07    0.5706128917E-03    0.6945549898E+00    0.4720102852E-01    0.5504813669E+00    0.1550172732E-02
    0.1300000000E+07    0.4339770528E-03    0.6945432799E+00    0.4171416099E-01    0.5644011424E+00    0.1564607098E-02
    0.1500000000E+07    0.3412938433E-03    0.6945329203E+00    0.3736452971E-01    0.5753479966E+00    0.1577078224E-02
    0.1700000000E+07    0.2755028341E-03    0.6945236326E+00    0.3383200691E-01    0.5841863795E+00    0.1588067289E-02
    0.1900000000E+07    0.2271028834E-03    0.6945152147E+00    0.3090630913E-01    0.5914737353E+00    0.1597896705E-02
    0.2100000000E+07    0.1904540289E-03    0.6945075161E+00    0.2844360346E-01    0.5975862481E+00    0.1606793280E-02
    0.2300000000E+07    0.1620336932E-03    0.6945004219E+00    0.2634217791E-01    0.6027872251E+00    0.1614922744E-02
    0.2500000000E+07    0.1395483974E-03    0.6944938426E+00    0.2452807294E-01    0.6072665949E+00    0.1622409948E-02
    0.2700000000E+07    0.1214522477E-03    0.6944877074E+00    0.2294622003E-01    0.6111648613E+00    0.1629351337E-02
    0.2900000000E+07    0.1066721946E-03    0.6944819589E+00    0.2155477220E-01    0.6145882281E+00    0.1635822988E-02
    0.3100000000E+07    0.9444437481E-04    0.6944765502E+00    0.2032136097E-01    0.6176184801E+00    0.1641885989E-02
    0.3300000000E+07    0.8421297509E-04    0.6944714427E+00    0.1922055688E-01    0.6203196279E+00    0.1647590149E-02
    0.3500000000E+07    0.7556571663E-04    0.6944666038E+00    0.1823210496E-01    0.6227424934E+00    0.1652976623E-02
    0.3700000000E+07    0.6819154386E-04    0.6944620060E+00    0.1733967257E-01    0.6249279427E+00    0.1658079815E-02
    0.3900000000E+07    0.6185218858E-04    0.6944576260E+00    0.1652994409E-01    0.6269092119E+00    0.1662928785E-02
    0.4100000000E+07    0.5636264014E-04    0.6944534434E+00    0.1579195521E-01    0.6287136095E+00    0.1667548302E-02
    0.4300000000E+07    0.5157746905E-04    0.6944494409E+00    0.1511659609E-01    0.6303637818E+00    0.1671959657E-02
    0.4500000000E+07    0.4738108084E-04    0.6944456033E+00    0.1449623530E-01    0.6318786681E+00    0.1676181283E-02
    0.4700000000E+07    0.4368065990E-04    0.6944419171E+00    0.1392443177E-01    0.6332742287E+00    0.1680229249E-02
    0.4900000000E+07    0.4040098673E-04    0.6944383705E+00    0.1339571147E-01    0.6345640094E+00    0.1684117649E-02
    0.1000000000E+07    0.6647311772E-03    0.6945614679E+00    0.5051987774E-01    0.5419957899E+00    0.1541996937E-02
    0.3000000000E+07    0.1002779789E-03    0.6944792147E+00    0.2092004029E-01    0.6161481379E+00    0.1638902227E-02
    0.5000000000E+07    0.3889926592E-04    0.6944366463E+00    0.1314601751E-01    0.6351729152E+00    0.1686005955E-02
    0.7000000000E+07    0.2064555169E-04    0.6944074791E+00    0.9568857634E-02    0.6438823875E+00    0.1717767648E-02
    0.9000000000E+07    0.1285317669E-04    0.6943851664E+00    0.7515025552E-02    0.6488722903E+00    0.1741879536E-02
    0.1100000000E+08    0.8818772189E-05    0.6943670435E+00    0.6183315465E-02    0.6521041970E+00    0.1761374703E-02
    0.1300000000E+08    0.6460932829E-05    0.6943517555E+00    0.5250310304E-02    0.6543670691E+00    0.1777769928E-02
    0.1500000000E+08    0.4962911509E-05    0.6943385175E+00    0.4560526343E-02    0.6560394097E+00    0.1791935310E-02
    0.1700000000E+08    0.3951120834E-05    0.6943268329E+00    0.4029972364E-02    0.6573254085E+00    0.1804417338E-02
    0.1900000000E+08    0.3234993296E-05    0.6943163674E+00    0.3609310019E-02    0.6583449006E+00    0.1815582198E-02
    0.2100000000E+08    0.2709027917E-05    0.6943068848E+00    0.3267660700E-02    0.6591728354E+00    0.1825687493E-02
    0.2300000000E+08    0.2310965629E-05    0.6942982119E+00    0.2984714421E-02    0.6598584858E+00    0.1834921462E-02
    0.2500000000E+08    0.2002131644E-05    0.6942902181E+00    0.2746566723E-02    0.6604355721E+00    0.1843425915E-02
    0.2700000000E+08    0.1757467265E-05    0.6942828020E+00    0.2543379162E-02    0.6609279471E+00    0.1851310396E-02
