  Pressure (Pa) 22mC5-500 (mol/kg) 24mC5-500 (mol/kg) 2mC6-500 (mol/kg) 3mC6-500 (mol/kg) C7-500 (mol/kg)
    0.1000000000E+01    0.1059912377E-04    0.3665864096E-01    0.6952771632E-05    0.5265260543E-05    0.4218672067E-02
    0.3000000000E+01    0.2800801948E-04    0.9947595377E-01    0.1796680171E-04    0.1358538444E-04    0.4317667430E-02
    0.5000000000E+01    0.4177004699E-04    0.1513439523E+00    0.2635342508E-04    0.2127264789E-04    0.4397896250E-02
    0.7000000000E+01    0.5285916177E-04    0.1948961446E+00    0.3287762220E-04    0.2865645082E-04    0.4465331125E-02
    0.9000000000E+01    0.6193261759E-04    0.2319841572E+00    0.3804054108E-04    0.3584845682E-04    0.4522937738E-02
    0.1100000000E+02    0.6945443633E-04    0.2639478609E+00    0.4218833513E-04    0.4290467496E-04    0.4572765531E-02
    0.1300000000E+02    0.7576146994E-04    0.2917807463E+00    0.4556710240E-04    0.4985849478E-04    0.4616316254E-02
    0.1500000000E+02    0.8110370983E-04    0.3162350615E+00    0.4835567703E-04    0.5673194433E-04    0.4654722973E-02
    0.1700000000E+02    0.8567016567E-04    0.3378908473E+00    0.5068638077E-04    0.6354057024E-04    0.4688858750E-02
    0.1900000000E+02    0.8960605410E-04    0.3572025480E+00    0.5265863893E-04    0.7029588855E-04    0.4719407939E-02
    0.2100000000E+02    0.9302452677E-04    0.3745312610E+00    0.5434816324E-04    0.7700674682E-04    0.4746914901E-02
    0.2300000000E+02    0.9601485603E-04    0.3901675343E+00    0.5581328720E-04    0.8368013955E-04    0.4771818247E-02
    0.2500000000E+02    0.9864826200E-04    0.4043477943E+00    0.5709942268E-04    0.9032172501E-04    0.4794475441E-02
    0.2700000000E+02    0.1009821334E-03    0.4172663873E+00    0.5824224889E-04    0.9693616813E-04    0.4815180811E-02
    0.2900000000E+02    0.1030631330E-03    0.4290845425E+00    0.5927002916E-04    0.1035273765E-03    0.4834178953E-02
    0.3100000000E+02    0.1049295139E-03    0.4399371387E+00    0.6020531714E-04    0.1100986681E-03    0.4851674849E-02
    0.3300000000E+02    0.1066128705E-03    0.4499378756E+00    0.6106622870E-04    0.1166528932E-03    0.4867841606E-02
    0.3500000000E+02    0.1081394760E-03    0.4591832748E+00    0.6186740091E-04    0.1231925256E-03    0.4882826443E-02
    0.3700000000E+02    0.1095313166E-03    0.4677558050E+00    0.6262072232E-04    0.1297197315E-03    0.4896755377E-02
    0.3900000000E+02    0.1108068967E-03    0.4757263508E+00    0.6333589440E-04    0.1362364230E-03    0.4909736920E-02
    0.4100000000E+02    0.1119818745E-03    0.4831561770E+00    0.6402086680E-04    0.1427443004E-03    0.4921865034E-02
    0.4300000000E+02    0.1130695645E-03    0.4900985074E+00    0.6468217756E-04    0.1492448847E-03    0.4933221495E-02
    0.4500000000E+02    0.1140813408E-03    0.4965998018E+00    0.6532522094E-04    0.1557395452E-03    0.4943877822E-02
    0.4700000000E+02    0.1150269611E-03    0.5027007981E+00    0.6595445963E-04    0.1622295207E-03    0.4953896838E-02
    0.4900000000E+02    0.1159148296E-03    0.5084373660E+00    0.6657359412E-04    0.1687159376E-03    0.4963333964E-02
    0.1000000000E+02    0.6586400970E-04    0.2485377888E+00    0.4022406207E-04    0.3939110178E-04    0.4548719857E-02
    0.3000000000E+02    0.1040210375E-03    0.4346239846E+00    0.5974801096E-04    0.1068153240E-03    0.4843103193E-02
    0.5000000000E+02    0.1163394169E-03    0.5111790441E+00    0.6688035427E-04    0.1719581366E-03    0.4967849878E-02
    0.7000000000E+02    0.1231241271E-03    0.5529224894E+00    0.7300176937E-04    0.2368251900E-03    0.5037005434E-02
    0.9000000000E+02    0.1284981891E-03    0.5792011302E+00    0.7964641069E-04    0.3021305175E-03    0.5080698935E-02
    0.1100000000E+03    0.1336498588E-03    0.5972659676E+00    0.8701095470E-04    0.3682595910E-03    0.5110439878E-02
    0.1300000000E+03    0.1389830922E-03    0.6104475493E+00    0.9505717890E-04    0.4354669502E-03    0.5131611249E-02
    0.1500000000E+03    0.1446448078E-03    0.6204901398E+00    0.1037151840E-03    0.5039436000E-03    0.5147080889E-02
    0.1700000000E+03    0.1506873740E-03    0.6283956518E+00    0.1129243961E-03    0.5738462411E-03    0.5158522800E-02
    0.1900000000E+03    0.1571264626E-03    0.6347806020E+00    0.1226395876E-03    0.6453119985E-03    0.5166982482E-02
    0.2100000000E+03    0.1639636941E-03    0.6400451653E+00    0.1328292381E-03    0.7184666789E-03    0.5173147711E-02
    0.2300000000E+03    0.1711960480E-03    0.6444604186E+00    0.1434727242E-03    0.7934297995E-03    0.5177489809E-02
    0.2500000000E+03    0.1788198876E-03    0.6482165158E+00    0.1545578467E-03    0.8703178720E-03    0.5180342507E-02
    0.2700000000E+03    0.1868326717E-03    0.6514507876E+00    0.1660789301E-03    0.9492466836E-03    0.5181948416E-02
    0.2900000000E+03    0.1952336395E-03    0.6542648933E+00    0.1780354288E-03    0.1030332977E-02    0.5182487694E-02
    0.3100000000E+03    0.2040240360E-03    0.6567356962E+00    0.1904309235E-03    0.1113695753E-02    0.5182096394E-02
    0.3300000000E+03    0.2132071349E-03    0.6589223898E+00    0.2032724027E-03    0.1199457344E-02    0.5180878605E-02
    0.3500000000E+03    0.2227881828E-03    0.6608712987E+00    0.2165697532E-03    0.1287744333E-02    0.5178914701E-02
    0.3700000000E+03    0.2327743189E-03    0.6626191962E+00    0.2303354021E-03    0.1378688380E-02    0.5176267088E-02
    0.3900000000E+03    0.2431744979E-03    0.6641956449E+00    0.2445840705E-03    0.1472427001E-02    0.5172984283E-02
    0.4100000000E+03    0.2539994269E-03    0.6656246816E+00    0.2593326110E-03    0.1569104312E-02    0.5169103876E-02
    0.4300000000E+03    0.2652615221E-03    0.6669260506E+00    0.2745999081E-03    0.1668871778E-02    0.5164654692E-02
    0.4500000000E+03    0.2769748845E-03    0.6681161211E+00    0.2904068288E-03    0.1771888964E-02    0.5159658415E-02
    0.4700000000E+03    0.2891552962E-03    0.6692085789E+00    0.3067762131E-03    0.1878324314E-02    0.5154130797E-02
    0.4900000000E+03    0.3018202347E-03    0.6702149543E+00    0.3237328964E-03    0.1988355968E-02    0.5148082585E-02
    0.1000000000E+03    0.1310673109E-03    0.5889991779E+00    0.8323935026E-04    0.3350741825E-03    0.5096893537E-02
    0.3000000000E+03    0.1995800017E-03    0.6555391590E+00    0.1841779380E-03    0.1071722248E-02    0.5182401223E-02
    0.5000000000E+03    0.3083403348E-03    0.6706889774E+00    0.3324397941E-03    0.2044778938E-02    0.5144865422E-02
    0.7000000000E+03    0.4700383504E-03    0.6773945019E+00    0.5453933538E-03    0.3416232652E-02    0.5052823561E-02
    0.9000000000E+03    0.7177968267E-03    0.6811754639E+00    0.8671422764E-03    0.5478624873E-02    0.4895920919E-02
    0.1100000000E+04    0.1122592709E-02    0.6836017389E+00    0.1389940880E-02    0.8828234955E-02    0.4633143876E-02
    0.1300000000E+04    0.1838189298E-02    0.6852902433E+00    0.2313178286E-02    0.1475277653E-01    0.4174255637E-02
    0.1500000000E+04    0.3151061992E-02    0.6865327290E+00    0.4010841327E-02    0.2568453504E-01    0.3368493393E-02
    0.1700000000E+04    0.5117918984E-02    0.6874850646E+00    0.6571324881E-02    0.4228781799E-01    0.2272533450E-02
    0.1900000000E+04    0.6740976183E-02    0.6882380887E+00    0.8720325762E-02    0.5644994535E-01    0.1559735435E-02
    0.2100000000E+04    0.7621087168E-02    0.6888483173E+00    0.9929075173E-02    0.6468492844E-01    0.1357785256E-02
    0.2300000000E+04    0.8205293591E-02    0.6893527534E+00    0.1076467989E-01    0.7058030146E-01    0.1323262702E-02
    0.2500000000E+04    0.8701849203E-02    0.6897766381E+00    0.1149442327E-01    0.7584692357E-01    0.1322291468E-02
    0.2700000000E+04    0.9159650025E-02    0.6901377789E+00    0.1218102997E-01    0.8088650023E-01    0.1327045740E-02
    0.2900000000E+04    0.9589581448E-02    0.6904490981E+00    0.1283807525E-01    0.8578388288E-01    0.1332484628E-02
    0.3100000000E+04    0.9994895845E-02    0.6907202002E+00    0.1346923282E-01    0.9055984798E-01    0.1337744646E-02
    0.3300000000E+04    0.1037729799E-01    0.6909583722E+00    0.1407618951E-01    0.9522240469E-01    0.1342707006E-02
    0.3500000000E+04    0.1073812427E-01    0.6911692422E+00    0.1466018657E-01    0.9977683828E-01    0.1347381415E-02
    0.3700000000E+04    0.1107857497E-01    0.6913572266E+00    0.1522232294E-01    0.1042276860E+00    0.1351795892E-02
    0.3900000000E+04    0.1139976403E-01    0.6915258388E+00    0.1576361839E-01    0.1085791401E+00    0.1355977661E-02
    0.4100000000E+04    0.1170273317E-01    0.6916779089E+00    0.1628502974E-01    0.1128351417E+00    0.1359950453E-02
    0.4300000000E+04    0.1198845869E-01    0.6918157421E+00    0.1678745737E-01    0.1169994122E+00    0.1363734637E-02
    0.4500000000E+04    0.1225785647E-01    0.6919412350E+00    0.1727174965E-01    0.1210754708E+00    0.1367347747E-02
    0.4700000000E+04    0.1251178637E-01    0.6920559619E+00    0.1773870668E-01    0.1250666488E+00    0.1370804970E-02
    0.4900000000E+04    0.1275105620E-01    0.6921612408E+00    0.1818908359E-01    0.1289761027E+00    0.1374119542E-02
    0.1000000000E+04    0.8936771470E-03    0.6825080155E+00    0.1094485338E-02    0.6934957187E-02    0.4781881285E-02
    0.3000000000E+04    0.9795195052E-02    0.6905891756E+00    0.1315676687E-01    0.8818643085E-01    0.1335150165E-02
    0.5000000000E+04    0.1286543270E-01    0.6922106916E+00    0.1840827896E-01    0.1309011243E+00    0.1375727017E-02
    0.7000000000E+04    0.1454529278E-01    0.6929000762E+00    0.2207551840E-01    0.1657616811E+00    0.1402581974E-02
    0.9000000000E+04    0.1539269717E-01    0.6932791430E+00    0.2469517273E-01    0.1950608858E+00    0.1422784796E-02
    0.1100000000E+05    0.1572627289E-01    0.6935176393E+00    0.2659127773E-01    0.2202375258E+00    0.1439033602E-02
    0.1300000000E+05    0.1573678624E-01    0.6936807719E+00    0.2797038396E-01    0.2422451774E+00    0.1452651910E-02
    0.1500000000E+05    0.1554271722E-01    0.6937989052E+00    0.2897001649E-01    0.2617444524E+00    0.1464389806E-02
    0.1700000000E+05    0.1521977283E-01    0.6938880724E+00    0.2968506551E-01    0.2792101266E+00    0.1474714485E-02
    0.1900000000E+05    0.1481739211E-01    0.6939575282E+00    0.3018296855E-01    0.2949941269E+00    0.1483937089E-02
    0.2100000000E+05    0.1436838215E-01    0.6940129835E+00    0.3051285568E-01    0.3093642675E+00    0.1492275478E-02
    0.2300000000E+05    0.1389475036E-01    0.6940581507E+00    0.3071127779E-01    0.3225290043E+00    0.1499888266E-02
    0.2500000000E+05    0.1341134432E-01    0.6940955450E+00    0.3080591736E-01    0.3346537869E+00    0.1506894587E-02
    0.2700000000E+05    0.1292818309E-01    0.6941269305E+00    0.3081806364E-01    0.3458721773E+00    0.1513386245E-02
    0.2900000000E+05    0.1245198426E-01    0.6941535796E+00    0.3076430636E-01    0.3562936067E+00    0.1519435506E-02
    0.3100000000E+05    0.1198718346E-01    0.6941764330E+00    0.3065772128E-01    0.3660089111E+00    0.1525100300E-02
    0.3300000000E+05    0.1153662635E-01    0.6941962007E+00    0.3050871675E-01    0.3750943625E+00    0.1530427789E-02
    0.3500000000E+05    0.1110204501E-01    0.6942134280E+00    0.3032564916E-01    0.3836146597E+00    0.1535456890E-02
    0.3700000000E+05    0.1068438976E-01    0.6942285409E+00    0.3011527756E-01    0.3916251845E+00    0.1540220099E-02
    0.3900000000E+05    0.1028406278E-01    0.6942418766E+00    0.2988310433E-01    0.3991737283E+00    0.1544744836E-02
    0.4100000000E+05    0.9901083770E-02    0.6942537053E+00    0.2963363378E-01    0.4063018332E+00    0.1549054453E-02
    0.4300000000E+05    0.9535208365E-02    0.6942642461E+00    0.2937057087E-01    0.4130458460E+00    0.1553169003E-02
    0.4500000000E+05    0.9186013094E-02    0.6942736785E+00    0.2909697537E-01    0.4194377565E+00    0.1557105841E-02
    0.4700000000E+05    0.8852956545E-02    0.6942821506E+00    0.2881538274E-01    0.4255058707E+00    0.1560880080E-02
    0.4900000000E+05    0.8535423451E-02    0.6942897860E+00    0.2852789977E-01    0.4312753580E+00    0.1564504973E-02
    0.1000000000E+05    0.1560961921E-01    0.6934106618E+00    0.2571872027E-01    0.2080963691E+00    0.1431301916E-02
    0.3000000000E+05    0.1221795042E-01    0.6941654319E+00    0.3071691239E-01    0.3612344555E+00    0.1522312795E-02
    0.5000000000E+05    0.8382273742E-02    0.6942933230E+00    0.2838250963E-01    0.4340552361E+00    0.1566265119E-02
    0.7000000000E+05    0.5973263625E-02    0.6943383029E+00    0.2546144176E-01    0.4783532754E+00    0.1595854849E-02
    0.9000000000E+05    0.4439790263E-02    0.6943577608E+00    0.2283020758E-01    0.5083974652E+00    0.1618301693E-02
    0.1100000000E+06    0.3418499844E-02    0.6943665783E+00    0.2059223760E-01    0.5301687343E+00    0.1636443191E-02
    0.1300000000E+06    0.2708579519E-02    0.6943701871E+00    0.1870705959E-01    0.5466852029E+00    0.1651695994E-02
    0.1500000000E+06    0.2196771205E-02    0.6943709855E+00    0.1711325212E-01    0.5596489239E+00    0.1664871939E-02
    0.1700000000E+06    0.1816339415E-02    0.6943701708E+00    0.1575528096E-01    0.5700963108E+00    0.1676480574E-02
    0.1900000000E+06    0.1526202367E-02    0.6943683939E+00    0.1458802034E-01    0.5786956214E+00    0.1686863162E-02
    0.2100000000E+06    0.1300056421E-02    0.6943660315E+00    0.1357590865E-01    0.5858974529E+00    0.1696259687E-02
    0.2300000000E+06    0.1120470476E-02    0.6943633119E+00    0.1269109380E-01    0.5920168198E+00    0.1704845458E-02
    0.2500000000E+06    0.9755417469E-03    0.6943603789E+00    0.1191168929E-01    0.5972806338E+00    0.1712752515E-02
    0.2700000000E+06    0.8569269567E-03    0.6943573250E+00    0.1122037165E-01    0.6018565129E+00    0.1720082837E-02
    0.2900000000E+06    0.7586420128E-03    0.6943542113E+00    0.1060330856E-01    0.6058709706E+00    0.1726916851E-02
    0.3100000000E+06    0.6763070109E-03    0.6943510785E+00    0.1004935345E-01    0.6094212918E+00    0.1733319135E-02
    0.3300000000E+06    0.6066579493E-03    0.6943479543E+00    0.9549442129E-02    0.6125835147E+00    0.1739342335E-02
    0.3500000000E+06    0.5472229854E-03    0.6943448569E+00    0.9096139089E-02    0.6154179309E+00    0.1745029945E-02
    0.3700000000E+06    0.4961029486E-03    0.6943417990E+00    0.8683294197E-02    0.6179729616E+00    0.1750418324E-02
    0.3900000000E+06    0.4518195160E-03    0.6943387886E+00    0.8305780745E-02    0.6202879414E+00    0.1755538179E-02
    0.4100000000E+06    0.4132082681E-03    0.6943358310E+00    0.7959293890E-02    0.6223951546E+00    0.1760415683E-02
    0.4300000000E+06    0.3793421057E-03    0.6943329295E+00    0.7640194204E-02    0.6243213463E+00    0.1765073328E-02
    0.4500000000E+06    0.3494755769E-03    0.6943300856E+00    0.7345385183E-02    0.6260888619E+00    0.1769530592E-02
    0.4700000000E+06    0.3230038447E-03    0.6943273000E+00    0.7072216548E-02    0.6277165157E+00    0.1773804451E-02
    0.4900000000E+06    0.2994320615E-03    0.6943245727E+00    0.6818407306E-02    0.6292202618E+00    0.1777909794E-02
    0.1000000000E+06    0.3880410348E-02    0.6943630521E+00    0.2166347270E-01    0.5200860148E+00    0.1627802337E-02
    0.3000000000E+06    0.7157065054E-03    0.6943526453E+00    0.1031905189E-01    0.6076989720E+00    0.1730168427E-02
    0.5000000000E+06    0.2886032754E-03    0.6943232308E+00    0.6698135186E-02    0.6299300043E+00    0.1779903437E-02
    0.7000000000E+06    0.1550059380E-03    0.6942991668E+00    0.4946482578E-02    0.6400701651E+00    0.1813435615E-02
    0.9000000000E+06    0.9669685555E-04    0.6942793847E+00    0.3916715954E-02    0.6458713455E+00    0.1838890255E-02
    0.1100000000E+07    0.6615111008E-04    0.6942626739E+00    0.3239682104E-02    0.6496265063E+00    0.1859470463E-02
    0.1300000000E+07    0.4817981583E-04    0.6942482242E+00    0.2760983719E-02    0.6522552553E+00    0.1876777861E-02
    0.1500000000E+07    0.3671929506E-04    0.6942354972E+00    0.2404765071E-02    0.6541980318E+00    0.1891731150E-02
    0.1700000000E+07    0.2896425158E-04    0.6942241232E+00    0.2129439883E-02    0.6556921905E+00    0.1904907317E-02
    0.1900000000E+07    0.2347225962E-04    0.6942138389E+00    0.1910315658E-02    0.6568769375E+00    0.1916692973E-02
    0.2100000000E+07    0.1944014136E-04    0.6942044508E+00    0.1731811531E-02    0.6578393011E+00    0.1927360081E-02
    0.2300000000E+07    0.1639188244E-04    0.6941958125E+00    0.1583613086E-02    0.6586364797E+00    0.1937107370E-02
    0.2500000000E+07    0.1403083497E-04    0.6941878109E+00    0.1458621993E-02    0.6593076116E+00    0.1946084548E-02
    0.2700000000E+07    0.1216432683E-04    0.6941803567E+00    0.1351793933E-02    0.6598803799E+00    0.1954407260E-02
    0.2900000000E+07    0.1066280568E-04    0.6941733783E+00    0.1259446236E-02    0.6603749170E+00    0.1962166729E-02
    0.3100000000E+07    0.9436555177E-05    0.6941668172E+00    0.1178827757E-02    0.6608062143E+00    0.1969436206E-02
    0.3300000000E+07    0.8421848638E-05    0.6941606253E+00    0.1107842042E-02    0.6611856639E+00    0.1976275414E-02
    0.3500000000E+07    0.7572408904E-05    0.6941547622E+00    0.1044863644E-02    0.6615220778E+00    0.1982733703E-02
    0.3700000000E+07    0.6853971705E-05    0.6941491939E+00    0.9886129592E-03    0.6618223790E+00    0.1988852325E-02
    0.3900000000E+07    0.6240727446E-05    0.6941438915E+00    0.9380689536E-03    0.6620920817E+00    0.1994666123E-02
    0.4100000000E+07    0.5712934685E-05    0.6941388301E+00    0.8924070330E-03    0.6623356322E+00    0.2000204800E-02
    0.4300000000E+07    0.5255284237E-05    0.6941339882E+00    0.8509539989E-03    0.6625566555E+00    0.2005493883E-02
    0.4500000000E+07    0.4855755707E-05    0.6941293472E+00    0.8131548504E-03    0.6627581365E+00    0.2010555474E-02
    0.4700000000E+07    0.4504804048E-05    0.6941248905E+00    0.7785479510E-03    0.6629425553E+00    0.2015408843E-02
    0.4900000000E+07    0.4194771589E-05    0.6941206037E+00    0.7467462010E-03    0.6631119895E+00    0.2020070888E-02
    0.1000000000E+07    0.7923984785E-04    0.6942707040E+00    0.3546454376E-02    0.6479305507E+00    0.1849667292E-02
    0.3000000000E+07    0.1001974442E-04    0.6941700488E+00    0.1217814713E-02    0.6605976882E+00    0.1965858709E-02
    0.5000000000E+07    0.4053114580E-05    0.6941185199E+00    0.7317930431E-03    0.6631916463E+00    0.2022334892E-02
    0.7000000000E+07    0.2341899255E-05    0.6940833010E+00    0.5220886339E-03    0.6643082492E+00    0.2060415556E-02
    0.9000000000E+07    0.1609024180E-05    0.6940563879E+00    0.4053916619E-03    0.6649295545E+00    0.2089324055E-02
    0.1100000000E+08    0.1222071175E-05    0.6940345407E+00    0.3311201378E-03    0.6653251904E+00    0.2112697145E-02
    0.1300000000E+08    0.9894137963E-06    0.6940161173E+00    0.2797251128E-03    0.6655991695E+00    0.2132353468E-02
    0.1500000000E+08    0.8365406615E-06    0.6940001677E+00    0.2420623187E-03    0.6658001092E+00    0.2149336278E-02
    0.1700000000E+08    0.7293991823E-06    0.6939860915E+00    0.2132849769E-03    0.6659537724E+00    0.2164300813E-02
    0.1900000000E+08    0.6505446234E-06    0.6939734850E+00    0.1905855202E-03    0.6660750830E+00    0.2177686124E-02
    0.2100000000E+08    0.5902438469E-06    0.6939620629E+00    0.1722256149E-03    0.6661732832E+00    0.2189801074E-02
    0.2300000000E+08    0.5426934559E-06    0.6939516166E+00    0.1570716134E-03    0.6662544016E+00    0.2200871357E-02
    0.2500000000E+08    0.5042440418E-06    0.6939419882E+00    0.1443527784E-03    0.6663225384E+00    0.2211066998E-02
    0.2700000000E+08    0.4724983532E-06    0.6939330557E+00    0.1335268902E-03    0.6663805789E+00    0.2220519335E-02
