  Pressure (Pa) 22mC5-500 (mol/kg) 24mC5-500 (mol/kg) 2mC6-500 (mol/kg) 3mC6-500 (mol/kg) C7-500 (mol/kg)
    0.1000000000E+01    0.8750022490E-05    0.1514055437E+00    0.8625857181E-05    0.7148833126E-05    0.4145708489E-02
    0.3000000000E+01    0.1709141546E-04    0.3164999747E+00    0.1608257466E-04    0.1765626132E-04    0.4171063799E-02
    0.5000000000E+01    0.2099178745E-04    0.4047759215E+00    0.1941108511E-04    0.2719704792E-04    0.4177899281E-02
    0.7000000000E+01    0.2323750734E-04    0.4597304247E+00    0.2146824757E-04    0.3628701566E-04    0.4181021004E-02
    0.9000000000E+01    0.2474291656E-04    0.4972351626E+00    0.2307784762E-04    0.4509634657E-04    0.4182606373E-02
    0.1100000000E+02    0.2587994436E-04    0.5244628564E+00    0.2452934686E-04    0.5370916403E-04    0.4183385522E-02
    0.1300000000E+02    0.2682149478E-04    0.5451287756E+00    0.2593595544E-04    0.6217510763E-04    0.4183684836E-02
    0.1500000000E+02    0.2765560878E-04    0.5613499413E+00    0.2734415392E-04    0.7052666962E-04    0.4183674684E-02
    0.1700000000E+02    0.2843012913E-04    0.5744211059E+00    0.2877281929E-04    0.7878663650E-04    0.4183453326E-02
    0.1900000000E+02    0.2917231780E-04    0.5851786418E+00    0.3022877651E-04    0.8697179793E-04    0.4183081579E-02
    0.2100000000E+02    0.2989825369E-04    0.5941868996E+00    0.3171346453E-04    0.9509499503E-04    0.4182599137E-02
    0.2300000000E+02    0.3061764940E-04    0.6018404833E+00    0.3322594793E-04    0.1031663399E-03    0.4182033010E-02
    0.2500000000E+02    0.3133645729E-04    0.6084236086E+00    0.3476432332E-04    0.1111939853E-03    0.4181402203E-02
    0.2700000000E+02    0.3205834267E-04    0.6141461808E+00    0.3632638497E-04    0.1191846325E-03    0.4180720462E-02
    0.2900000000E+02    0.3278554759E-04    0.6191665911E+00    0.3790993625E-04    0.1271438805E-03    0.4179997964E-02
    0.3100000000E+02    0.3351941265E-04    0.6236066064E+00    0.3951292773E-04    0.1350764724E-03    0.4179242394E-02
    0.3300000000E+02    0.3426070045E-04    0.6275613763E+00    0.4113350979E-04    0.1429864745E-03    0.4178459653E-02
    0.3500000000E+02    0.3500980018E-04    0.6311063295E+00    0.4277004330E-04    0.1508774098E-03    0.4177654343E-02
    0.3700000000E+02    0.3576685941E-04    0.6343020314E+00    0.4442109071E-04    0.1587523586E-03    0.4176830095E-02
    0.3900000000E+02    0.3653187018E-04    0.6371976730E+00    0.4608539857E-04    0.1666140366E-03    0.4175989811E-02
    0.4100000000E+02    0.3730472582E-04    0.6398336216E+00    0.4776187744E-04    0.1744648553E-03    0.4175135830E-02
    0.4300000000E+02    0.3808525874E-04    0.6422433144E+00    0.4944958188E-04    0.1823069706E-03    0.4174270059E-02
    0.4500000000E+02    0.3887326575E-04    0.6444546843E+00    0.5114769179E-04    0.1901423215E-03    0.4173394059E-02
    0.4700000000E+02    0.3966852504E-04    0.6464912478E+00    0.5285549571E-04    0.1979726616E-03    0.4172509123E-02
    0.4900000000E+02    0.4047080739E-04    0.6483729449E+00    0.5457237614E-04    0.2057995845E-03    0.4171616325E-02
    0.1000000000E+02    0.2534386739E-04    0.5118502014E+00    0.2381397733E-04    0.4942368583E-04    0.4183071079E-02
    0.3000000000E+02    0.3315158923E-04    0.6214526703E+00    0.3870912251E-04    0.1311132402E-03    0.4179623909E-02
    0.5000000000E+02    0.4087451049E-04    0.6492611360E+00    0.5543404959E-04    0.2097122242E-03    0.4171167265E-02
    0.7000000000E+02    0.4926610201E-04    0.6619566524E+00    0.7304652206E-04    0.2880826108E-03    0.4161928627E-02
    0.9000000000E+02    0.5816061816E-04    0.6692269453E+00    0.9125211395E-04    0.3672368524E-03    0.4152387699E-02
    0.1100000000E+03    0.6747043980E-04    0.6739373963E+00    0.1099843464E-03    0.4477278583E-03    0.4142643195E-02
    0.1300000000E+03    0.7715669646E-04    0.6772376050E+00    0.1292429376E-03    0.5299290706E-03    0.4132711381E-02
    0.1500000000E+03    0.8720514714E-04    0.6796784302E+00    0.1490506323E-03    0.6141290936E-03    0.4122584612E-02
    0.1700000000E+03    0.9761475752E-04    0.6815568835E+00    0.1694395633E-03    0.7005725559E-03    0.4112247186E-02
    0.1900000000E+03    0.1083922197E-03    0.6830472472E+00    0.1904464409E-03    0.7894807189E-03    0.4101680437E-02
    0.2100000000E+03    0.1195491884E-03    0.6842585309E+00    0.2121107909E-03    0.8810631200E-03    0.4090864488E-02
    0.2300000000E+03    0.1311008265E-03    0.6852624133E+00    0.2344743603E-03    0.9755247877E-03    0.4079778837E-02
    0.2500000000E+03    0.1430650230E-03    0.6861079619E+00    0.2575810091E-03    0.1073071093E-02    0.4068402502E-02
    0.2700000000E+03    0.1554619752E-03    0.6868298977E+00    0.2814768164E-03    0.1173911267E-02    0.4056713982E-02
    0.2900000000E+03    0.1683139812E-03    0.6874534810E+00    0.3062102900E-03    0.1278261145E-02    0.4044691152E-02
    0.3100000000E+03    0.1816453602E-03    0.6879975285E+00    0.3318326295E-03    0.1386345448E-02    0.4032311120E-02
    0.3300000000E+03    0.1954824551E-03    0.6884763445E+00    0.3583980240E-03    0.1498399810E-02    0.4019550078E-02
    0.3500000000E+03    0.2098536915E-03    0.6889009973E+00    0.3859639760E-03    0.1614672662E-02    0.4006383151E-02
    0.3700000000E+03    0.2247896800E-03    0.6892801851E+00    0.4145916501E-03    0.1735427062E-02    0.3992784230E-02
    0.3900000000E+03    0.2403233515E-03    0.6896208382E+00    0.4443462476E-03    0.1860942535E-02    0.3978725810E-02
    0.4100000000E+03    0.2564901224E-03    0.6899285466E+00    0.4752974096E-03    0.1991516966E-02    0.3964178822E-02
    0.4300000000E+03    0.2733280871E-03    0.6902078688E+00    0.5075196530E-03    0.2127468585E-02    0.3949112451E-02
    0.4500000000E+03    0.2908782370E-03    0.6904625595E+00    0.5410928424E-03    0.2269138073E-02    0.3933493952E-02
    0.4700000000E+03    0.3091847065E-03    0.6906957390E+00    0.5761027043E-03    0.2416890827E-02    0.3917288450E-02
    0.4900000000E+03    0.3282950475E-03    0.6909100222E+00    0.6126413868E-03    0.2571119405E-02    0.3900458726E-02
    0.1000000000E+03    0.6276682064E-04    0.6718094954E+00    0.1005532285E-03    0.4072892238E-03    0.4147538987E-02
    0.3000000000E+03    0.1749181505E-03    0.6877344643E+00    0.3189070384E-03    0.1331822044E-02    0.4038547251E-02
    0.5000000000E+03    0.3381675385E-03    0.6910107811E+00    0.6315147375E-03    0.2650792877E-02    0.3891797454E-02
    0.7000000000E+03    0.5932415674E-03    0.6924244824E+00    0.1118998271E-02    0.4710928428E-02    0.3674070041E-02
    0.9000000000E+03    0.1029796705E-02    0.6932123388E+00    0.1954193904E-02    0.8248849309E-02    0.3319364874E-02
    0.1100000000E+04    0.1848420239E-02    0.6937146021E+00    0.3524586778E-02    0.1492240511E-01    0.2692155394E-02
    0.1300000000E+04    0.3352428785E-02    0.6940627202E+00    0.6424475646E-02    0.2730984947E-01    0.1637463036E-02
    0.1500000000E+04    0.5168182631E-02    0.6943182046E+00    0.9964099288E-02    0.4259291512E-01    0.5708534531E-03
    0.1700000000E+04    0.6308103328E-02    0.6945136814E+00    0.1224535017E-01    0.5268982876E-01    0.1498118351E-03
    0.1900000000E+04    0.6987505184E-02    0.6946680654E+00    0.1366010716E-01    0.5917929055E-01    0.6465266397E-04
    0.2100000000E+04    0.7531730919E-02    0.6947930783E+00    0.1482792232E-01    0.6467674708E-01    0.5069008851E-04
    0.2300000000E+04    0.8025898173E-02    0.6948963709E+00    0.1591145049E-01    0.6987175961E-01    0.4862865202E-04
    0.2500000000E+04    0.8487399913E-02    0.6949831490E+00    0.1694324923E-01    0.7490001505E-01    0.4847831373E-04
    0.2700000000E+04    0.8920765015E-02    0.6950570783E+00    0.1793105537E-01    0.7979100274E-01    0.4862605313E-04
    0.2900000000E+04    0.9328154514E-02    0.6951208142E+00    0.1887807726E-01    0.8455494330E-01    0.4881149183E-04
    0.3100000000E+04    0.9711218185E-02    0.6951763278E+00    0.1978660325E-01    0.8919833342E-01    0.4899317372E-04
    0.3300000000E+04    0.1007142611E-01    0.6952251126E+00    0.2065864464E-01    0.9372671523E-01    0.4916536660E-04
    0.3500000000E+04    0.1041013413E-01    0.6952683214E+00    0.2149605820E-01    0.9814518997E-01    0.4932810187E-04
    0.3700000000E+04    0.1072860220E-01    0.6953068576E+00    0.2230057633E-01    0.1024585306E+00    0.4948222749E-04
    0.3900000000E+04    0.1102800370E-01    0.6953414397E+00    0.2307382003E-01    0.1066712206E+00    0.4962860272E-04
    0.4100000000E+04    0.1130943272E-01    0.6953726461E+00    0.2381730815E-01    0.1107874787E+00    0.4976798449E-04
    0.4300000000E+04    0.1157391033E-01    0.6954009474E+00    0.2453246532E-01    0.1148112783E+00    0.4990102698E-04
    0.4500000000E+04    0.1182239034E-01    0.6954267310E+00    0.2522062905E-01    0.1187463655E+00    0.5002829669E-04
    0.4700000000E+04    0.1205576442E-01    0.6954503181E+00    0.2588305624E-01    0.1225962753E+00    0.5015028690E-04
    0.4900000000E+04    0.1227486691E-01    0.6954719775E+00    0.2652092907E-01    0.1263643465E+00    0.5026742978E-04
    0.1000000000E+04    0.1372222642E-02    0.6934884983E+00    0.2610413233E-02    0.1103446660E-01    0.3051885254E-02
    0.3000000000E+04    0.9522632171E-02    0.6951494961E+00    0.1933702230E-01    0.8689134798E-01    0.4890342099E-04
    0.5000000000E+04    0.1237931241E-01    0.6954821566E+00    0.2683100794E-01    0.1282186857E+00    0.5032430424E-04
    0.7000000000E+04    0.1388428849E-01    0.6956245813E+00    0.3198180191E-01    0.1616909686E+00    0.5127984783E-04
    0.9000000000E+04    0.1460275837E-01    0.6957035876E+00    0.3561558126E-01    0.1896966943E+00    0.5200416499E-04
    0.1100000000E+05    0.1484761144E-01    0.6957537781E+00    0.3821846356E-01    0.2137012316E+00    0.5258930552E-04
    0.1300000000E+05    0.1480149011E-01    0.6957884611E+00    0.4009415174E-01    0.2346591591E+00    0.5308114168E-04
    0.1500000000E+05    0.1457540073E-01    0.6958138460E+00    0.4144162963E-01    0.2532229706E+00    0.5350593192E-04
    0.1700000000E+05    0.1423892332E-01    0.6958332191E+00    0.4239639156E-01    0.2698566258E+00    0.5388014486E-04
    0.1900000000E+05    0.1383669533E-01    0.6958484821E+00    0.4305367248E-01    0.2849010599E+00    0.5421480417E-04
    0.2100000000E+05    0.1339783570E-01    0.6958608117E+00    0.4348220315E-01    0.2986138629E+00    0.5451765877E-04
    0.2300000000E+05    0.1294154562E-01    0.6958709752E+00    0.4373270289E-01    0.3111943224E+00    0.5479436751E-04
    0.2500000000E+05    0.1248054741E-01    0.6958794939E+00    0.4384331394E-01    0.3227997966E+00    0.5504919143E-04
    0.2700000000E+05    0.1202325492E-01    0.6958867345E+00    0.4384318783E-01    0.3335567523E+00    0.5528542080E-04
    0.2900000000E+05    0.1157517596E-01    0.6958929624E+00    0.4375491662E-01    0.3435684086E+00    0.5550565019E-04
    0.3100000000E+05    0.1113983678E-01    0.6958983743E+00    0.4359622048E-01    0.3529201575E+00    0.5571196244E-04
    0.3300000000E+05    0.1071940209E-01    0.6959031194E+00    0.4338114378E-01    0.3616834902E+00    0.5590605542E-04
    0.3500000000E+05    0.1031509685E-01    0.6959073124E+00    0.4312091865E-01    0.3699188953E+00    0.5608933174E-04
    0.3700000000E+05    0.9927496887E-02    0.6959110433E+00    0.4282459899E-01    0.3776780359E+00    0.5626296374E-04
    0.3900000000E+05    0.9556731034E-02    0.6959143836E+00    0.4249953279E-01    0.3850054092E+00    0.5642794145E-04
    0.4100000000E+05    0.9202623012E-02    0.6959173909E+00    0.4215171888E-01    0.3919396303E+00    0.5658510867E-04
    0.4300000000E+05    0.8864791533E-02    0.6959201119E+00    0.4178607951E-01    0.3985144384E+00    0.5673519056E-04
    0.4500000000E+05    0.8542721288E-02    0.6959225850E+00    0.4140667112E-01    0.4047594939E+00    0.5687881493E-04
    0.4700000000E+05    0.8235813369E-02    0.6959248421E+00    0.4101684870E-01    0.4107010173E+00    0.5701652903E-04
    0.4900000000E+05    0.7943421077E-02    0.6959269098E+00    0.4061939540E-01    0.4163623061E+00    0.5714881278E-04
    0.1000000000E+05    0.1477079806E-01    0.6957312035E+00    0.3702378304E-01    0.2021305578E+00    0.5231062502E-04
    0.3000000000E+05    0.1135575241E-01    0.6958957601E+00    0.4368341919E-01    0.3483220156E+00    0.5561043201E-04
    0.5000000000E+05    0.7802459535E-02    0.6959278799E+00    0.4041854627E-01    0.4190944492E+00    0.5721305252E-04
    0.7000000000E+05    0.5587260063E-02    0.6959413000E+00    0.3639069893E-01    0.4630741947E+00    0.5829353455E-04
    0.9000000000E+05    0.4174532584E-02    0.6959485592E+00    0.3275605994E-01    0.4934742757E+00    0.5911375224E-04
    0.1100000000E+06    0.3229649063E-02    0.6959530513E+00    0.2965077388E-01    0.5158620521E+00    0.5977691890E-04
    0.1300000000E+06    0.2569716296E-02    0.6959560716E+00    0.2702203115E-01    0.5330792575E+00    0.6033463902E-04
    0.1500000000E+06    0.2091747347E-02    0.6959582199E+00    0.2478895835E-01    0.5467498630E+00    0.6081651212E-04
    0.1700000000E+06    0.1734948981E-02    0.6959598112E+00    0.2287792876E-01    0.5578759583E+00    0.6124112777E-04
    0.1900000000E+06    0.1461779272E-02    0.6959610264E+00    0.2122871890E-01    0.5671118517E+00    0.6162094173E-04
    0.2100000000E+06    0.1248113411E-02    0.6959619766E+00    0.1979357201E-01    0.5749038974E+00    0.6196471617E-04
    0.2300000000E+06    0.1077904306E-02    0.6959627337E+00    0.1853486637E-01    0.5815674812E+00    0.6227885368E-04
    0.2500000000E+06    0.9401541256E-03    0.6959633459E+00    0.1742287895E-01    0.5873319929E+00    0.6256817764E-04
    0.2700000000E+06    0.8271270049E-03    0.6959638473E+00    0.1643396689E-01    0.5923683804E+00    0.6283641394E-04
    0.2900000000E+06    0.7332562648E-03    0.6959642618E+00    0.1554916605E-01    0.5968067088E+00    0.6308650165E-04
    0.3100000000E+06    0.6544549869E-03    0.6959646076E+00    0.1475313051E-01    0.6007477278E+00    0.6332080079E-04
    0.3300000000E+06    0.5876687801E-03    0.6959648978E+00    0.1403333326E-01    0.6042707111E+00    0.6354123566E-04
    0.3500000000E+06    0.5305783721E-03    0.6959651427E+00    0.1337946180E-01    0.6074389021E+00    0.6374939624E-04
    0.3700000000E+06    0.4813973941E-03    0.6959653503E+00    0.1278295843E-01    0.6103033784E+00    0.6394661168E-04
    0.3900000000E+06    0.4387321180E-03    0.6959655269E+00    0.1223666800E-01    0.6129058482E+00    0.6413400465E-04
    0.4100000000E+06    0.4014823958E-03    0.6959656774E+00    0.1173456556E-01    0.6152807077E+00    0.6431253212E-04
    0.4300000000E+06    0.3687705436E-03    0.6959658058E+00    0.1127154419E-01    0.6174565783E+00    0.6448301661E-04
    0.4500000000E+06    0.3398895213E-03    0.6959659155E+00    0.1084324834E-01    0.6194574712E+00    0.6464617031E-04
    0.4700000000E+06    0.3142646540E-03    0.6959660090E+00    0.1044594166E-01    0.6213036808E+00    0.6480261405E-04
    0.4900000000E+06    0.2914249998E-03    0.6959660887E+00    0.1007640166E-01    0.6230124776E+00    0.6495289238E-04
    0.1000000000E+06    0.3657549748E-02    0.6959510457E+00    0.3113906503E-01    0.5054528302E+00    0.5946102407E-04
    0.3000000000E+06    0.6921829881E-03    0.6959644424E+00    0.1514089372E-01    0.5988339971E+00    0.6320549566E-04
    0.5000000000E+06    0.2809253805E-03    0.6959661239E+00    0.9901156432E-02    0.6238200527E+00    0.6502587182E-04
    0.7000000000E+06    0.1509779080E-03    0.6959664222E+00    0.7339087930E-02    0.6354331690E+00    0.6625344975E-04
    0.9000000000E+06    0.9399151348E-04    0.6959663502E+00    0.5824152438E-02    0.6421418869E+00    0.6718542775E-04
    0.1100000000E+07    0.6406736427E-04    0.6959661510E+00    0.4824519680E-02    0.6465103349E+00    0.6793899906E-04
    0.1300000000E+07    0.4644253307E-04    0.6959659055E+00    0.4115966977E-02    0.6495806200E+00    0.6857277226E-04
    0.1500000000E+07    0.3519973222E-04    0.6959656457E+00    0.3587748102E-02    0.6518561982E+00    0.6912036931E-04
    0.1700000000E+07    0.2759402315E-04    0.6959653855E+00    0.3178918534E-02    0.6536100538E+00    0.6960290812E-04
    0.1900000000E+07    0.2221138100E-04    0.6959651310E+00    0.2853188344E-02    0.6550030234E+00    0.7003453953E-04
    0.2100000000E+07    0.1826341099E-04    0.6959648849E+00    0.2587607789E-02    0.6561360151E+00    0.7042521872E-04
    0.2300000000E+07    0.1528243354E-04    0.6959646483E+00    0.2366957176E-02    0.6570755378E+00    0.7078222028E-04
    0.2500000000E+07    0.1297681500E-04    0.6959644214E+00    0.2180747030E-02    0.6578672050E+00    0.7111102471E-04
    0.2700000000E+07    0.1115706622E-04    0.6959642039E+00    0.2021514038E-02    0.6585433420E+00    0.7141586560E-04
    0.2900000000E+07    0.9695748615E-05    0.6959639956E+00    0.1883803839E-02    0.6591274952E+00    0.7170008259E-04
    0.3100000000E+07    0.8504604285E-05    0.6959637957E+00    0.1763538107E-02    0.6596372220E+00    0.7196635743E-04
    0.3300000000E+07    0.7520946378E-05    0.6959636039E+00    0.1657606624E-02    0.6600858807E+00    0.7221687671E-04
    0.3500000000E+07    0.6699260390E-05    0.6959634196E+00    0.1563596296E-02    0.6604838149E+00    0.7245344723E-04
    0.3700000000E+07    0.6005855316E-05    0.6959632423E+00    0.1479606317E-02    0.6608391581E+00    0.7267757938E-04
    0.3900000000E+07    0.5415361805E-05    0.6959630716E+00    0.1404119165E-02    0.6611583938E+00    0.7289054891E-04
    0.4100000000E+07    0.4908382931E-05    0.6959629070E+00    0.1335908689E-02    0.6614467539E+00    0.7309344334E-04
    0.4300000000E+07    0.4469883621E-05    0.6959627481E+00    0.1273973429E-02    0.6617085065E+00    0.7328719734E-04
    0.4500000000E+07    0.4088064806E-05    0.6959625945E+00    0.1217487431E-02    0.6619471681E+00    0.7347262024E-04
    0.4700000000E+07    0.3753562492E-05    0.6959624459E+00    0.1165763442E-02    0.6621656620E+00    0.7365041758E-04
    0.4900000000E+07    0.3458868861E-05    0.6959623021E+00    0.1118224988E-02    0.6623664382E+00    0.7382120817E-04
    0.1000000000E+07    0.7689547302E-04    0.6959662597E+00    0.5277824739E-02    0.6445348643E+00    0.6758003645E-04
    0.3000000000E+07    0.9070804809E-05    0.6959638946E+00    0.1821703801E-02    0.6593907447E+00    0.7183531605E-04
    0.5000000000E+07    0.3324504799E-05    0.6959622318E+00    0.1095870099E-02    0.6624608416E+00    0.7390414904E-04
    0.7000000000E+07    0.1722851331E-05    0.6959610158E+00    0.7822047654E-03    0.6637848874E+00    0.7529929233E-04
    0.9000000000E+07    0.1059692946E-05    0.6959600564E+00    0.6075269445E-03    0.6645221284E+00    0.7635849126E-04
    0.1100000000E+08    0.7223774647E-06    0.6959592623E+00    0.4963057200E-03    0.6649917219E+00    0.7721493188E-04
    0.1300000000E+08    0.5274748934E-06    0.6959585838E+00    0.4193200789E-03    0.6653169471E+00    0.7793522177E-04
    0.1500000000E+08    0.4046101794E-06    0.6959579904E+00    0.3628928599E-03    0.6655554695E+00    0.7855757199E-04
    0.1700000000E+08    0.3220853789E-06    0.6959574626E+00    0.3197715372E-03    0.6657378608E+00    0.7910598300E-04
    0.1900000000E+08    0.2639116530E-06    0.6959569869E+00    0.2857536399E-03    0.6658818360E+00    0.7959653725E-04
    0.2100000000E+08    0.2213123906E-06    0.6959565534E+00    0.2582365299E-03    0.6659983679E+00    0.8004054885E-04
    0.2300000000E+08    0.1891426653E-06    0.6959561551E+00    0.2355225794E-03    0.6660946148E+00    0.8044628541E-04
    0.2500000000E+08    0.1642234974E-06    0.6959557864E+00    0.2164574348E-03    0.6661754459E+00    0.8081997557E-04
    0.2700000000E+08    0.1445040515E-06    0.6959554431E+00    0.2002288939E-03    0.6662442879E+00    0.8116643085E-04
