  Pressure (Pa) 22mC5-500 (mol/kg) 24mC5-500 (mol/kg) 2mC6-500 (mol/kg) 3mC6-500 (mol/kg) C7-500 (mol/kg)
    0.1000000000E+01    0.8749494403E-05    0.1514017711E+00    0.2300018081E-04    0.2041863053E-05    0.4146129820E-02
    0.3000000000E+01    0.1708861491E-04    0.3164857741E+00    0.4287488326E-04    0.5040185001E-05    0.4171943174E-02
    0.5000000000E+01    0.2098579882E-04    0.4047555370E+00    0.5173582896E-04    0.7759615412E-05    0.4179160076E-02
    0.7000000000E+01    0.2322741707E-04    0.4597069909E+00    0.5720146174E-04    0.1034778843E-04    0.4182629753E-02
    0.9000000000E+01    0.2472777849E-04    0.4972104274E+00    0.6146857994E-04    0.1285346114E-04    0.4184542867E-02
    0.1100000000E+02    0.2585880504E-04    0.5244377738E+00    0.6530916135E-04    0.1530075378E-04    0.4185635858E-02
    0.1300000000E+02    0.2679340592E-04    0.5451038681E+00    0.6902518879E-04    0.1770390820E-04    0.4186238738E-02
    0.1500000000E+02    0.2761963153E-04    0.5613254938E+00    0.7274069173E-04    0.2007225113E-04    0.4186524203E-02
    0.1700000000E+02    0.2838533476E-04    0.5743972687E+00    0.7650607781E-04    0.2241232557E-04    0.4186592118E-02
    0.1900000000E+02    0.2911778699E-04    0.5851554880E+00    0.8033960353E-04    0.2472895356E-04    0.4186504469E-02
    0.2100000000E+02    0.2983307523E-04    0.5941644571E+00    0.8424515190E-04    0.2702582329E-04    0.4186301831E-02
    0.2300000000E+02    0.3054091897E-04    0.6018187536E+00    0.8822026498E-04    0.2930583889E-04    0.4186011902E-02
    0.2500000000E+02    0.3124727614E-04    0.6084025776E+00    0.9225989584E-04    0.3157134118E-04    0.4185654236E-02
    0.2700000000E+02    0.3195581658E-04    0.6141258257E+00    0.9635818481E-04    0.3382425352E-04    0.4185243025E-02
    0.2900000000E+02    0.3266878582E-04    0.6191468845E+00    0.1005092910E-03    0.3606618194E-04    0.4184788819E-02
    0.3100000000E+02    0.3338752709E-04    0.6235875188E+00    0.1047077615E-03    0.3829848600E-04    0.4184299613E-02
    0.3300000000E+02    0.3411280485E-04    0.6275428778E+00    0.1089486721E-03    0.4052233025E-04    0.4183781574E-02
    0.3500000000E+02    0.3484500948E-04    0.6310883905E+00    0.1132276566E-03    0.4273872256E-04    0.4183239532E-02
    0.3700000000E+02    0.3558428916E-04    0.6342846231E+00    0.1175408834E-03    0.4494854308E-04    0.4182677317E-02
    0.3900000000E+02    0.3633063600E-04    0.6371807680E+00    0.1218850090E-03    0.4715256663E-04    0.4182098004E-02
    0.4100000000E+02    0.3708394291E-04    0.6398171939E+00    0.1262571252E-03    0.4935148022E-04    0.4181504088E-02
    0.4300000000E+02    0.3784404152E-04    0.6422273395E+00    0.1306547056E-03    0.5154589695E-04    0.4180897608E-02
    0.4500000000E+02    0.3861072744E-04    0.6444391392E+00    0.1350755562E-03    0.5373636712E-04    0.4180280252E-02
    0.4700000000E+02    0.3938377732E-04    0.6464761109E+00    0.1395177711E-03    0.5592338735E-04    0.4179653421E-02
    0.4900000000E+02    0.4016296011E-04    0.6483581959E+00    0.1439796933E-03    0.5810740795E-04    0.4179018289E-02
    0.1000000000E+02    0.2532584772E-04    0.5118252064E+00    0.6341716209E-04    0.1408336264E-04    0.4185165965E-02
    0.3000000000E+02    0.3302737645E-04    0.6214332769E+00    0.1026029266E-03    0.3718346016E-04    0.4184548169E-02
    0.5000000000E+02    0.4055477896E-04    0.6492465737E+00    0.1462175865E-03    0.5919842299E-04    0.4178697926E-02
    0.7000000000E+02    0.4866129285E-04    0.6619450361E+00    0.1917465242E-03    0.8094442636E-04    0.4172028480E-02
    0.9000000000E+02    0.5717787972E-04    0.6692172737E+00    0.2383872568E-03    0.1027026287E-03    0.4165081644E-02
    0.1100000000E+03    0.6601213550E-04    0.6739291000E+00    0.2859378030E-03    0.1246196656E-03    0.4157989065E-02
    0.1300000000E+03    0.7511937885E-04    0.6772303324E+00    0.3343675891E-03    0.1467886179E-03    0.4150788922E-02
    0.1500000000E+03    0.8447870105E-04    0.6796719495E+00    0.3837031341E-03    0.1692763914E-03    0.4143490421E-02
    0.1700000000E+03    0.9408160227E-04    0.6815510342E+00    0.4339919550E-03    0.1921355071E-03    0.4136092184E-02
    0.1900000000E+03    0.1039265192E-03    0.6830419132E+00    0.4852897653E-03    0.2154099948E-03    0.4128588584E-02
    0.2100000000E+03    0.1140160403E-03    0.6842536259E+00    0.5376556591E-03    0.2391386642E-03    0.4120972209E-02
    0.2300000000E+03    0.1243554114E-03    0.6852578710E+00    0.5911503185E-03    0.2633570690E-03    0.4113234880E-02
    0.2500000000E+03    0.1349516997E-03    0.6861037306E+00    0.6458354447E-03    0.2880987634E-03    0.4105368088E-02
    0.2700000000E+03    0.1458133103E-03    0.6868259359E+00    0.7017737006E-03    0.3133961512E-03    0.4097363172E-02
    0.2900000000E+03    0.1569497015E-03    0.6874497553E+00    0.7590288731E-03    0.3392810879E-03    0.4089211381E-02
    0.3100000000E+03    0.1683712172E-03    0.6879940112E+00    0.8176661232E-03    0.3657853266E-03    0.4080903882E-02
    0.3300000000E+03    0.1800889904E-03    0.6884730128E+00    0.8777522708E-03    0.3929408633E-03    0.4072431739E-02
    0.3500000000E+03    0.1921148918E-03    0.6888978318E+00    0.9393560898E-03    0.4207802155E-03    0.4063785883E-02
    0.3700000000E+03    0.2044615083E-03    0.6892771693E+00    0.1002548603E-02    0.4493366549E-03    0.4054957078E-02
    0.3900000000E+03    0.2171421411E-03    0.6896179582E+00    0.1067403376E-02    0.4786444109E-03    0.4045935879E-02
    0.4100000000E+03    0.2301708187E-03    0.6899257901E+00    0.1133996810E-02    0.5087388534E-03    0.4036712594E-02
    0.4300000000E+03    0.2435623202E-03    0.6902052253E+00    0.1202408437E-02    0.5396566627E-03    0.4027277247E-02
    0.4500000000E+03    0.2573322076E-03    0.6904600197E+00    0.1272721216E-02    0.5714359918E-03    0.4017619540E-02
    0.4700000000E+03    0.2714968642E-03    0.6906932948E+00    0.1345021837E-02    0.6041166249E-03    0.4007728810E-02
    0.4900000000E+03    0.2860735395E-03    0.6909076664E+00    0.1419401036E-02    0.6377401358E-03    0.3997593992E-02
    0.1000000000E+03    0.6155884572E-04    0.6718005659E+00    0.2620527693E-03    0.1136346572E-03    0.4161550134E-02
    0.3000000000E+03    0.1626241407E-03    0.6877308460E+00    0.7881706045E-03    0.3524538040E-03    0.4085077651E-02
    0.5000000000E+03    0.2935220238E-03    0.6910084671E+00    0.1457399642E-02    0.6549189906E-03    0.3992431474E-02
    0.7000000000E+03    0.4692236205E-03    0.6924227675E+00    0.2353002238E-02    0.1060107284E-02    0.3873215303E-02
    0.9000000000E+03    0.7158760883E-03    0.6932109707E+00    0.3610147155E-02    0.1629745794E-02    0.3711726945E-02
    0.1100000000E+04    0.1080246828E-02    0.6937134611E+00    0.5469158360E-02    0.2473600606E-02    0.3481360694E-02
    0.1300000000E+04    0.1648680040E-02    0.6940617401E+00    0.8374318046E-02    0.3795101880E-02    0.3135492450E-02
    0.1500000000E+04    0.2572241248E-02    0.6943173445E+00    0.1310659480E-01    0.5953585184E-02    0.2599468065E-02
    0.1700000000E+04    0.4022549462E-02    0.6945129145E+00    0.2056775575E-01    0.9370478888E-02    0.1812339826E-02
    0.1900000000E+04    0.5834627817E-02    0.6946673731E+00    0.2995666605E-01    0.1370024728E-01    0.9342209728E-03
    0.2100000000E+04    0.7324528213E-02    0.6947924471E+00    0.3778610462E-01    0.1736010446E-01    0.3597776629E-03
    0.2300000000E+04    0.8263216388E-02    0.6948957907E+00    0.4284587131E-01    0.1978183720E-01    0.1374552833E-03
    0.2500000000E+04    0.8909424147E-02    0.6949826121E+00    0.4643516564E-01    0.2154640069E-01    0.7232421455E-04
    0.2700000000E+04    0.9442545316E-02    0.6950565785E+00    0.4946694099E-01    0.2306758694E-01    0.5496295780E-04
    0.2900000000E+04    0.9926546740E-02    0.6951203467E+00    0.5226767704E-01    0.2449385688E-01    0.5050808005E-04
    0.3100000000E+04    0.1038113457E-01    0.6951758886E+00    0.5493725864E-01    0.2587037639E-01    0.4945315674E-04
    0.3300000000E+04    0.1081271177E-01    0.6952246986E+00    0.5750716844E-01    0.2721098879E-01    0.4929185481E-04
    0.3500000000E+04    0.1122387295E-01    0.6952679297E+00    0.5998929730E-01    0.2852055441E-01    0.4936339084E-04
    0.3700000000E+04    0.1161609644E-01    0.6953064861E+00    0.6238984990E-01    0.2980134556E-01    0.4949220947E-04
    0.3900000000E+04    0.1199049844E-01    0.6953410863E+00    0.6471325281E-01    0.3105485006E-01    0.4963145727E-04
    0.4100000000E+04    0.1234804734E-01    0.6953723091E+00    0.6696326393E-01    0.3228228329E-01    0.4976880186E-04
    0.4300000000E+04    0.1268962752E-01    0.6954006255E+00    0.6914329818E-01    0.3348473705E-01    0.4990125376E-04
    0.4500000000E+04    0.1301606070E-01    0.6954264228E+00    0.7125653174E-01    0.3466322542E-01    0.5002835010E-04
    0.4700000000E+04    0.1332811495E-01    0.6954500225E+00    0.7330594237E-01    0.3581870101E-01    0.5015028904E-04
    0.4900000000E+04    0.1362651001E-01    0.6954716937E+00    0.7529433048E-01    0.3695206246E-01    0.5026741689E-04
    0.1000000000E+04    0.8791803406E-03    0.6934872545E+00    0.4443008050E-02    0.2007606466E-02    0.3607464746E-02
    0.3000000000E+04    0.1015697036E-01    0.6951490433E+00    0.5361613847E-01    0.2518712341E-01    0.4978531341E-04
    0.5000000000E+04    0.1377079803E-01    0.6954818783E+00    0.7626647143E-01    0.3751071762E-01    0.5032428859E-04
    0.7000000000E+04    0.1608312854E-01    0.6956243817E+00    0.9307164655E-01    0.4770646640E-01    0.5127983347E-04
    0.9000000000E+04    0.1759053678E-01    0.6957034335E+00    0.1060099961E+00    0.5642317459E-01    0.5200415372E-04
    0.1100000000E+05    0.1857517843E-01    0.6957536539E+00    0.1162520993E+00    0.6405719674E-01    0.5258929632E-04
    0.1300000000E+05    0.1920787159E-01    0.6957883583E+00    0.1245382240E+00    0.7086758382E-01    0.5308113396E-04
    0.1500000000E+05    0.1959694958E-01    0.6958137593E+00    0.1313596085E+00    0.7703181165E-01    0.5350592534E-04
    0.1700000000E+05    0.1981373149E-01    0.6958331450E+00    0.1370552112E+00    0.8267619955E-01    0.5388013918E-04
    0.1900000000E+05    0.1990662520E-01    0.6958484183E+00    0.1418665878E+00    0.8789353902E-01    0.5421479923E-04
    0.2100000000E+05    0.1990933078E-01    0.6958607565E+00    0.1459706170E+00    0.9275382538E-01    0.5451765444E-04
    0.2300000000E+05    0.1984581277E-01    0.6958709272E+00    0.1494998478E+00    0.9731106528E-01    0.5479436370E-04
    0.2500000000E+05    0.1973342097E-01    0.6958794520E+00    0.1525556116E+00    0.1016077487E+00    0.5504918808E-04
    0.2700000000E+05    0.1958490868E-01    0.6958866980E+00    0.1552167315E+00    0.1056778767E+00    0.5528541784E-04
    0.2900000000E+05    0.1940977226E-01    0.6958929307E+00    0.1575454652E+00    0.1095490650E+00    0.5550564758E-04
    0.3100000000E+05    0.1921516056E-01    0.6958983469E+00    0.1595916556E+00    0.1132440406E+00    0.5571196015E-04
    0.3300000000E+05    0.1900650495E-01    0.6959030957E+00    0.1613956893E+00    0.1167817278E+00    0.5590605341E-04
    0.3500000000E+05    0.1878796344E-01    0.6959072921E+00    0.1629906464E+00    0.1201780503E+00    0.5608933000E-04
    0.3700000000E+05    0.1856273888E-01    0.6959110262E+00    0.1644038871E+00    0.1234465342E+00    0.5626296223E-04
    0.3900000000E+05    0.1833331017E-01    0.6959143695E+00    0.1656582411E+00    0.1265987678E+00    0.5642794016E-04
    0.4100000000E+05    0.1810160235E-01    0.6959173794E+00    0.1667729110E+00    0.1296447561E+00    0.5658510758E-04
    0.4300000000E+05    0.1786911333E-01    0.6959201028E+00    0.1677641677E+00    0.1325931990E+00    0.5673518966E-04
    0.4500000000E+05    0.1763700912E-01    0.6959225782E+00    0.1686458903E+00    0.1354517101E+00    0.5687881421E-04
    0.4700000000E+05    0.1740619625E-01    0.6959248375E+00    0.1694299915E+00    0.1382269925E+00    0.5701652847E-04
    0.4900000000E+05    0.1717737721E-01    0.6959269072E+00    0.1701267545E+00    0.1409249799E+00    0.5714881238E-04
    0.1000000000E+05    0.1813564816E-01    0.6957310657E+00    0.1114144176E+00    0.6035693423E-01    0.5231061487E-04
    0.3000000000E+05    0.1931452704E-01    0.6958957306E+00    0.1586011609E+00    0.1114173180E+00    0.5561042957E-04
    0.5000000000E+05    0.1706388987E-01    0.6959278782E+00    0.1704452195E+00    0.1422466606E+00    0.5721305219E-04
    0.7000000000E+05    0.1497561719E-01    0.6959413131E+00    0.1738780845E+00    0.1656455834E+00    0.5829353539E-04
    0.9000000000E+05    0.1325910177E-01    0.6959485823E+00    0.1741300836E+00    0.1849578717E+00    0.5911375388E-04
    0.1100000000E+06    0.1185704372E-01    0.6959530819E+00    0.1729231181E+00    0.2015982848E+00    0.5977692116E-04
    0.1300000000E+06    0.1069864165E-01    0.6959561083E+00    0.1709815150E+00    0.2163157287E+00    0.6033464179E-04
    0.1500000000E+06    0.9728027668E-02    0.6959582618E+00    0.1686568189E+00    0.2295624080E+00    0.6081651534E-04
    0.1700000000E+06    0.8903889664E-02    0.6959598576E+00    0.1661361339E+00    0.2416361553E+00    0.6124113138E-04
    0.1900000000E+06    0.8195800449E-02    0.6959610768E+00    0.1635254293E+00    0.2527456044E+00    0.6162094568E-04
    0.2100000000E+06    0.7581085884E-02    0.6959620307E+00    0.1608872888E+00    0.2630437837E+00    0.6196472045E-04
    0.2300000000E+06    0.7042580414E-02    0.6959627911E+00    0.1582596594E+00    0.2726470039E+00    0.6227885826E-04
    0.2500000000E+06    0.6567076656E-02    0.6959634065E+00    0.1556658402E+00    0.2816462107E+00    0.6256818249E-04
    0.2700000000E+06    0.6144255531E-02    0.6959639107E+00    0.1531201067E+00    0.2901141765E+00    0.6283641905E-04
    0.2900000000E+06    0.5765939949E-02    0.6959643281E+00    0.1506310207E+00    0.2981102580E+00    0.6308650701E-04
    0.3100000000E+06    0.5425566414E-02    0.6959646764E+00    0.1482034510E+00    0.3056836561E+00    0.6332080639E-04
    0.3300000000E+06    0.5117804950E-02    0.6959649691E+00    0.1458398439E+00    0.3128757180E+00    0.6354124149E-04
    0.3500000000E+06    0.4838281423E-02    0.6959652164E+00    0.1435410425E+00    0.3197216052E+00    0.6374940228E-04
    0.3700000000E+06    0.4583371658E-02    0.6959654263E+00    0.1413068251E+00    0.3262515292E+00    0.6394661793E-04
    0.3900000000E+06    0.4350046637E-02    0.6959656050E+00    0.1391362666E+00    0.3324916843E+00    0.6413401110E-04
    0.4100000000E+06    0.4135754626E-02    0.6959657576E+00    0.1370279823E+00    0.3384649643E+00    0.6431253877E-04
    0.4300000000E+06    0.3938330330E-02    0.6959658881E+00    0.1349802962E+00    0.3441915216E+00    0.6448302345E-04
    0.4500000000E+06    0.3755924108E-02    0.6959659997E+00    0.1329913564E+00    0.3496892091E+00    0.6464617733E-04
    0.4700000000E+06    0.3586946256E-02    0.6959660952E+00    0.1310592156E+00    0.3549739333E+00    0.6480262125E-04
    0.4900000000E+06    0.3430022742E-02    0.6959661767E+00    0.1291818866E+00    0.3600599405E+00    0.6495289974E-04
    0.1000000000E+06    0.1252347704E-01    0.6959510728E+00    0.1736509698E+00    0.1935557259E+00    0.5946102604E-04
    0.3000000000E+06    0.5591368794E-02    0.6959645099E+00    0.1494093479E+00    0.3019470463E+00    0.6320550114E-04
    0.5000000000E+06    0.3355702069E-02    0.6959662128E+00    0.1282631546E+00    0.3625324817E+00    0.6502587927E-04
    0.7000000000E+06    0.2281052801E-02    0.6959665272E+00    0.1123064074E+00    0.4040878857E+00    0.6625345873E-04
    0.9000000000E+06    0.1665427670E-02    0.6959664685E+00    0.9992285164E-01    0.4350043031E+00    0.6718543802E-04
    0.1100000000E+07    0.1274930434E-02    0.6959662808E+00    0.9003007119E-01    0.4591219850E+00    0.6793901047E-04
    0.1300000000E+07    0.1009853060E-02    0.6959660458E+00    0.8193785754E-01    0.4785521533E+00    0.6857278470E-04
    0.1500000000E+07    0.8208916409E-03    0.6959657955E+00    0.7519048516E-01    0.4945831986E+00    0.6912038269E-04
    0.1700000000E+07    0.6810821247E-03    0.6959655440E+00    0.6947523168E-01    0.5080574420E+00    0.6960292238E-04
    0.1900000000E+07    0.5745524342E-03    0.6959652976E+00    0.6457015204E-01    0.5195535702E+00    0.7003455463E-04
    0.2100000000E+07    0.4914174626E-03    0.6959650592E+00    0.6031317408E-01    0.5294844695E+00    0.7042523460E-04
    0.2300000000E+07    0.4252385152E-03    0.6959648299E+00    0.5658305641E-01    0.5381537083E+00    0.7078223691E-04
    0.2500000000E+07    0.3716654004E-03    0.6959646100E+00    0.5328721272E-01    0.5457900312E+00    0.7111104205E-04
    0.2700000000E+07    0.3276679144E-03    0.6959643991E+00    0.5035366957E-01    0.5525693828E+00    0.7141588363E-04
    0.2900000000E+07    0.2910799716E-03    0.6959641971E+00    0.4772560219E-01    0.5586294881E+00    0.7170010128E-04
    0.3100000000E+07    0.2603183307E-03    0.6959640034E+00    0.4535752912E-01    0.5640798007E+00    0.7196637675E-04
    0.3300000000E+07    0.2342031274E-03    0.6959638174E+00    0.4321260415E-01    0.5690084681E+00    0.7221689666E-04
    0.3500000000E+07    0.2118400025E-03    0.6959636388E+00    0.4126065186E-01    0.5734873155E+00    0.7245346777E-04
    0.3700000000E+07    0.1925407029E-03    0.6959634670E+00    0.3947671810E-01    0.5775754835E+00    0.7267760050E-04
    0.3900000000E+07    0.1757683951E-03    0.6959633016E+00    0.3783998403E-01    0.5813221268E+00    0.7289057060E-04
    0.4100000000E+07    0.1610992445E-03    0.6959631422E+00    0.3633294117E-01    0.5847684484E+00    0.7309346558E-04
    0.4300000000E+07    0.1481949424E-03    0.6959629883E+00    0.3494075694E-01    0.5879492528E+00    0.7328722011E-04
    0.4500000000E+07    0.1367827429E-03    0.6959628397E+00    0.3365078111E-01    0.5908941473E+00    0.7347264354E-04
    0.4700000000E+07    0.1266407472E-03    0.6959626959E+00    0.3245215788E-01    0.5936284812E+00    0.7365044140E-04
    0.4900000000E+07    0.1175869115E-03    0.6959625567E+00    0.3133551800E-01    0.5961740871E+00    0.7382123249E-04
    0.1000000000E+07    0.1449988530E-02    0.6959663839E+00    0.9471520418E-01    0.4477551191E+00    0.6758004729E-04
    0.3000000000E+07    0.2750524464E-03    0.6959640992E+00    0.4651154565E-01    0.5614249261E+00    0.7183533506E-04
    0.5000000000E+07    0.1134199750E-03    0.6959624887E+00    0.3080535875E-01    0.5973821262E+00    0.7390417360E-04
    0.7000000000E+07    0.6153937617E-04    0.6959613140E+00    0.2300444292E-01    0.6151178732E+00    0.7529932139E-04
    0.9000000000E+07    0.3854534672E-04    0.6959603898E+00    0.1834250986E-01    0.6256844928E+00    0.7635852420E-04
    0.1100000000E+08    0.2638314009E-04    0.6959596267E+00    0.1524379988E-01    0.6326960265E+00    0.7721496828E-04
    0.1300000000E+08    0.1918245446E-04    0.6959589761E+00    0.1303582159E-01    0.6376868002E+00    0.7793526133E-04
    0.1500000000E+08    0.1457125078E-04    0.6959584084E+00    0.1138328517E-01    0.6414194491E+00    0.7855761447E-04
    0.1700000000E+08    0.1144237155E-04    0.6959579044E+00    0.1010032944E-01    0.6443158738E+00    0.7910602821E-04
    0.1900000000E+08    0.9222714853E-05    0.6959574509E+00    0.9075642885E-02    0.6466283910E+00    0.7959658504E-04
    0.2100000000E+08    0.7591503966E-05    0.6959570385E+00    0.8238504195E-02    0.6485171418E+00    0.8004059908E-04
    0.2300000000E+08    0.6357846966E-05    0.6959566601E+00    0.7541833092E-02    0.6500886494E+00    0.8044633797E-04
    0.2500000000E+08    0.5402392534E-05    0.6959563104E+00    0.6953077709E-02    0.6514165193E+00    0.8082003035E-04
    0.2700000000E+08    0.4647418151E-05    0.6959559852E+00    0.6449014331E-02    0.6525532381E+00    0.8116648777E-04
