  Pressure (Pa) 22mC5-500 (mol/kg) 24mC5-500 (mol/kg) 2mC6-500 (mol/kg) 3mC6-500 (mol/kg) C7-500 (mol/kg)
    0.1000000000E+01    0.9437456455E-05    0.9949384232E-01    0.1527854974E-04    0.1503717149E-05    0.4213809244E-02
    0.3000000000E+01    0.2087408025E-04    0.2320808278E+00    0.3238589837E-04    0.3877019438E-05    0.4285271153E-02
    0.5000000000E+01    0.2736824220E-04    0.3164137254E+00    0.4128467983E-04    0.6066624569E-05    0.4329994427E-02
    0.7000000000E+01    0.3142964180E-04    0.3747807037E+00    0.4653328920E-04    0.8166906361E-05    0.4361192168E-02
    0.9000000000E+01    0.3415741342E-04    0.4175747636E+00    0.4999597822E-04    0.1020990500E-04    0.4384301848E-02
    0.1100000000E+02    0.3609897235E-04    0.4502951913E+00    0.5253545492E-04    0.1221170987E-04    0.4402157279E-02
    0.1300000000E+02    0.3755229077E-04    0.4761245940E+00    0.5458510032E-04    0.1418192150E-04    0.4416395695E-02
    0.1500000000E+02    0.3869058859E-04    0.4970326111E+00    0.5637556059E-04    0.1612687843E-04    0.4428032495E-02
    0.1700000000E+02    0.3961979271E-04    0.5143035190E+00    0.5803467972E-04    0.1805105684E-04    0.4437732165E-02
    0.1900000000E+02    0.4040732488E-04    0.5288104812E+00    0.5963526742E-04    0.1995777389E-04    0.4445948449E-02
    0.2100000000E+02    0.4109750566E-04    0.5411678660E+00    0.6121940906E-04    0.2184957880E-04    0.4453002115E-02
    0.2300000000E+02    0.4172024731E-04    0.5518205134E+00    0.6281147170E-04    0.2372848710E-04    0.4459126569E-02
    0.2500000000E+02    0.4229618012E-04    0.5610984378E+00    0.6442535040E-04    0.2559612920E-04    0.4464495843E-02
    0.2700000000E+02    0.4283978928E-04    0.5692516321E+00    0.6606864135E-04    0.2745384899E-04    0.4469242452E-02
    0.2900000000E+02    0.4336139578E-04    0.5764729366E+00    0.6774511114E-04    0.2930277174E-04    0.4473469144E-02
    0.3100000000E+02    0.4386844174E-04    0.5829134891E+00    0.6945619029E-04    0.3114385238E-04    0.4477256866E-02
    0.3300000000E+02    0.4436634429E-04    0.5886934194E+00    0.7120189245E-04    0.3297791061E-04    0.4480670294E-02
    0.3500000000E+02    0.4485907467E-04    0.5939094142E+00    0.7298138751E-04    0.3480565719E-04    0.4483761756E-02
    0.3700000000E+02    0.4534955820E-04    0.5986401695E+00    0.7479336228E-04    0.3662771382E-04    0.4486574063E-02
    0.3900000000E+02    0.4583995504E-04    0.6029503892E+00    0.7663624816E-04    0.3844462857E-04    0.4489142596E-02
    0.4100000000E+02    0.4633186005E-04    0.6068937625E+00    0.7850836498E-04    0.4025688797E-04    0.4491496869E-02
    0.4300000000E+02    0.4682644699E-04    0.6105152123E+00    0.8040801086E-04    0.4206492661E-04    0.4493661701E-02
    0.4500000000E+02    0.4732457372E-04    0.6138526141E+00    0.8233351754E-04    0.4386913491E-04    0.4495658126E-02
    0.4700000000E+02    0.4782685969E-04    0.6169381259E+00    0.8428328318E-04    0.4566986536E-04    0.4497504094E-02
    0.4900000000E+02    0.4833374363E-04    0.6197992277E+00    0.8625579058E-04    0.4746743775E-04    0.4499215024E-02
    0.1000000000E+02    0.3520393801E-04    0.4349579500E+00    0.5134753331E-04    0.1121525595E-04    0.4393764863E-02
    0.3000000000E+02    0.4361636064E-04    0.5797826730E+00    0.6859629849E-04    0.3022423827E-04    0.4475413504E-02
    0.5000000000E+02    0.4858900841E-04    0.6211531390E+00    0.8725012377E-04    0.4836513173E-04    0.4500024084E-02
    0.7000000000E+02    0.5396607684E-04    0.6407489790E+00    0.1080365158E-03    0.6621226885E-04    0.4511562966E-02
    0.9000000000E+02    0.5981800677E-04    0.6521795806E+00    0.1300112129E-03    0.8396475935E-04    0.4517811261E-02
    0.1100000000E+03    0.6604624179E-04    0.6596683525E+00    0.1527424945E-03    0.1017249801E-03    0.4521313205E-02
    0.1300000000E+03    0.7257265534E-04    0.6649543351E+00    0.1760296323E-03    0.1195560371E-03    0.4523167395E-02
    0.1500000000E+03    0.7934507789E-04    0.6688847565E+00    0.1997743723E-03    0.1375014285E-03    0.4523933029E-02
    0.1700000000E+03    0.8632928708E-04    0.6719217433E+00    0.2239276546E-03    0.1555935796E-03    0.4523927756E-02
    0.1900000000E+03    0.9350269966E-04    0.6743388007E+00    0.2484658550E-03    0.1738581314E-03    0.4523346753E-02
    0.2100000000E+03    0.1008503329E-03    0.6763081358E+00    0.2733793419E-03    0.1923163230E-03    0.4522317219E-02
    0.2300000000E+03    0.1083622845E-03    0.6779435808E+00    0.2986665939E-03    0.2109864192E-03    0.4520925908E-02
    0.2500000000E+03    0.1160321409E-03    0.6793233951E+00    0.3243310074E-03    0.2298846151E-03    0.4519234161E-02
    0.2700000000E+03    0.1238559504E-03    0.6805031542E+00    0.3503790893E-03    0.2490256380E-03    0.4517286619E-02
    0.2900000000E+03    0.1318315440E-03    0.6815234129E+00    0.3768193965E-03    0.2684231638E-03    0.4515116544E-02
    0.3100000000E+03    0.1399580772E-03    0.6824144589E+00    0.4036618969E-03    0.2880901134E-03    0.4512749187E-02
    0.3300000000E+03    0.1482357139E-03    0.6831993683E+00    0.4309175774E-03    0.3080388722E-03    0.4510204015E-02
    0.3500000000E+03    0.1566654048E-03    0.6838960314E+00    0.4585981994E-03    0.3282814547E-03    0.4507496215E-02
    0.3700000000E+03    0.1652487290E-03    0.6845185321E+00    0.4867161476E-03    0.3488296324E-03    0.4504637743E-02
    0.3900000000E+03    0.1739877803E-03    0.6850781086E+00    0.5152843354E-03    0.3696950354E-03    0.4501638069E-02
    0.4100000000E+03    0.1828850837E-03    0.6855838382E+00    0.5443161502E-03    0.3908892337E-03    0.4498504716E-02
    0.4300000000E+03    0.1919435348E-03    0.6860431323E+00    0.5738254212E-03    0.4124238054E-03    0.4495243665E-02
    0.4500000000E+03    0.2011663543E-03    0.6864621020E+00    0.6038264065E-03    0.4343103934E-03    0.4491859651E-02
    0.4700000000E+03    0.2105570551E-03    0.6868458313E+00    0.6343337895E-03    0.4565607547E-03    0.4488356391E-02
    0.4900000000E+03    0.2201194179E-03    0.6871985841E+00    0.6653626851E-03    0.4791868032E-03    0.4484736761E-02
    0.1000000000E+03    0.6289066523E-04    0.6562772440E+00    0.1412981901E-03    0.9283935206E-04    0.4519818498E-02
    0.3000000000E+03    0.1358759536E-03    0.6819835038E+00    0.3901897063E-03    0.2782221761E-03    0.4513956194E-02
    0.5000000000E+03    0.2249662229E-03    0.6873644925E+00    0.6810775440E-03    0.4906444857E-03    0.4482884012E-02
    0.7000000000E+03    0.3320395001E-03    0.6896946799E+00    0.1026861240E-02    0.7426574645E-03    0.4439963066E-02
    0.9000000000E+03    0.4625048999E-03    0.6909948402E+00    0.1446509989E-02    0.1048563418E-02    0.4385232750E-02
    0.1100000000E+04    0.6244801269E-03    0.6918239484E+00    0.1966732461E-02    0.1428065610E-02    0.4316142270E-02
    0.1300000000E+04    0.8300365953E-03    0.6923985234E+00    0.2626695982E-02    0.1909968395E-02    0.4228154240E-02
    0.1500000000E+04    0.1097561319E-02    0.6928200415E+00    0.3485864169E-02    0.2538008938E-02    0.4114117930E-02
    0.1700000000E+04    0.1455832165E-02    0.6931423785E+00    0.4637295770E-02    0.3380709990E-02    0.3962875940E-02
    0.1900000000E+04    0.1950829796E-02    0.6933967884E+00    0.6229872210E-02    0.4547887806E-02    0.3756953690E-02
    0.2100000000E+04    0.2655812372E-02    0.6936026473E+00    0.8501394444E-02    0.6215406438E-02    0.3469503107E-02
    0.2300000000E+04    0.3679243050E-02    0.6937726053E+00    0.1180561709E-01    0.8646102532E-02    0.3063440168E-02
    0.2500000000E+04    0.5138244788E-02    0.6939152717E+00    0.1652961469E-01    0.1213120396E-01    0.2506477492E-02
    0.2700000000E+04    0.7013635241E-02    0.6940367087E+00    0.2262869418E-01    0.1665029022E-01    0.1831526972E-02
    0.2900000000E+04    0.8939176443E-02    0.6941413082E+00    0.2893782593E-01    0.2135886659E-01    0.1204127178E-02
    0.3100000000E+04    0.1044276001E-01    0.6942323298E+00    0.3393007694E-01    0.2513178179E-01    0.7964240085E-03
    0.3300000000E+04    0.1145181836E-01    0.6943122435E+00    0.3735294233E-01    0.2777032638E-01    0.6020665278E-03
    0.3500000000E+04    0.1215714633E-01    0.6943829553E+00    0.3980984192E-01    0.2970951470E-01    0.5250052370E-03
    0.3700000000E+04    0.1271708299E-01    0.6944459590E+00    0.4180778063E-01    0.3131941555E-01    0.4972310697E-03
    0.3900000000E+04    0.1320912321E-01    0.6945024422E+00    0.4359601686E-01    0.3278280277E-01    0.4880215737E-03
    0.4100000000E+04    0.1366528227E-01    0.6945533607E+00    0.4527761756E-01    0.3417534850E-01    0.4855312125E-03
    0.4300000000E+04    0.1409825763E-01    0.6945994925E+00    0.4689325824E-01    0.3552679938E-01    0.4854304140E-03
    0.4500000000E+04    0.1451323136E-01    0.6946414774E+00    0.4845925914E-01    0.3684891205E-01    0.4861606743E-03
    0.4700000000E+04    0.1491253105E-01    0.6946798459E+00    0.4998267371E-01    0.3814658385E-01    0.4871625541E-03
    0.4900000000E+04    0.1529739567E-01    0.6947150423E+00    0.5146702762E-01    0.3942210285E-01    0.4882356165E-03
    0.1000000000E+04    0.5389133353E-03    0.6914507067E+00    0.1691965768E-02    0.1227582086E-02    0.4352715860E-02
    0.3000000000E+04    0.9759303375E-02    0.6941883464E+00    0.3164998141E-01    0.2340088127E-01    0.9689175342E-03
    0.5000000000E+04    0.1548467721E-01    0.6947315702E+00    0.5219525753E-01    0.4005197526E-01    0.4887743196E-03
    0.7000000000E+04    0.1861638224E-01    0.6949616674E+00    0.6507177449E-01    0.5168572048E-01    0.4980654849E-03
    0.9000000000E+04    0.2084337149E-01    0.6950878825E+00    0.7537933452E-01    0.6181726878E-01    0.5051196839E-03
    0.1100000000E+05    0.2243995209E-01    0.6951671367E+00    0.8380087395E-01    0.7080387113E-01    0.5108143981E-03
    0.1300000000E+05    0.2358504808E-01    0.6952212518E+00    0.9079605584E-01    0.7889210035E-01    0.5155988446E-03
    0.1500000000E+05    0.2439957041E-01    0.6952603747E+00    0.9668580826E-01    0.8625838308E-01    0.5197297457E-03
    0.1700000000E+05    0.2496763822E-01    0.6952898576E+00    0.1017010636E+00    0.9303273589E-01    0.5233679290E-03
    0.1900000000E+05    0.2534922466E-01    0.6953127866E+00    0.1060123006E+00    0.9931340067E-01    0.5266209597E-03
    0.2100000000E+05    0.2558798842E-01    0.6953310650E+00    0.1097481627E+00    0.1051762214E+00    0.5295644017E-03
    0.2300000000E+05    0.2571628607E-01    0.6953459287E+00    0.1130075902E+00    0.1106808518E+00    0.5322534103E-03
    0.2500000000E+05    0.2575847266E-01    0.6953582148E+00    0.1158679578E+00    0.1158749834E+00    0.5347295002E-03
    0.2700000000E+05    0.2573312975E-01    0.6953685097E+00    0.1183906717E+00    0.1207972978E+00    0.5370247173E-03
    0.2900000000E+05    0.2565460260E-01    0.6953772365E+00    0.1206251067E+00    0.1254795729E+00    0.5391643248E-03
    0.3100000000E+05    0.2553408158E-01    0.6953847075E+00    0.1226114304E+00    0.1299482165E+00    0.5411685985E-03
    0.3300000000E+05    0.2538037607E-01    0.6953911584E+00    0.1243826661E+00    0.1342254008E+00    0.5430540632E-03
    0.3500000000E+05    0.2520047699E-01    0.6953967702E+00    0.1259662224E+00    0.1383299159E+00    0.5448343678E-03
    0.3700000000E+05    0.2499997156E-01    0.6954016840E+00    0.1273850457E+00    0.1422778218E+00    0.5465209185E-03
    0.3900000000E+05    0.2478335280E-01    0.6954060116E+00    0.1286584981E+00    0.1460829505E+00    0.5481233464E-03
    0.4100000000E+05    0.2455425338E-01    0.6954098426E+00    0.1298030356E+00    0.1497573003E+00    0.5496498593E-03
    0.4300000000E+05    0.2431562401E-01    0.6954132495E+00    0.1308327372E+00    0.1533113462E+00    0.5511075100E-03
    0.4500000000E+05    0.2406987096E-01    0.6954162916E+00    0.1317597221E+00    0.1567542882E+00    0.5525024039E-03
    0.4700000000E+05    0.2381896292E-01    0.6954190179E+00    0.1325944812E+00    0.1600942513E+00    0.5538398626E-03
    0.4900000000E+05    0.2356451482E-01    0.6954214694E+00    0.1333461434E+00    0.1633384478E+00    0.5551245525E-03
    0.1000000000E+05    0.2170758800E-01    0.6951316051E+00    0.7979311893E-01    0.6643626767E-01    0.5081026111E-03
    0.3000000000E+05    0.2559899238E-01    0.6953811128E+00    0.1216470712E+00    0.1277391248E+00    0.5401822694E-03
    0.5000000000E+05    0.2343638775E-01    0.6954226030E+00    0.1336933475E+00    0.1649266710E+00    0.5557484144E-03
    0.7000000000E+05    0.2090671313E-01    0.6954368390E+00    0.1377692546E+00    0.1929149722E+00    0.5662405969E-03
    0.9000000000E+05    0.1865551256E-01    0.6954427600E+00    0.1386363859E+00    0.2157975910E+00    0.5742045338E-03
    0.1100000000E+06    0.1673803643E-01    0.6954452490E+00    0.1379587937E+00    0.2353288575E+00    0.5806431311E-03
    0.1300000000E+06    0.1511279236E-01    0.6954460779E+00    0.1364675913E+00    0.2524436053E+00    0.5860577053E-03
    0.1500000000E+06    0.1372819819E-01    0.6954460241E+00    0.1345305878E+00    0.2677091867E+00    0.5907357622E-03
    0.1700000000E+06    0.1253941840E-01    0.6954454730E+00    0.1323498316E+00    0.2815009390E+00    0.5948578478E-03
    0.1900000000E+06    0.1151039386E-01    0.6954446326E+00    0.1300431497E+00    0.2940828245E+00    0.5985449266E-03
    0.2100000000E+06    0.1061268309E-01    0.6954436220E+00    0.1276821290E+00    0.3056491135E+00    0.6018820876E-03
    0.2300000000E+06    0.9823872240E-02    0.6954425128E+00    0.1253114537E+00    0.3163478837E+00    0.6049315035E-03
    0.2500000000E+06    0.9126190890E-02    0.6954413493E+00    0.1229594446E+00    0.3262951831E+00    0.6077400100E-03
    0.2700000000E+06    0.8505428976E-02    0.6954401600E+00    0.1206441201E+00    0.3355840299E+00    0.6103437851E-03
    0.2900000000E+06    0.7950117164E-02    0.6954389629E+00    0.1183768354E+00    0.3442903831E+00    0.6127713660E-03
    0.3100000000E+06    0.7450911982E-02    0.6954377701E+00    0.1161645456E+00    0.3524772468E+00    0.6150456674E-03
    0.3300000000E+06    0.7000133775E-02    0.6954365895E+00    0.1140112559E+00    0.3601975784E+00    0.6171853723E-03
    0.3500000000E+06    0.6591417315E-02    0.6954354259E+00    0.1119189724E+00    0.3674964009E+00    0.6192059180E-03
    0.3700000000E+06    0.6219445401E-02    0.6954342828E+00    0.1098883386E+00    0.3744123735E+00    0.6211202092E-03
    0.3900000000E+06    0.5879743901E-02    0.6954331620E+00    0.1079190689E+00    0.3809789805E+00    0.6229391456E-03
    0.4100000000E+06    0.5568522597E-02    0.6954320647E+00    0.1060102477E+00    0.3872254474E+00    0.6246720181E-03
    0.4300000000E+06    0.5282550478E-02    0.6954309913E+00    0.1041605385E+00    0.3931774570E+00    0.6263268121E-03
    0.4500000000E+06    0.5019057188E-02    0.6954299419E+00    0.1023683303E+00    0.3988577173E+00    0.6279104417E-03
    0.4700000000E+06    0.4775654474E-02    0.6954289164E+00    0.1006318416E+00    0.4042864166E+00    0.6294289343E-03
    0.4900000000E+06    0.4550273098E-02    0.6954279143E+00    0.9894919493E-01    0.4094815922E+00    0.6308875765E-03
    0.1000000000E+06    0.1765700149E-01    0.6954442873E+00    0.1384327358E+00    0.2259119334E+00    0.5775761946E-03
    0.3000000000E+06    0.7694015656E-02    0.6954383654E+00    0.1172635096E+00    0.3484452337E+00    0.6139264229E-03
    0.5000000000E+06    0.4443768240E-02    0.6954274219E+00    0.9812746242E-01    0.4119967327E+00    0.6315959323E-03
    0.7000000000E+06    0.2925635630E-02    0.6954186480E+00    0.8406327727E-01    0.4532241431E+00    0.6435108666E-03
    0.9000000000E+06    0.2081449386E-02    0.6954114895E+00    0.7346029960E-01    0.4825907093E+00    0.6525564205E-03
    0.1100000000E+07    0.1560020844E-02    0.6954054669E+00    0.6520928611E-01    0.5047116355E+00    0.6598702405E-03
    0.1300000000E+07    0.1214144310E-02    0.6954002724E+00    0.5861286034E-01    0.5220275895E+00    0.6660212470E-03
    0.1500000000E+07    0.9724640846E-03    0.6953957052E+00    0.5322094690E-01    0.5359741818E+00    0.6713358043E-03
    0.1700000000E+07    0.7967272391E-03    0.6953916288E+00    0.4873213586E-01    0.5474589055E+00    0.6760188979E-03
    0.1900000000E+07    0.6648394689E-03    0.6953879467E+00    0.4493751209E-01    0.5570865613E+00    0.6802078840E-03
    0.2100000000E+07    0.5632807074E-03    0.6953845882E+00    0.4168786317E-01    0.5652770446E+00    0.6839993916E-03
    0.2300000000E+07    0.4833862002E-03    0.6953814999E+00    0.3887382895E-01    0.5723315956E+00    0.6874640305E-03
    0.2500000000E+07    0.4193881017E-03    0.6953786409E+00    0.3641344971E-01    0.5784722466E+00    0.6906549956E-03
    0.2700000000E+07    0.3673230302E-03    0.6953759787E+00    0.3424409866E-01    0.5838664080E+00    0.6936133789E-03
    0.2900000000E+07    0.3243929639E-03    0.6953734874E+00    0.3231710268E-01    0.5886427784E+00    0.6963715953E-03
    0.3100000000E+07    0.2885760581E-03    0.6953711460E+00    0.3059406292E-01    0.5929019727E+00    0.6989556736E-03
    0.3300000000E+07    0.2583813869E-03    0.6953689370E+00    0.2904428067E-01    0.5967238151E+00    0.7013868370E-03
    0.3500000000E+07    0.2326897280E-03    0.6953668458E+00    0.2764291999E-01    0.6001724634E+00    0.7036826219E-03
    0.3700000000E+07    0.2106474846E-03    0.6953648604E+00    0.2636967231E-01    0.6033000840E+00    0.7058576881E-03
    0.3900000000E+07    0.1915943710E-03    0.6953629702E+00    0.2520777003E-01    0.6061495351E+00    0.7079244176E-03
    0.4100000000E+07    0.1750130967E-03    0.6953611663E+00    0.2414324725E-01    0.6087563588E+00    0.7098933656E-03
    0.4300000000E+07    0.1604937120E-03    0.6953594410E+00    0.2316437823E-01    0.6111502817E+00    0.7117736038E-03
    0.4500000000E+07    0.1477079216E-03    0.6953577875E+00    0.2226124571E-01    0.6133563592E+00    0.7135729872E-03
    0.4700000000E+07    0.1363903009E-03    0.6953561999E+00    0.2142540528E-01    0.6153958600E+00    0.7152983635E-03
    0.4900000000E+07    0.1263243708E-03    0.6953546731E+00    0.2064962188E-01    0.6172869561E+00    0.7169557385E-03
    0.1000000000E+07    0.1792189905E-02    0.6954083587E+00    0.6909174334E-01    0.4943723041E+00    0.6563863304E-03
    0.3000000000E+07    0.3056988054E-03    0.6953722991E+00    0.3143216297E-01    0.5908316148E+00    0.6976839775E-03
    0.5000000000E+07    0.1217038966E-03    0.6953539311E+00    0.2028226896E-01    0.6181818210E+00    0.7177606056E-03
    0.7000000000E+07    0.6490364058E-04    0.6953413961E+00    0.1494922204E-01    0.6311304494E+00    0.7312990037E-03
    0.9000000000E+07    0.4024410427E-04    0.6953318255E+00    0.1182642858E-01    0.6386781444E+00    0.7415771349E-03
    0.1100000000E+08    0.2736750081E-04    0.6953240609E+00    0.9777198429E-02    0.6436185715E+00    0.7498875876E-03
    0.1300000000E+08    0.1981032246E-04    0.6953175160E+00    0.8329844782E-02    0.6471024617E+00    0.7568767834E-03
    0.1500000000E+08    0.1500138783E-04    0.6953118519E+00    0.7253544724E-02    0.6496904669E+00    0.7629155513E-03
    0.1700000000E+08    0.1175389797E-04    0.6953068545E+00    0.6422047987E-02    0.6516883517E+00    0.7682368063E-03
    0.1900000000E+08    0.9458648274E-05    0.6953023800E+00    0.5760503481E-02    0.6532770260E+00    0.7729966207E-03
    0.2100000000E+08    0.7776872598E-05    0.6952983268E+00    0.5221729057E-02    0.6545703530E+00    0.7773047909E-03
    0.2300000000E+08    0.6508025444E-05    0.6952946206E+00    0.4774513750E-02    0.6556435653E+00    0.7812415483E-03
    0.2500000000E+08    0.5527256054E-05    0.6952912052E+00    0.4397390359E-02    0.6565483615E+00    0.7848673368E-03
    0.2700000000E+08    0.4753550708E-05    0.6952880372E+00    0.4075110201E-02    0.6573214372E+00    0.7882288483E-03
