  Pressure (Pa) 22mC5-500 (mol/kg) 24mC5-500 (mol/kg) 2mC6-500 (mol/kg) 3mC6-500 (mol/kg) C7-500 (mol/kg)
    0.1000000000E+01    0.1054750980E-04    0.3665671624E-01    0.6890239670E-05    0.2095110609E-05    0.4258690155E-02
    0.3000000000E+01    0.2788661807E-04    0.9946175479E-01    0.1782120627E-04    0.5452130193E-05    0.4421772387E-02
    0.5000000000E+01    0.4158427578E-04    0.1513110277E+00    0.2613238368E-04    0.8560946846E-05    0.4556030015E-02
    0.7000000000E+01    0.5261096186E-04    0.1948414512E+00    0.3258397529E-04    0.1154801592E-04    0.4669242223E-02
    0.9000000000E+01    0.6162308536E-04    0.2319065408E+00    0.3767578970E-04    0.1445654367E-04    0.4766137872E-02
    0.1100000000E+02    0.6908429384E-04    0.2638472249E+00    0.4175334444E-04    0.1730830562E-04    0.4850083620E-02
    0.1300000000E+02    0.7533120204E-04    0.2916575815E+00    0.4506234401E-04    0.2011632954E-04    0.4923567550E-02
    0.1500000000E+02    0.8061361924E-04    0.3160901757E+00    0.4778134081E-04    0.2288923471E-04    0.4988473207E-02
    0.1700000000E+02    0.8512040310E-04    0.3377252054E+00    0.5004243848E-04    0.2563311839E-04    0.5046254217E-02
    0.1900000000E+02    0.8899663904E-04    0.3570171787E+00    0.5194488606E-04    0.2835250566E-04    0.5098050975E-02
    0.2100000000E+02    0.9235536395E-04    0.3743272009E+00    0.5356424930E-04    0.3105087840E-04    0.5144771044E-02
    0.2300000000E+02    0.9528574930E-04    0.3899457964E+00    0.5495873887E-04    0.3373099258E-04    0.5187145912E-02
    0.2500000000E+02    0.9785892624E-04    0.4041093497E+00    0.5617366211E-04    0.3639507970E-04    0.5225771857E-02
    0.2700000000E+02    0.1001322049E-03    0.4170121562E+00    0.5724460858E-04    0.3904498068E-04    0.5261139920E-02
    0.2900000000E+02    0.1021521783E-03    0.4288153904E+00    0.5819976410E-04    0.4168223814E-04    0.5293658222E-02
    0.3100000000E+02    0.1039570378E-03    0.4396538755E+00    0.5906161490E-04    0.4430816203E-04    0.5323668817E-02
    0.3300000000E+02    0.1055783225E-03    0.4496412572E+00    0.5984821784E-04    0.4692387752E-04    0.5351460593E-02
    0.3500000000E+02    0.1070422567E-03    0.4588740051E+00    0.6057415805E-04    0.4953036070E-04    0.5377279258E-02
    0.3700000000E+02    0.1083707821E-03    0.4674345393E+00    0.6125127811E-04    0.5212846576E-04    0.5401335145E-02
    0.3900000000E+02    0.1095823636E-03    0.4753936986E+00    0.6188923855E-04    0.5471894605E-04    0.5423809387E-02
    0.4100000000E+02    0.1106926235E-03    0.4828127054E+00    0.6249595242E-04    0.5730247054E-04    0.5444858833E-02
    0.4300000000E+02    0.1117148438E-03    0.4897447442E+00    0.6307792483E-04    0.5987963696E-04    0.5464620010E-02
    0.4500000000E+02    0.1126603690E-03    0.4962362389E+00    0.6364052021E-04    0.6245098241E-04    0.5483212322E-02
    0.4700000000E+02    0.1135389298E-03    0.5023278936E+00    0.6418817420E-04    0.6501699194E-04    0.5500740666E-02
    0.4900000000E+02    0.1143589059E-03    0.5080555478E+00    0.6472456254E-04    0.6757810563E-04    0.5517297585E-02
    0.1000000000E+02    0.6552409870E-04    0.2484486298E+00    0.3982411100E-04    0.1588857019E-04    0.4809557228E-02
    0.3000000000E+02    0.1030793875E-03    0.4343476791E+00    0.5864113274E-04    0.4299654259E-04    0.5308957810E-02
    0.5000000000E+02    0.1147492273E-03    0.5107929204E+00    0.6498950690E-04    0.6885695322E-04    0.5525237743E-02
    0.7000000000E+02    0.1208001667E-03    0.5524669623E+00    0.7020891776E-04    0.9425815296E-04    0.5648718894E-02
    0.9000000000E+02    0.1253388623E-03    0.5786977416E+00    0.7581696296E-04    0.1194740323E-03    0.5729731983E-02
    0.1100000000E+03    0.1295435463E-03    0.5967273957E+00    0.8199964044E-04    0.1446449811E-03    0.5787525581E-02
    0.1300000000E+03    0.1338102208E-03    0.6098818730E+00    0.8870967787E-04    0.1698569256E-03    0.5831115865E-02
    0.1500000000E+03    0.1382784989E-03    0.6199028299E+00    0.9586845916E-04    0.1951684648E-03    0.5865315855E-02
    0.1700000000E+03    0.1429935293E-03    0.6277905920E+00    0.1034065404E-03    0.2206226791E-03    0.5892942339E-02
    0.1900000000E+03    0.1479635876E-03    0.6341606547E+00    0.1112694525E-03    0.2462530741E-03    0.5915760624E-02
    0.2100000000E+03    0.1531825839E-03    0.6394125052E+00    0.1194159424E-03    0.2720868885E-03    0.5934937289E-02
    0.2300000000E+03    0.1586393857E-03    0.6438167402E+00    0.1278150858E-03    0.2981470761E-03    0.5951276571E-02
    0.2500000000E+03    0.1643217805E-03    0.6475631672E+00    0.1364437526E-03    0.3244535634E-03    0.5965352401E-02
    0.2700000000E+03    0.1702181362E-03    0.6507888612E+00    0.1452846523E-03    0.3510240847E-03    0.5977586299E-02
    0.2900000000E+03    0.1763180387E-03    0.6535952876E+00    0.1543248864E-03    0.3778747583E-03    0.5988295454E-02
    0.3100000000E+03    0.1826124711E-03    0.6560591607E+00    0.1635548901E-03    0.4050204969E-03    0.5997723553E-02
    0.3300000000E+03    0.1890937903E-03    0.6582395566E+00    0.1729676564E-03    0.4324753078E-03    0.6006061203E-02
    0.3500000000E+03    0.1957556213E-03    0.6601827069E+00    0.1825581651E-03    0.4602525180E-03    0.6013459839E-02
    0.3700000000E+03    0.2025927244E-03    0.6619253097E+00    0.1923229587E-03    0.4883649468E-03    0.6020041439E-02
    0.3900000000E+03    0.2096008625E-03    0.6634968661E+00    0.2022598245E-03    0.5168250407E-03    0.6025905454E-02
    0.4100000000E+03    0.2167766773E-03    0.6649213623E+00    0.2123675548E-03    0.5456449808E-03    0.6031133847E-02
    0.4300000000E+03    0.2241175799E-03    0.6662185004E+00    0.2226457633E-03    0.5748367693E-03    0.6035794818E-02
    0.4500000000E+03    0.2316216563E-03    0.6674046143E+00    0.2330947446E-03    0.6044123017E-03    0.6039945608E-02
    0.4700000000E+03    0.2392875860E-03    0.6684933596E+00    0.2437153649E-03    0.6343834263E-03    0.6043634633E-02
    0.4900000000E+03    0.2471145731E-03    0.6694962412E+00    0.2545089773E-03    0.6647619949E-03    0.6046903126E-02
    0.1000000000E+03    0.1274489662E-03    0.5884769642E+00    0.7883771041E-04    0.1320589080E-03    0.5760828193E-02
    0.3000000000E+03    0.1794414475E-03    0.6548660027E+00    0.1589166574E-03    0.3914098508E-03    0.5993156666E-02
    0.5000000000E+03    0.2510883434E-03    0.6699685924E+00    0.2599711948E-03    0.6801077865E-03    0.6048390918E-02
    0.7000000000E+03    0.3391534652E-03    0.6766481466E+00    0.3789194346E-03    0.1011412362E-02    0.6062459356E-02
    0.9000000000E+03    0.4450616367E-03    0.6804116405E+00    0.5190681014E-03    0.1398501503E-02    0.6055422896E-02
    0.1100000000E+04    0.5725781032E-03    0.6828248866E+00    0.6859730989E-03    0.1857983535E-02    0.6032669677E-02
    0.1300000000E+04    0.7275547487E-03    0.6845030481E+00    0.8875559202E-03    0.2412244965E-02    0.5995132601E-02
    0.1500000000E+04    0.9185230237E-03    0.6857369766E+00    0.1135050825E-02    0.3092557258E-02    0.5941431305E-02
    0.1700000000E+04    0.1157915513E-02    0.6866820220E+00    0.1444666307E-02    0.3943841091E-02    0.5868245169E-02
    0.1900000000E+04    0.1464129563E-02    0.6874286988E+00    0.1840304309E-02    0.5032281346E-02    0.5769972831E-02
    0.2100000000E+04    0.1864888316E-02    0.6880333078E+00    0.2357959814E-02    0.6457604326E-02    0.5637850718E-02
    0.2300000000E+04    0.2402490413E-02    0.6885327024E+00    0.3052600707E-02    0.8372317913E-02    0.5458510515E-02
    0.2500000000E+04    0.3140980107E-02    0.6889520154E+00    0.4007633548E-02    0.1100837856E-01    0.5212193782E-02
    0.2700000000E+04    0.4171422948E-02    0.6893089738E+00    0.5342149308E-02    0.1469835128E-01    0.4872313922E-02
    0.2900000000E+04    0.5596703692E-02    0.6896164383E+00    0.7192075673E-02    0.1982553876E-01    0.4413073063E-02
    0.3100000000E+04    0.7446979480E-02    0.6898839652E+00    0.9601721616E-02    0.2652675178E-01    0.3840340727E-02
    0.3300000000E+04    0.9512518229E-02    0.6901188031E+00    0.1230631980E-01    0.3408810565E-01    0.3242799487E-02
    0.3500000000E+04    0.1135608536E-01    0.6903265495E+00    0.1474247380E-01    0.4095883385E-01    0.2769269287E-02
    0.3700000000E+04    0.1270775760E-01    0.6905115951E+00    0.1655613963E-01    0.4614760157E-01    0.2489544885E-02
    0.3900000000E+04    0.1363760939E-01    0.6906774325E+00    0.1783184918E-01    0.4987165928E-01    0.2357852643E-02
    0.4100000000E+04    0.1432133547E-01    0.6908268741E+00    0.1879374883E-01    0.5274208921E-01    0.2304774657E-02
    0.4300000000E+04    0.1488148449E-01    0.6909622103E+00    0.1959942869E-01    0.5519194525E-01    0.2286639758E-02
    0.4500000000E+04    0.1537978798E-01    0.6910853246E+00    0.2032856419E-01    0.5744100163E-01    0.2282830475E-02
    0.4700000000E+04    0.1584386297E-01    0.6911977807E+00    0.2101683537E-01    0.5958780908E-01    0.2284649741E-02
    0.4900000000E+04    0.1628565202E-01    0.6913008868E+00    0.2167962093E-01    0.6167474193E-01    0.2288585602E-02
    0.1000000000E+04    0.5058060162E-03    0.6817372614E+00    0.5987444598E-03    0.1617960261E-02    0.6045886888E-02
    0.3000000000E+04    0.6474285317E-02    0.6897546958E+00    0.8333710204E-02    0.2299696124E-01    0.4137769486E-02
    0.5000000000E+04    0.1649996035E-01    0.6913492854E+00    0.2200371452E-01    0.6270192445E-01    0.2290870570E-02
    0.7000000000E+04    0.2012370213E-01    0.6920212197E+00    0.2777143997E-01    0.8174959545E-01    0.2334843428E-02
    0.9000000000E+04    0.2277409227E-01    0.6923872897E+00    0.3246866473E-01    0.9854377930E-01    0.2368434609E-02
    0.1100000000E+05    0.2471735917E-01    0.6926153951E+00    0.3635175649E-01    0.1135684715E+00    0.2395450626E-02
    0.1300000000E+05    0.2613529454E-01    0.6927698534E+00    0.3959967944E-01    0.1271662352E+00    0.2418092428E-02
    0.1500000000E+05    0.2715655208E-01    0.6928805313E+00    0.4234259500E-01    0.1395912947E+00    0.2437607404E-02
    0.1700000000E+05    0.2787421948E-01    0.6929631544E+00    0.4467742017E-01    0.1510367010E+00    0.2454772473E-02
    0.1900000000E+05    0.2835694744E-01    0.6930267743E+00    0.4667780422E-01    0.1616520077E+00    0.2470105037E-02
    0.2100000000E+05    0.2865620855E-01    0.6930769602E+00    0.4840072228E-01    0.1715551187E+00    0.2483967379E-02
    0.2300000000E+05    0.2881115576E-01    0.6931173215E+00    0.4989094982E-01    0.1808404388E+00    0.2496623245E-02
    0.2500000000E+05    0.2885194918E-01    0.6931502969E+00    0.5118417066E-01    0.1895846086E+00    0.2508270739E-02
    0.2700000000E+05    0.2880208073E-01    0.6931775910E+00    0.5230918088E-01    0.1978506232E+00    0.2519062512E-02
    0.2900000000E+05    0.2868002817E-01    0.6932004302E+00    0.5328948103E-01    0.2056908445E+00    0.2529118732E-02
    0.3100000000E+05    0.2850045123E-01    0.6932197177E+00    0.5414444564E-01    0.2131492396E+00    0.2538535719E-02
    0.3300000000E+05    0.2827506930E-01    0.6932361335E+00    0.5489019533E-01    0.2202630688E+00    0.2547391893E-02
    0.3500000000E+05    0.2801331420E-01    0.6932501980E+00    0.5554025617E-01    0.2270641772E+00    0.2555751964E-02
    0.3700000000E+05    0.2772282141E-01    0.6932623165E+00    0.5610606449E-01    0.2335799930E+00    0.2563669964E-02
    0.3900000000E+05    0.2740980398E-01    0.6932728087E+00    0.5659735774E-01    0.2398343093E+00    0.2571191484E-02
    0.4100000000E+05    0.2707933991E-01    0.6932819299E+00    0.5702248049E-01    0.2458479024E+00    0.2578355352E-02
    0.4300000000E+05    0.2673559514E-01    0.6932898865E+00    0.5738862621E-01    0.2516390253E+00    0.2585194911E-02
    0.4500000000E+05    0.2638199809E-01    0.6932968469E+00    0.5770203011E-01    0.2572238045E+00    0.2591739013E-02
    0.4700000000E+05    0.2602137727E-01    0.6933029498E+00    0.5796812427E-01    0.2626165636E+00    0.2598012792E-02
    0.4900000000E+05    0.2565607066E-01    0.6933083102E+00    0.5819166339E-01    0.2678300866E+00    0.2604038276E-02
    0.1000000000E+05    0.2382124237E-01    0.6925133558E+00    0.3449941370E-01    0.1062534249E+00    0.2382595668E-02
    0.3000000000E+05    0.2859663744E-01    0.6932104710E+00    0.5373155508E-01    0.2094653011E+00    0.2533901864E-02
    0.5000000000E+05    0.2547227856E-01    0.6933107426E+00    0.5828880107E-01    0.2703732631E+00    0.2606964068E-02
    0.7000000000E+05    0.2187211173E-01    0.6933371688E+00    0.5878650529E-01    0.3140795266E+00    0.2656148078E-02
    0.9000000000E+05    0.1873700535E-01    0.6933425668E+00    0.5774073166E-01    0.3480023725E+00    0.2693457501E-02
    0.1100000000E+06    0.1614235562E-01    0.6933400287E+00    0.5604925982E-01    0.3754732629E+00    0.2723609848E-02
    0.1300000000E+06    0.1401352011E-01    0.6933340943E+00    0.5409980927E-01    0.3983333884E+00    0.2748960267E-02
    0.1500000000E+06    0.1226095707E-01    0.6933266518E+00    0.5207727785E-01    0.4177298095E+00    0.2770858376E-02
    0.1700000000E+06    0.1080764089E-01    0.6933185784E+00    0.5007406092E-01    0.4344335878E+00    0.2790151243E-02
    0.1900000000E+06    0.9592332387E-02    0.6933103108E+00    0.4813656346E-01    0.4489906733E+00    0.2807406166E-02
    0.2100000000E+06    0.8567431524E-02    0.6933020752E+00    0.4628703061E-01    0.4618024787E+00    0.2823022076E-02
    0.2300000000E+06    0.7696075053E-02    0.6932939901E+00    0.4453458967E-01    0.4731727485E+00    0.2837290390E-02
    0.2500000000E+06    0.6949604877E-02    0.6932861163E+00    0.4288114176E-01    0.4833366157E+00    0.2850430594E-02
    0.2700000000E+06    0.6305585923E-02    0.6932784826E+00    0.4132462770E-01    0.4924795200E+00    0.2862612201E-02
    0.2900000000E+06    0.5746310217E-02    0.6932710996E+00    0.3986088675E-01    0.5007500088E+00    0.2873968903E-02
    0.3100000000E+06    0.5257680904E-02    0.6932639677E+00    0.3848473168E-01    0.5082686738E+00    0.2884608039E-02
    0.3300000000E+06    0.4828380431E-02    0.6932570814E+00    0.3719057450E-01    0.5151345521E+00    0.2894617116E-02
    0.3500000000E+06    0.4449247972E-02    0.6932504319E+00    0.3597278840E-01    0.5214298111E+00    0.2904068433E-02
    0.3700000000E+06    0.4112810380E-02    0.6932440090E+00    0.3482591280E-01    0.5272232427E+00    0.2913022421E-02
    0.3900000000E+06    0.3812926112E-02    0.6932378015E+00    0.3374476377E-01    0.5325729100E+00    0.2921530120E-02
    0.4100000000E+06    0.3544512710E-02    0.6932317984E+00    0.3272448742E-01    0.5375281818E+00    0.2929635034E-02
    0.4300000000E+06    0.3303336520E-02    0.6932259888E+00    0.3176057904E-01    0.5421313163E+00    0.2937374548E-02
    0.4500000000E+06    0.3085849152E-02    0.6932203621E+00    0.3084888186E-01    0.5464187063E+00    0.2944781034E-02
    0.4700000000E+06    0.2889059273E-02    0.6932149084E+00    0.2998557426E-01    0.5504218703E+00    0.2951882710E-02
    0.4900000000E+06    0.2710431370E-02    0.6932096183E+00    0.2916715061E-01    0.5541682470E+00    0.2958704323E-02
    0.1000000000E+06    0.1737577055E-01    0.6933419105E+00    0.5694465988E-01    0.3624072955E+00    0.2709248306E-02
    0.3000000000E+06    0.5493929085E-02    0.6932675025E+00    0.3916220604E-01    0.5045966860E+00    0.2879372294E-02
    0.5000000000E+06    0.2627240287E-02    0.6932070318E+00    0.2877375578E-01    0.5559527600E+00    0.2962017027E-02
    0.7000000000E+06    0.1531233186E-02    0.6931620407E+00    0.2261599729E-01    0.5826575036E+00    0.3017733545E-02
    0.9000000000E+06    0.1000500161E-02    0.6931263781E+00    0.1859260815E-01    0.5990359092E+00    0.3060026442E-02
    0.1100000000E+07    0.7042092761E-03    0.6930968316E+00    0.1576909231E-01    0.6101070256E+00    0.3094219135E-02
    0.1300000000E+07    0.5222701500E-03    0.6930715899E+00    0.1368208875E-01    0.6180898938E+00    0.3122973341E-02
    0.1500000000E+07    0.4026475949E-03    0.6930495407E+00    0.1207822815E-01    0.6241177667E+00    0.3147815793E-02
    0.1700000000E+07    0.3198435741E-03    0.6930299538E+00    0.1080790422E-01    0.6288299254E+00    0.3169705329E-02
    0.1900000000E+07    0.2601760356E-03    0.6930123245E+00    0.9777288122E-02    0.6326143861E+00    0.3189284396E-02
    0.2100000000E+07    0.2157713657E-03    0.6929962894E+00    0.8924626240E-02    0.6357202962E+00    0.3207004929E-02
    0.2300000000E+07    0.1818393709E-03    0.6929815782E+00    0.8207646031E-02    0.6383149505E+00    0.3223197148E-02
    0.2500000000E+07    0.1553306189E-03    0.6929679841E+00    0.7596451269E-02    0.6405148490E+00    0.3238109823E-02
    0.2700000000E+07    0.1342293044E-03    0.6929553458E+00    0.7069309727E-02    0.6424036106E+00    0.3251935114E-02
    0.2900000000E+07    0.1171597996E-03    0.6929435346E+00    0.6610048983E-02    0.6440428069E+00    0.3264824598E-02
    0.3100000000E+07    0.1031574138E-03    0.6929324465E+00    0.6206387930E-02    0.6454787772E+00    0.3276899987E-02
    0.3300000000E+07    0.9152947889E-04    0.6929219958E+00    0.5848834393E-02    0.6467470633E+00    0.3288260519E-02
    0.3500000000E+07    0.8176827260E-04    0.6929121115E+00    0.5529936982E-02    0.6478753802E+00    0.3298988189E-02
    0.3700000000E+07    0.7349479795E-04    0.6929027339E+00    0.5243765278E-02    0.6488856580E+00    0.3309151542E-02
    0.3900000000E+07    0.6642153128E-04    0.6928938122E+00    0.4985541037E-02    0.6497954754E+00    0.3318808471E-02
    0.4100000000E+07    0.6032716300E-04    0.6928853032E+00    0.4751371654E-02    0.6506190877E+00    0.3328008325E-02
    0.4300000000E+07    0.5503911441E-04    0.6928771693E+00    0.4538054273E-02    0.6513681768E+00    0.3336793517E-02
    0.4500000000E+07    0.5042121097E-04    0.6928693780E+00    0.4342929652E-02    0.6520524062E+00    0.3345200772E-02
    0.4700000000E+07    0.4636484472E-04    0.6928619009E+00    0.4163771633E-02    0.6526798391E+00    0.3353262104E-02
    0.4900000000E+07    0.4278254143E-04    0.6928547130E+00    0.3998702519E-02    0.6532572561E+00    0.3361005591E-02
    0.1000000000E+07    0.8329868394E-03    0.6931109754E+00    0.1706666330E-01    0.6050595231E+00    0.3077931945E-02
    0.3000000000E+07    0.1098236746E-03    0.6929379059E+00    0.6401916998E-02    0.6447837612E+00    0.3270957395E-02
    0.5000000000E+07    0.4114641184E-04    0.6928512205E+00    0.3920943362E-02    0.6535290383E+00    0.3364765996E-02
    0.7000000000E+07    0.2149206601E-04    0.6927923134E+00    0.2820669852E-02    0.6573601149E+00    0.3428014078E-02
    0.9000000000E+07    0.1325750688E-04    0.6927474277E+00    0.2200393441E-02    0.6595087521E+00    0.3476025438E-02
    0.1100000000E+08    0.9041655641E-05    0.6927110561E+00    0.1802601870E-02    0.6608830192E+00    0.3514841868E-02
    0.1300000000E+08    0.6596139915E-05    0.6926804228E+00    0.1525948267E-02    0.6618373213E+00    0.3547484575E-02
    0.1500000000E+08    0.5050727905E-05    0.6926539277E+00    0.1322489180E-02    0.6625384946E+00    0.3575686591E-02
    0.1700000000E+08    0.4011138902E-05    0.6926305624E+00    0.1166615483E-02    0.6630753721E+00    0.3600536354E-02
    0.1900000000E+08    0.3277656588E-05    0.6926096494E+00    0.1043408400E-02    0.6634995902E+00    0.3622763169E-02
    0.2100000000E+08    0.2740311069E-05    0.6925907113E+00    0.9435906549E-03    0.6638432087E+00    0.3642880078E-02
    0.2300000000E+08    0.2334484333E-05    0.6925733988E+00    0.8610913045E-03    0.6641271825E+00    0.3661261959E-02
    0.2500000000E+08    0.2020176584E-05    0.6925574482E+00    0.7917713572E-03    0.6643657851E+00    0.3678191223E-02
    0.2700000000E+08    0.1771545968E-05    0.6925426558E+00    0.7327122730E-03    0.6645690747E+00    0.3693886020E-02
