  Pressure (Pa) 22mC5-500 (mol/kg) 24mC5-500 (mol/kg) 2mC6-500 (mol/kg) 3mC6-500 (mol/kg) C7-500 (mol/kg)
    0.1000000000E+01    0.8494032553E-05    0.1513980589E+00    0.5439296895E-05    0.2255364264E-05    0.4209564597E-02
    0.3000000000E+01    0.1653595380E-04    0.3164665193E+00    0.1004651866E-04    0.5814085890E-05    0.4264218304E-02
    0.5000000000E+01    0.2018102399E-04    0.4047202328E+00    0.1195512109E-04    0.9096400438E-05    0.4293028787E-02
    0.7000000000E+01    0.2219048428E-04    0.4596575686E+00    0.1303904284E-04    0.1224395665E-04    0.4311204147E-02
    0.9000000000E+01    0.2347068914E-04    0.4971489342E+00    0.1383779552E-04    0.1530485754E-04    0.4323800179E-02
    0.1100000000E+02    0.2438971363E-04    0.5243659732E+00    0.1453970296E-04    0.1830326417E-04    0.4333080926E-02
    0.1300000000E+02    0.2511823544E-04    0.5450232097E+00    0.1521755904E-04    0.2125359659E-04    0.4340221565E-02
    0.1500000000E+02    0.2574286606E-04    0.5612371585E+00    0.1590063258E-04    0.2416537732E-04    0.4345895422E-02
    0.1700000000E+02    0.2631046295E-04    0.5743022219E+00    0.1660032459E-04    0.2704533234E-04    0.4350517147E-02
    0.1900000000E+02    0.2684757317E-04    0.5850545246E+00    0.1732032617E-04    0.2989844692E-04    0.4354356629E-02
    0.2100000000E+02    0.2736973616E-04    0.5940582377E+00    0.1806094838E-04    0.3272855283E-04    0.4357597423E-02
    0.2300000000E+02    0.2788624474E-04    0.6017078320E+00    0.1882106290E-04    0.3553868007E-04    0.4360368919E-02
    0.2500000000E+02    0.2840271626E-04    0.6082874226E+00    0.1959899776E-04    0.3833127996E-04    0.4362765077E-02
    0.2700000000E+02    0.2892254315E-04    0.6140068370E+00    0.2039295388E-04    0.4110837319E-04    0.4364855862E-02
    0.2900000000E+02    0.2944774111E-04    0.6190244059E+00    0.2120119410E-04    0.4387165190E-04    0.4366694508E-02
    0.3100000000E+02    0.2997946022E-04    0.6234618479E+00    0.2202212232E-04    0.4662255209E-04    0.4368322277E-02
    0.3300000000E+02    0.3051830052E-04    0.6274142740E+00    0.2285430924E-04    0.4936230649E-04    0.4369771675E-02
    0.3500000000E+02    0.3106451090E-04    0.6309570814E+00    0.2369649259E-04    0.5209198395E-04    0.4371068682E-02
    0.3700000000E+02    0.3161811663E-04    0.6341508095E+00    0.2454756605E-04    0.5481251939E-04    0.4372234330E-02
    0.3900000000E+02    0.3217900206E-04    0.6370446278E+00    0.2540656364E-04    0.5752473695E-04    0.4373285836E-02
    0.4100000000E+02    0.3274696496E-04    0.6396788857E+00    0.2627264328E-04    0.6022936817E-04    0.4374237445E-02
    0.4300000000E+02    0.3332175226E-04    0.6420870051E+00    0.2714507098E-04    0.6292706646E-04    0.4375101048E-02
    0.4500000000E+02    0.3390308383E-04    0.6442969061E+00    0.2802320656E-04    0.6561841870E-04    0.4375886658E-02
    0.4700000000E+02    0.3449066805E-04    0.6463320942E+00    0.2890649092E-04    0.6830395471E-04    0.4376602770E-02
    0.4900000000E+02    0.3508421211E-04    0.6482124998E+00    0.2979443498E-04    0.7098415504E-04    0.4377256645E-02
    0.1000000000E+02    0.2396190217E-04    0.5117583594E+00    0.1419479736E-04    0.1681082025E-04    0.4328765430E-02
    0.3000000000E+02    0.2971273790E-04    0.6213091675E+00    0.2161016553E-04    0.4524856801E-04    0.4367532545E-02
    0.5000000000E+02    0.3538312893E-04    0.6491000740E+00    0.3024001833E-04    0.7232239263E-04    0.4377562229E-02
    0.7000000000E+02    0.4161111359E-04    0.6617861453E+00    0.3931658959E-04    0.9889569904E-04    0.4381545723E-02
    0.9000000000E+02    0.4818888466E-04    0.6690502906E+00    0.4859213746E-04    0.1252671983E-03    0.4383107681E-02
    0.1100000000E+03    0.5500314451E-04    0.6737562990E+00    0.5799059086E-04    0.1515896990E-03    0.4383406398E-02
    0.1300000000E+03    0.6199502613E-04    0.6770530790E+00    0.6748681799E-04    0.1779566349E-03    0.4382939134E-02
    0.1500000000E+03    0.6913250033E-04    0.6794911364E+00    0.7707364848E-04    0.2044317043E-03    0.4381959020E-02
    0.1700000000E+03    0.7639748303E-04    0.6813672817E+00    0.8675100026E-04    0.2310617478E-03    0.4380610170E-02
    0.1900000000E+03    0.8377961119E-04    0.6828556732E+00    0.9652176853E-04    0.2578832214E-03    0.4378981385E-02
    0.2100000000E+03    0.9127304386E-04    0.6840652394E+00    0.1063901195E-03    0.2849257955E-03    0.4377130694E-02
    0.2300000000E+03    0.9887471843E-04    0.6850676031E+00    0.1163607385E-03    0.3122145093E-03    0.4375097758E-02
    0.2500000000E+03    0.1065833513E-03    0.6859117922E+00    0.1264384889E-03    0.3397711367E-03    0.4372910658E-02
    0.2700000000E+03    0.1143988401E-03    0.6866324985E+00    0.1366282584E-03    0.3676150936E-03    0.4370589835E-02
    0.2900000000E+03    0.1223218939E-03    0.6872549603E+00    0.1469348937E-03    0.3957640626E-03    0.4368150503E-02
    0.3100000000E+03    0.1303537968E-03    0.6877979772E+00    0.1573631786E-03    0.4242344388E-03    0.4365604186E-02
    0.3300000000E+03    0.1384962534E-03    0.6882758403E+00    0.1679178332E-03    0.4530416555E-03    0.4362959734E-02
    0.3500000000E+03    0.1467512861E-03    0.6886996072E+00    0.1786035231E-03    0.4822004286E-03    0.4360224010E-02
    0.3700000000E+03    0.1551211651E-03    0.6890779673E+00    0.1894248723E-03    0.5117249440E-03    0.4357402373E-02
    0.3900000000E+03    0.1636083606E-03    0.6894178439E+00    0.2003864787E-03    0.5416290044E-03    0.4354499020E-02
    0.4100000000E+03    0.1722155097E-03    0.6897248211E+00    0.2114929292E-03    0.5719261462E-03    0.4351517238E-02
    0.4300000000E+03    0.1809453937E-03    0.6900034524E+00    0.2227488138E-03    0.6026297341E-03    0.4348459589E-02
    0.4500000000E+03    0.1898009221E-03    0.6902574883E+00    0.2341587400E-03    0.6337530396E-03    0.4345328047E-02
    0.4700000000E+03    0.1987851223E-03    0.6904900457E+00    0.2457273451E-03    0.6653093066E-03    0.4342124105E-02
    0.4900000000E+03    0.2079011322E-03    0.6907037361E+00    0.2574593088E-03    0.6973118074E-03    0.4338848861E-02
    0.1000000000E+03    0.5157098544E-04    0.6716304610E+00    0.5327820435E-04    0.1384278142E-03    0.4383375539E-02
    0.3000000000E+03    0.1263241412E-03    0.6875354179E+00    0.1521335335E-03    0.4099580909E-03    0.4366890111E-02
    0.5000000000E+03    0.2125095757E-03    0.6908042089E+00    0.2633880268E-03    0.7134845628E-03    0.4337184749E-02
    0.7000000000E+03    0.3124561636E-03    0.6922132411E+00    0.3917461048E-03    0.1063743846E-02    0.4300207586E-02
    0.9000000000E+03    0.4300748775E-03    0.6929976994E+00    0.5425721956E-03    0.1475664853E-02    0.4255696540E-02
    0.1100000000E+04    0.5706544322E-03    0.6934972846E+00    0.7227905422E-03    0.1968333378E-02    0.4202151258E-02
    0.1300000000E+04    0.7415001533E-03    0.6938431888E+00    0.9418662485E-03    0.2567817939E-02    0.4137153442E-02
    0.1500000000E+04    0.9529741479E-03    0.6940967837E+00    0.1213191022E-02    0.3311023382E-02    0.4057152114E-02
    0.1700000000E+04    0.1220153643E-02    0.6942906107E+00    0.1556246829E-02    0.4251689440E-02    0.3956967390E-02
    0.1900000000E+04    0.1565502722E-02    0.6944435297E+00    0.2000082748E-02    0.5470042005E-02    0.3828961339E-02
    0.2100000000E+04    0.2023129537E-02    0.6945672241E+00    0.2588865495E-02    0.7088243355E-02    0.3661753388E-02
    0.2300000000E+04    0.2645115566E-02    0.6946693174E+00    0.3390173850E-02    0.9293599883E-02    0.3438455493E-02
    0.2500000000E+04    0.3508699625E-02    0.6947549954E+00    0.4504557018E-02    0.1236569189E-01    0.3135152599E-02
    0.2700000000E+04    0.4714913317E-02    0.6948279080E+00    0.6064380059E-02    0.1667483314E-01    0.2723384895E-02
    0.2900000000E+04    0.6345014519E-02    0.6948906988E+00    0.8178554462E-02    0.2253227899E-01    0.2188209355E-02
    0.3100000000E+04    0.8323704033E-02    0.6949453289E+00    0.1075616549E-01    0.2970438502E-01    0.1575156617E-02
    0.3300000000E+04    0.1029575324E-01    0.6949932845E+00    0.1334357358E-01    0.3695356409E-01    0.1019032378E-02
    0.3500000000E+04    0.1186632296E-01    0.6950357116E+00    0.1542918547E-01    0.4286404237E-01    0.6432891337E-03
    0.3700000000E+04    0.1296385847E-01    0.6950735085E+00    0.1691432798E-01    0.4714688992E-01    0.4466988588E-03
    0.3900000000E+04    0.1374351984E-01    0.6951073891E+00    0.1799480534E-01    0.5033012844E-01    0.3591001735E-03
    0.4100000000E+04    0.1435565928E-01    0.6951379280E+00    0.1886303027E-01    0.5293998650E-01    0.3231887721E-03
    0.4300000000E+04    0.1488480543E-01    0.6951655928E+00    0.1962772779E-01    0.5527534288E-01    0.3091754553E-03
    0.4500000000E+04    0.1537028139E-01    0.6951907679E+00    0.2033958701E-01    0.5747587614E-01    0.3040232524E-03
    0.4700000000E+04    0.1582923274E-01    0.6952137720E+00    0.2102068162E-01    0.5960237637E-01    0.3023929911E-03
    0.4900000000E+04    0.1626909408E-01    0.6952348720E+00    0.2168050888E-01    0.6168083378E-01    0.3021493250E-03
    0.1000000000E+04    0.4970951202E-03    0.6932724498E+00    0.6284887762E-03    0.1710477624E-02    0.4230181721E-02
    0.3000000000E+04    0.7306753058E-02    0.6949189318E+00    0.9429623828E-02    0.2600854968E-01    0.1884692441E-02
    0.5000000000E+04    0.1648299510E-01    0.6952447796E+00    0.2200386447E-01    0.6270586562E-01    0.3022574909E-03
    0.7000000000E+04    0.2010826990E-01    0.6953826520E+00    0.2777052213E-01    0.8174957332E-01    0.3075784187E-03
    0.9000000000E+04    0.2276035037E-01    0.6954582170E+00    0.3246793382E-01    0.9854375374E-01    0.3119213944E-03
    0.1100000000E+05    0.2470483611E-01    0.6955056319E+00    0.3635114744E-01    0.1135684437E+00    0.3154298980E-03
    0.1300000000E+05    0.2612370477E-01    0.6955379844E+00    0.3959915626E-01    0.1271662054E+00    0.3183789278E-03
    0.1500000000E+05    0.2714570714E-01    0.6955613580E+00    0.4234213572E-01    0.1395912630E+00    0.3209259380E-03
    0.1700000000E+05    0.2786398719E-01    0.6955789603E+00    0.4467701039E-01    0.1510366675E+00    0.3231696789E-03
    0.1900000000E+05    0.2834723081E-01    0.6955926403E+00    0.4667743394E-01    0.1616519725E+00    0.3251762513E-03
    0.2100000000E+05    0.2864693393E-01    0.6956035379E+00    0.4840038428E-01    0.1715550821E+00    0.3269921195E-03
    0.2300000000E+05    0.2880226562E-01    0.6956123934E+00    0.4989063873E-01    0.1808404007E+00    0.3286512150E-03
    0.2500000000E+05    0.2884339754E-01    0.6956197079E+00    0.5118388235E-01    0.1895845691E+00    0.3301790880E-03
    0.2700000000E+05    0.2879383017E-01    0.6956258323E+00    0.5230891211E-01    0.1978505824E+00    0.3315954672E-03
    0.2900000000E+05    0.2867204775E-01    0.6956310198E+00    0.5328922923E-01    0.2056908024E+00    0.3329159102E-03
    0.3100000000E+05    0.2849271499E-01    0.6956354573E+00    0.5414420871E-01    0.2131491962E+00    0.3341529060E-03
    0.3300000000E+05    0.2826755523E-01    0.6956392857E+00    0.5488997154E-01    0.2202630243E+00    0.3353166352E-03
    0.3500000000E+05    0.2800600343E-01    0.6956426132E+00    0.5554004408E-01    0.2270641315E+00    0.3364155079E-03
    0.3700000000E+05    0.2771569762E-01    0.6956455244E+00    0.5610586289E-01    0.2335799462E+00    0.3374565537E-03
    0.3900000000E+05    0.2740285293E-01    0.6956480858E+00    0.5659716560E-01    0.2398342614E+00    0.3384457087E-03
    0.4100000000E+05    0.2707254911E-01    0.6956503512E+00    0.5702229693E-01    0.2458478535E+00    0.3393880326E-03
    0.4300000000E+05    0.2672895353E-01    0.6956523637E+00    0.5738845046E-01    0.2516389753E+00    0.3402878733E-03
    0.4500000000E+05    0.2637549585E-01    0.6956541589E+00    0.5770186150E-01    0.2572237536E+00    0.3411489953E-03
    0.4700000000E+05    0.2601500561E-01    0.6956557661E+00    0.5796796223E-01    0.2626165117E+00    0.3419746798E-03
    0.4900000000E+05    0.2564982168E-01    0.6956572095E+00    0.5819150740E-01    0.2678300338E+00    0.3427678046E-03
    0.1000000000E+05    0.2380815421E-01    0.6954843788E+00    0.3449874952E-01    0.1062533982E+00    0.3137589325E-03
    0.3000000000E+05    0.2858878209E-01    0.6956333226E+00    0.5373131095E-01    0.2094652584E+00    0.3335441558E-03
    0.5000000000E+05    0.2546608821E-01    0.6956578764E+00    0.5828864793E-01    0.2703732098E+00    0.3431529619E-03
    0.7000000000E+05    0.2186682107E-01    0.6956661989E+00    0.5878639267E-01    0.3140794650E+00    0.3496310795E-03
    0.9000000000E+05    0.1873230052E-01    0.6956695898E+00    0.5774064215E-01    0.3480023037E+00    0.3545487014E-03
    0.1100000000E+06    0.1613807174E-01    0.6956709550E+00    0.5604918530E-01    0.3754731878E+00    0.3585246850E-03
    0.1300000000E+06    0.1400955784E-01    0.6956713460E+00    0.5409974530E-01    0.3983333076E+00    0.3618684429E-03
    0.1500000000E+06    0.1225725106E-01    0.6956712229E+00    0.5207722173E-01    0.4177297236E+00    0.3647574481E-03
    0.1700000000E+06    0.1080414541E-01    0.6956708129E+00    0.5007401086E-01    0.4344334971E+00    0.3673031593E-03
    0.1900000000E+06    0.9589013957E-02    0.6956702382E+00    0.4813651825E-01    0.4489905780E+00    0.3695802579E-03
    0.2100000000E+06    0.8564264734E-02    0.6956695685E+00    0.4628698935E-01    0.4618023791E+00    0.3716412793E-03
    0.2300000000E+06    0.7693040083E-02    0.6956688453E+00    0.4453455170E-01    0.4731726449E+00    0.3735246113E-03
    0.2500000000E+06    0.6946685908E-02    0.6956680944E+00    0.4288110657E-01    0.4833365083E+00    0.3752591733E-03
    0.2700000000E+06    0.6302770088E-02    0.6956673320E+00    0.4132459491E-01    0.4924794088E+00    0.3768673044E-03
    0.2900000000E+06    0.5743586881E-02    0.6956665684E+00    0.3986085603E-01    0.5007498941E+00    0.3783666260E-03
    0.3100000000E+06    0.5255041154E-02    0.6956658104E+00    0.3848470278E-01    0.5082685557E+00    0.3797712880E-03
    0.3300000000E+06    0.4825816711E-02    0.6956650623E+00    0.3719054720E-01    0.5151344307E+00    0.3810928276E-03
    0.3500000000E+06    0.4446753806E-02    0.6956643267E+00    0.3597276253E-01    0.5214296866E+00    0.3823407775E-03
    0.3700000000E+06    0.4110380170E-02    0.6956636055E+00    0.3482588821E-01    0.5272231151E+00    0.3835231069E-03
    0.3900000000E+06    0.3810554978E-02    0.6956628995E+00    0.3374474034E-01    0.5325727794E+00    0.3846465467E-03
    0.4100000000E+06    0.3542196366E-02    0.6956622092E+00    0.3272446504E-01    0.5375280483E+00    0.3857168345E-03
    0.4300000000E+06    0.3301071181E-02    0.6956615347E+00    0.3176055761E-01    0.5421311800E+00    0.3867389016E-03
    0.4500000000E+06    0.3083631450E-02    0.6956608761E+00    0.3084886130E-01    0.5464185672E+00    0.3877170180E-03
    0.4700000000E+06    0.2886886200E-02    0.6956602329E+00    0.2998555450E-01    0.5504217285E+00    0.3886549060E-03
    0.4900000000E+06    0.2708300223E-02    0.6956596050E+00    0.2916713160E-01    0.5541681026E+00    0.3895558301E-03
    0.1000000000E+06    0.1737129164E-01    0.6956704388E+00    0.5694457858E-01    0.3624072235E+00    0.3566307571E-03
    0.3000000000E+06    0.5491248565E-02    0.6956661884E+00    0.3916217626E-01    0.5045965696E+00    0.3790800152E-03
    0.5000000000E+06    0.2625129173E-02    0.6956592966E+00    0.2877373711E-01    0.5559526143E+00    0.3899933440E-03
    0.7000000000E+06    0.1529429364E-02    0.6956538155E+00    0.2261598356E-01    0.5826573348E+00    0.3973526487E-03
    0.9000000000E+06    0.9988963138E-03    0.6956493570E+00    0.1859259724E-01    0.5990357206E+00    0.4029397615E-03
    0.1100000000E+07    0.7027490685E-03    0.6956456119E+00    0.1576908323E-01    0.6101068196E+00    0.4074572963E-03
    0.1300000000E+07    0.5209196598E-03    0.6956423848E+00    0.1368208096E-01    0.6180896721E+00    0.4112566280E-03
    0.1500000000E+07    0.4013845122E-03    0.6956395493E+00    0.1207822132E-01    0.6241175305E+00    0.4145393281E-03
    0.1700000000E+07    0.3186522926E-03    0.6956370197E+00    0.1080789813E-01    0.6288296759E+00    0.4174320023E-03
    0.1900000000E+07    0.2590451281E-03    0.6956347355E+00    0.9777282614E-02    0.6326141241E+00    0.4200194873E-03
    0.2100000000E+07    0.2146921649E-03    0.6956326527E+00    0.8924621213E-02    0.6357200223E+00    0.4223614653E-03
    0.2300000000E+07    0.1808051159E-03    0.6956307378E+00    0.8207641406E-02    0.6383146655E+00    0.4245015482E-03
    0.2500000000E+07    0.1543359139E-03    0.6956289654E+00    0.7596446984E-02    0.6405145532E+00    0.4264725920E-03
    0.2700000000E+07    0.1332697607E-03    0.6956273153E+00    0.7069305733E-02    0.6424033046E+00    0.4282999773E-03
    0.2900000000E+07    0.1162317900E-03    0.6956257713E+00    0.6610045241E-02    0.6440424912E+00    0.4300037251E-03
    0.3100000000E+07    0.1022578989E-03    0.6956243203E+00    0.6206384410E-02    0.6454784521E+00    0.4315999126E-03
    0.3300000000E+07    0.9065588165E-04    0.6956229515E+00    0.5848831068E-02    0.6467467290E+00    0.4331016485E-03
    0.3500000000E+07    0.8091838513E-04    0.6956216558E+00    0.5529933832E-02    0.6478750372E+00    0.4345197641E-03
    0.3700000000E+07    0.7266671132E-04    0.6956204257E+00    0.5243762283E-02    0.6488853065E+00    0.4358633145E-03
    0.3900000000E+07    0.6561358154E-04    0.6956192547E+00    0.4985538183E-02    0.6497951156E+00    0.4371399475E-03
    0.4100000000E+07    0.5953788922E-04    0.6956181372E+00    0.4751368928E-02    0.6506187199E+00    0.4383561828E-03
    0.4300000000E+07    0.5426722549E-04    0.6956170684E+00    0.4538051663E-02    0.6513678012E+00    0.4395176235E-03
    0.4500000000E+07    0.4966555914E-04    0.6956160441E+00    0.4342927148E-02    0.6520520230E+00    0.4406291217E-03
    0.4700000000E+07    0.4562440415E-04    0.6956150607E+00    0.4163769227E-02    0.6526794485E+00    0.4416949068E-03
    0.4900000000E+07    0.4205639076E-04    0.6956141150E+00    0.3998700203E-02    0.6532568582E+00    0.4427186884E-03
    0.1000000000E+07    0.8314600871E-03    0.6956474095E+00    0.1706665339E-01    0.6050593255E+00    0.4053053804E-03
    0.3000000000E+07    0.1089102608E-03    0.6956250349E+00    0.6401913371E-02    0.6447834408E+00    0.4308143843E-03
    0.5000000000E+07    0.4042708927E-04    0.6956136554E+00    0.3920941088E-02    0.6535286369E+00    0.4432158657E-03
    0.7000000000E+07    0.2087747350E-04    0.6956058918E+00    0.2820668180E-02    0.6573596492E+00    0.4515787780E-03
    0.9000000000E+07    0.1271106357E-04    0.6955999646E+00    0.2200392112E-02    0.6595082318E+00    0.4579278405E-03
    0.1100000000E+08    0.8544161284E-05    0.6955951559E+00    0.1802600764E-02    0.6608824507E+00    0.4630614656E-03
    0.1300000000E+08    0.6136033304E-05    0.6955911025E+00    0.1525947318E-02    0.6618367094E+00    0.4673789419E-03
    0.1500000000E+08    0.4620405894E-05    0.6955875944E+00    0.1322488348E-02    0.6625378428E+00    0.4711093288E-03
    0.1700000000E+08    0.3605283127E-05    0.6955844991E+00    0.1166614740E-02    0.6630746832E+00    0.4743964979E-03
    0.1900000000E+08    0.2892372936E-05    0.6955817275E+00    0.1043407729E-02    0.6634988667E+00    0.4773368555E-03
    0.2100000000E+08    0.2372645973E-05    0.6955792167E+00    0.9435900429E-03    0.6638424525E+00    0.4799982233E-03
    0.2300000000E+08    0.1982133898E-05    0.6955769208E+00    0.8610907414E-03    0.6641263953E+00    0.4824301611E-03
    0.2500000000E+08    0.1681302153E-05    0.6955748048E+00    0.7917708353E-03    0.6643649684E+00    0.4846700058E-03
    0.2700000000E+08    0.1444652061E-05    0.6955728421E+00    0.7327117866E-03    0.6645682298E+00    0.4867465993E-03
