  Pressure (Pa) 22mC5-500 (mol/kg) 24mC5-500 (mol/kg) 2mC6-500 (mol/kg) 3mC6-500 (mol/kg) C7-500 (mol/kg)
    0.1000000000E+01    0.9693117303E-05    0.9949695726E-01    0.3211182573E-04    0.2042216565E-05    0.4146620931E-02
    0.3000000000E+01    0.2142818281E-04    0.2320993232E+00    0.6813977599E-04    0.5042537965E-05    0.4175003396E-02
    0.5000000000E+01    0.2817633323E-04    0.3164505392E+00    0.8747957549E-04    0.7765345672E-05    0.4184680016E-02
    0.7000000000E+01    0.3247209485E-04    0.3748352706E+00    0.9940007342E-04    0.1035813170E-04    0.4190145071E-02
    0.9000000000E+01    0.3542244417E-04    0.4176456314E+00    0.1076777942E-03    0.1286958191E-04    0.4193645912E-02
    0.1100000000E+02    0.3757860742E-04    0.4503807724E+00    0.1140614155E-03    0.1532377178E-04    0.4196010652E-02
    0.1300000000E+02    0.3924078174E-04    0.4762233959E+00    0.1194312261E-03    0.1773491196E-04    0.4197644428E-02
    0.1500000000E+02    0.4058363038E-04    0.4971432999E+00    0.1242572588E-03    0.2011230617E-04    0.4198775748E-02
    0.1700000000E+02    0.4171408368E-04    0.5144249249E+00    0.1288012567E-03    0.2246247982E-04    0.4199545289E-02
    0.1900000000E+02    0.4270029635E-04    0.5289415851E+00    0.1332132490E-03    0.2479024120E-04    0.4200045081E-02
    0.2100000000E+02    0.4358714470E-04    0.5413077805E+00    0.1375807418E-03    0.2709926768E-04    0.4200338121E-02
    0.2300000000E+02    0.4440497490E-04    0.5519684646E+00    0.1419550686E-03    0.2939245477E-04    0.4200469092E-02
    0.2500000000E+02    0.4517476418E-04    0.5612537484E+00    0.1463660947E-03    0.3167213639E-04    0.4200470615E-02
    0.2700000000E+02    0.4591128064E-04    0.5694137070E+00    0.1508307030E-03    0.3394023051E-04    0.4200367081E-02
    0.2900000000E+02    0.4662507985E-04    0.5766412508E+00    0.1553578275E-03    0.3619833889E-04    0.4200177104E-02
    0.3100000000E+02    0.4732380127E-04    0.5830875773E+00    0.1599515071E-03    0.3844781785E-04    0.4199915138E-02
    0.3300000000E+02    0.4801303007E-04    0.5888728678E+00    0.1646127721E-03    0.4068982955E-04    0.4199592578E-02
    0.3500000000E+02    0.4869688223E-04    0.5940938530E+00    0.1693408263E-03    0.4292538017E-04    0.4199218529E-02
    0.3700000000E+02    0.4937840890E-04    0.5988292670E+00    0.1741337944E-03    0.4515534883E-04    0.4198800352E-02
    0.3900000000E+02    0.5005988063E-04    0.6031438469E+00    0.1789891989E-03    0.4738050988E-04    0.4198344064E-02
    0.4100000000E+02    0.5074298990E-04    0.6070913109E+00    0.1839042627E-03    0.4960155036E-04    0.4197854625E-02
    0.4300000000E+02    0.5142899739E-04    0.6107166070E+00    0.1888761019E-03    0.5181908381E-04    0.4197336163E-02
    0.4500000000E+02    0.5211883886E-04    0.6140576330E+00    0.1939018466E-03    0.5403366142E-04    0.4196792139E-02
    0.4700000000E+02    0.5281320407E-04    0.6171465665E+00    0.1989787139E-03    0.5624578101E-04    0.4196225477E-02
    0.4900000000E+02    0.5351259548E-04    0.6200109048E+00    0.2041040516E-03    0.5845589444E-04    0.4195638661E-02
    0.1000000000E+02    0.3657710426E-04    0.4350363696E+00    0.1110382035E-03    0.1410279423E-04    0.4194939196E-02
    0.3000000000E+02    0.4697593599E-04    0.5799539289E+00    0.1576462295E-03    0.3732408036E-04    0.4200054346E-02
    0.5000000000E+02    0.5386429294E-04    0.6213663697E+00    0.2066841097E-03    0.5956032902E-04    0.4195338371E-02
    0.7000000000E+02    0.6120434544E-04    0.6409865206E+00    0.2603128176E-03    0.8162747912E-04    0.4188656955E-02
    0.9000000000E+02    0.6910714393E-04    0.6524332737E+00    0.3168887285E-03    0.1038097644E-03    0.4181213872E-02
    0.1100000000E+03    0.7749694737E-04    0.6599337229E+00    0.3756876431E-03    0.1262584574E-03    0.4173355704E-02
    0.1300000000E+03    0.8631196251E-04    0.6652286433E+00    0.4364088655E-03    0.1490723274E-03    0.4165210410E-02
    0.1500000000E+03    0.9551353492E-04    0.6691661914E+00    0.4989399782E-03    0.1723248229E-03    0.4156830384E-02
    0.1700000000E+03    0.1050796740E-03    0.6722090384E+00    0.5632594549E-03    0.1960757811E-03    0.4148236701E-02
    0.1900000000E+03    0.1149995039E-03    0.6746310308E+00    0.6293936975E-03    0.2203772972E-03    0.4139435726E-02
    0.2100000000E+03    0.1252696502E-03    0.6766046018E+00    0.6973967152E-03    0.2452769996E-03    0.4130426218E-02
    0.2300000000E+03    0.1358919850E-03    0.6782437394E+00    0.7673399645E-03    0.2708200385E-03    0.4121202663E-02
    0.2500000000E+03    0.1468722163E-03    0.6796268145E+00    0.8393070740E-03    0.2970503801E-03    0.4111756944E-02
    0.2700000000E+03    0.1582189973E-03    0.6808094844E+00    0.9133910654E-03    0.3240117032E-03    0.4102079218E-02
    0.2900000000E+03    0.1699433581E-03    0.6818323656E+00    0.9896929180E-03    0.3517480592E-03    0.4092158388E-02
    0.3100000000E+03    0.1820583432E-03    0.6827257931E+00    0.1068320892E-02    0.3803043839E-03    0.4081982355E-02
    0.3300000000E+03    0.1945787851E-03    0.6835128801E+00    0.1149390306E-02    0.4097269172E-03    0.4071538154E-02
    0.3500000000E+03    0.2075211682E-03    0.6842115467E+00    0.1233023588E-02    0.4400635645E-03    0.4060812006E-02
    0.3700000000E+03    0.2209035570E-03    0.6848359003E+00    0.1319350523E-02    0.4713642221E-03    0.4049789339E-02
    0.3900000000E+03    0.2347455701E-03    0.6853971988E+00    0.1408508622E-02    0.5036810818E-03    0.4038454771E-02
    0.4100000000E+03    0.2490683890E-03    0.6859045355E+00    0.1500643597E-02    0.5370689259E-03    0.4026792079E-02
    0.4300000000E+03    0.2638947936E-03    0.6863653350E+00    0.1595909920E-02    0.5715854198E-03    0.4014784151E-02
    0.4500000000E+03    0.2792492199E-03    0.6867857200E+00    0.1694471449E-02    0.6072914095E-03    0.4002412930E-02
    0.4700000000E+03    0.2951578377E-03    0.6871707839E+00    0.1796502133E-02    0.6442512282E-03    0.3989659347E-02
    0.4900000000E+03    0.3116486441E-03    0.6875247989E+00    0.1902186776E-02    0.6825330164E-03    0.3976503245E-02
    0.1000000000E+03    0.7324563536E-04    0.6565371999E+00    0.3460352807E-03    0.1149938403E-03    0.4177326034E-02
    0.3000000000E+03    0.1759511355E-03    0.6822936748E+00    0.1028709098E-02    0.3659208705E-03    0.4087103063E-02
    0.5000000000E+03    0.3201216434E-03    0.6876913134E+00    0.1956460259E-02    0.7021920669E-03    0.3969767634E-02
    0.7000000000E+03    0.5288784059E-03    0.6900311074E+00    0.3290581998E-02    0.1185609379E-02    0.3807839093E-02
    0.9000000000E+03    0.8498480438E-03    0.6913379490E+00    0.5339123475E-02    0.1928951730E-02    0.3569087331E-02
    0.1100000000E+04    0.1379283456E-02    0.6921721623E+00    0.8721234898E-02    0.3158834120E-02    0.3192289558E-02
    0.1300000000E+04    0.2302792856E-02    0.6927508640E+00    0.1463550143E-01    0.5316048839E-02    0.2570127701E-02
    0.1500000000E+04    0.3825143821E-02    0.6931758444E+00    0.2443097015E-01    0.8906348948E-02    0.1625555690E-02
    0.1700000000E+04    0.5587342950E-02    0.6935011643E+00    0.3587893334E-01    0.1314184112E-01    0.6886476887E-03
    0.1900000000E+04    0.6797840252E-02    0.6937581949E+00    0.4390832530E-01    0.1617177922E-01    0.2380436826E-03
    0.2100000000E+04    0.7528998756E-02    0.6939663914E+00    0.4892316416E-01    0.1812259414E-01    0.1135944928E-03
    0.2300000000E+04    0.8081739959E-02    0.6941384599E+00    0.5282892188E-01    0.1968199937E-01    0.8581938484E-04
    0.2500000000E+04    0.8569917123E-02    0.6942830504E+00    0.5635120528E-01    0.2111363850E-01    0.8007937501E-04
    0.2700000000E+04    0.9023733981E-02    0.6944062557E+00    0.5968155577E-01    0.2248684077E-01    0.7909071312E-04
    0.2900000000E+04    0.9451469038E-02    0.6945124916E+00    0.6287075755E-01    0.2381943178E-01    0.7911579552E-04
    0.3100000000E+04    0.9856170362E-02    0.6946050362E+00    0.6593599992E-01    0.2511692798E-01    0.7934894918E-04
    0.3300000000E+04    0.1023959332E-01    0.6946863747E+00    0.6888629204E-01    0.2638188328E-01    0.7961535888E-04
    0.3500000000E+04    0.1060311438E-01    0.6947584249E+00    0.7172837835E-01    0.2761607205E-01    0.7987752421E-04
    0.3700000000E+04    0.1094794917E-01    0.6948226909E+00    0.7446814345E-01    0.2882100603E-01    0.8012819021E-04
    0.3900000000E+04    0.1127520983E-01    0.6948803687E+00    0.7711096996E-01    0.2999806274E-01    0.8036675019E-04
    0.4100000000E+04    0.1158592428E-01    0.6949324210E+00    0.7966184897E-01    0.3114852206E-01    0.8059397344E-04
    0.4300000000E+04    0.1188104597E-01    0.6949796320E+00    0.8212542923E-01    0.3227358034E-01    0.8081082495E-04
    0.4500000000E+04    0.1216146087E-01    0.6950226464E+00    0.8450604959E-01    0.3337435857E-01    0.8101821228E-04
    0.4700000000E+04    0.1242799328E-01    0.6950619994E+00    0.8680776526E-01    0.3445190873E-01    0.8121694303E-04
    0.4900000000E+04    0.1268141099E-01    0.6950981390E+00    0.8903437080E-01    0.3550721915E-01    0.8140772859E-04
    0.1000000000E+04    0.1079462494E-02    0.6917965181E+00    0.6805251180E-02    0.2461727552E-02    0.3403488883E-02
    0.3000000000E+04    0.9656575449E-02    0.6945603045E+00    0.6441822596E-01    0.2447237719E-01    0.7922299797E-04
    0.5000000000E+04    0.1280342748E-01    0.6951151241E+00    0.9012062694E-01    0.3602682713E-01    0.8150034094E-04
    0.7000000000E+04    0.1470555979E-01    0.6953528418E+00    0.1086564000E+00    0.4545028738E-01    0.8305490328E-04
    0.9000000000E+04    0.1587414582E-01    0.6954847706E+00    0.1226181617E+00    0.5343316055E-01    0.8423186703E-04
    0.1100000000E+05    0.1658581099E-01    0.6955686107E+00    0.1334803905E+00    0.6038386754E-01    0.8518201770E-04
    0.1300000000E+05    0.1700102297E-01    0.6956265636E+00    0.1421440412E+00    0.6656160376E-01    0.8598030042E-04
    0.1500000000E+05    0.1721795427E-01    0.6956689911E+00    0.1491909656E+00    0.7214000923E-01    0.8666954549E-04
    0.1700000000E+05    0.1729923978E-01    0.6957013783E+00    0.1550138990E+00    0.7724053840E-01    0.8727658483E-04
    0.1900000000E+05    0.1728621327E-01    0.6957269001E+00    0.1598876596E+00    0.8195118877E-01    0.8781936437E-04
    0.2100000000E+05    0.1720691352E-01    0.6957475214E+00    0.1640104082E+00    0.8633761113E-01    0.8831049106E-04
    0.2300000000E+05    0.1708079741E-01    0.6957645233E+00    0.1675286981E+00    0.9045000953E-01    0.8875916695E-04
    0.2500000000E+05    0.1692162276E-01    0.6957787765E+00    0.1705532916E+00    0.9432759506E-01    0.8917231839E-04
    0.2700000000E+05    0.1673927024E-01    0.6957908935E+00    0.1731694872E+00    0.9800155685E-01    0.8955529193E-04
    0.2900000000E+05    0.1654092743E-01    0.6958013178E+00    0.1754440591E+00    0.1014971012E+00    0.8991230252E-04
    0.3100000000E+05    0.1633187740E-01    0.6958103780E+00    0.1774300409E+00    0.1048348863E+00    0.9024673302E-04
    0.3300000000E+05    0.1611603515E-01    0.6958183231E+00    0.1791700962E+00    0.1080320539E+00    0.9056134048E-04
    0.3500000000E+05    0.1589631950E-01    0.6958253452E+00    0.1806989418E+00    0.1111029860E+00    0.9085840212E-04
    0.3700000000E+05    0.1567491522E-01    0.6958315946E+00    0.1820451195E+00    0.1140598689E+00    0.9113982100E-04
    0.3900000000E+05    0.1545346055E-01    0.6958371907E+00    0.1832323133E+00    0.1169131212E+00    0.9140720401E-04
    0.4100000000E+05    0.1523318312E-01    0.6958422298E+00    0.1842803429E+00    0.1196717222E+00    0.9166192060E-04
    0.4300000000E+05    0.1501499969E-01    0.6958467899E+00    0.1852059213E+00    0.1223434679E+00    0.9190514747E-04
    0.4500000000E+05    0.1479959010E-01    0.6958509353E+00    0.1860232418E+00    0.1249351722E+00    0.9213790331E-04
    0.4700000000E+05    0.1458745262E-01    0.6958547193E+00    0.1867444350E+00    0.1274528275E+00    0.9236107598E-04
    0.4900000000E+05    0.1437894576E-01    0.6958581864E+00    0.1873799310E+00    0.1299017332E+00    0.9257544407E-04
    0.1000000000E+05    0.1627515964E-01    0.6955308979E+00    0.1283707976E+00    0.5701878908E-01    0.8472956063E-04
    0.3000000000E+05    0.1643746907E-01    0.6958060012E+00    0.1764702464E+00    0.1031845699E+00    0.9008215524E-04
    0.5000000000E+05    0.1427613561E-01    0.6958598132E+00    0.1876684088E+00    0.1311018977E+00    0.9267954417E-04
    0.7000000000E+05    0.1243665604E-01    0.6958823370E+00    0.1905943370E+00    0.1524079407E+00    0.9443033236E-04
    0.9000000000E+05    0.1097469672E-01    0.6958945423E+00    0.1904898529E+00    0.1700829920E+00    0.9575926825E-04
    0.1100000000E+06    0.9802186149E-02    0.6959021090E+00    0.1890303582E+00    0.1853838758E+00    0.9683368827E-04
    0.1300000000E+06    0.8844268549E-02    0.6959072063E+00    0.1869056598E+00    0.1989752811E+00    0.9773723910E-04
    0.1500000000E+06    0.8047503847E-02    0.6959108393E+00    0.1844446089E+00    0.2112583634E+00    0.9851789281E-04
    0.1700000000E+06    0.7374294047E-02    0.6959135362E+00    0.1818194167E+00    0.2224972196E+00    0.9920577488E-04
    0.1900000000E+06    0.6797785179E-02    0.6959156005E+00    0.1791261013E+00    0.2328767710E+00    0.9982106932E-04
    0.2100000000E+06    0.6298384548E-02    0.6959172186E+00    0.1764204613E+00    0.2425325953E+00    0.1003779741E-03
    0.2300000000E+06    0.5861487981E-02    0.6959185111E+00    0.1737357332E+00    0.2515676985E+00    0.1008868636E-03
    0.2500000000E+06    0.5475991709E-02    0.6959195595E+00    0.1710918969E+00    0.2600625944E+00    0.1013555527E-03
    0.2700000000E+06    0.5133301177E-02    0.6959204206E+00    0.1685008611E+00    0.2680816895E+00    0.1017900784E-03
    0.2900000000E+06    0.4826657020E-02    0.6959211351E+00    0.1659694857E+00    0.2756775051E+00    0.1021952024E-03
    0.3100000000E+06    0.4550667007E-02    0.6959217332E+00    0.1635014095E+00    0.2828935704E+00    0.1025747484E-03
    0.3300000000E+06    0.4300974496E-02    0.6959222372E+00    0.1610981879E+00    0.2897664643E+00    0.1029318341E-03
    0.3500000000E+06    0.4074019202E-02    0.6959226645E+00    0.1587600199E+00    0.2963272946E+00    0.1032690352E-03
    0.3700000000E+06    0.3866861649E-02    0.6959230285E+00    0.1564862213E+00    0.3026027926E+00    0.1035885054E-03
    0.3900000000E+06    0.3677052331E-02    0.6959233397E+00    0.1542755388E+00    0.3086161405E+00    0.1038920632E-03
    0.4100000000E+06    0.3502532813E-02    0.6959236066E+00    0.1521263598E+00    0.3143876053E+00    0.1041812592E-03
    0.4300000000E+06    0.3341560009E-02    0.6959238359E+00    0.1500368553E+00    0.3199350340E+00    0.1044574257E-03
    0.4500000000E+06    0.3192647508E-02    0.6959240332E+00    0.1480050768E+00    0.3252742441E+00    0.1047217166E-03
    0.4700000000E+06    0.3054519621E-02    0.6959242030E+00    0.1460290225E+00    0.3304193365E+00    0.1049751378E-03
    0.4900000000E+06    0.2926075018E-02    0.6959243491E+00    0.1441066826E+00    0.3353829477E+00    0.1052185712E-03
    0.1000000000E+06    0.1035748911E-01    0.6958987289E+00    0.1898739657E+00    0.1779801952E+00    0.9632190137E-04
    0.3000000000E+06    0.4685123636E-02    0.6959214472E+00    0.1647273993E+00    0.2793305770E+00    0.1023879635E-03
    0.5000000000E+06    0.2865180194E-02    0.6959244142E+00    0.1431650330E+00    0.3378002981E+00    0.1053367893E-03
    0.7000000000E+06    0.1978796909E-02    0.6959250186E+00    0.1266994072E+00    0.3788754173E+00    0.1073253092E-03
    0.9000000000E+06    0.1463849508E-02    0.6959249791E+00    0.1137456644E+00    0.4100319832E+00    0.1088349831E-03
    0.1100000000E+07    0.1132973295E-02    0.6959247123E+00    0.1032650236E+00    0.4347315306E+00    0.1100556575E-03
    0.1300000000E+07    0.9057723506E-03    0.6959243582E+00    0.9459378027E-01    0.4549035778E+00    0.1110822733E-03
    0.1500000000E+07    0.7421562190E-03    0.6959239731E+00    0.8729019971E-01    0.4717425710E+00    0.1119692949E-03
    0.1700000000E+07    0.6200042216E-03    0.6959235818E+00    0.8104813751E-01    0.4860403557E+00    0.1127509308E-03
    0.1900000000E+07    0.5261808381E-03    0.6959231960E+00    0.7564804729E-01    0.4983481595E+00    0.1134501040E-03
    0.2100000000E+07    0.4524364503E-03    0.6959228208E+00    0.7092795919E-01    0.5090641471E+00    0.1140829403E-03
    0.2300000000E+07    0.3933549829E-03    0.6959224588E+00    0.6676551498E-01    0.5184844231E+00    0.1146612238E-03
    0.2500000000E+07    0.3452499516E-03    0.6959221105E+00    0.6306640669E-01    0.5268344730E+00    0.1151938322E-03
    0.2700000000E+07    0.3055356540E-03    0.6959217761E+00    0.5975668388E-01    0.5342894315E+00    0.1156876233E-03
    0.2900000000E+07    0.2723518020E-03    0.6959214551E+00    0.5677748600E-01    0.5409876270E+00    0.1161480067E-03
    0.3100000000E+07    0.2443304839E-03    0.6959211469E+00    0.5408134501E-01    0.5470399102E+00    0.1165793267E-03
    0.3300000000E+07    0.2204465856E-03    0.6959208509E+00    0.5162953364E-01    0.5525362427E+00    0.1169851251E-03
    0.3500000000E+07    0.1999189869E-03    0.6959205661E+00    0.4939012707E-01    0.5575504525E+00    0.1173683287E-03
    0.3700000000E+07    0.1821436413E-03    0.6959202921E+00    0.4733656222E-01    0.5621437334E+00    0.1177313842E-03
    0.3900000000E+07    0.1666472440E-03    0.6959200280E+00    0.4544655070E-01    0.5663672611E+00    0.1180763579E-03
    0.4100000000E+07    0.1530545185E-03    0.6959197733E+00    0.4370124747E-01    0.5702641801E+00    0.1184050116E-03
    0.4300000000E+07    0.1410647136E-03    0.6959195274E+00    0.4208460736E-01    0.5738711313E+00    0.1187188593E-03
    0.4500000000E+07    0.1304344489E-03    0.6959192897E+00    0.4058288134E-01    0.5772194413E+00    0.1190192120E-03
    0.4700000000E+07    0.1209650144E-03    0.6959190597E+00    0.3918421830E-01    0.5803360580E+00    0.1193072125E-03
    0.4900000000E+07    0.1124928458E-03    0.6959188369E+00    0.3787834730E-01    0.5832442942E+00    0.1195838632E-03
    0.1000000000E+07    0.1281799158E-02    0.6959248623E+00    0.1082442737E+00    0.4230452226E+00    0.1094741916E-03
    0.3000000000E+07    0.2577665810E-03    0.6959212995E+00    0.5539663313E-01    0.5440884585E+00    0.1163670620E-03
    0.5000000000E+07    0.1085874167E-03    0.6959187281E+00    0.3725736725E-01    0.5846267100E+00    0.1197182127E-03
    0.7000000000E+07    0.5958462435E-04    0.6959168452E+00    0.2804555231E-01    0.6050959478E+00    0.1219780961E-03
    0.9000000000E+07    0.3758681028E-04    0.6959153612E+00    0.2247158225E-01    0.6174503464E+00    0.1236938062E-03
    0.1100000000E+08    0.2585589027E-04    0.6959141351E+00    0.1873701819E-01    0.6257162379E+00    0.1250810827E-03
    0.1300000000E+08    0.1887063030E-04    0.6959130891E+00    0.1606115769E-01    0.6316337079E+00    0.1262478188E-03
    0.1500000000E+08    0.1437827782E-04    0.6959121761E+00    0.1405023701E-01    0.6360781325E+00    0.1272559099E-03
    0.1700000000E+08    0.1131993063E-04    0.6959113653E+00    0.1248414242E-01    0.6395380188E+00    0.1281442327E-03
    0.1900000000E+08    0.9144522716E-05    0.6959106356E+00    0.1123020457E-01    0.6423074558E+00    0.1289388379E-03
    0.2100000000E+08    0.7542305549E-05    0.6959099719E+00    0.1020370789E-01    0.6445740692E+00    0.1296580523E-03
    0.2300000000E+08    0.6328317403E-05    0.6959093630E+00    0.9348026267E-02    0.6464631898E+00    0.1303152682E-03
    0.2500000000E+08    0.5386585818E-05    0.6959088002E+00    0.8623876191E-02    0.6480617184E+00    0.1309205747E-03
    0.2700000000E+08    0.4641407403E-05    0.6959082769E+00    0.8003152288E-02    0.6494318026E+00    0.1314817657E-03
