  Pressure (Pa) 22mC5-500 (mol/kg) 24mC5-500 (mol/kg) 2mC6-500 (mol/kg) 3mC6-500 (mol/kg) C7-500 (mol/kg)
    0.1000000000E+01    0.1128066030E-04    0.1266282610E+00    0.1757172905E-04    0.1676545848E-05    0.4182111993E-02
    0.3000000000E+01    0.2331007520E-04    0.2785053678E+00    0.3463665343E-04    0.4260053373E-05    0.4217174030E-02
    0.5000000000E+01    0.2939467006E-04    0.3663988374E+00    0.4256450265E-04    0.6629855800E-05    0.4235227412E-02
    0.7000000000E+01    0.3295954253E-04    0.4237082973E+00    0.4714026817E-04    0.8896997531E-05    0.4246756781E-02
    0.9000000000E+01    0.3528720396E-04    0.4640320913E+00    0.5032879975E-04    0.1109881869E-04    0.4254787161E-02
    0.1100000000E+02    0.3694875373E-04    0.4939474297E+00    0.5291554793E-04    0.1325397093E-04    0.4260691070E-02
    0.1300000000E+02    0.3822902834E-04    0.5170238518E+00    0.5524724801E-04    0.1537354189E-04    0.4265197827E-02
    0.1500000000E+02    0.3928196877E-04    0.5353660822E+00    0.5748657144E-04    0.1746483059E-04    0.4268734130E-02
    0.1700000000E+02    0.4019587432E-04    0.5502955157E+00    0.5971223624E-04    0.1953297920E-04    0.4271567292E-02
    0.1900000000E+02    0.4102374118E-04    0.5626836252E+00    0.6196234054E-04    0.2158179077E-04    0.4273873722E-02
    0.2100000000E+02    0.4179851048E-04    0.5731284358E+00    0.6425451875E-04    0.2361418293E-04    0.4275774746E-02
    0.2300000000E+02    0.4254121962E-04    0.5820539776E+00    0.6659584414E-04    0.2563245903E-04    0.4277356658E-02
    0.2500000000E+02    0.4326558366E-04    0.5897692760E+00    0.6898789994E-04    0.2763847988E-04    0.4278682581E-02
    0.2700000000E+02    0.4398067907E-04    0.5965048659E+00    0.7142945657E-04    0.2963377751E-04    0.4279799800E-02
    0.2900000000E+02    0.4469257141E-04    0.6024362247E+00    0.7391791433E-04    0.3161963344E-04    0.4280744464E-02
    0.3100000000E+02    0.4540533201E-04    0.6076992824E+00    0.7645008853E-04    0.3359713420E-04    0.4281544698E-02
    0.3300000000E+02    0.4612168927E-04    0.6124009693E+00    0.7902263583E-04    0.3556721175E-04    0.4282222731E-02
    0.3500000000E+02    0.4684345487E-04    0.6166265575E+00    0.8163228117E-04    0.3753067362E-04    0.4282796373E-02
    0.3700000000E+02    0.4757180818E-04    0.6204448807E+00    0.8427593264E-04    0.3948822572E-04    0.4283280066E-02
    0.3900000000E+02    0.4830748886E-04    0.6239121130E+00    0.8695073324E-04    0.4144049008E-04    0.4283685653E-02
    0.4100000000E+02    0.4905092940E-04    0.6270745516E+00    0.8965407733E-04    0.4338801860E-04    0.4284022940E-02
    0.4300000000E+02    0.4980234714E-04    0.6299706961E+00    0.9238360765E-04    0.4533130413E-04    0.4284300118E-02
    0.4500000000E+02    0.5056180908E-04    0.6326328238E+00    0.9513720235E-04    0.4727078926E-04    0.4284524089E-02
    0.4700000000E+02    0.5132927768E-04    0.6350881981E+00    0.9791295714E-04    0.4920687356E-04    0.4284700708E-02
    0.4900000000E+02    0.5210464357E-04    0.6373600056E+00    0.1007091659E-03    0.5113991943E-04    0.4284834977E-02
    0.1000000000E+02    0.3617921321E-04    0.4800215465E+00    0.5166957991E-04    0.1218141838E-04    0.4257949725E-02
    0.3000000000E+02    0.4504864702E-04    0.6051440269E+00    0.7517874548E-04    0.3260936674E-04    0.4281161127E-02
    0.5000000000E+02    0.5249524011E-04    0.6384333869E+00    0.1021144566E-03    0.5210540727E-04    0.4284887598E-02
    0.7000000000E+02    0.6067320804E-04    0.6538500997E+00    0.1310001449E-03    0.7132258259E-04    0.4284500315E-02
    0.9000000000E+02    0.6941261574E-04    0.6627415848E+00    0.1609146385E-03    0.9048678912E-04    0.4282486621E-02
    0.1100000000E+03    0.7856935331E-04    0.6685270363E+00    0.1915314243E-03    0.1097148181E-03    0.4279629183E-02
    0.1300000000E+03    0.8805970892E-04    0.6725919800E+00    0.2227277061E-03    0.1290794844E-03    0.4276256242E-02
    0.1500000000E+03    0.9783574501E-04    0.6756045413E+00    0.2544596514E-03    0.1486318119E-03    0.4272530222E-02
    0.1700000000E+03    0.1078697955E-03    0.6779265532E+00    0.2867176669E-03    0.1684106325E-03    0.4268540578E-02
    0.1900000000E+03    0.1181460845E-03    0.6797710285E+00    0.3195083287E-03    0.1884473981E-03    0.4264340315E-02
    0.2100000000E+03    0.1286561339E-03    0.6812715378E+00    0.3528463818E-03    0.2087688512E-03    0.4259962473E-02
    0.2300000000E+03    0.1393961485E-03    0.6825160860E+00    0.3867509520E-03    0.2293986242E-03    0.4255428360E-02
    0.2500000000E+03    0.1503654692E-03    0.6835650153E+00    0.4212436680E-03    0.2503582557E-03    0.4250751984E-02
    0.2700000000E+03    0.1615656238E-03    0.6844610825E+00    0.4563477049E-03    0.2716678684E-03    0.4245942597E-02
    0.2900000000E+03    0.1729997279E-03    0.6852354301E+00    0.4920872956E-03    0.2933466413E-03    0.4241006230E-02
    0.3100000000E+03    0.1846720968E-03    0.6859112792E+00    0.5284874893E-03    0.3154131491E-03    0.4235946649E-02
    0.3300000000E+03    0.1965879885E-03    0.6865062973E+00    0.5655740440E-03    0.3378856170E-03    0.4230765982E-02
    0.3500000000E+03    0.2087534330E-03    0.6870341651E+00    0.6033733953E-03    0.3607821154E-03    0.4225465133E-02
    0.3700000000E+03    0.2211751161E-03    0.6875056410E+00    0.6419126670E-03    0.3841207148E-03    0.4220044068E-02
    0.3900000000E+03    0.2338603023E-03    0.6879293016E+00    0.6812197073E-03    0.4079196123E-03    0.4214502012E-02
    0.4100000000E+03    0.2468167827E-03    0.6883120685E+00    0.7213231394E-03    0.4321972373E-03    0.4208837594E-02
    0.4300000000E+03    0.2600528429E-03    0.6886595886E+00    0.7622524218E-03    0.4569723430E-03    0.4203048943E-02
    0.4500000000E+03    0.2735772428E-03    0.6889765151E+00    0.8040379137E-03    0.4822640867E-03    0.4197133762E-02
    0.4700000000E+03    0.2873992080E-03    0.6892667166E+00    0.8467109448E-03    0.5080921035E-03    0.4191089385E-02
    0.4900000000E+03    0.3015284271E-03    0.6895334359E+00    0.8903038884E-03    0.5344765734E-03    0.4184912812E-02
    0.1000000000E+03    0.7394513877E-04    0.6659111106E+00    0.1761456167E-03    0.1000875978E-03    0.4281137171E-02
    0.3000000000E+03    0.1788058204E-03    0.6855844540E+00    0.5102032232E-03    0.3043302836E-03    0.4238491676E-02
    0.5000000000E+03    0.3087114122E-03    0.6896588625E+00    0.9124557478E-03    0.5478839494E-03    0.4181773930E-02
    0.7000000000E+03    0.4712919558E-03    0.6914193713E+00    0.1412796418E-02    0.8508016014E-03    0.4111084068E-02
    0.9000000000E+03    0.6801373925E-03    0.6924009639E+00    0.2054427442E-02    0.1239630645E-02    0.4021506654E-02
    0.1100000000E+04    0.9567519983E-03    0.6930268142E+00    0.2904155507E-02    0.1755194516E-02    0.3904883818E-02
    0.1300000000E+04    0.1336270488E-02    0.6934605719E+00    0.4070731783E-02    0.2463972787E-02    0.3748026798E-02
    0.1500000000E+04    0.1878031119E-02    0.6937788625E+00    0.5737916754E-02    0.3478480588E-02    0.3529225792E-02
    0.1700000000E+04    0.2683327900E-02    0.6940223446E+00    0.8220134483E-02    0.4991743867E-02    0.3212912643E-02
    0.1900000000E+04    0.3913646537E-02    0.6942145953E+00    0.1202107743E-01    0.7314466785E-02    0.2746592454E-02
    0.2100000000E+04    0.5745875049E-02    0.6943702280E+00    0.1770073928E-01    0.1079701089E-01    0.2086125071E-02
    0.2300000000E+04    0.8082959206E-02    0.6944987819E+00    0.2498584954E-01    0.1528835605E-01    0.1308334525E-02
    0.2500000000E+04    0.1025869444E-01    0.6946067486E+00    0.3183755551E-01    0.1955419336E-01    0.6827091347E-03
    0.2700000000E+04    0.1175832044E-01    0.6946986986E+00    0.3664965614E-01    0.2260359499E-01    0.3610232768E-03
    0.2900000000E+04    0.1273682968E-01    0.6947779435E+00    0.3987691695E-01    0.2470025793E-01    0.2397264915E-03
    0.3100000000E+04    0.1347051477E-01    0.6948469410E+00    0.4236321665E-01    0.2635422935E-01    0.2000814741E-03
    0.3300000000E+04    0.1410036358E-01    0.6949075535E+00    0.4454204369E-01    0.2782928023E-01    0.1879415291E-03
    0.3500000000E+04    0.1467961973E-01    0.6949612184E+00    0.4657733740E-01    0.2922534695E-01    0.1845207417E-03
    0.3700000000E+04    0.1522706989E-01    0.6950090621E+00    0.4852658216E-01    0.3057729342E-01    0.1838179961E-03
    0.3900000000E+04    0.1574964067E-01    0.6950519804E+00    0.5041048426E-01    0.3189741568E-01    0.1839536026E-03
    0.4100000000E+04    0.1625029651E-01    0.6950906943E+00    0.5223744892E-01    0.3319044865E-01    0.1843390870E-03
    0.4300000000E+04    0.1673066130E-01    0.6951257907E+00    0.5401173984E-01    0.3445858998E-01    0.1847897019E-03
    0.4500000000E+04    0.1719188014E-01    0.6951577522E+00    0.5573617042E-01    0.3570316283E-01    0.1852476909E-03
    0.4700000000E+04    0.1763490466E-01    0.6951869793E+00    0.5741299589E-01    0.3692516803E-01    0.1856955325E-03
    0.4900000000E+04    0.1806058950E-01    0.6952138072E+00    0.5904421380E-01    0.3812546972E-01    0.1861285054E-03
    0.1000000000E+04    0.8081908125E-03    0.6927450738E+00    0.2447759231E-02    0.1478197996E-02    0.3967250770E-02
    0.3000000000E+04    0.1312252213E-01    0.6948135951E+00    0.4117658162E-01    0.2556063088E-01    0.2143101986E-03
    0.5000000000E+04    0.1826717905E-01    0.6952264114E+00    0.5984330113E-01    0.3871773115E-01    0.1863391414E-03
    0.7000000000E+04    0.2165779087E-01    0.6954024274E+00    0.7382661282E-01    0.4959377063E-01    0.1898821779E-03
    0.9000000000E+04    0.2398203125E-01    0.6954996470E+00    0.8482612172E-01    0.5898250086E-01    0.1925670217E-03
    0.1100000000E+05    0.2558867169E-01    0.6955611333E+00    0.9369360553E-01    0.6726310819E-01    0.1947354088E-03
    0.1300000000E+05    0.2669639461E-01    0.6956034284E+00    0.1009829895E+00    0.7468928021E-01    0.1965577223E-03
    0.1500000000E+05    0.2744815604E-01    0.6956342404E+00    0.1070703148E+00    0.8143801303E-01    0.1981314341E-03
    0.1700000000E+05    0.2794064213E-01    0.6956576436E+00    0.1122200249E+00    0.8763712121E-01    0.1995176504E-03
    0.1900000000E+05    0.2824111602E-01    0.6956759924E+00    0.1166236457E+00    0.9338159825E-01    0.2007572616E-03
    0.2100000000E+05    0.2839749406E-01    0.6956907420E+00    0.1204234021E+00    0.9874378905E-01    0.2018790044E-03
    0.2300000000E+05    0.2844460460E-01    0.6957028393E+00    0.1237272001E+00    0.1037799569E+00    0.2029038605E-03
    0.2500000000E+05    0.2840820309E-01    0.6957129274E+00    0.1266184468E+00    0.1085346614E+00    0.2038476267E-03
    0.2700000000E+05    0.2830762068E-01    0.6957214576E+00    0.1291626732E+00    0.1130437599E+00    0.2047224993E-03
    0.2900000000E+05    0.2815755454E-01    0.6957287563E+00    0.1314121126E+00    0.1173365154E+00    0.2055380949E-03
    0.3100000000E+05    0.2796930416E-01    0.6957350650E+00    0.1334089352E+00    0.1214371094E+00    0.2063021325E-03
    0.3300000000E+05    0.2775164154E-01    0.6957405665E+00    0.1351875792E+00    0.1253657491E+00    0.2070209044E-03
    0.3500000000E+05    0.2751143406E-01    0.6957454013E+00    0.1367764599E+00    0.1291394912E+00    0.2076996078E-03
    0.3700000000E+05    0.2725409725E-01    0.6957496795E+00    0.1381992422E+00    0.1327728638E+00    0.2083425868E-03
    0.3900000000E+05    0.2698392840E-01    0.6957534882E+00    0.1394758026E+00    0.1362783443E+00    0.2089535095E-03
    0.4100000000E+05    0.2670435540E-01    0.6957568976E+00    0.1406229646E+00    0.1396667291E+00    0.2095355024E-03
    0.4300000000E+05    0.2641812460E-01    0.6957599645E+00    0.1416550687E+00    0.1429474245E+00    0.2100912520E-03
    0.4500000000E+05    0.2612744391E-01    0.6957627357E+00    0.1425844185E+00    0.1461286778E+00    0.2106230841E-03
    0.4700000000E+05    0.2583409300E-01    0.6957652499E+00    0.1434216329E+00    0.1492177617E+00    0.2111330262E-03
    0.4900000000E+05    0.2553950877E-01    0.6957675392E+00    0.1441759280E+00    0.1522211243E+00    0.2116228561E-03
    0.1000000000E+05    0.2485913739E-01    0.6955335123E+00    0.8948652607E-01    0.6324323476E-01    0.1937027424E-03
    0.3000000000E+05    0.2806760317E-01    0.6957320218E+00    0.1324397899E+00    0.1194094872E+00    0.2059261362E-03
    0.5000000000E+05    0.2539212624E-01    0.6957686082E+00    0.1445245339E+00    0.1536924800E+00    0.2118607262E-03
    0.7000000000E+05    0.2256432079E-01    0.6957829624E+00    0.1486429507E+00    0.1797356125E+00    0.2158614685E-03
    0.9000000000E+05    0.2012037754E-01    0.6957901908E+00    0.1495718718E+00    0.2011916376E+00    0.2188983956E-03
    0.1100000000E+06    0.1806618331E-01    0.6957943095E+00    0.1489605718E+00    0.2196232579E+00    0.2213537671E-03
    0.1300000000E+06    0.1633692370E-01    0.6957968240E+00    0.1475313210E+00    0.2358649617E+00    0.2234186887E-03
    0.1500000000E+06    0.1486897120E-01    0.6957984184E+00    0.1456477368E+00    0.2504245461E+00    0.2252027699E-03
    0.1700000000E+06    0.1361076176E-01    0.6957994451E+00    0.1435101968E+00    0.2636387801E+00    0.2267748470E-03
    0.1900000000E+06    0.1252222314E-01    0.6958001024E+00    0.1412361572E+00    0.2757450194E+00    0.2281810417E-03
    0.2100000000E+06    0.1157238437E-01    0.6958005097E+00    0.1388974905E+00    0.2869182914E+00    0.2294537984E-03
    0.2300000000E+06    0.1073715986E-01    0.6958007423E+00    0.1365394853E+00    0.2972922417E+00    0.2306168242E-03
    0.2500000000E+06    0.9997627975E-02    0.6958008501E+00    0.1341912048E+00    0.3069717807E+00    0.2316879783E-03
    0.2700000000E+06    0.9338756605E-02    0.6958008668E+00    0.1318714516E+00    0.3160411330E+00    0.2326810563E-03
    0.2900000000E+06    0.8748470361E-02    0.6958008161E+00    0.1295923549E+00    0.3245691833E+00    0.2336069404E-03
    0.3100000000E+06    0.8216966090E-02    0.6958007151E+00    0.1273616073E+00    0.3326131565E+00    0.2344743687E-03
    0.3300000000E+06    0.7736206597E-02    0.6958005761E+00    0.1251839019E+00    0.3402212269E+00    0.2352904661E-03
    0.3500000000E+06    0.7299542302E-02    0.6958004083E+00    0.1230618784E+00    0.3474344158E+00    0.2360611194E-03
    0.3700000000E+06    0.6901425375E-02    0.6958002187E+00    0.1209967596E+00    0.3542880024E+00    0.2367912498E-03
    0.3900000000E+06    0.6537191365E-02    0.6958000126E+00    0.1189887862E+00    0.3608125931E+00    0.2374850139E-03
    0.4100000000E+06    0.6202890597E-02    0.6957997940E+00    0.1170375197E+00    0.3670349456E+00    0.2381459550E-03
    0.4300000000E+06    0.5895156679E-02    0.6957995660E+00    0.1151420544E+00    0.3729786137E+00    0.2387771183E-03
    0.4500000000E+06    0.5611102964E-02    0.6957993313E+00    0.1133011683E+00    0.3786644580E+00    0.2393811406E-03
    0.4700000000E+06    0.5348240286E-02    0.6957990917E+00    0.1115134310E+00    0.3841110565E+00    0.2399603206E-03
    0.4900000000E+06    0.5104411056E-02    0.6957988487E+00    0.1097772810E+00    0.3893350370E+00    0.2405166744E-03
    0.1000000000E+06    0.1904833500E-01    0.6957925157E+00    0.1494014983E+00    0.2107228743E+00    0.2201841739E-03
    0.3000000000E+06    0.8475909234E-02    0.6958007710E+00    0.1284705868E+00    0.3286484815E+00    0.2340474834E-03
    0.5000000000E+06    0.4989037094E-02    0.6957987264E+00    0.1089280416E+00    0.3918682764E+00    0.2407868553E-03
    0.7000000000E+06    0.3331672486E-02    0.6957962997E+00    0.9425084622E-01    0.4337971196E+00    0.2453315066E-03
    0.9000000000E+06    0.2396367746E-02    0.6957940833E+00    0.8300273807E-01    0.4641622791E+00    0.2487817756E-03
    0.1100000000E+07    0.1811630111E-02    0.6957921148E+00    0.7413577751E-01    0.4873346007E+00    0.2515715470E-03
    0.1300000000E+07    0.1419867432E-02    0.6957903618E+00    0.6697228510E-01    0.5056649549E+00    0.2539178048E-03
    0.1500000000E+07    0.1143829633E-02    0.6957887878E+00    0.6106591496E-01    0.5205570272E+00    0.2559450252E-03
    0.1700000000E+07    0.9416856277E-03    0.6957873617E+00    0.5611286724E-01    0.5329098934E+00    0.2577313912E-03
    0.1900000000E+07    0.7890577604E-03    0.6957860591E+00    0.5189971018E-01    0.5433297083E+00    0.2593292919E-03
    0.2100000000E+07    0.6709100924E-03    0.6957848606E+00    0.4827224476E-01    0.5522416084E+00    0.2607755829E-03
    0.2300000000E+07    0.5775382459E-03    0.6957837509E+00    0.4511632850E-01    0.5599533470E+00    0.2620971961E-03
    0.2500000000E+07    0.5024415705E-03    0.6957827178E+00    0.4234567167E-01    0.5666935754E+00    0.2633144211E-03
    0.2700000000E+07    0.4411278707E-03    0.6957817512E+00    0.3989383167E-01    0.5726359277E+00    0.2644429311E-03
    0.2900000000E+07    0.3904096467E-03    0.6957808432E+00    0.3770881652E-01    0.5779147443E+00    0.2654950901E-03
    0.3100000000E+07    0.3479730085E-03    0.6957799868E+00    0.3574935793E-01    0.5826356580E+00    0.2664808260E-03
    0.3300000000E+07    0.3121045350E-03    0.6957791765E+00    0.3398228123E-01    0.5868829137E+00    0.2674082340E-03
    0.3500000000E+07    0.2815130730E-03    0.6957784074E+00    0.3238061336E-01    0.5907245449E+00    0.2682840030E-03
    0.3700000000E+07    0.2552104622E-03    0.6957776755E+00    0.3092219802E-01    0.5942161096E+00    0.2691137247E-03
    0.3900000000E+07    0.2324298765E-03    0.6957769774E+00    0.2958866618E-01    0.5974034349E+00    0.2699021219E-03
    0.4100000000E+07    0.2125687839E-03    0.6957763099E+00    0.2836465983E-01    0.6003246645E+00    0.2706532207E-03
    0.4300000000E+07    0.1951483778E-03    0.6957756704E+00    0.2723723929E-01    0.6030118085E+00    0.2713704815E-03
    0.4500000000E+07    0.1797842510E-03    0.6957750566E+00    0.2619542513E-01    0.6054919317E+00    0.2720569004E-03
    0.4700000000E+07    0.1661648822E-03    0.6957744666E+00    0.2522984057E-01    0.6077880750E+00    0.2727150893E-03
    0.4900000000E+07    0.1540356399E-03    0.6957738984E+00    0.2433242928E-01    0.6099199783E+00    0.2733473391E-03
    0.1000000000E+07    0.2072770744E-02    0.6957930697E+00    0.7832077146E-01    0.4764705911E+00    0.2502426455E-03
    0.3000000000E+07    0.3682748481E-03    0.6957804089E+00    0.3670313066E-01    0.5803392415E+00    0.2659957177E-03
    0.5000000000E+07    0.1484627741E-03    0.6957736220E+00    0.2390707588E-01    0.6109297490E+00    0.2736543776E-03
    0.7000000000E+07    0.7964492300E-04    0.6957689327E+00    0.1770220834E-01    0.6256107457E+00    0.2788190295E-03
    0.9000000000E+07    0.4955046723E-04    0.6957653315E+00    0.1404259737E-01    0.6342294483E+00    0.2827400237E-03
    0.1100000000E+08    0.3376600075E-04    0.6957623997E+00    0.1163032259E-01    0.6398958188E+00    0.2859104172E-03
    0.1300000000E+08    0.2447453840E-04    0.6957599227E+00    0.9921342989E-02    0.6439036078E+00    0.2885767907E-03
    0.1500000000E+08    0.1854939402E-04    0.6957577754E+00    0.8647668036E-02    0.6468872452E+00    0.2908806005E-03
    0.1700000000E+08    0.1454176956E-04    0.6957558785E+00    0.7662030867E-02    0.6491943264E+00    0.2929106950E-03
    0.1900000000E+08    0.1170582638E-04    0.6957541783E+00    0.6876813582E-02    0.6510312203E+00    0.2947266108E-03
    0.2100000000E+08    0.9625892883E-05    0.6957526370E+00    0.6236635681E-02    0.6525281611E+00    0.2963702317E-03
    0.2300000000E+08    0.8055458688E-05    0.6957512266E+00    0.5704782860E-02    0.6537713831E+00    0.2978721639E-03
    0.2500000000E+08    0.6840834917E-05    0.6957499261E+00    0.5255957411E-02    0.6548202485E+00    0.2992554650E-03
    0.2700000000E+08    0.5882175384E-05    0.6957487192E+00    0.4872162859E-02    0.6557169545E+00    0.3005379470E-03
