  Pressure (Pa) 22mC5-500 (mol/kg) 24mC5-500 (mol/kg) 2mC6-500 (mol/kg) 3mC6-500 (mol/kg) C7-500 (mol/kg)
    0.1000000000E+01    0.1028139837E-04    0.1741087033E+00    0.1064247182E-04    0.2694019728E-05    0.4167833564E-02
    0.3000000000E+01    0.1908176459E-04    0.3481271151E+00    0.1879438639E-04    0.6777980061E-05    0.4191452094E-02
    0.5000000000E+01    0.2283878533E-04    0.4351049212E+00    0.2215981872E-04    0.1050892669E-04    0.4200330591E-02
    0.7000000000E+01    0.2492251805E-04    0.4872826663E+00    0.2428864417E-04    0.1407119786E-04    0.4205199607E-02
    0.9000000000E+01    0.2631965024E-04    0.5220645554E+00    0.2606044072E-04    0.1752641120E-04    0.4208225860E-02
    0.1100000000E+02    0.2740110870E-04    0.5469073679E+00    0.2774615641E-04    0.2090524772E-04    0.4210232265E-02
    0.1300000000E+02    0.2832867096E-04    0.5655388232E+00    0.2943723568E-04    0.2422590608E-04    0.4211610374E-02
    0.1500000000E+02    0.2918008942E-04    0.5800296284E+00    0.3116395051E-04    0.2750034645E-04    0.4212572390E-02
    0.1700000000E+02    0.2999526994E-04    0.5916221030E+00    0.3293403667E-04    0.3073698341E-04    0.4213243925E-02
    0.1900000000E+02    0.3079560728E-04    0.6011067656E+00    0.3474676028E-04    0.3394203320E-04    0.4213704307E-02
    0.2100000000E+02    0.3159287001E-04    0.6090106046E+00    0.3659839943E-04    0.3712026015E-04    0.4214006202E-02
    0.2300000000E+02    0.3239358470E-04    0.6156984456E+00    0.3848445097E-04    0.4027542232E-04    0.4214185993E-02
    0.2500000000E+02    0.3320132350E-04    0.6214308712E+00    0.4040051065E-04    0.4341055343E-04    0.4214269650E-02
    0.2700000000E+02    0.3401795209E-04    0.6263989714E+00    0.4234259584E-04    0.4652814948E-04    0.4214276218E-02
    0.2900000000E+02    0.3484433524E-04    0.6307460611E+00    0.4430723158E-04    0.4963029702E-04    0.4214219992E-02
    0.3100000000E+02    0.3568074718E-04    0.6345817330E+00    0.4629143853E-04    0.5271876412E-04    0.4214111914E-02
    0.3300000000E+02    0.3652711569E-04    0.6379912248E+00    0.4829268406E-04    0.5579506655E-04    0.4213960508E-02
    0.3500000000E+02    0.3738316975E-04    0.6410418287E+00    0.5030882329E-04    0.5886051700E-04    0.4213772511E-02
    0.3700000000E+02    0.3824852980E-04    0.6437873785E+00    0.5233804159E-04    0.6191626251E-04    0.4213553321E-02
    0.3900000000E+02    0.3912276325E-04    0.6462714534E+00    0.5437880291E-04    0.6496331332E-04    0.4213307315E-02
    0.4100000000E+02    0.4000541857E-04    0.6485297090E+00    0.5642980520E-04    0.6800256547E-04    0.4213038079E-02
    0.4300000000E+02    0.4089604593E-04    0.6505916000E+00    0.5848994266E-04    0.7103481876E-04    0.4212748580E-02
    0.4500000000E+02    0.4179420951E-04    0.6524816718E+00    0.6055827416E-04    0.7406079122E-04    0.4212441292E-02
    0.4700000000E+02    0.4269949444E-04    0.6542205425E+00    0.6263399697E-04    0.7708113079E-04    0.4212118299E-02
    0.4900000000E+02    0.4361151028E-04    0.6558256583E+00    0.6471642497E-04    0.8009642498E-04    0.4211781363E-02
    0.1000000000E+02    0.2688689680E-04    0.5354415871E+00    0.2690615010E-04    0.1922404624E-04    0.4209326154E-02
    0.3000000000E+02    0.3526128609E-04    0.6327220126E+00    0.4529705673E-04    0.5117614062E-04    0.4214171854E-02
    0.5000000000E+02    0.4406992737E-04    0.6565827899E+00    0.6575996636E-04    0.8160234912E-04    0.4211608146E-02
    0.7000000000E+02    0.5351678041E-04    0.6673694512E+00    0.8687824091E-04    0.1115643605E-03    0.4207681871E-02
    0.9000000000E+02    0.6336160055E-04    0.6735168221E+00    0.1083357833E-03    0.1414278628E-03    0.4203246191E-02
    0.1100000000E+03    0.7349625897E-04    0.6774881944E+00    0.1300660863E-03    0.1713814240E-03    0.4198548536E-02
    0.1300000000E+03    0.8387148553E-04    0.6802651979E+00    0.1520657170E-03    0.2015423640E-03    0.4193684406E-02
    0.1500000000E+03    0.9446451667E-04    0.6823162001E+00    0.1743497645E-03    0.2319927476E-03    0.4188696569E-02
    0.1700000000E+03    0.1052656028E-03    0.6838929865E+00    0.1969388570E-03    0.2627949354E-03    0.4183605677E-02
    0.1900000000E+03    0.1162719072E-03    0.6851429776E+00    0.2198549501E-03    0.2939993710E-03    0.4178421862E-02
    0.2100000000E+03    0.1274845230E-03    0.6861582260E+00    0.2431199356E-03    0.3256488990E-03    0.4173149772E-02
    0.2300000000E+03    0.1389069178E-03    0.6869991790E+00    0.2667552424E-03    0.3577813489E-03    0.4167790993E-02
    0.2500000000E+03    0.1505440809E-03    0.6877071704E+00    0.2907818000E-03    0.3904311758E-03    0.4162345298E-02
    0.2700000000E+03    0.1624020372E-03    0.6883114220E+00    0.3152201303E-03    0.4236305553E-03    0.4156811331E-02
    0.2900000000E+03    0.1744875624E-03    0.6888331771E+00    0.3400904800E-03    0.4574101439E-03    0.4151186997E-02
    0.3100000000E+03    0.1868080130E-03    0.6892882493E+00    0.3654129561E-03    0.4917996282E-03    0.4145469700E-02
    0.3300000000E+03    0.1993712252E-03    0.6896886535E+00    0.3912076543E-03    0.5268281343E-03    0.4139656474E-02
    0.3500000000E+03    0.2121854556E-03    0.6900436816E+00    0.4174947754E-03    0.5625245426E-03    0.4133744079E-02
    0.3700000000E+03    0.2252593481E-03    0.6903606327E+00    0.4442947306E-03    0.5989177378E-03    0.4127729051E-02
    0.3900000000E+03    0.2386019190E-03    0.6906453199E+00    0.4716282359E-03    0.6360368123E-03    0.4121607734E-02
    0.4100000000E+03    0.2522225519E-03    0.6909024306E+00    0.4995163993E-03    0.6739112378E-03    0.4115376300E-02
    0.4300000000E+03    0.2661310025E-03    0.6911357859E+00    0.5279808002E-03    0.7125710125E-03    0.4109030761E-02
    0.4500000000E+03    0.2803374076E-03    0.6913485324E+00    0.5570435651E-03    0.7520467918E-03    0.4102566973E-02
    0.4700000000E+03    0.2948522986E-03    0.6915432842E+00    0.5867274379E-03    0.7923700064E-03    0.4095980636E-02
    0.4900000000E+03    0.3096866188E-03    0.6917222314E+00    0.6170558498E-03    0.8335729724E-03    0.4089267292E-02
    0.1000000000E+03    0.6839664302E-04    0.6756952871E+00    0.1191677543E-03    0.1563849577E-03    0.4200922304E-02
    0.3000000000E+03    0.1806179427E-03    0.6890682233E+00    0.3526939474E-03    0.4745268196E-03    0.4148340147E-02
    0.5000000000E+03    0.3172271020E-03    0.6918063675E+00    0.6324692842E-03    0.8545147288E-03    0.4085861555E-02
    0.7000000000E+03    0.4878910605E-03    0.6929863144E+00    0.9810610233E-03    0.1328448682E-02    0.4009836648E-02
    0.9000000000E+03    0.7075083479E-03    0.6936434316E+00    0.1429544670E-02    0.1938997769E-02    0.3914348625E-02
    0.1100000000E+04    0.9993998353E-03    0.6940621395E+00    0.2025992665E-02    0.2752105037E-02    0.3790400952E-02
    0.1300000000E+04    0.1401716228E-02    0.6943522306E+00    0.2848956267E-02    0.3875656605E-02    0.3623678398E-02
    0.1500000000E+04    0.1978985929E-02    0.6945650564E+00    0.4031469167E-02    0.5492716908E-02    0.3390744308E-02
    0.1700000000E+04    0.2840803064E-02    0.6947278444E+00    0.5800099396E-02    0.7915963240E-02    0.3053636886E-02
    0.1900000000E+04    0.4156966722E-02    0.6948563748E+00    0.8507832597E-02    0.1163518964E-01    0.2558680092E-02
    0.2100000000E+04    0.6089390538E-02    0.6949604247E+00    0.1249792886E-01    0.1713561887E-01    0.1871173627E-02
    0.2300000000E+04    0.8462237014E-02    0.6950463741E+00    0.1742716916E-01    0.2397089692E-01    0.1099047976E-02
    0.2500000000E+04    0.1056687180E-01    0.6951185638E+00    0.2184818319E-01    0.3016735798E-01    0.5185490612E-03
    0.2700000000E+04    0.1199130614E-01    0.6951800495E+00    0.2490076556E-01    0.3452679453E-01    0.2359398772E-03
    0.2900000000E+04    0.1294167290E-01    0.6952330447E+00    0.2699413467E-01    0.3759156473E-01    0.1320405000E-03
    0.3100000000E+04    0.1367566100E-01    0.6952791922E+00    0.2865295116E-01    0.4007513294E-01    0.9822672440E-04
    0.3300000000E+04    0.1431673966E-01    0.6953197366E+00    0.3013005313E-01    0.4232335299E-01    0.8773926049E-04
    0.3500000000E+04    0.1491081372E-01    0.6953556384E+00    0.3151950607E-01    0.4446504899E-01    0.8462693698E-04
    0.3700000000E+04    0.1547409040E-01    0.6953876503E+00    0.3285425645E-01    0.4654504840E-01    0.8381698736E-04
    0.3900000000E+04    0.1601261058E-01    0.6954163709E+00    0.3414625356E-01    0.4857921442E-01    0.8372266895E-04
    0.4100000000E+04    0.1652902036E-01    0.6954422818E+00    0.3540042927E-01    0.5057371559E-01    0.8384755046E-04
    0.4300000000E+04    0.1702481607E-01    0.6954657753E+00    0.3661935246E-01    0.5253146882E-01    0.8403567101E-04
    0.4500000000E+04    0.1750108198E-01    0.6954871738E+00    0.3780476373E-01    0.5445427105E-01    0.8423797213E-04
    0.4700000000E+04    0.1795873431E-01    0.6955067448E+00    0.3895808345E-01    0.5634350635E-01    0.8443920231E-04
    0.4900000000E+04    0.1839860355E-01    0.6955247123E+00    0.4008058252E-01    0.5820038292E-01    0.8463486433E-04
    0.1000000000E+04    0.8424862542E-03    0.6938736722E+00    0.1705292717E-02    0.2314768539E-02    0.3856666971E-02
    0.3000000000E+04    0.1332535675E-01    0.6952568889E+00    0.2785666693E-01    0.3887702926E-01    0.1103800403E-03
    0.5000000000E+04    0.1861211322E-01    0.6955331549E+00    0.4063064613E-01    0.5911703745E-01    0.8473021670E-04
    0.7000000000E+04    0.2211528059E-01    0.6956511540E+00    0.5026922684E-01    0.7599270286E-01    0.8633683060E-04
    0.9000000000E+04    0.2450306176E-01    0.6957164567E+00    0.5785107090E-01    0.9060855127E-01    0.8755531638E-04
    0.1100000000E+05    0.2613040435E-01    0.6957578430E+00    0.6394311855E-01    0.1035184205E+00    0.8853983425E-04
    0.1300000000E+05    0.2722430136E-01    0.6957863732E+00    0.6892101011E-01    0.1150992010E+00    0.8936745271E-04
    0.1500000000E+05    0.2793545022E-01    0.6958072038E+00    0.7304353674E-01    0.1256173277E+00    0.9008230529E-04
    0.1700000000E+05    0.2836702319E-01    0.6958230617E+00    0.7649485811E-01    0.1352672119E+00    0.9071207885E-04
    0.1900000000E+05    0.2859149201E-01    0.6958355240E+00    0.7940965598E-01    0.1441945578E+00    0.9127530990E-04
    0.2100000000E+05    0.2866087757E-01    0.6958455656E+00    0.8188875554E-01    0.1525110968E+00    0.9178503034E-04
    0.2300000000E+05    0.2861321503E-01    0.6958538217E+00    0.8400917610E-01    0.1603042258E+00    0.9225075815E-04
    0.2500000000E+05    0.2847675566E-01    0.6958607236E+00    0.8583079782E-01    0.1676435038E+00    0.9267966098E-04
    0.2700000000E+05    0.2827276973E-01    0.6958665745E+00    0.8740090299E-01    0.1745851454E+00    0.9307727384E-04
    0.2900000000E+05    0.2801745930E-01    0.6958715937E+00    0.8875734278E-01    0.1811752026E+00    0.9344796177E-04
    0.3100000000E+05    0.2772329019E-01    0.6958759435E+00    0.8993079179E-01    0.1874518625E+00    0.9379522905E-04
    0.3300000000E+05    0.2739993636E-01    0.6958797468E+00    0.9094638314E-01    0.1934471376E+00    0.9412193240E-04
    0.3500000000E+05    0.2705496009E-01    0.6958830984E+00    0.9182491430E-01    0.1991881299E+00    0.9443043187E-04
    0.3700000000E+05    0.2669430923E-01    0.6958860723E+00    0.9258374978E-01    0.2046979899E+00    0.9472270008E-04
    0.3900000000E+05    0.2632268535E-01    0.6958887274E+00    0.9323750621E-01    0.2099966544E+00    0.9500040297E-04
    0.4100000000E+05    0.2594381947E-01    0.6958911109E+00    0.9379857878E-01    0.2151014206E+00    0.9526496048E-04
    0.4300000000E+05    0.2556068102E-01    0.6958932613E+00    0.9427755046E-01    0.2200273984E+00    0.9551759289E-04
    0.4500000000E+05    0.2517563755E-01    0.6958952101E+00    0.9468351337E-01    0.2247878697E+00    0.9575935672E-04
    0.4700000000E+05    0.2479057795E-01    0.6958969834E+00    0.9502432372E-01    0.2293945775E+00    0.9599117291E-04
    0.4900000000E+05    0.2440700835E-01    0.6958986032E+00    0.9530680578E-01    0.2338579599E+00    0.9621384912E-04
    0.1000000000E+05    0.2539535748E-01    0.6957392406E+00    0.6105644109E-01    0.9724999162E-01    0.8807092957E-04
    0.3000000000E+05    0.2787457105E-01    0.6958738438E+00    0.8936525630E-01    0.1843505783E+00    0.9362433128E-04
    0.5000000000E+05    0.2421616715E-01    0.6958993613E+00    0.9542806529E-01    0.2360388569E+00    0.9632198565E-04
    0.7000000000E+05    0.2066056131E-01    0.6959096984E+00    0.9590245141E-01    0.2739534360E+00    0.9814081938E-04
    0.9000000000E+05    0.1772060834E-01    0.6959151036E+00    0.9432098038E-01    0.3040777526E+00    0.9952156367E-04
    0.1100000000E+06    0.1534017528E-01    0.6959183253E+00    0.9188733354E-01    0.3290411195E+00    0.1006379424E-03
    0.1300000000E+06    0.1340468806E-01    0.6959204029E+00    0.8910942959E-01    0.3502806203E+00    0.1015768181E-03
    0.1500000000E+06    0.1181505280E-01    0.6959218134E+00    0.8622732771E-01    0.3686868452E+00    0.1023880152E-03
    0.1700000000E+06    0.1049493131E-01    0.6959228045E+00    0.8336134943E-01    0.3848580756E+00    0.1031028260E-03
    0.1900000000E+06    0.9386894454E-02    0.6959235175E+00    0.8057291476E-01    0.3992192754E+00    0.1037422177E-03
    0.2100000000E+06    0.8447697661E-02    0.6959240380E+00    0.7789257437E-01    0.4120848481E+00    0.1043209402E-03
    0.2300000000E+06    0.7644485094E-02    0.6959244208E+00    0.7533402374E-01    0.4236947311E+00    0.1048497715E-03
    0.2500000000E+06    0.6952006209E-02    0.6959247025E+00    0.7290153916E-01    0.4342365658E+00    0.1053368312E-03
    0.2700000000E+06    0.6350622532E-02    0.6959249084E+00    0.7059410096E-01    0.4438600298E+00    0.1057883914E-03
    0.2900000000E+06    0.5824882513E-02    0.6959250563E+00    0.6840775449E-01    0.4526864904E+00    0.1062093998E-03
    0.3100000000E+06    0.5362495434E-02    0.6959251593E+00    0.6633699252E-01    0.4608157294E+00    0.1066038292E-03
    0.3300000000E+06    0.4953584968E-02    0.6959252269E+00    0.6437557558E-01    0.4683307586E+00    0.1069749190E-03
    0.3500000000E+06    0.4590139900E-02    0.6959252665E+00    0.6251702062E-01    0.4753013517E+00    0.1073253459E-03
    0.3700000000E+06    0.4265605188E-02    0.6959252837E+00    0.6075489000E-01    0.4817866864E+00    0.1076573473E-03
    0.3900000000E+06    0.3974574047E-02    0.6959252827E+00    0.5908295836E-01    0.4878373561E+00    0.1079728132E-03
    0.4100000000E+06    0.3712553559E-02    0.6959252670E+00    0.5749530429E-01    0.4934969251E+00    0.1082733545E-03
    0.4300000000E+06    0.3475784435E-02    0.6959252392E+00    0.5598635528E-01    0.4988031472E+00    0.1085603560E-03
    0.4500000000E+06    0.3261101060E-02    0.6959252016E+00    0.5455090388E-01    0.5037889315E+00    0.1088350165E-03
    0.4700000000E+06    0.3065821849E-02    0.6959251559E+00    0.5318410640E-01    0.5084831170E+00    0.1090983811E-03
    0.4900000000E+06    0.2887662612E-02    0.6959251035E+00    0.5188147112E-01    0.5129110991E+00    0.1093513666E-03
    0.1000000000E+06    0.1646770459E-01    0.6959169025E+00    0.9316985261E-01    0.3170973695E+00    0.1001061620E-03
    0.3000000000E+06    0.5586436475E-02    0.6959251127E+00    0.6735830519E-01    0.4568327278E+00    0.1064097195E-03
    0.5000000000E+06    0.2804380564E-02    0.6959250752E+00    0.5125290263E-01    0.5150323861E+00    0.1094742236E-03
    0.7000000000E+06    0.1685155892E-02    0.6959243534E+00    0.4119765526E-01    0.5477756182E+00    0.1115407853E-03
    0.9000000000E+06    0.1123920908E-02    0.6959235569E+00    0.3439146096E-01    0.5688763421E+00    0.1131097197E-03
    0.1100000000E+07    0.8027184521E-03    0.6959227955E+00    0.2949354363E-01    0.5836314346E+00    0.1143783152E-03
    0.1300000000E+07    0.6018076176E-03    0.6959220905E+00    0.2580499364E-01    0.5945362227E+00    0.1154452365E-03
    0.1500000000E+07    0.4678216091E-03    0.6959214419E+00    0.2292923136E-01    0.6029260601E+00    0.1163670846E-03
    0.1700000000E+07    0.3740263517E-03    0.6959208443E+00    0.2062532750E-01    0.6095817057E+00    0.1171794104E-03
    0.1900000000E+07    0.3058205537E-03    0.6959202919E+00    0.1873872942E-01    0.6149906460E+00    0.1179060361E-03
    0.2100000000E+07    0.2546791422E-03    0.6959197789E+00    0.1716583680E-01    0.6194731526E+00    0.1185637209E-03
    0.2300000000E+07    0.2153527370E-03    0.6959193004E+00    0.1583464707E-01    0.6232483862E+00    0.1191647111E-03
    0.2500000000E+07    0.1844654098E-03    0.6959188524E+00    0.1469358353E-01    0.6264714089E+00    0.1197182329E-03
    0.2700000000E+07    0.1597660140E-03    0.6959184312E+00    0.1370474302E-01    0.6292550345E+00    0.1202314134E-03
    0.2900000000E+07    0.1397067089E-03    0.6959180339E+00    0.1283965254E-01    0.6316833056E+00    0.1207098747E-03
    0.3100000000E+07    0.1231948757E-03    0.6959176579E+00    0.1207651197E-01    0.6338201183E+00    0.1211581313E-03
    0.3300000000E+07    0.1094414386E-03    0.6959173011E+00    0.1139834971E-01    0.6357149193E+00    0.1215798643E-03
    0.3500000000E+07    0.9786503265E-04    0.6959169616E+00    0.1079175746E-01    0.6374065717E+00    0.1219781153E-03
    0.3700000000E+07    0.8802969760E-04    0.6959166377E+00    0.1024600269E-01    0.6389260433E+00    0.1223554270E-03
    0.3900000000E+07    0.7960333265E-04    0.6959163281E+00    0.9752393540E-02    0.6402983144E+00    0.1227139470E-03
    0.4100000000E+07    0.7232936709E-04    0.6959160316E+00    0.9303816278E-02    0.6415437584E+00    0.1230555062E-03
    0.4300000000E+07    0.6600705181E-04    0.6959157471E+00    0.8894393049E-02    0.6426791563E+00    0.1233816780E-03
    0.4500000000E+07    0.6047749886E-04    0.6959154736E+00    0.8519224892E-02    0.6437184554E+00    0.1236938249E-03
    0.4700000000E+07    0.5561363022E-04    0.6959152104E+00    0.8174196296E-02    0.6446733430E+00    0.1239931346E-03
    0.4900000000E+07    0.5131283306E-04    0.6959149566E+00    0.7855824739E-02    0.6455536862E+00    0.1242806488E-03
    0.1000000000E+07    0.9431463659E-03    0.6959231696E+00    0.3175732254E-01    0.5768527413E+00    0.1137740216E-03
    0.3000000000E+07    0.1310624620E-03    0.6959178434E+00    0.1244649535E-01    0.6327847675E+00    0.1209375315E-03
    0.5000000000E+07    0.4934684095E-04    0.6959148330E+00    0.7705690791E-02    0.6459685748E+00    0.1244202740E-03
    0.7000000000E+07    0.2564259994E-04    0.6959127273E+00    0.5570351136E-02    0.6518526443E+00    0.1267688991E-03
    0.9000000000E+07    0.1566472447E-04    0.6959111006E+00    0.4357411498E-02    0.6551819257E+00    0.1285519824E-03
    0.1100000000E+08    0.1055064571E-04    0.6959097716E+00    0.3576017667E-02    0.6573222593E+00    0.1299937352E-03
    0.1300000000E+08    0.7586437221E-05    0.6959086460E+00    0.3030943474E-02    0.6588134617E+00    0.1312062872E-03
    0.1500000000E+08    0.5716981882E-05    0.6959076685E+00    0.2629219058E-02    0.6599116502E+00    0.1322539645E-03
    0.1700000000E+08    0.4462985851E-05    0.6959068037E+00    0.2320954920E-02    0.6607539301E+00    0.1331771703E-03
    0.1900000000E+08    0.3581312329E-05    0.6959060277E+00    0.2076988704E-02    0.6614203099E+00    0.1340029783E-03
    0.2100000000E+08    0.2937986119E-05    0.6959053234E+00    0.1879138287E-02    0.6619606122E+00    0.1347504351E-03
    0.2300000000E+08    0.2454269365E-05    0.6959046785E+00    0.1715480790E-02    0.6624074780E+00    0.1354334587E-03
    0.2500000000E+08    0.2081432678E-05    0.6959040834E+00    0.1577873816E-02    0.6627831831E+00    0.1360625345E-03
    0.2700000000E+08    0.1788011480E-05    0.6959035307E+00    0.1460567841E-02    0.6631034480E+00    0.1366457624E-03
