  Pressure (Pa) 22mC5-500 (mol/kg) 24mC5-500 (mol/kg) 2mC6-500 (mol/kg) 3mC6-500 (mol/kg) C7-500 (mol/kg)
    0.1000000000E+01    0.1254128825E-04    0.6965005924E-01    0.9845557418E-05    0.4803003982E-05    0.4195575386E-02
    0.3000000000E+01    0.3007325820E-04    0.1740806002E+00    0.2282322557E-04    0.1228951058E-04    0.4253066175E-02
    0.5000000000E+01    0.4163990937E-04    0.2486421205E+00    0.3084835445E-04    0.1918212078E-04    0.4291982829E-02
    0.7000000000E+01    0.4969993007E-04    0.3045466608E+00    0.3614346026E-04    0.2579110380E-04    0.4321022088E-02
    0.9000000000E+01    0.5555640260E-04    0.3480186009E+00    0.3983512799E-04    0.3222110090E-04    0.4343616034E-02
    0.1100000000E+02    0.5995981482E-04    0.3827905539E+00    0.4254410909E-04    0.3852445243E-04    0.4361717006E-02
    0.1300000000E+02    0.6336897590E-04    0.4112368346E+00    0.4463260340E-04    0.4473229911E-04    0.4376548050E-02
    0.1500000000E+02    0.6607769974E-04    0.4349398025E+00    0.4632135815E-04    0.5086515367E-04    0.4388920183E-02
    0.1700000000E+02    0.6828129384E-04    0.4549946490E+00    0.4774959264E-04    0.5693747484E-04    0.4399394112E-02
    0.1900000000E+02    0.7011363169E-04    0.4721834858E+00    0.4900753503E-04    0.6295996124E-04    0.4408370534E-02
    0.2100000000E+02    0.7166886306E-04    0.4870797592E+00    0.5015495038E-04    0.6894082468E-04    0.4416143727E-02
    0.2300000000E+02    0.7301465766E-04    0.5001134897E+00    0.5123211505E-04    0.7488655156E-04    0.4422934851E-02
    0.2500000000E+02    0.7420056796E-04    0.5116134752E+00    0.5226653595E-04    0.8080238513E-04    0.4428913430E-02
    0.2700000000E+02    0.7526346898E-04    0.5218354197E+00    0.5327718229E-04    0.8669264514E-04    0.4434211663E-02
    0.2900000000E+02    0.7623118890E-04    0.5309811761E+00    0.5427721652E-04    0.9256094774E-04    0.4438934208E-02
    0.3100000000E+02    0.7712498757E-04    0.5392122140E+00    0.5527579415E-04    0.9841036148E-04    0.4443165029E-02
    0.3300000000E+02    0.7796128258E-04    0.5466592377E+00    0.5627927206E-04    0.1042435209E-03    0.4446972298E-02
    0.3500000000E+02    0.7875287273E-04    0.5534291807E+00    0.5729203292E-04    0.1100627114E-03    0.4450411960E-02
    0.3700000000E+02    0.7950981934E-04    0.5596103746E+00    0.5831705558E-04    0.1158699329E-03    0.4453530370E-02
    0.3900000000E+02    0.8024009000E-04    0.5652764257E+00    0.5935631477E-04    0.1216669502E-03    0.4456366273E-02
    0.4100000000E+02    0.8095003507E-04    0.5704891609E+00    0.6041106413E-04    0.1274553314E-03    0.4458952316E-02
    0.4300000000E+02    0.8164474454E-04    0.5753008931E+00    0.6148203855E-04    0.1332364789E-03    0.4461316209E-02
    0.4500000000E+02    0.8232831812E-04    0.5797561839E+00    0.6256960007E-04    0.1390116545E-03    0.4463481626E-02
    0.4700000000E+02    0.8300407165E-04    0.5838932278E+00    0.6367384365E-04    0.1447819992E-03    0.4465468924E-02
    0.4900000000E+02    0.8367469637E-04    0.5877449502E+00    0.6479467447E-04    0.1505485501E-03    0.4467295704E-02
    0.1000000000E+02    0.5790611974E-04    0.3663202309E+00    0.4128551742E-04    0.3538633275E-04    0.4353139409E-02
    0.3000000000E+02    0.7668620513E-04    0.5352022373E+00    0.5477623567E-04    0.9548784199E-04    0.4441106500E-02
    0.5000000000E+02    0.8400878671E-04    0.5895728842E+00    0.6536124282E-04    0.1534307019E-03    0.4468153761E-02
    0.7000000000E+02    0.9077778532E-04    0.6164134372E+00    0.7747569783E-04    0.2110675297E-03    0.4479725339E-02
    0.9000000000E+02    0.9805989453E-04    0.6324095356E+00    0.9080136288E-04    0.2690541460E-03    0.4484847594E-02
    0.1100000000E+03    0.1059578876E-03    0.6430289835E+00    0.1050298697E-03    0.3277428467E-03    0.4486571831E-02
    0.1300000000E+03    0.1144332873E-03    0.6505925864E+00    0.1199824941E-03    0.3873650995E-03    0.4486229195E-02
    0.1500000000E+03    0.1234352422E-03    0.6562534514E+00    0.1355604459E-03    0.4480937324E-03    0.4484496880E-02
    0.1700000000E+03    0.1329228976E-03    0.6606493393E+00    0.1517104703E-03    0.5100698656E-03    0.4481756685E-02
    0.1900000000E+03    0.1428673352E-03    0.6641616315E+00    0.1684059631E-03    0.5734164632E-03    0.4478240085E-02
    0.2100000000E+03    0.1532496675E-03    0.6670323968E+00    0.1856366639E-03    0.6382459178E-03    0.4474095015E-02
    0.2300000000E+03    0.1640588480E-03    0.6694226799E+00    0.2034028642E-03    0.7046646622E-03    0.4469419696E-02
    0.2500000000E+03    0.1752898989E-03    0.6714437840E+00    0.2217120430E-03    0.7727761722E-03    0.4464281096E-02
    0.2700000000E+03    0.1869425976E-03    0.6731750988E+00    0.2405768553E-03    0.8426830465E-03    0.4458725606E-02
    0.2900000000E+03    0.1990205328E-03    0.6746747736E+00    0.2600139022E-03    0.9144885311E-03    0.4452785531E-02
    0.3100000000E+03    0.2115304336E-03    0.6759863754E+00    0.2800429718E-03    0.9882976988E-03    0.4446483182E-02
    0.3300000000E+03    0.2244816959E-03    0.6771431904E+00    0.3006865705E-03    0.1064218410E-02    0.4439833557E-02
    0.3500000000E+03    0.2378860519E-03    0.6781710876E+00    0.3219696430E-03    0.1142362136E-02    0.4432846133E-02
    0.3700000000E+03    0.2517573434E-03    0.6790904758E+00    0.3439194154E-03    0.1222844692E-02    0.4425526102E-02
    0.3900000000E+03    0.2661113723E-03    0.6799176718E+00    0.3665653259E-03    0.1305786923E-02    0.4417875229E-02
    0.4100000000E+03    0.2809658092E-03    0.6806658773E+00    0.3899390158E-03    0.1391315361E-02    0.4409892466E-02
    0.4300000000E+03    0.2963401477E-03    0.6813458882E+00    0.4140743668E-03    0.1479562872E-02    0.4401574384E-02
    0.4500000000E+03    0.3122556941E-03    0.6819666190E+00    0.4390075750E-03    0.1570669317E-02    0.4392915488E-02
    0.4700000000E+03    0.3287355863E-03    0.6825354953E+00    0.4647772542E-03    0.1664782220E-02    0.4383908437E-02
    0.4900000000E+03    0.3458048389E-03    0.6830587521E+00    0.4914245650E-03    0.1762057478E-02    0.4374544200E-02
    0.1000000000E+03    0.1019334472E-03    0.6382063682E+00    0.9781635067E-04    0.2982944286E-03    0.4486029095E-02
    0.3000000000E+03    0.2052209583E-03    0.6753518012E+00    0.2699530872E-03    0.9511359888E-03    0.4449678556E-02
    0.5000000000E+03    0.3545688212E-03    0.6833049538E+00    0.5050909285E-03    0.1811932176E-02    0.4369724880E-02
    0.7000000000E+03    0.5687375718E-03    0.6867698939E+00    0.8371903903E-03    0.3022731521E-02    0.4251081886E-02
    0.9000000000E+03    0.8913105813E-03    0.6887092463E+00    0.1334923340E-02    0.4837631174E-02    0.4073346861E-02
    0.1100000000E+04    0.1411904045E-02    0.6899484866E+00    0.2137397695E-02    0.7767940314E-02    0.3792463374E-02
    0.1300000000E+04    0.2319225334E-02    0.6908085837E+00    0.3537656405E-02    0.1289318078E-01    0.3319446099E-02
    0.1500000000E+04    0.3949771519E-02    0.6914403335E+00    0.6062291785E-02    0.2216854309E-01    0.2514819157E-02
    0.1700000000E+04    0.6350459017E-02    0.6919239353E+00    0.9805219359E-02    0.3601564645E-01    0.1443958773E-02
    0.1900000000E+04    0.8364200334E-02    0.6923059747E+00    0.1299573438E-01    0.4800221491E-01    0.7315392621E-03
    0.2100000000E+04    0.9488552227E-02    0.6926153627E+00    0.1483836184E-01    0.5514303786E-01    0.5129616280E-03
    0.2300000000E+04    0.1023363671E-01    0.6928709911E+00    0.1610749292E-01    0.6022972418E-01    0.4682728737E-03
    0.2500000000E+04    0.1086191771E-01    0.6930857263E+00    0.1720652270E-01    0.6473475631E-01    0.4613244031E-03
    0.2700000000E+04    0.1143971759E-01    0.6932686339E+00    0.1823742042E-01    0.6903080320E-01    0.4616011219E-03
    0.2900000000E+04    0.1198253128E-01    0.6934262852E+00    0.1922347045E-01    0.7320132065E-01    0.4631582720E-03
    0.3100000000E+04    0.1249495858E-01    0.6935635600E+00    0.2017103316E-01    0.7726731384E-01    0.4648680686E-03
    0.3300000000E+04    0.1297926697E-01    0.6936841577E+00    0.2108287431E-01    0.8123659065E-01    0.4665237601E-03
    0.3500000000E+04    0.1343715605E-01    0.6937909339E+00    0.2196092502E-01    0.8511401135E-01    0.4680944644E-03
    0.3700000000E+04    0.1387012577E-01    0.6938861277E+00    0.2280685731E-01    0.8890362756E-01    0.4695821417E-03
    0.3900000000E+04    0.1427955869E-01    0.6939715200E+00    0.2362221005E-01    0.9260914269E-01    0.4709940138E-03
    0.4100000000E+04    0.1466674307E-01    0.6940485444E+00    0.2440842126E-01    0.9623402190E-01    0.4723373502E-03
    0.4300000000E+04    0.1503288300E-01    0.6941183682E+00    0.2516684040E-01    0.9978152731E-01    0.4736186096E-03
    0.4500000000E+04    0.1537910545E-01    0.6941819515E+00    0.2589873594E-01    0.1032547363E+00    0.4748434131E-03
    0.4700000000E+04    0.1570646618E-01    0.6942400912E+00    0.2660530148E-01    0.1066565556E+00    0.4760166540E-03
    0.4900000000E+04    0.1601595509E-01    0.6942934541E+00    0.2728766120E-01    0.1099897327E+00    0.4771426128E-03
    0.1000000000E+04    0.1118274168E-02    0.6893903550E+00    0.1684762481E-02    0.6114434459E-02    0.3949966074E-02
    0.3000000000E+04    0.1224237957E-01    0.6934972154E+00    0.1970185677E-01    0.7524677535E-01    0.4640145953E-03
    0.5000000000E+04    0.1616429015E-01    0.6943185235E+00    0.2762009742E-01    0.1116313985E+00    0.4776890557E-03
    0.7000000000E+04    0.1839015637E-01    0.6946684405E+00    0.3322558396E-01    0.1414238327E+00    0.4868507311E-03
    0.9000000000E+04    0.1959827208E-01    0.6948614557E+00    0.3730968511E-01    0.1665993366E+00    0.4937762093E-03
    0.1100000000E+05    0.2017201036E-01    0.6949833362E+00    0.4034351711E-01    0.1883776682E+00    0.4993619834E-03
    0.1300000000E+05    0.2034003292E-01    0.6950670310E+00    0.4262460476E-01    0.2075574062E+00    0.5040521570E-03
    0.1500000000E+05    0.2024453655E-01    0.6951278915E+00    0.4434987983E-01    0.2246864160E+00    0.5081000007E-03
    0.1700000000E+05    0.1997689715E-01    0.6951740293E+00    0.4565477826E-01    0.2401553054E+00    0.5116639527E-03
    0.1900000000E+05    0.1959737062E-01    0.6952101308E+00    0.4663544524E-01    0.2542516792E+00    0.5148498691E-03
    0.2100000000E+05    0.1914650223E-01    0.6952390908E+00    0.4736197552E-01    0.2671931680E+00    0.5177320537E-03
    0.2300000000E+05    0.1865199757E-01    0.6952627929E+00    0.4788663959E-01    0.2791483594E+00    0.5203647078E-03
    0.2500000000E+05    0.1813299945E-01    0.6952825149E+00    0.4824917752E-01    0.2902505268E+00    0.5227886075E-03
    0.2700000000E+05    0.1760282649E-01    0.6952991539E+00    0.4848031106E-01    0.3006069067E+00    0.5250352152E-03
    0.2900000000E+05    0.1707076990E-01    0.6953133577E+00    0.4860413656E-01    0.3103051349E+00    0.5271293253E-03
    0.3100000000E+05    0.1654329746E-01    0.6953256059E+00    0.4863979410E-01    0.3194178158E+00    0.5290908317E-03
    0.3300000000E+05    0.1602487517E-01    0.6953362608E+00    0.4860265616E-01    0.3280058339E+00    0.5309359434E-03
    0.3500000000E+05    0.1551853710E-01    0.6953456013E+00    0.4850519010E-01    0.3361207994E+00    0.5326780458E-03
    0.3700000000E+05    0.1502628604E-01    0.6953538453E+00    0.4835759448E-01    0.3438068842E+00    0.5343283224E-03
    0.3900000000E+05    0.1454937863E-01    0.6953611654E+00    0.4816827559E-01    0.3511022215E+00    0.5358962150E-03
    0.4100000000E+05    0.1408853049E-01    0.6953677005E+00    0.4794420927E-01    0.3580399881E+00    0.5373897685E-03
    0.4300000000E+05    0.1364406505E-01    0.6953735631E+00    0.4769121897E-01    0.3646492508E+00    0.5388158949E-03
    0.4500000000E+05    0.1321602235E-01    0.6953788455E+00    0.4741419201E-01    0.3709556377E+00    0.5401805772E-03
    0.4700000000E+05    0.1280423916E-01    0.6953836240E+00    0.4711724932E-01    0.3769818755E+00    0.5414890292E-03
    0.4900000000E+05    0.1240840819E-01    0.6953879625E+00    0.4680388007E-01    0.3827482232E+00    0.5427458228E-03
    0.1000000000E+05    0.1994754022E-01    0.6949286096E+00    0.3893630308E-01    0.1778558749E+00    0.4967025610E-03
    0.3000000000E+05    0.1680614229E-01    0.6953197013E+00    0.4863194865E-01    0.3149306209E+00    0.5281255660E-03
    0.5000000000E+05    0.1221635042E-01    0.6953899837E+00    0.4664198006E-01    0.3855396830E+00    0.5433561262E-03
    0.7000000000E+05    0.9090834494E-02    0.6954167164E+00    0.4306433993E-01    0.4312836143E+00    0.5536193089E-03
    0.9000000000E+05    0.6984498701E-02    0.6954296590E+00    0.3949258650E-01    0.4638520172E+00    0.5614084559E-03
    0.1100000000E+06    0.5519263831E-02    0.6954366637E+00    0.3626557568E-01    0.4883679709E+00    0.5677052937E-03
    0.1300000000E+06    0.4465062451E-02    0.6954406503E+00    0.3342894916E-01    0.5075417881E+00    0.5730004126E-03
    0.1500000000E+06    0.3683526950E-02    0.6954429346E+00    0.3095147038E-01    0.5229698813E+00    0.5775751181E-03
    0.1700000000E+06    0.3089035609E-02    0.6954441882E+00    0.2878511363E-01    0.5356623741E+00    0.5816060416E-03
    0.1900000000E+06    0.2626764143E-02    0.6954447854E+00    0.2688291904E-01    0.5462927412E+00    0.5852115148E-03
    0.2100000000E+06    0.2260446285E-02    0.6954449489E+00    0.2520385522E-01    0.5553285365E+00    0.5884747696E-03
    0.2300000000E+06    0.1965377201E-02    0.6954448179E+00    0.2371348338E-01    0.5631050724E+00    0.5914566183E-03
    0.2500000000E+06    0.1724283612E-02    0.6954444832E+00    0.2238332202E-01    0.5698693582E+00    0.5942028704E-03
    0.2700000000E+06    0.1524806657E-02    0.6954440056E+00    0.2118990732E-01    0.5758075116E+00    0.5967489097E-03
    0.2900000000E+06    0.1357921118E-02    0.6954434271E+00    0.2011388414E-01    0.5810625083E+00    0.5991226464E-03
    0.3100000000E+06    0.1216915223E-02    0.6954427775E+00    0.1913922524E-01    0.5857460400E+00    0.6013464908E-03
    0.3300000000E+06    0.1096715785E-02    0.6954420778E+00    0.1825259158E-01    0.5899466519E+00    0.6034387149E-03
    0.3500000000E+06    0.9934317011E-03    0.6954413436E+00    0.1744281881E-01    0.5937354580E+00    0.6054144156E-03
    0.3700000000E+06    0.9040388828E-03    0.6954405863E+00    0.1670050835E-01    0.5971702394E+00    0.6072862132E-03
    0.3900000000E+06    0.8261587822E-03    0.6954398144E+00    0.1601770240E-01    0.6002984340E+00    0.6090647669E-03
    0.4100000000E+06    0.7579000983E-03    0.6954390343E+00    0.1538762508E-01    0.6031593565E+00    0.6107591624E-03
    0.4300000000E+06    0.6977439132E-03    0.6954382507E+00    0.1480447556E-01    0.6057858676E+00    0.6123772088E-03
    0.4500000000E+06    0.6444591762E-03    0.6954374672E+00    0.1426326202E-01    0.6082056485E+00    0.6139256676E-03
    0.4700000000E+06    0.5970397191E-03    0.6954366867E+00    0.1375966763E-01    0.6104421834E+00    0.6154104328E-03
    0.4900000000E+06    0.5546567626E-03    0.6954359113E+00    0.1328994179E-01    0.6125155268E+00    0.6168366741E-03
    0.1000000000E+06    0.6188882041E-02    0.6954336642E+00    0.3783007458E-01    0.4769116713E+00    0.5647059255E-03
    0.3000000000E+06    0.1284532505E-02    0.6954431097E+00    0.1961477427E-01    0.5834697072E+00    0.6002520790E-03
    0.5000000000E+06    0.5351343928E-03    0.6954355259E+00    0.1306674016E-01    0.6134964825E+00    0.6175292943E-03
    0.7000000000E+06    0.2912609059E-03    0.6954282992E+00    0.9771055404E-02    0.6276809776E+00    0.6291794678E-03
    0.9000000000E+06    0.1827298502E-03    0.6954220570E+00    0.7793980357E-02    0.6359420144E+00    0.6380239440E-03
    0.1100000000E+07    0.1252272739E-03    0.6954166523E+00    0.6477974976E-02    0.6413476886E+00    0.6451751468E-03
    0.1300000000E+07    0.9115289403E-04    0.6954119091E+00    0.5539698444E-02    0.6451594376E+00    0.6511893717E-03
    0.1500000000E+07    0.6932034548E-04    0.6954076900E+00    0.4837276872E-02    0.6479911888E+00    0.6563857369E-03
    0.1700000000E+07    0.5450018126E-04    0.6954038927E+00    0.4291894253E-02    0.6501775420E+00    0.6609646746E-03
    0.1900000000E+07    0.4398305029E-04    0.6954004409E+00    0.3856291649E-02    0.6519163873E+00    0.6650604893E-03
    0.2100000000E+07    0.3625164318E-04    0.6953972767E+00    0.3500422671E-02    0.6533322441E+00    0.6687676629E-03
    0.2300000000E+07    0.3040269496E-04    0.6953943556E+00    0.3204276868E-02    0.6545073741E+00    0.6721552358E-03
    0.2500000000E+07    0.2587131509E-04    0.6953916424E+00    0.2954015460E-02    0.6554983017E+00    0.6752752206E-03
    0.2700000000E+07    0.2228957295E-04    0.6953891091E+00    0.2739763980E-02    0.6563451473E+00    0.6781677957E-03
    0.2900000000E+07    0.1940950872E-04    0.6953867329E+00    0.2554288578E-02    0.6570771741E+00    0.6808646554E-03
    0.3100000000E+07    0.1705908984E-04    0.6953844950E+00    0.2392169246E-02    0.6577162268E+00    0.6833912498E-03
    0.3300000000E+07    0.1511593542E-04    0.6953823800E+00    0.2249265225E-02    0.6582789421E+00    0.6857683303E-03
    0.3500000000E+07    0.1349106622E-04    0.6953803747E+00    0.2122358879E-02    0.6587782127E+00    0.6880130433E-03
    0.3700000000E+07    0.1211853591E-04    0.6953784682E+00    0.2008912194E-02    0.6592241843E+00    0.6901397224E-03
    0.3900000000E+07    0.1094863141E-04    0.6953766508E+00    0.1906896470E-02    0.6596249500E+00    0.6921604747E-03
    0.4100000000E+07    0.9943304475E-05    0.6953749145E+00    0.1814670748E-02    0.6599870440E+00    0.6940856203E-03
    0.4300000000E+07    0.9073035538E-05    0.6953732522E+00    0.1730893463E-02    0.6603158000E+00    0.6959240292E-03
    0.4500000000E+07    0.8314638748E-05    0.6953716576E+00    0.1654457189E-02    0.6606156144E+00    0.6976833819E-03
    0.4700000000E+07    0.7649698766E-05    0.6953701253E+00    0.1584439727E-02    0.6608901434E+00    0.6993703736E-03
    0.4900000000E+07    0.7063439754E-05    0.6953686505E+00    0.1520066965E-02    0.6611424528E+00    0.7009908767E-03
    0.1000000000E+07    0.1499275485E-03    0.6954192617E+00    0.7075868194E-02    0.6389005886E+00    0.6417687021E-03
    0.3000000000E+07    0.1817667946E-04    0.6953855977E+00    0.2470593335E-02    0.6574071803E+00    0.6821478433E-03
    0.5000000000E+07    0.6795984390E-05    0.6953679333E+00    0.1489788760E-02    0.6612611004E+00    0.7017778377E-03
    0.7000000000E+07    0.3597649615E-05    0.6953557847E+00    0.1064477321E-02    0.6629260929E+00    0.7150150371E-03
    0.9000000000E+07    0.2263945034E-05    0.6953464729E+00    0.8272418072E-03    0.6638538856E+00    0.7250644964E-03
    0.1100000000E+08    0.1580720408E-05    0.6953388999E+00    0.6760458465E-03    0.6644450997E+00    0.7331900515E-03
    0.1300000000E+08    0.1183033233E-05    0.6953325054E+00    0.5713251292E-03    0.6648546604E+00    0.7400237437E-03
    0.1500000000E+08    0.9304015257E-06    0.6953269642E+00    0.4945353789E-03    0.6651550857E+00    0.7459281526E-03
    0.1700000000E+08    0.7593518260E-06    0.6953220702E+00    0.4358337956E-03    0.6653848393E+00    0.7511310115E-03
    0.1900000000E+08    0.6377687982E-06    0.6953176844E+00    0.3895129826E-03    0.6655662164E+00    0.7557849208E-03
    0.2100000000E+08    0.5479692031E-06    0.6953137087E+00    0.3520363905E-03    0.6657130300E+00    0.7599972339E-03
    0.2300000000E+08    0.4795544725E-06    0.6953100709E+00    0.3210962505E-03    0.6658342933E+00    0.7638463975E-03
    0.2500000000E+08    0.4260789194E-06    0.6953067167E+00    0.2951227856E-03    0.6659361375E+00    0.7673915107E-03
    0.2700000000E+08    0.3833706720E-06    0.6953036038E+00    0.2730111878E-03    0.6660228784E+00    0.7706782266E-03
