  Pressure (Pa) 22mC5-500 (mol/kg) 24mC5-500 (mol/kg) 2mC6-500 (mol/kg) 3mC6-500 (mol/kg) C7-500 (mol/kg)
    0.1000000000E+01    0.1185484725E-04    0.9949750217E-01    0.6167732295E-05    0.4802631304E-05    0.4193991809E-02
    0.3000000000E+01    0.2622435776E-04    0.2321000824E+00    0.1308169660E-04    0.1228694030E-04    0.4243525875E-02
    0.5000000000E+01    0.3440675007E-04    0.3164484926E+00    0.1670346934E-04    0.1917578007E-04    0.4273251407E-02
    0.7000000000E+01    0.3954427307E-04    0.3748282765E+00    0.1886155266E-04    0.2577957814E-04    0.4293709952E-02
    0.9000000000E+01    0.4301261599E-04    0.4176325572E+00    0.2030337190E-04    0.3220305375E-04    0.4308707008E-02
    0.1100000000E+02    0.4549696230E-04    0.4503611441E+00    0.2137487402E-04    0.3849859469E-04    0.4320177137E-02
    0.1300000000E+02    0.4737032551E-04    0.4761971257E+00    0.2224991866E-04    0.4469737380E-04    0.4329227541E-02
    0.1500000000E+02    0.4884958825E-04    0.4971105158E+00    0.2302109092E-04    0.5081992702E-04    0.4336541564E-02
    0.1700000000E+02    0.5006740647E-04    0.5143858695E+00    0.2373975241E-04    0.5688073050E-04    0.4342565043E-02
    0.1900000000E+02    0.5110823599E-04    0.5288965568E+00    0.2443518822E-04    0.6289049621E-04    0.4347601768E-02
    0.2100000000E+02    0.5202761115E-04    0.5412570992E+00    0.2512435291E-04    0.6885744635E-04    0.4351866148E-02
    0.2300000000E+02    0.5286302524E-04    0.5519124521E+00    0.2581708614E-04    0.7478807542E-04    0.4355513984E-02
    0.2500000000E+02    0.5364034739E-04    0.5611927173E+00    0.2651901936E-04    0.8068763299E-04    0.4358661308E-02
    0.2700000000E+02    0.5437774965E-04    0.5693479551E+00    0.2723325043E-04    0.8656044365E-04    0.4361396378E-02
    0.2900000000E+02    0.5508818714E-04    0.5765710582E+00    0.2796133500E-04    0.9241012717E-04    0.4363787558E-02
    0.3100000000E+02    0.5578100753E-04    0.5830132055E+00    0.2870388635E-04    0.9823975472E-04    0.4365888657E-02
    0.3300000000E+02    0.5646302037E-04    0.5887945597E+00    0.2946094493E-04    0.1040519626E-03    0.4367742630E-02
    0.3500000000E+02    0.5713922251E-04    0.5940118339E+00    0.3023220890E-04    0.1098490371E-03    0.4369384197E-02
    0.3700000000E+02    0.5781329911E-04    0.5987437454E+00    0.3101717936E-04    0.1156329786E-03    0.4370841744E-02
    0.3900000000E+02    0.5848797542E-04    0.6030550155E+00    0.3181525218E-04    0.1214055517E-03    0.4372138707E-02
    0.4100000000E+02    0.5916526726E-04    0.6069993479E+00    0.3262577606E-04    0.1271683235E-03    0.4373294620E-02
    0.4300000000E+02    0.5984666178E-04    0.6106216774E+00    0.3344808896E-04    0.1329226955E-03    0.4374325896E-02
    0.4500000000E+02    0.6053324931E-04    0.6139598895E+00    0.3428154056E-04    0.1386699275E-03    0.4375246433E-02
    0.4700000000E+02    0.6122582057E-04    0.6170461505E+00    0.3512550566E-04    0.1444111587E-03    0.4376068083E-02
    0.4900000000E+02    0.6192493906E-04    0.6199079478E+00    0.3597939168E-04    0.1501474238E-03    0.4376801013E-02
    0.1000000000E+02    0.4434958430E-04    0.4350200484E+00    0.2087194140E-04    0.3536453917E-04    0.4314800634E-02
    0.3000000000E+02    0.5543632422E-04    0.5798816152E+00    0.2833078959E-04    0.9532727409E-04    0.4364871464E-02
    0.5000000000E+02    0.6227708110E-04    0.6212621885E+00    0.3640987976E-04    0.1530139923E-03    0.4377137000E-02
    0.7000000000E+02    0.6970455902E-04    0.6408628790E+00    0.4542562870E-04    0.2102767945E-03    0.4380809088E-02
    0.9000000000E+02    0.7781737120E-04    0.6522964937E+00    0.5501056744E-04    0.2677674976E-03    0.4381001993E-02
    0.1100000000E+03    0.8649966735E-04    0.6597874167E+00    0.6499931907E-04    0.3258326895E-03    0.4379370206E-02
    0.1300000000E+03    0.9566022843E-04    0.6650750671E+00    0.7531808813E-04    0.3846969517E-03    0.4376619285E-02
    0.1500000000E+03    0.1052400756E-03    0.6690068516E+00    0.8593390325E-04    0.4445252510E-03    0.4373102924E-02
    0.1700000000E+03    0.1152027413E-03    0.6720449934E+00    0.9683357206E-04    0.5054499512E-03    0.4369018194E-02
    0.1900000000E+03    0.1255265240E-03    0.6744630543E+00    0.1080143114E-03    0.5675843865E-03    0.4364483190E-02
    0.2100000000E+03    0.1361995229E-03    0.6764332782E+00    0.1194792503E-03    0.6310304354E-03    0.4359572376E-02
    0.2300000000E+03    0.1472165445E-03    0.6780695217E+00    0.1312351321E-03    0.6958830993E-03    0.4354334342E-02
    0.2500000000E+03    0.1585771581E-03    0.6794500617E+00    0.1432910827E-03    0.7622334595E-03    0.4348801437E-02
    0.2700000000E+03    0.1702844506E-03    0.6806304864E+00    0.1556579272E-03    0.8301706966E-03    0.4342995321E-02
    0.2900000000E+03    0.1823442167E-03    0.6816513601E+00    0.1683478033E-03    0.8997835456E-03    0.4336930318E-02
    0.3100000000E+03    0.1947644217E-03    0.6825429781E+00    0.1813739441E-03    0.9711613945E-03    0.4330615536E-02
    0.3300000000E+03    0.2075548460E-03    0.6833284222E+00    0.1947505601E-03    0.1044395155E-02    0.4324056239E-02
    0.3500000000E+03    0.2207268471E-03    0.6840255876E+00    0.2084927829E-03    0.1119577984E-02    0.4317254770E-02
    0.3700000000E+03    0.2342932051E-03    0.6846485619E+00    0.2226166480E-03    0.1196805907E-02    0.4310211177E-02
    0.3900000000E+03    0.2482680251E-03    0.6852085867E+00    0.2371391041E-03    0.1276178375E-02    0.4302923656E-02
    0.4100000000E+03    0.2626666824E-03    0.6857147418E+00    0.2520780407E-03    0.1357798792E-02    0.4295388853E-02
    0.4300000000E+03    0.2775057977E-03    0.6861744408E+00    0.2674523293E-03    0.1441775007E-02    0.4287602088E-02
    0.4500000000E+03    0.2928032378E-03    0.6865937970E+00    0.2832818764E-03    0.1528219808E-02    0.4279557502E-02
    0.4700000000E+03    0.3085781345E-03    0.6869778959E+00    0.2995876845E-03    0.1617251414E-02    0.4271248171E-02
    0.4900000000E+03    0.3248509200E-03    0.6873310029E+00    0.3163919222E-03    0.1708993976E-02    0.4262666175E-02
    0.1000000000E+03    0.8209389537E-04    0.6563953097E+00    0.5996041587E-04    0.2967123811E-03    0.4380358082E-02
    0.3000000000E+03    0.1885086923E-03    0.6821117420E+00    0.1748179745E-03    0.9352462078E-03    0.4333803743E-02
    0.5000000000E+03    0.3331807736E-03    0.6874970830E+00    0.3249882176E-03    0.1755922411E-02    0.4258270193E-02
    0.7000000000E+03    0.5321852287E-03    0.6898301348E+00    0.5297185121E-03    0.2873624446E-02    0.4153306519E-02
    0.9000000000E+03    0.8187000866E-03    0.6911324443E+00    0.8237533009E-03    0.4480388084E-02    0.4003937463E-02
    0.1100000000E+04    0.1256341002E-02    0.6919632772E+00    0.1272855526E-02    0.6938394883E-02    0.3780562997E-02
    0.1300000000E+04    0.1972501063E-02    0.6925392947E+00    0.2008716221E-02    0.1097428714E-01    0.3425735697E-02
    0.1500000000E+04    0.3213877065E-02    0.6929620534E+00    0.3287485248E-02    0.1800815367E-01    0.2836181439E-02
    0.1700000000E+04    0.5272650745E-02    0.6932854797E+00    0.5417983132E-02    0.2978145844E-01    0.1922367556E-02
    0.1900000000E+04    0.7717389774E-02    0.6935408608E+00    0.7971340427E-02    0.4401890525E-01    0.9697901756E-03
    0.2100000000E+04    0.9405116629E-02    0.6937475963E+00    0.9770926685E-02    0.5425190501E-01    0.4867648326E-03
    0.2300000000E+04    0.1037967719E-01    0.6939183534E+00    0.1084825924E-01    0.6058136027E-01    0.3511234905E-03
    0.2500000000E+04    0.1108953031E-01    0.6940617542E+00    0.1166008970E-01    0.6549290501E-01    0.3217476088E-03
    0.2700000000E+04    0.1170973086E-01    0.6941838707E+00    0.1238605957E-01    0.6997174798E-01    0.3165318155E-03
    0.2900000000E+04    0.1228581656E-01    0.6942891025E+00    0.1307279470E-01    0.7427333511E-01    0.3164075592E-03
    0.3100000000E+04    0.1282950481E-01    0.6943807156E+00    0.1373197161E-01    0.7846016912E-01    0.3173036542E-03
    0.3300000000E+04    0.1334463801E-01    0.6944611849E+00    0.1436710780E-01    0.8254956305E-01    0.3183640375E-03
    0.3500000000E+04    0.1383320823E-01    0.6945324207E+00    0.1497981960E-01    0.8654835668E-01    0.3194118729E-03
    0.3700000000E+04    0.1429671992E-01    0.6945959201E+00    0.1557124397E-01    0.9046084097E-01    0.3204140918E-03
    0.3900000000E+04    0.1473650156E-01    0.6946528737E+00    0.1614236358E-01    0.9429057213E-01    0.3213678333E-03
    0.4100000000E+04    0.1515378095E-01    0.6947042399E+00    0.1669408399E-01    0.9804079691E-01    0.3222761943E-03
    0.4300000000E+04    0.1554970673E-01    0.6947507989E+00    0.1722725429E-01    0.1017145602E+00    0.3231430683E-03
    0.4500000000E+04    0.1592535736E-01    0.6947931920E+00    0.1774267458E-01    0.1053147388E+00    0.3239720998E-03
    0.4700000000E+04    0.1628174687E-01    0.6948319517E+00    0.1824110011E-01    0.1088440570E+00    0.3247665232E-03
    0.4900000000E+04    0.1661982952E-01    0.6948675233E+00    0.1872324459E-01    0.1123050984E+00    0.3255291842E-03
    0.1000000000E+04    0.1012739178E-02    0.6915892154E+00    0.1022837470E-02    0.5569463880E-02    0.3904213490E-02
    0.3000000000E+04    0.1256139550E-01    0.6943364412E+00    0.1340553085E-01    0.7637958680E-01    0.3168100810E-03
    0.5000000000E+04    0.1678228869E-01    0.6948842334E+00    0.1895842381E-01    0.1140107862E+00    0.3258993997E-03
    0.7000000000E+04    0.1926283194E-01    0.6951173835E+00    0.2295318180E-01    0.1450740167E+00    0.3321136957E-03
    0.9000000000E+04    0.2066953758E-01    0.6952459031E+00    0.2590107257E-01    0.1714573856E+00    0.3368185220E-03
    0.1100000000E+05    0.2139043232E-01    0.6953270130E+00    0.2811415527E-01    0.1943522926E+00    0.3406166548E-03
    0.1300000000E+05    0.2166281701E-01    0.6953826838E+00    0.2979352950E-01    0.2145524201E+00    0.3438076923E-03
    0.1500000000E+05    0.2163746318E-01    0.6954231476E+00    0.3107448697E-01    0.2326096624E+00    0.3465628513E-03
    0.1700000000E+05    0.2141311986E-01    0.6954538096E+00    0.3205132963E-01    0.2489217281E+00    0.3489893937E-03
    0.1900000000E+05    0.2105605033E-01    0.6954777915E+00    0.3279176369E-01    0.2637839948E+00    0.3511590589E-03
    0.2100000000E+05    0.2061158216E-01    0.6954970214E+00    0.3334563209E-01    0.2774215771E+00    0.3531222437E-03
    0.2300000000E+05    0.2011118915E-01    0.6955127535E+00    0.3375041915E-01    0.2900099112E+00    0.3549157334E-03
    0.2500000000E+05    0.1957697094E-01    0.6955258384E+00    0.3403483709E-01    0.3016883998E+00    0.3565672162E-03
    0.2700000000E+05    0.1902456336E-01    0.6955368732E+00    0.3422123083E-01    0.3125697144E+00    0.3580980649E-03
    0.2900000000E+05    0.1846507363E-01    0.6955462891E+00    0.3432723192E-01    0.3227462971E+00    0.3595251287E-03
    0.3100000000E+05    0.1790639328E-01    0.6955544052E+00    0.3436692168E-01    0.3322950041E+00    0.3608619307E-03
    0.3300000000E+05    0.1735410489E-01    0.6955614626E+00    0.3435166580E-01    0.3412804910E+00    0.3621194919E-03
    0.3500000000E+05    0.1681211796E-01    0.6955676466E+00    0.3429072392E-01    0.3497577225E+00    0.3633069155E-03
    0.3700000000E+05    0.1628312092E-01    0.6955731022E+00    0.3419170218E-01    0.3577738653E+00    0.3644318090E-03
    0.3900000000E+05    0.1576890632E-01    0.6955779444E+00    0.3406089402E-01    0.3653697357E+00    0.3655005958E-03
    0.4100000000E+05    0.1527060720E-01    0.6955822653E+00    0.3390354039E-01    0.3725809224E+00    0.3665187501E-03
    0.4300000000E+05    0.1478887042E-01    0.6955861397E+00    0.3372403066E-01    0.3794386681E+00    0.3674909759E-03
    0.4500000000E+05    0.1432398482E-01    0.6955896291E+00    0.3352605958E-01    0.3859705695E+00    0.3684213452E-03
    0.4700000000E+05    0.1387597650E-01    0.6955927841E+00    0.3331275112E-01    0.3922011391E+00    0.3693134072E-03
    0.4900000000E+05    0.1344468017E-01    0.6955956472E+00    0.3308675706E-01    0.3981522606E+00    0.3701702742E-03
    0.1000000000E+05    0.2109829714E-01    0.6952905982E+00    0.2708495916E-01    0.1832842458E+00    0.3388080055E-03
    0.3000000000E+05    0.1818523777E-01    0.6955504931E+00    0.3435459976E-01    0.3275948411E+00    0.3602040728E-03
    0.5000000000E+05    0.1323520846E-01    0.6955969805E+00    0.3296972229E-01    0.4010292411E+00    0.3705863801E-03
    0.7000000000E+05    0.9813802888E-02    0.6956145717E+00    0.3036263658E-01    0.4477549864E+00    0.3775845304E-03
    0.9000000000E+05    0.7504097847E-02    0.6956230330E+00    0.2775069429E-01    0.4804425454E+00    0.3828964135E-03
    0.1100000000E+06    0.5901248316E-02    0.6956275722E+00    0.2539610231E-01    0.5046594494E+00    0.3871909323E-03
    0.1300000000E+06    0.4752460524E-02    0.6956301230E+00    0.2333438692E-01    0.5233347472E+00    0.3908024492E-03
    0.1500000000E+06    0.3904423640E-02    0.6956315552E+00    0.2154148515E-01    0.5381773810E+00    0.3939227225E-03
    0.1700000000E+06    0.3262081251E-02    0.6956323124E+00    0.1998047315E-01    0.5502567464E+00    0.3966721717E-03
    0.1900000000E+06    0.2764622736E-02    0.6956326413E+00    0.1861541613E-01    0.5602776952E+00    0.3991314772E-03
    0.2100000000E+06    0.2371914013E-02    0.6956326883E+00    0.1741508285E-01    0.5687240838E+00    0.4013573917E-03
    0.2300000000E+06    0.2056696309E-02    0.6956325450E+00    0.1635340215E-01    0.5759392058E+00    0.4033913831E-03
    0.2500000000E+06    0.1799972498E-02    0.6956322707E+00    0.1540892706E-01    0.5821734045E+00    0.4052646900E-03
    0.2700000000E+06    0.1588195514E-02    0.6956319052E+00    0.1456407874E-01    0.5876135376E+00    0.4070014424E-03
    0.2900000000E+06    0.1411504988E-02    0.6956314760E+00    0.1380442629E-01    0.5924018941E+00    0.4086206744E-03
    0.3100000000E+06    0.1262591499E-02    0.6956310023E+00    0.1311807416E-01    0.5966487278E+00    0.4101376695E-03
    0.3300000000E+06    0.1135947044E-02    0.6956304980E+00    0.1249516402E-01    0.6004407851E+00    0.4115648893E-03
    0.3500000000E+06    0.1027359362E-02    0.6956299729E+00    0.1192747757E-01    0.6038472489E+00    0.4129126301E-03
    0.3700000000E+06    0.9335638352E-03    0.6956294344E+00    0.1140812209E-01    0.6069239651E+00    0.4141894994E-03
    0.3900000000E+06    0.8519994627E-03    0.6956288880E+00    0.1093128180E-01    0.6097165063E+00    0.4154027669E-03
    0.4100000000E+06    0.7806349142E-03    0.6956283378E+00    0.1049202085E-01    0.6122624279E+00    0.4165586298E-03
    0.4300000000E+06    0.7178426320E-03    0.6956277867E+00    0.1008612658E-01    0.6145929554E+00    0.4176624141E-03
    0.4500000000E+06    0.6623064322E-03    0.6956272370E+00    0.9709984241E-02    0.6167342627E+00    0.4187187317E-03
    0.4700000000E+06    0.6129528127E-03    0.6956266905E+00    0.9360476288E-02    0.6187084533E+00    0.4197316026E-03
    0.4900000000E+06    0.5688992779E-03    0.6956261485E+00    0.9034900958E-02    0.6205343211E+00    0.4207045531E-03
    0.1000000000E+06    0.6633076118E-02    0.6956256343E+00    0.2653663384E-01    0.4933878672E+00    0.3851452950E-03
    0.3000000000E+06    0.1333955723E-02    0.6956312438E+00    0.1345274648E-01    0.5945871084E+00    0.4093911154E-03
    0.5000000000E+06    0.5486266207E-03    0.6956258795E+00    0.8880340867E-02    0.6213967516E+00    0.4211770444E-03
    0.7000000000E+06    0.2965473247E-03    0.6956208599E+00    0.6609166892E-02    0.6337631480E+00    0.4291246488E-03
    0.9000000000E+06    0.1852173215E-03    0.6956165477E+00    0.5256699012E-02    0.6408744613E+00    0.4351583458E-03
    0.1100000000E+07    0.1265199191E-03    0.6956128241E+00    0.4360670971E-02    0.6454912583E+00    0.4400369491E-03
    0.1300000000E+07    0.9185702734E-04    0.6956095615E+00    0.3723902440E-02    0.6487293256E+00    0.4441399330E-03
    0.1500000000E+07    0.6970457383E-04    0.6956066624E+00    0.3248335319E-02    0.6511255804E+00    0.4476849863E-03
    0.1700000000E+07    0.5469765751E-04    0.6956040551E+00    0.2879763357E-02    0.6529702861E+00    0.4508088371E-03
    0.1900000000E+07    0.4406554459E-04    0.6956016863E+00    0.2585805288E-02    0.6544340667E+00    0.4536031044E-03
    0.2100000000E+07    0.3626042414E-04    0.6955995159E+00    0.2345934018E-02    0.6556237751E+00    0.4561322415E-03
    0.2300000000E+07    0.3036274151E-04    0.6955975129E+00    0.2146511102E-02    0.6566097331E+00    0.4584433466E-03
    0.2500000000E+07    0.2579838733E-04    0.6955956530E+00    0.1978122856E-02    0.6574401102E+00    0.4605719020E-03
    0.2700000000E+07    0.2219395966E-04    0.6955939169E+00    0.1834063231E-02    0.6581490073E+00    0.4625453171E-03
    0.2900000000E+07    0.1929811997E-04    0.6955922887E+00    0.1709426314E-02    0.6587612424E+00    0.4643852133E-03
    0.3100000000E+07    0.1693667803E-04    0.6955907555E+00    0.1600540709E-02    0.6592953069E+00    0.4661089528E-03
    0.3300000000E+07    0.1498583490E-04    0.6955893068E+00    0.1504604470E-02    0.6597652606E+00    0.4677306920E-03
    0.3500000000E+07    0.1335565604E-04    0.6955879334E+00    0.1419442288E-02    0.6601819837E+00    0.4692621280E-03
    0.3700000000E+07    0.1197953753E-04    0.6955866278E+00    0.1343339706E-02    0.6605540274E+00    0.4707130396E-03
    0.3900000000E+07    0.1080730502E-04    0.6955853834E+00    0.1274927299E-02    0.6608882050E+00    0.4720916859E-03
    0.4100000000E+07    0.9800581364E-05    0.6955841945E+00    0.1213098093E-02    0.6611900124E+00    0.4734051075E-03
    0.4300000000E+07    0.8929608995E-05    0.6955830564E+00    0.1156947608E-02    0.6614639314E+00    0.4746593557E-03
    0.4500000000E+07    0.8171027639E-05    0.6955819648E+00    0.1105729614E-02    0.6617136531E+00    0.4758596700E-03
    0.4700000000E+07    0.7506292662E-05    0.6955809159E+00    0.1058822994E-02    0.6619422455E+00    0.4770106180E-03
    0.4900000000E+07    0.6920531429E-05    0.6955799064E+00    0.1015706598E-02    0.6621522787E+00    0.4781162058E-03
    0.1000000000E+07    0.1517050584E-03    0.6956146210E+00    0.4767338153E-02    0.6434048644E+00    0.4377130414E-03
    0.3000000000E+07    0.1805928713E-04    0.6955915109E+00    0.1653206790E-02    0.6590370804E+00    0.4652606527E-03
    0.5000000000E+07    0.6653411156E-05    0.6955794155E+00    0.9954293595E-03    0.6622510272E+00    0.4786531104E-03
    0.7000000000E+07    0.3466375809E-05    0.6955711018E+00    0.7107940476E-03    0.6636355434E+00    0.4876842531E-03
    0.9000000000E+07    0.2144263080E-05    0.6955647308E+00    0.5521846873E-03    0.6644061095E+00    0.4945406153E-03
    0.1100000000E+08    0.1470546300E-05    0.6955595501E+00    0.4511582072E-03    0.6648968259E+00    0.5000844149E-03
    0.1300000000E+08    0.1080552818E-05    0.6955551759E+00    0.3812126621E-03    0.6652366445E+00    0.5047468490E-03
    0.1500000000E+08    0.8342375360E-06    0.6955513855E+00    0.3299369429E-03    0.6654858576E+00    0.5087752814E-03
    0.1700000000E+08    0.6684682081E-06    0.6955480377E+00    0.2907474644E-03    0.6656764203E+00    0.5123250806E-03
    0.1900000000E+08    0.5513743645E-06    0.6955450377E+00    0.2598283565E-03    0.6658268461E+00    0.5155003565E-03
    0.2100000000E+08    0.4654477640E-06    0.6955423181E+00    0.2348159263E-03    0.6659486004E+00    0.5183743504E-03
    0.2300000000E+08    0.4004168027E-06    0.6955398296E+00    0.2141681554E-03    0.6660491630E+00    0.5210005822E-03
    0.2500000000E+08    0.3499297338E-06    0.6955375350E+00    0.1968363651E-03    0.6661336206E+00    0.5234193723E-03
    0.2700000000E+08    0.3098855763E-06    0.6955354055E+00    0.1820826262E-03    0.6662055533E+00    0.5256618673E-03
