  Pressure (Pa) 22mC5-500 (mol/kg) 24mC5-500 (mol/kg) 2mC6-500 (mol/kg) 3mC6-500 (mol/kg) C7-500 (mol/kg)
    0.1000000000E+01    0.9744861846E-05    0.1949953642E+00    0.9984181066E-05    0.8380258802E-06    0.4179555709E-02
    0.3000000000E+01    0.1729105451E-04    0.3748902423E+00    0.1683269219E-04    0.2128340379E-05    0.4205653629E-02
    0.5000000000E+01    0.2028415634E-04    0.4597151152E+00    0.1954232378E-04    0.3310772710E-05    0.4216405473E-02
    0.7000000000E+01    0.2191899237E-04    0.5090825603E+00    0.2135705097E-04    0.4440942569E-05    0.4222511097E-02
    0.9000000000E+01    0.2304034585E-04    0.5413818059E+00    0.2297213110E-04    0.5537571083E-05    0.4226452466E-02
    0.1100000000E+02    0.2394422345E-04    0.5641600500E+00    0.2457404298E-04    0.6610017492E-05    0.4229193121E-02
    0.1300000000E+02    0.2475230095E-04    0.5810864250E+00    0.2621463353E-04    0.7663849754E-05    0.4231193236E-02
    0.1500000000E+02    0.2551980173E-04    0.5941593467E+00    0.2790482052E-04    0.8702735816E-05    0.4232702173E-02
    0.1700000000E+02    0.2627336729E-04    0.6045602709E+00    0.2964257358E-04    0.9729261359E-05    0.4233867436E-02
    0.1900000000E+02    0.2702626265E-04    0.6130324568E+00    0.3142215504E-04    0.1074533975E-04    0.4234782140E-02
    0.2100000000E+02    0.2778510468E-04    0.6200668859E+00    0.3323729796E-04    0.1175243959E-04    0.4235508111E-02
    0.2300000000E+02    0.2855306454E-04    0.6260009263E+00    0.3508226035E-04    0.1275172072E-04    0.4236088092E-02
    0.2500000000E+02    0.2933147950E-04    0.6310740509E+00    0.3695210526E-04    0.1374412046E-04    0.4236552624E-02
    0.2700000000E+02    0.3012069956E-04    0.6354609445E+00    0.3884270112E-04    0.1473041070E-04    0.4236924147E-02
    0.2900000000E+02    0.3092054692E-04    0.6392920257E+00    0.4075063017E-04    0.1571123721E-04    0.4237219536E-02
    0.3100000000E+02    0.3173057100E-04    0.6426666337E+00    0.4267307694E-04    0.1668714755E-04    0.4237451738E-02
    0.3300000000E+02    0.3255019204E-04    0.6456617655E+00    0.4460772299E-04    0.1765861139E-04    0.4237630868E-02
    0.3500000000E+02    0.3337878234E-04    0.6483380228E+00    0.4655265610E-04    0.1862603565E-04    0.4237764942E-02
    0.3700000000E+02    0.3421571174E-04    0.6507437554E+00    0.4850629494E-04    0.1958977600E-04    0.4237860406E-02
    0.3900000000E+02    0.3506037248E-04    0.6529180084E+00    0.5046732777E-04    0.2055014574E-04    0.4237922505E-02
    0.4100000000E+02    0.3591219197E-04    0.6548926580E+00    0.5243466290E-04    0.2150742279E-04    0.4237955551E-02
    0.4300000000E+02    0.3677063837E-04    0.6566939844E+00    0.5440738891E-04    0.2246185519E-04    0.4237963124E-02
    0.4500000000E+02    0.3763522224E-04    0.6583438482E+00    0.5638474253E-04    0.2341366561E-04    0.4237948226E-02
    0.4700000000E+02    0.3850549569E-04    0.6598605820E+00    0.5836608277E-04    0.2436305492E-04    0.4237913390E-02
    0.4900000000E+02    0.3938105034E-04    0.6612596748E+00    0.6035087001E-04    0.2531020521E-04    0.4237860773E-02
    0.1000000000E+02    0.2350958732E-04    0.5536769979E+00    0.2376996372E-04    0.6076410355E-05    0.4227937173E-02
    0.3000000000E+02    0.3132432125E-04    0.6410311333E+00    0.4171019425E-04    0.1619977592E-04    0.4237342847E-02
    0.5000000000E+02    0.3982069066E-04    0.6619193014E+00    0.6134441109E-04    0.2578299309E-04    0.4237828384E-02
    0.7000000000E+02    0.4881721913E-04    0.6712943128E+00    0.8131743078E-04    0.3515473374E-04    0.4236581693E-02
    0.9000000000E+02    0.5807972980E-04    0.6766183778E+00    0.1013939774E-03    0.4442779649E-04    0.4234665532E-02
    0.1100000000E+03    0.6751333257E-04    0.6800506145E+00    0.1215367270E-03    0.5365944354E-04    0.4232407664E-02
    0.1300000000E+03    0.7707650079E-04    0.6824472314E+00    0.1417520983E-03    0.6288437128E-04    0.4229944557E-02
    0.1500000000E+03    0.8675016470E-04    0.6842154920E+00    0.1620568247E-03    0.7212597747E-04    0.4227343533E-02
    0.1700000000E+03    0.9652571774E-04    0.6855738637E+00    0.1824691549E-03    0.8140124837E-04    0.4224641629E-02
    0.1900000000E+03    0.1063998253E-03    0.6866500567E+00    0.2030064140E-03    0.9072321254E-04    0.4221860807E-02
    0.2100000000E+03    0.1163719695E-03    0.6875237185E+00    0.2236844405E-03    0.1001023034E-03    0.4219014800E-02
    0.2300000000E+03    0.1264432052E-03    0.6882470997E+00    0.2445176026E-03    0.1095471739E-03    0.4216112528E-02
    0.2500000000E+03    0.1366154954E-03    0.6888559008E+00    0.2655189795E-03    0.1190652126E-03    0.4213159935E-02
    0.2700000000E+03    0.1468913409E-03    0.6893753444E+00    0.2867005711E-03    0.1286628859E-03    0.4210161045E-02
    0.2900000000E+03    0.1572735684E-03    0.6898237562E+00    0.3080734923E-03    0.1383459729E-03    0.4207118592E-02
    0.3100000000E+03    0.1677652057E-03    0.6902147717E+00    0.3296481389E-03    0.1481197327E-03    0.4204034420E-02
    0.3300000000E+03    0.1783694080E-03    0.6905587462E+00    0.3514343269E-03    0.1579890266E-03    0.4200909743E-02
    0.3500000000E+03    0.1890894144E-03    0.6908636855E+00    0.3734414071E-03    0.1679584088E-03    0.4197745311E-02
    0.3700000000E+03    0.1999285219E-03    0.6911358761E+00    0.3956783597E-03    0.1780321960E-03    0.4194541533E-02
    0.3900000000E+03    0.2108900717E-03    0.6913803238E+00    0.4181538730E-03    0.1882145214E-03    0.4191298561E-02
    0.4100000000E+03    0.2219774412E-03    0.6916010632E+00    0.4408764079E-03    0.1985093769E-03    0.4188016342E-02
    0.4300000000E+03    0.2331940415E-03    0.6918013833E+00    0.4638542535E-03    0.2089206479E-03    0.4184694668E-02
    0.4500000000E+03    0.2445433171E-03    0.6919839912E+00    0.4870955727E-03    0.2194521405E-03    0.4181333203E-02
    0.4700000000E+03    0.2560287478E-03    0.6921511360E+00    0.5106084421E-03    0.2301076051E-03    0.4177931509E-02
    0.4900000000E+03    0.2676538511E-03    0.6923047014E+00    0.5344008857E-03    0.2408907553E-03    0.4174489060E-02
    0.1000000000E+03    0.6277848674E-04    0.6785018103E+00    0.1114571057E-03    0.4904627905E-04    0.4233568407E-02
    0.3000000000E+03    0.1625055160E-03    0.6900257271E+00    0.3188349743E-03    0.1432212067E-03    0.4205581633E-02
    0.5000000000E+03    0.2735198905E-03    0.6923768985E+00    0.5464044484E-03    0.2463313670E-03    0.4172752369E-02
    0.7000000000E+03    0.3990769600E-03    0.6933890433E+00    0.8031363122E-03    0.3627589422E-03    0.4135701285E-02
    0.9000000000E+03    0.5431270074E-03    0.6939523723E+00    0.1097550667E-02    0.4964151777E-03    0.4093578650E-02
    0.1100000000E+04    0.7105471869E-03    0.6943111597E+00    0.1439805866E-02    0.6519462967E-03    0.4045159422E-02
    0.1300000000E+04    0.9076512079E-03    0.6945596446E+00    0.1842947052E-02    0.8353221624E-03    0.3988825563E-02
    0.1500000000E+04    0.1142855769E-02    0.6947418860E+00    0.2324330939E-02    0.1054493344E-02    0.3922427835E-02
    0.1700000000E+04    0.1427632227E-02    0.6948812381E+00    0.2907610948E-02    0.1320305443E-02    0.3843067112E-02
    0.1900000000E+04    0.1777913526E-02    0.6949912330E+00    0.3625659803E-02    0.1647847040E-02    0.3746771499E-02
    0.2100000000E+04    0.2216187439E-02    0.6950802531E+00    0.4524920605E-02    0.2058460709E-02    0.3628028893E-02
    0.2300000000E+04    0.2774545365E-02    0.6951537676E+00    0.5671761653E-02    0.2582689255E-02    0.3479138529E-02
    0.2500000000E+04    0.3498796681E-02    0.6952154969E+00    0.7161100183E-02    0.3264295837E-02    0.3289415210E-02
    0.2700000000E+04    0.4452808379E-02    0.6952680597E+00    0.9125636987E-02    0.4164630534E-02    0.3044572081E-02
    0.2900000000E+04    0.5718809599E-02    0.6953133525E+00    0.1173704004E-01    0.5363423933E-02    0.2727523511E-02
    0.3100000000E+04    0.7380382971E-02    0.6953527829E+00    0.1517179030E-01    0.6943528019E-02    0.2323998602E-02
    0.3300000000E+04    0.9462409805E-02    0.6953874171E+00    0.1948823034E-01    0.8934894169E-02    0.1838566013E-02
    0.3500000000E+04    0.1182464659E-01    0.6954180777E+00    0.2440610337E-01    0.1121295407E-01    0.1318738651E-02
    0.3700000000E+04    0.1413007209E-01    0.6954454096E+00    0.2923615988E-01    0.1346401713E-01    0.8539723094E-03
    0.3900000000E+04    0.1604858263E-01    0.6954699251E+00    0.3329499485E-01    0.1537330048E-01    0.5175609906E-03
    0.4100000000E+04    0.1748908295E-01    0.6954920370E+00    0.3638641507E-01    0.1684706641E-01    0.3155179299E-03
    0.4300000000E+04    0.1855714037E-01    0.6955120809E+00    0.3872088543E-01    0.1797868877E-01    0.2087923941E-03
    0.4500000000E+04    0.1939383795E-01    0.6955303328E+00    0.4058560209E-01    0.1889831468E-01    0.1563875982E-03
    0.4700000000E+04    0.2009967134E-01    0.6955470219E+00    0.4218640268E-01    0.1969979959E-01    0.1315977749E-03
    0.4900000000E+04    0.2073190073E-01    0.6955623398E+00    0.4364093543E-01    0.2043695922E-01    0.1201024338E-03
    0.1000000000E+04    0.6235616553E-03    0.6941496811E+00    0.1261965277E-02    0.5711111125E-03    0.4070246779E-02
    0.3000000000E+04    0.6496098657E-02    0.6953337272E+00    0.1334277626E-01    0.6101644614E-02    0.2537006178E-02
    0.5000000000E+04    0.2103038849E-01    0.6955695360E+00    0.4433386955E-01    0.2079081550E-01    0.1169653465E-03
    0.7000000000E+04    0.2598053384E-01    0.6956699986E+00    0.5633810546E-01    0.2714841976E-01    0.1119642723E-03
    0.9000000000E+04    0.2975107058E-01    0.6957254553E+00    0.6625182652E-01    0.3274336165E-01    0.1135386822E-03
    0.1100000000E+05    0.3268305349E-01    0.6957605114E+00    0.7463226903E-01    0.3776874746E-01    0.1148147813E-03
    0.1300000000E+05    0.3498618499E-01    0.6957846150E+00    0.8181874243E-01    0.4233829420E-01    0.1158875979E-03
    0.1500000000E+05    0.3680824992E-01    0.6958021669E+00    0.8805600997E-01    0.4653562758E-01    0.1168142878E-03
    0.1700000000E+05    0.3825606879E-01    0.6958154930E+00    0.9352523744E-01    0.5042381259E-01    0.1176307180E-03
    0.1900000000E+05    0.3940853525E-01    0.6958259368E+00    0.9836349095E-01    0.5405143588E-01    0.1183609047E-03
    0.2100000000E+05    0.4032501421E-01    0.6958343286E+00    0.1026764634E+00    0.5745662977E-01    0.1190217341E-03
    0.2300000000E+05    0.4105090909E-01    0.6958412087E+00    0.1065470246E+00    0.6066981115E-01    0.1196255402E-03
    0.2500000000E+05    0.4162144651E-01    0.6958469437E+00    0.1100411128E+00    0.6371559243E-01    0.1201816119E-03
    0.2700000000E+05    0.4206430656E-01    0.6958517912E+00    0.1132118847E+00    0.6661414433E-01    0.1206971229E-03
    0.2900000000E+05    0.4240148706E-01    0.6958559372E+00    0.1161026983E+00    0.6938218681E-01    0.1211777304E-03
    0.3100000000E+05    0.4265064824E-01    0.6958595195E+00    0.1187492937E+00    0.7203372219E-01    0.1216279765E-03
    0.3300000000E+05    0.4282609810E-01    0.6958626420E+00    0.1211814143E+00    0.7458058604E-01    0.1220515640E-03
    0.3500000000E+05    0.4293952481E-01    0.6958653851E+00    0.1234240285E+00    0.7703286705E-01    0.1224515520E-03
    0.3700000000E+05    0.4300054820E-01    0.6958678113E+00    0.1254982630E+00    0.7939923125E-01    0.1228304975E-03
    0.3900000000E+05    0.4301713986E-01    0.6958699704E+00    0.1274221243E+00    0.8168717516E-01    0.1231905600E-03
    0.4100000000E+05    0.4299594679E-01    0.6958719023E+00    0.1292110619E+00    0.8390322569E-01    0.1235335803E-03
    0.4300000000E+05    0.4294254310E-01    0.6958736394E+00    0.1308784138E+00    0.8605309956E-01    0.1238611400E-03
    0.4500000000E+05    0.4286162756E-01    0.6958752084E+00    0.1324357606E+00    0.8814183154E-01    0.1241746089E-03
    0.4700000000E+05    0.4275718011E-01    0.6958766311E+00    0.1338932107E+00    0.9017387852E-01    0.1244751809E-03
    0.4900000000E+05    0.4263258662E-01    0.6958779261E+00    0.1352596306E+00    0.9215320467E-01    0.1247639029E-03
    0.1000000000E+05    0.3130700238E-01    0.6957447654E+00    0.7060981283E-01    0.3531929192E-01    0.1142069860E-03
    0.3000000000E+05    0.4253610686E-01    0.6958577916E+00    0.1174545397E+00    0.7072173285E-01    0.1214064001E-03
    0.5000000000E+05    0.4256365587E-01    0.6958785306E+00    0.1359111826E+00    0.9312421901E-01    0.1249041131E-03
    0.7000000000E+05    0.4064355166E-01    0.6958866292E+00    0.1456466649E+00    0.1104671965E+00    0.1272624442E-03
    0.9000000000E+05    0.3836891825E-01    0.6958906849E+00    0.1514232574E+00    0.1250077297E+00    0.1290527661E-03
    0.1100000000E+06    0.3613981789E-01    0.6958929803E+00    0.1550296818E+00    0.1377148540E+00    0.1305003133E-03
    0.1300000000E+06    0.3406525656E-01    0.6958943696E+00    0.1573068408E+00    0.1491018734E+00    0.1317177078E-03
    0.1500000000E+06    0.3216711142E-01    0.6958952404E+00    0.1587086641E+00    0.1594779668E+00    0.1327695509E-03
    0.1700000000E+06    0.3043904602E-01    0.6958957923E+00    0.1595042949E+00    0.1690461989E+00    0.1336964162E-03
    0.1900000000E+06    0.2886607707E-01    0.6958961373E+00    0.1598644977E+00    0.1779484806E+00    0.1345254900E-03
    0.2100000000E+06    0.2743154967E-01    0.6958963426E+00    0.1599032942E+00    0.1862887106E+00    0.1352758974E-03
    0.2300000000E+06    0.2611963293E-01    0.6958964508E+00    0.1596999058E+00    0.1941457543E+00    0.1359616134E-03
    0.2500000000E+06    0.2491611787E-01    0.6958964897E+00    0.1593111491E+00    0.2015812233E+00    0.1365931661E-03
    0.2700000000E+06    0.2380855680E-01    0.6958964785E+00    0.1587788383E+00    0.2086443910E+00    0.1371786882E-03
    0.2900000000E+06    0.2278615515E-01    0.6958964304E+00    0.1581344106E+00    0.2153754377E+00    0.1377245950E-03
    0.3100000000E+06    0.2183958331E-01    0.6958963548E+00    0.1574019276E+00    0.2218076687E+00    0.1382360381E-03
    0.3300000000E+06    0.2096077659E-01    0.6958962587E+00    0.1566000866E+00    0.2279690792E+00    0.1387172176E-03
    0.3500000000E+06    0.2014274950E-01    0.6958961471E+00    0.1557436046E+00    0.2338834859E+00    0.1391716043E-03
    0.3700000000E+06    0.1937943309E-01    0.6958960240E+00    0.1548441948E+00    0.2395713648E+00    0.1396020993E-03
    0.3900000000E+06    0.1866553594E-01    0.6958958923E+00    0.1539112681E+00    0.2450504821E+00    0.1400111534E-03
    0.4100000000E+06    0.1799642724E-01    0.6958957541E+00    0.1529524484E+00    0.2503363800E+00    0.1404008553E-03
    0.4300000000E+06    0.1736803872E-01    0.6958956113E+00    0.1519739553E+00    0.2554427535E+00    0.1407730006E-03
    0.4500000000E+06    0.1677678284E-01    0.6958954652E+00    0.1509808938E+00    0.2603817497E+00    0.1411291437E-03
    0.4700000000E+06    0.1621948423E-01    0.6958953168E+00    0.1499774756E+00    0.2651642058E+00    0.1414706400E-03
    0.4900000000E+06    0.1569332231E-01    0.6958951670E+00    0.1489671905E+00    0.2697998418E+00    0.1417986779E-03
    0.1000000000E+06    0.3723861776E-01    0.6958919828E+00    0.1534323475E+00    0.1315518317E+00    0.1298107817E-03
    0.3000000000E+06    0.2230392191E-01    0.6958963955E+00    0.1577779003E+00    0.2186270459E+00    0.1379843427E-03
    0.5000000000E+06    0.1544112117E-01    0.6958950917E+00    0.1484603998E+00    0.2720653739E+00    0.1419579825E-03
    0.7000000000E+06    0.1154564787E-01    0.6958936169E+00    0.1384551284E+00    0.3114085957E+00    0.1446376246E-03
    0.9000000000E+06    0.9049731567E-02    0.6958922849E+00    0.1292336214E+00    0.3424402969E+00    0.1466720090E-03
    0.1100000000E+07    0.7326760231E-02    0.6958911078E+00    0.1209871226E+00    0.3678797274E+00    0.1483169534E-03
    0.1300000000E+07    0.6075196933E-02    0.6958900627E+00    0.1136536175E+00    0.3892726054E+00    0.1497003930E-03
    0.1500000000E+07    0.5131482012E-02    0.6958891261E+00    0.1071215256E+00    0.4075971739E+00    0.1508957206E-03
    0.1700000000E+07    0.4399162922E-02    0.6958882786E+00    0.1012801068E+00    0.4235172049E+00    0.1519490340E-03
    0.1900000000E+07    0.3817728940E-02    0.6958875053E+00    0.9603182090E-01    0.4375057423E+00    0.1528912229E-03
    0.2100000000E+07    0.3347357512E-02    0.6958867944E+00    0.9129395433E-01    0.4499124609E+00    0.1537440182E-03
    0.2300000000E+07    0.2960820645E-02    0.6958861366E+00    0.8699721645E-01    0.4610032897E+00    0.1545232996E-03
    0.2500000000E+07    0.2638910106E-02    0.6958855245E+00    0.8308367973E-01    0.4709851302E+00    0.1552410301E-03
    0.2700000000E+07    0.2367716401E-02    0.6958849522E+00    0.7950480088E-01    0.4800220056E+00    0.1559064514E-03
    0.2900000000E+07    0.2136940872E-02    0.6958844146E+00    0.7621972270E-01    0.4882460110E+00    0.1565268535E-03
    0.3100000000E+07    0.1938811067E-02    0.6958839078E+00    0.7319387751E-01    0.4957649685E+00    0.1571080901E-03
    0.3300000000E+07    0.1767362451E-02    0.6958834284E+00    0.7039785778E-01    0.5026679195E+00    0.1576549345E-03
    0.3500000000E+07    0.1617950205E-02    0.6958829736E+00    0.6780650805E-01    0.5090291502E+00    0.1581713306E-03
    0.3700000000E+07    0.1486909786E-02    0.6958825408E+00    0.6539819480E-01    0.5149112001E+00    0.1586605754E-03
    0.3900000000E+07    0.1371316143E-02    0.6958821280E+00    0.6315421760E-01    0.5203671460E+00    0.1591254538E-03
    0.4100000000E+07    0.1268809856E-02    0.6958817335E+00    0.6105833236E-01    0.5254423627E+00    0.1595683396E-03
    0.4300000000E+07    0.1177469574E-02    0.6958813556E+00    0.5909636323E-01    0.5301758966E+00    0.1599912731E-03
    0.4500000000E+07    0.1095717083E-02    0.6958809929E+00    0.5725588507E-01    0.5346015506E+00    0.1603960209E-03
    0.4700000000E+07    0.1022245709E-02    0.6958806443E+00    0.5552596218E-01    0.5387487492E+00    0.1607841233E-03
    0.4900000000E+07    0.9559657060E-03    0.6958803087E+00    0.5389693213E-01    0.5426432355E+00    0.1611569309E-03
    0.1000000000E+07    0.8115007966E-02    0.6958916783E+00    0.1249901030E+00    0.3557446995E+00    0.1475333867E-03
    0.3000000000E+07    0.2034203807E-02    0.6958841576E+00    0.7467634329E-01    0.4920876685E+00    0.1568220472E-03
    0.5000000000E+07    0.9252306681E-03    0.6958801454E+00    0.5311753573E-01    0.5445028911E+00    0.1613379770E-03
    0.7000000000E+07    0.5282007669E-03    0.6958773770E+00    0.4118471754E-01    0.5727039133E+00    0.1643833372E-03
    0.9000000000E+07    0.3412880786E-03    0.6958752525E+00    0.3361046092E-01    0.5903678455E+00    0.1666953810E-03
    0.1100000000E+08    0.2385333154E-03    0.6958735237E+00    0.2837734417E-01    0.6024781160E+00    0.1685648348E-03
    0.1300000000E+08    0.1760389308E-03    0.6958720636E+00    0.2454637179E-01    0.6112990638E+00    0.1701370933E-03
    0.1500000000E+08    0.1352176492E-03    0.6958707983E+00    0.2162132079E-01    0.6180103325E+00    0.1714955656E-03
    0.1700000000E+08    0.1070945194E-03    0.6958696807E+00    0.1931530395E-01    0.6232874885E+00    0.1726926409E-03
    0.1900000000E+08    0.8690234553E-04    0.6958686793E+00    0.1745093283E-01    0.6275454374E+00    0.1737634248E-03
    0.2100000000E+08    0.7191801295E-04    0.6958677715E+00    0.1591263992E-01    0.6310531254E+00    0.1747326141E-03
    0.2300000000E+08    0.6049413071E-04    0.6958669410E+00    0.1462191425E-01    0.6339925464E+00    0.1756182557E-03
    0.2500000000E+08    0.5158660320E-04    0.6958661753E+00    0.1352355649E-01    0.6364912564E+00    0.1764339457E-03
    0.2700000000E+08    0.4450769557E-04    0.6958654648E+00    0.1257762819E-01    0.6386413111E+00    0.1771901868E-03
