  Pressure (Pa) 22mC5-500 (mol/kg) 24mC5-500 (mol/kg) 2mC6-500 (mol/kg) 3mC6-500 (mol/kg) C7-500 (mol/kg)
    0.1000000000E+01    0.1028151133E-04    0.1741095217E+00    0.7981987202E-05    0.3592245321E-05    0.4167767122E-02
    0.3000000000E+01    0.1908234226E-04    0.3481298637E+00    0.1409653539E-04    0.9038810929E-05    0.4191309361E-02
    0.5000000000E+01    0.2284002132E-04    0.4351086209E+00    0.1662155853E-04    0.1401562700E-04    0.4200123504E-02
    0.7000000000E+01    0.2492461633E-04    0.4872867450E+00    0.1821946104E-04    0.1876839199E-04    0.4204933500E-02
    0.9000000000E+01    0.2632282079E-04    0.5220687348E+00    0.1954992195E-04    0.2337921689E-04    0.4207904006E-02
    0.1100000000E+02    0.2740556090E-04    0.5469115131E+00    0.2081614474E-04    0.2788897991E-04    0.4209856950E-02
    0.1300000000E+02    0.2833461137E-04    0.5655428692E+00    0.2208670538E-04    0.3232192470E-04    0.4211183308E-02
    0.1500000000E+02    0.2918772134E-04    0.5800335452E+00    0.2338430143E-04    0.3669398222E-04    0.4212094912E-02
    0.1700000000E+02    0.3000479363E-04    0.5916258790E+00    0.2471472942E-04    0.4101635954E-04    0.4212717119E-02
    0.1900000000E+02    0.3080722029E-04    0.6011103989E+00    0.2607743456E-04    0.4529733513E-04    0.4213129069E-02
    0.2100000000E+02    0.3160676758E-04    0.6090140982E+00    0.2746962185E-04    0.4954325350E-04    0.4213383284E-02
    0.2300000000E+02    0.3240996013E-04    0.6157018051E+00    0.2888791098E-04    0.5375911892E-04    0.4213516038E-02
    0.2500000000E+02    0.3322036842E-04    0.6214341033E+00    0.3032899632E-04    0.5794897105E-04    0.4213553210E-02
    0.2700000000E+02    0.3403985675E-04    0.6264020832E+00    0.3178988889E-04    0.6211613351E-04    0.4213513774E-02
    0.2900000000E+02    0.3486928873E-04    0.6307490599E+00    0.3326798080E-04    0.6626338481E-04    0.4213411965E-02
    0.3100000000E+02    0.3570893762E-04    0.6345846257E+00    0.3476103619E-04    0.7039307943E-04    0.4213258674E-02
    0.3300000000E+02    0.3655873041E-04    0.6379940178E+00    0.3626715448E-04    0.7450723602E-04    0.4213062380E-02
    0.3500000000E+02    0.3741839542E-04    0.6410445283E+00    0.3778472610E-04    0.7860760295E-04    0.4212829785E-02
    0.3700000000E+02    0.3828755258E-04    0.6437899903E+00    0.3931238937E-04    0.8269570811E-04    0.4212566254E-02
    0.3900000000E+02    0.3916576887E-04    0.6462739827E+00    0.4084899170E-04    0.8677289738E-04    0.4212276135E-02
    0.4100000000E+02    0.4005259242E-04    0.6485321607E+00    0.4239355613E-04    0.9084036467E-04    0.4211962990E-02
    0.4300000000E+02    0.4094757321E-04    0.6505939786E+00    0.4394525305E-04    0.9489917587E-04    0.4211629763E-02
    0.4500000000E+02    0.4185027524E-04    0.6524839815E+00    0.4550337642E-04    0.9895028810E-04    0.4211278910E-02
    0.4700000000E+02    0.4276028355E-04    0.6542227872E+00    0.4706732415E-04    0.1029945653E-03    0.4210912494E-02
    0.4900000000E+02    0.4367720769E-04    0.6558278415E+00    0.4863658165E-04    0.1070327909E-03    0.4210532264E-02
    0.1000000000E+02    0.2689068216E-04    0.5354457608E+00    0.2018513216E-04    0.2564495884E-04    0.4208977327E-02
    0.3000000000E+02    0.3528783459E-04    0.6327249575E+00    0.3401276420E-04    0.6833029353E-04    0.4213341176E-02
    0.5000000000E+02    0.4413814828E-04    0.6565849436E+00    0.4942306130E-04    0.1090498599E-03    0.4210337442E-02
    0.7000000000E+02    0.5364521476E-04    0.6673711480E+00    0.6535305136E-04    0.1492182652E-03    0.4205982832E-02
    0.9000000000E+02    0.6356904690E-04    0.6735182245E+00    0.8156609463E-04    0.1893242288E-03    0.4201120588E-02
    0.1100000000E+03    0.7380204611E-04    0.6774893917E+00    0.9801314565E-04    0.2296212479E-03    0.4195993104E-02
    0.1300000000E+03    0.8429563877E-04    0.6802662440E+00    0.1146927122E-03    0.2702684086E-03    0.4190692735E-02
    0.1500000000E+03    0.9502788070E-04    0.6823171299E+00    0.1316173782E-03    0.3113782303E-03    0.4185260015E-02
    0.1700000000E+03    0.1059899441E-03    0.6838938241E+00    0.1488040369E-03    0.3530373312E-03    0.4179713849E-02
    0.1900000000E+03    0.1171800066E-03    0.6851437402E+00    0.1662707171E-03    0.3953167772E-03    0.4174062908E-02
    0.2100000000E+03    0.1286002630E-03    0.6861589264E+00    0.1840355335E-03    0.4382778251E-03    0.4168310551E-02
    0.2300000000E+03    0.1402553692E-03    0.6869998269E+00    0.2021163855E-03    0.4819753630E-03    0.4162457177E-02
    0.2500000000E+03    0.1521515897E-03    0.6877077734E+00    0.2205309303E-03    0.5264601020E-03    0.4156501434E-02
    0.2700000000E+03    0.1642963131E-03    0.6883119862E+00    0.2392966561E-03    0.5717800431E-03    0.4150440872E-02
    0.2900000000E+03    0.1766977706E-03    0.6888337073E+00    0.2584309847E-03    0.6179815038E-03    0.4144272318E-02
    0.3100000000E+03    0.1893648700E-03    0.6892887495E+00    0.2779513805E-03    0.6651098648E-03    0.4137992090E-02
    0.3300000000E+03    0.2023070989E-03    0.6896891271E+00    0.2978754529E-03    0.7132101337E-03    0.4131596127E-02
    0.3500000000E+03    0.2155344708E-03    0.6900441314E+00    0.3182210526E-03    0.7623273843E-03    0.4125080065E-02
    0.3700000000E+03    0.2290574982E-03    0.6903610609E+00    0.3390063587E-03    0.8125071131E-03    0.4118439288E-02
    0.3900000000E+03    0.2428871832E-03    0.6906457287E+00    0.3602499608E-03    0.8637955345E-03    0.4111668946E-02
    0.4100000000E+03    0.2570350208E-03    0.6909028217E+00    0.3819709342E-03    0.9162398366E-03    0.4104763975E-02
    0.4300000000E+03    0.2715130104E-03    0.6911361609E+00    0.4041889123E-03    0.9698884068E-03    0.4097719096E-02
    0.4500000000E+03    0.2863336737E-03    0.6913488926E+00    0.4269241557E-03    0.1024791038E-02    0.4090528821E-02
    0.4700000000E+03    0.3015100774E-03    0.6915436307E+00    0.4501976198E-03    0.1080999120E-02    0.4083187441E-02
    0.4900000000E+03    0.3170558603E-03    0.6917225654E+00    0.4740310215E-03    0.1138565825E-02    0.4075689021E-02
    0.1000000000E+03    0.6865080336E-04    0.6756965786E+00    0.8976099230E-04    0.2094374639E-03    0.4198582420E-02
    0.3000000000E+03    0.1829975348E-03    0.6890687380E+00    0.2681418282E-03    0.6414270057E-03    0.4141146409E-02
    0.5000000000E+03    0.3249716946E-03    0.6918066954E+00    0.4861647100E-03    0.1167875807E-02    0.4071879001E-02
    0.7000000000E+03    0.5065900127E-03    0.6929865570E+00    0.7643676311E-03    0.1840374645E-02    0.3985757430E-02
    0.9000000000E+03    0.7471436733E-03    0.6936436250E+00    0.1132818078E-02    0.2732285858E-02    0.3874635537E-02
    0.1100000000E+04    0.1078395789E-02    0.6940623006E+00    0.1640585879E-02    0.3963292916E-02    0.3725521028E-02
    0.1300000000E+04    0.1555177566E-02    0.6943523689E+00    0.2372358903E-02    0.5740275143E-02    0.3516680682E-02
    0.1500000000E+04    0.2274888387E-02    0.6945651777E+00    0.3478877272E-02    0.8432366258E-02    0.3211056867E-02
    0.1700000000E+04    0.3404469976E-02    0.6947279524E+00    0.5219594905E-02    0.1267759805E-01    0.2749415030E-02
    0.1900000000E+04    0.5158657897E-02    0.6948564723E+00    0.7932092684E-02    0.1931532491E-01    0.2069467120E-02
    0.2100000000E+04    0.7499916458E-02    0.6949605135E+00    0.1157296110E-01    0.2827441943E-01    0.1235425636E-02
    0.2300000000E+04    0.9708885193E-02    0.6950464557E+00    0.1504504743E-01    0.3690673262E-01    0.5638493836E-03
    0.2500000000E+04    0.1119577785E-01    0.6951186392E+00    0.1743027093E-01    0.4295165265E-01    0.2393843412E-03
    0.2700000000E+04    0.1215680038E-01    0.6951801197E+00    0.1901796718E-01    0.4708407977E-01    0.1283325052E-03
    0.2900000000E+04    0.1289066587E-01    0.6952331103E+00    0.2026406737E-01    0.5040575222E-01    0.9547833221E-04
    0.3100000000E+04    0.1353262299E-01    0.6952792538E+00    0.2137627795E-01    0.5342176060E-01    0.8628867339E-04
    0.3300000000E+04    0.1412865956E-01    0.6953197947E+00    0.2242522908E-01    0.5630399103E-01    0.8387351289E-04
    0.3500000000E+04    0.1469370906E-01    0.6953556932E+00    0.2343359350E-01    0.5910709854E-01    0.8337222628E-04
    0.3700000000E+04    0.1523305710E-01    0.6953877023E+00    0.2440909248E-01    0.6184905201E-01    0.8340727148E-04
    0.3900000000E+04    0.1574904960E-01    0.6954164203E+00    0.2535489301E-01    0.6453663809E-01    0.8358786706E-04
    0.4100000000E+04    0.1624311211E-01    0.6954423289E+00    0.2627275149E-01    0.6717320679E-01    0.8380283233E-04
    0.4300000000E+04    0.1671635438E-01    0.6954658203E+00    0.2716395790E-01    0.6976100566E-01    0.8402070913E-04
    0.4500000000E+04    0.1716975346E-01    0.6954872168E+00    0.2802962157E-01    0.7230188688E-01    0.8423292316E-04
    0.4700000000E+04    0.1760421107E-01    0.6955067861E+00    0.2887075986E-01    0.7479752491E-01    0.8443748487E-04
    0.4900000000E+04    0.1802057326E-01    0.6955247519E+00    0.2968832737E-01    0.7724948627E-01    0.8463427662E-04
    0.1000000000E+04    0.8987207039E-03    0.6938738479E+00    0.1365101058E-02    0.3295184842E-02    0.3805918494E-02
    0.3000000000E+04    0.1321909806E-01    0.6952569524E+00    0.2083070458E-01    0.5193685251E-01    0.8944102875E-04
    0.5000000000E+04    0.1822221982E-01    0.6955331937E+00    0.3008855609E-01    0.7845955463E-01    0.8472987266E-04
    0.7000000000E+04    0.2147766693E-01    0.6956511816E+00    0.3705217499E-01    0.1006926019E+00    0.8633683394E-04
    0.9000000000E+04    0.2361015517E-01    0.6957164778E+00    0.4244863470E-01    0.1198740628E+00    0.8755531898E-04
    0.1100000000E+05    0.2498602412E-01    0.6957578599E+00    0.4671454419E-01    0.1367517297E+00    0.8853983636E-04
    0.1300000000E+05    0.2583822753E-01    0.6957863870E+00    0.5013851912E-01    0.1518337642E+00    0.8936745446E-04
    0.1500000000E+05    0.2632044138E-01    0.6958072153E+00    0.5291894569E-01    0.1654789496E+00    0.9008230676E-04
    0.1700000000E+05    0.2653714152E-01    0.6958230713E+00    0.5519669273E-01    0.1779488194E+00    0.9071208010E-04
    0.1900000000E+05    0.2656115110E-01    0.6958355321E+00    0.5707457055E-01    0.1894392480E+00    0.9127531097E-04
    0.2100000000E+05    0.2644430155E-01    0.6958455725E+00    0.5862939488E-01    0.2001003855E+00    0.9178503126E-04
    0.2300000000E+05    0.2622413718E-01    0.6958538275E+00    0.5991973507E-01    0.2100496799E+00    0.9225075894E-04
    0.2500000000E+05    0.2592825871E-01    0.6958607285E+00    0.6099104472E-01    0.2193806392E+00    0.9267966166E-04
    0.2700000000E+05    0.2557721086E-01    0.6958665787E+00    0.6187915079E-01    0.2281688841E+00    0.9307727442E-04
    0.2900000000E+05    0.2518644586E-01    0.6958715971E+00    0.6261268285E-01    0.2364764260E+00    0.9344796226E-04
    0.3100000000E+05    0.2476768563E-01    0.6958759463E+00    0.6321479998E-01    0.2443547521E+00    0.9379522947E-04
    0.3300000000E+05    0.2432988361E-01    0.6958797491E+00    0.6370444160E-01    0.2518470920E+00    0.9412193274E-04
    0.3500000000E+05    0.2387991477E-01    0.6958831001E+00    0.6409724871E-01    0.2589901101E+00    0.9443043214E-04
    0.3700000000E+05    0.2342307767E-01    0.6958860736E+00    0.6440625283E-01    0.2658151884E+00    0.9472270029E-04
    0.3900000000E+05    0.2296346451E-01    0.6958887282E+00    0.6464239835E-01    0.2723494117E+00    0.9500040313E-04
    0.4100000000E+05    0.2250423690E-01    0.6958911113E+00    0.6481494358E-01    0.2786163342E+00    0.9526496059E-04
    0.4300000000E+05    0.2204783374E-01    0.6958932613E+00    0.6493177226E-01    0.2846365821E+00    0.9551759295E-04
    0.4500000000E+05    0.2159612915E-01    0.6958952098E+00    0.6499963807E-01    0.2904283333E+00    0.9575935674E-04
    0.4700000000E+05    0.2115055372E-01    0.6958969828E+00    0.6502435848E-01    0.2960077018E+00    0.9599117288E-04
    0.4900000000E+05    0.2071218818E-01    0.6958986022E+00    0.6501096977E-01    0.3013890491E+00    0.9621384905E-04
    0.1000000000E+05    0.2437577304E-01    0.6957392593E+00    0.4470224165E-01    0.1285647989E+00    0.8807093190E-04
    0.3000000000E+05    0.2497994985E-01    0.6958738469E+00    0.6292889780E-01    0.2404663678E+00    0.9362433174E-04
    0.5000000000E+05    0.2049596946E-01    0.6958993602E+00    0.6499137602E-01    0.3040095371E+00    0.9632198556E-04
    0.7000000000E+05    0.1665145131E-01    0.6959096950E+00    0.6340917643E-01    0.3485492402E+00    0.9814081898E-04
    0.9000000000E+05    0.1368787153E-01    0.6959150986E+00    0.6073676420E-01    0.3824155251E+00    0.9952156306E-04
    0.1100000000E+06    0.1141578464E-01    0.6959183191E+00    0.5778438006E-01    0.4093477217E+00    0.1006379416E-03
    0.1300000000E+06    0.9652141964E-02    0.6959203957E+00    0.5485574308E-01    0.4314072177E+00    0.1015768172E-03
    0.1500000000E+06    0.8261503596E-02    0.6959218053E+00    0.5206943667E-01    0.4498677041E+00    0.1023880142E-03
    0.1700000000E+06    0.7147930089E-02    0.6959227957E+00    0.4946766699E-01    0.4655751030E+00    0.1031028248E-03
    0.1900000000E+06    0.6243453891E-02    0.6959235080E+00    0.4705918277E-01    0.4791201171E+00    0.1037422164E-03
    0.2100000000E+06    0.5499328871E-02    0.6959240279E+00    0.4483791394E-01    0.4909308640E+00    0.1043209388E-03
    0.2300000000E+06    0.4880043222E-02    0.6959244101E+00    0.4279156104E-01    0.5013267488E+00    0.1048497700E-03
    0.2500000000E+06    0.4359307979E-02    0.6959246913E+00    0.4090568198E-01    0.5105517133E+00    0.1053368297E-03
    0.2700000000E+06    0.3917360110E-02    0.6959248966E+00    0.3916564649E-01    0.5187957198E+00    0.1057883898E-03
    0.2900000000E+06    0.3539127733E-02    0.6959250441E+00    0.3755754294E-01    0.5262091525E+00    0.1062093981E-03
    0.3100000000E+06    0.3212963302E-02    0.6959251466E+00    0.3606855936E-01    0.5329127658E+00    0.1066038274E-03
    0.3300000000E+06    0.2929755365E-02    0.6959252138E+00    0.3468709958E-01    0.5390047324E+00    0.1069749172E-03
    0.3500000000E+06    0.2682296273E-02    0.6959252530E+00    0.3340276820E-01    0.5445657451E+00    0.1073253440E-03
    0.3700000000E+06    0.2464825551E-02    0.6959252697E+00    0.3220629428E-01    0.5496627802E+00    0.1076573454E-03
    0.3900000000E+06    0.2272695637E-02    0.6959252684E+00    0.3108943005E-01    0.5543519188E+00    0.1079728112E-03
    0.4100000000E+06    0.2102124056E-02    0.6959252523E+00    0.3004484363E-01    0.5586804930E+00    0.1082733525E-03
    0.4300000000E+06    0.1950007507E-02    0.6959252242E+00    0.2906601537E-01    0.5626887404E+00    0.1085603539E-03
    0.4500000000E+06    0.1813780849E-02    0.6959251862E+00    0.2814714190E-01    0.5664110935E+00    0.1088350143E-03
    0.4700000000E+06    0.1691309032E-02    0.6959251402E+00    0.2728304981E-01    0.5698771961E+00    0.1090983789E-03
    0.4900000000E+06    0.1580803486E-02    0.6959250874E+00    0.2646911905E-01    0.5731127127E+00    0.1093513644E-03
    0.1000000000E+06    0.1247793961E-01    0.6959168969E+00    0.5927016287E-01    0.3965947027E+00    0.1001061613E-03
    0.3000000000E+06    0.3370157501E-02    0.6959251003E+00    0.3679891466E-01    0.5296430891E+00    0.1064097178E-03
    0.5000000000E+06    0.1529557515E-02    0.6959250590E+00    0.2607965499E-01    0.5746510956E+00    0.1094742213E-03
    0.7000000000E+06    0.8682337698E-03    0.6959243343E+00    0.2012214170E-01    0.5974606259E+00    0.1115407826E-03
    0.9000000000E+06    0.5582596434E-03    0.6959235354E+00    0.1635680978E-01    0.6112576558E+00    0.1131097165E-03
    0.1100000000E+07    0.3886775578E-03    0.6959227720E+00    0.1376790665E-01    0.6205031417E+00    0.1143783117E-03
    0.1300000000E+07    0.2859765599E-03    0.6959220651E+00    0.1188074869E-01    0.6271298856E+00    0.1154452328E-03
    0.1500000000E+07    0.2191306173E-03    0.6959214148E+00    0.1044502060E-01    0.6321119199E+00    0.1163670805E-03
    0.1700000000E+07    0.1732146764E-03    0.6959208156E+00    0.9316532754E-02    0.6359935370E+00    0.1171794060E-03
    0.1900000000E+07    0.1403293672E-03    0.6959202617E+00    0.8406472023E-02    0.6391027653E+00    0.1179060315E-03
    0.2100000000E+07    0.1159769988E-03    0.6959197473E+00    0.7657186816E-02    0.6416490736E+00    0.1185637161E-03
    0.2300000000E+07    0.9744443425E-04    0.6959192676E+00    0.7029640484E-02    0.6437724931E+00    0.1191647061E-03
    0.2500000000E+07    0.8301648657E-04    0.6959188183E+00    0.6496468318E-02    0.6455701840E+00    0.1197182277E-03
    0.2700000000E+07    0.7156591731E-04    0.6959183959E+00    0.6037923370E-02    0.6471116730E+00    0.1202314079E-03
    0.2900000000E+07    0.6232725867E-04    0.6959179975E+00    0.5639400874E-02    0.6484480232E+00    0.1207098690E-03
    0.3100000000E+07    0.5476597805E-04    0.6959176204E+00    0.5289868376E-02    0.6496175801E+00    0.1211581254E-03
    0.3300000000E+07    0.4849968086E-04    0.6959172625E+00    0.4980837464E-02    0.6506496980E+00    0.1215798582E-03
    0.3500000000E+07    0.4324897816E-04    0.6959169219E+00    0.4705671090E-02    0.6515672286E+00    0.1219781090E-03
    0.3700000000E+07    0.3880591209E-04    0.6959165971E+00    0.4459105368E-02    0.6523882263E+00    0.1223554205E-03
    0.3900000000E+07    0.3501311910E-04    0.6959162866E+00    0.4236912223E-02    0.6531271442E+00    0.1227139404E-03
    0.4100000000E+07    0.3174975264E-04    0.6959159891E+00    0.4035656768E-02    0.6537956892E+00    0.1230554994E-03
    0.4300000000E+07    0.2892177098E-04    0.6959157037E+00    0.3852519786E-02    0.6544034440E+00    0.1233816711E-03
    0.4500000000E+07    0.2645510952E-04    0.6959154293E+00    0.3685165819E-02    0.6549583284E+00    0.1236938178E-03
    0.4700000000E+07    0.2429079858E-04    0.6959151652E+00    0.3531643754E-02    0.6554669444E+00    0.1239931273E-03
    0.4900000000E+07    0.2238141822E-04    0.6959149105E+00    0.3390310950E-02    0.6559348395E+00    0.1242806414E-03
    0.1000000000E+07    0.4620486808E-03    0.6959231471E+00    0.1495242063E-01    0.6162959659E+00    0.1137740183E-03
    0.3000000000E+07    0.5836372791E-04    0.6959178064E+00    0.5459091632E-02    0.6490516393E+00    0.1209375257E-03
    0.5000000000E+07    0.2151000940E-04    0.6959147866E+00    0.3323771843E-02    0.6561550127E+00    0.1244202666E-03
    0.7000000000E+07    0.1108081997E-04    0.6959126734E+00    0.2384889335E-02    0.6592545927E+00    0.1267688902E-03
    0.9000000000E+07    0.6741182871E-05    0.6959110404E+00    0.1857742866E-02    0.6609896654E+00    0.1285519724E-03
    0.1100000000E+08    0.4531594704E-05    0.6959097058E+00    0.1520483119E-02    0.6620981465E+00    0.1299937241E-03
    0.1300000000E+08    0.3256251257E-05    0.6959085751E+00    0.1286297269E-02    0.6628672896E+00    0.1312062752E-03
    0.1500000000E+08    0.2454196937E-05    0.6959075930E+00    0.1114262963E-02    0.6634320996E+00    0.1322539516E-03
    0.1700000000E+08    0.1917251776E-05    0.6959067239E+00    0.9825746398E-03    0.6638643797E+00    0.1331771565E-03
    0.1900000000E+08    0.1540253178E-05    0.6959059438E+00    0.8785519760E-03    0.6642058325E+00    0.1340029638E-03
    0.2100000000E+08    0.1265437404E-05    0.6959052358E+00    0.7943204461E-03    0.6644823334E+00    0.1347504198E-03
    0.2300000000E+08    0.1058940274E-05    0.6959045873E+00    0.7247326172E-03    0.6647107859E+00    0.1354334427E-03
    0.2500000000E+08    0.8998450732E-06    0.6959039887E+00    0.6662821976E-03    0.6649026996E+00    0.1360625178E-03
    0.2700000000E+08    0.7746673481E-06    0.6959034328E+00    0.6164985806E-03    0.6650661817E+00    0.1366457451E-03
