  Pressure (Pa) 22mC5-500 (mol/kg) 24mC5-500 (mol/kg) 2mC6-500 (mol/kg) 3mC6-500 (mol/kg) C7-500 (mol/kg)
    0.1000000000E+01    0.1321139273E-04    0.3665751684E-01    0.6916414784E-05    0.2883570394E-05    0.4239020191E-02
    0.3000000000E+01    0.3492184143E-04    0.9946768274E-01    0.1788219135E-04    0.7476159233E-05    0.4370026338E-02
    0.5000000000E+01    0.5207743186E-04    0.1513248212E+00    0.2622477004E-04    0.1172410523E-04    0.4477344804E-02
    0.7000000000E+01    0.6589309393E-04    0.1948644398E+00    0.3270636274E-04    0.1580426816E-04    0.4567753719E-02
    0.9000000000E+01    0.7718978750E-04    0.2319392657E+00    0.3782734471E-04    0.1977688569E-04    0.4645091413E-02
    0.1100000000E+02    0.8654727027E-04    0.2638897803E+00    0.4193350279E-04    0.2367225964E-04    0.4712064111E-02
    0.1300000000E+02    0.9438643530E-04    0.2917098092E+00    0.4527070795E-04    0.2750849326E-04    0.4770666304E-02
    0.1500000000E+02    0.1010196392E-03    0.3161517777E+00    0.4801763163E-04    0.3129755013E-04    0.4822406247E-02
    0.1700000000E+02    0.1066830330E-03    0.3377958110E+00    0.5030646955E-04    0.3504788523E-04    0.4868447347E-02
    0.1900000000E+02    0.1115580416E-03    0.3570963843E+00    0.5223654515E-04    0.3876576833E-04    0.4909702073E-02
    0.2100000000E+02    0.1157860205E-03    0.3744145943E+00    0.5388348584E-04    0.4245602045E-04    0.4946896487E-02
    0.2300000000E+02    0.1194784864E-03    0.3900409708E+00    0.5530555412E-04    0.4612245522E-04    0.4980615731E-02
    0.2500000000E+02    0.1227243994E-03    0.4042119120E+00    0.5654810148E-04    0.4976815899E-04    0.5011336761E-02
    0.2700000000E+02    0.1255954378E-03    0.4171217310E+00    0.5764675530E-04    0.5339567682E-04    0.5039452338E-02
    0.2900000000E+02    0.1281498790E-03    0.4289316228E+00    0.5862973407E-04    0.5700714060E-04    0.5065288888E-02
    0.3100000000E+02    0.1304354943E-03    0.4397764313E+00    0.5951955239E-04    0.6060436021E-04    0.5089119991E-02
    0.3300000000E+02    0.1324917361E-03    0.4497698231E+00    0.6033429190E-04    0.6418888985E-04    0.5111176697E-02
    0.3500000000E+02    0.1343514102E-03    0.4590082878E+00    0.6108855947E-04    0.6776207762E-04    0.5131655519E-02
    0.3700000000E+02    0.1360419665E-03    0.4675742647E+00    0.6179421683E-04    0.7132510319E-04    0.5150724675E-02
    0.3900000000E+02    0.1375865067E-03    0.4755386105E+00    0.6246094150E-04    0.7487900690E-04    0.5168529026E-02
    0.4100000000E+02    0.1390045767E-03    0.4829625645E+00    0.6309666163E-04    0.7842471262E-04    0.5185194015E-02
    0.4300000000E+02    0.1403127958E-03    0.4898993269E+00    0.6370789581E-04    0.8196304595E-04    0.5200828825E-02
    0.4500000000E+02    0.1415253597E-03    0.4963953361E+00    0.6430002059E-04    0.8549474884E-04    0.5215528947E-02
    0.4700000000E+02    0.1426544453E-03    0.5024913098E+00    0.6487748253E-04    0.8902049147E-04    0.5229378268E-02
    0.4900000000E+02    0.1437105395E-03    0.5082230997E+00    0.6544396723E-04    0.9254088209E-04    0.5242450794E-02
    0.1000000000E+02    0.8208160238E-04    0.2484862773E+00    0.3999002631E-04    0.2173290726E-04    0.4679735235E-02
    0.3000000000E+02    0.1293236508E-03    0.4344671137E+00    0.5908506681E-04    0.5880742845E-04    0.5077439786E-02
    0.5000000000E+02    0.1442140968E-03    0.5109624751E+00    0.6572407075E-04    0.9429924555E-04    0.5248716539E-02
    0.7000000000E+02    0.1521057696E-03    0.5526693162E+00    0.7126361620E-04    0.1292980266E-03    0.5345786598E-02
    0.9000000000E+02    0.1581397727E-03    0.5789233637E+00    0.7722742598E-04    0.1641835078E-03    0.5408896002E-02
    0.1100000000E+03    0.1637930560E-03    0.5969705281E+00    0.8380481802E-04    0.1991522672E-03    0.5453432785E-02
    0.1300000000E+03    0.1695634604E-03    0.6101387635E+00    0.9095091669E-04    0.2343265766E-03    0.5486602525E-02
    0.1500000000E+03    0.1756278025E-03    0.6201708879E+00    0.9858916730E-04    0.2697916722E-03    0.5512250176E-02
    0.1700000000E+03    0.1820445940E-03    0.6280679465E+00    0.1066520740E-03    0.3056119391E-03    0.5532624869E-02
    0.1900000000E+03    0.1888261749E-03    0.6344459053E+00    0.1150870989E-03    0.3418390468E-03    0.5549135308E-02
    0.2100000000E+03    0.1959669190E-03    0.6397045733E+00    0.1238549514E-03    0.3785164726E-03    0.5562711734E-02
    0.2300000000E+03    0.2034549287E-03    0.6441147747E+00    0.1329267272E-03    0.4156822136E-03    0.5573994875E-02
    0.2500000000E+03    0.2112770121E-03    0.6478664835E+00    0.1422813895E-03    0.4533705097E-03    0.5583441472E-02
    0.2700000000E+03    0.2194207741E-03    0.6510968985E+00    0.1519038254E-03    0.4916129919E-03    0.5591386524E-02
    0.2900000000E+03    0.2278754260E-03    0.6539075805E+00    0.1617834077E-03    0.5304394796E-03    0.5598081697E-02
    0.3100000000E+03    0.2366320178E-03    0.6563753174E+00    0.1719129429E-03    0.5698785519E-03    0.5603719951E-02
    0.3300000000E+03    0.2456834171E-03    0.6585592439E+00    0.1822879024E-03    0.6099579720E-03    0.5608451846E-02
    0.3500000000E+03    0.2550241836E-03    0.6605056388E+00    0.1929058575E-03    0.6507050103E-03    0.5612396648E-02
    0.3700000000E+03    0.2646504109E-03    0.6622512381E+00    0.2037660618E-03    0.6921466971E-03    0.5615650083E-02
    0.3900000000E+03    0.2745595659E-03    0.6638255745E+00    0.2148691396E-03    0.7343100261E-03    0.5618289861E-02
    0.4100000000E+03    0.2847503417E-03    0.6652526602E+00    0.2262168522E-03    0.7772221216E-03    0.5620379700E-02
    0.4300000000E+03    0.2952225276E-03    0.6665522193E+00    0.2378119219E-03    0.8209103795E-03    0.5621972294E-02
    0.4500000000E+03    0.3059768976E-03    0.6677406040E+00    0.2496578981E-03    0.8654025893E-03    0.5623111546E-02
    0.4700000000E+03    0.3170151165E-03    0.6688314860E+00    0.2617590556E-03    0.9107270419E-03    0.5623834267E-02
    0.4900000000E+03    0.3283396613E-03    0.6698363833E+00    0.2741203181E-03    0.9569126265E-03    0.5624171485E-02
    0.1000000000E+03    0.1609713217E-03    0.5887119089E+00    0.8044050023E-04    0.1816486877E-03    0.5432924067E-02
    0.3000000000E+03    0.2322164666E-03    0.6551802724E+00    0.1668172692E-03    0.5500806925E-03    0.5601022685E-02
    0.5000000000E+03    0.3341102860E-03    0.6703097008E+00    0.2804001900E-03    0.9803375569E-03    0.5624203901E-02
    0.7000000000E+03    0.4657274008E-03    0.6770043873E+00    0.4213088349E-03    0.1501832981E-02    0.5609197345E-02
    0.9000000000E+03    0.6338276257E-03    0.6807781548E+00    0.5979759815E-03    0.2150936563E-02    0.5569570712E-02
    0.1100000000E+04    0.8512769880E-03    0.6831990853E+00    0.8243690241E-03    0.2980672145E-02    0.5505958741E-02
    0.1300000000E+04    0.1139135709E-02    0.6848833456E+00    0.1122598296E-02    0.4073043511E-02    0.5413315991E-02
    0.1500000000E+04    0.1531893396E-02    0.6861223112E+00    0.1528530902E-02    0.5560430232E-02    0.5281054933E-02
    0.1700000000E+04    0.2087352719E-02    0.6870716371E+00    0.2102157935E-02    0.7664226353E-02    0.5090596386E-02
    0.1900000000E+04    0.2903498932E-02    0.6878220299E+00    0.2945293721E-02    0.1076088219E-01    0.4810827834E-02
    0.2100000000E+04    0.4138298959E-02    0.6884299189E+00    0.4222719041E-02    0.1546213945E-01    0.4394230971E-02
    0.2300000000E+04    0.5983767285E-02    0.6889322470E+00    0.6137021295E-02    0.2252836526E-01    0.3792320357E-02
    0.2500000000E+04    0.8424726847E-02    0.6893542120E+00    0.8681136180E-02    0.3196469097E-01    0.3043868066E-02
    0.2700000000E+04    0.1085376759E-01    0.6897135894E+00    0.1123547300E-01    0.4152081506E-01    0.2381514037E-02
    0.2900000000E+04    0.1259875410E-01    0.6900232769E+00    0.1310188145E-01    0.4861550865E-01    0.2007375507E-02
    0.3100000000E+04    0.1370914091E-01    0.6902928600E+00    0.1432236379E-01    0.5337091808E-01    0.1860178580E-02
    0.3300000000E+04    0.1449956762E-01    0.6905296103E+00    0.1521770720E-01    0.5695191806E-01    0.1814105725E-02
    0.3500000000E+04    0.1515547044E-01    0.6907391439E+00    0.1597859417E-01    0.6005689297E-01    0.1803364049E-02
    0.3700000000E+04    0.1575029647E-01    0.6909258669E+00    0.1668078272E-01    0.6296423659E-01    0.1803856580E-02
    0.3900000000E+04    0.1631010118E-01    0.6910932843E+00    0.1735108184E-01    0.6577231022E-01    0.1807713958E-02
    0.4100000000E+04    0.1684418955E-01    0.6912442193E+00    0.1799892339E-01    0.6851527977E-01    0.1812457622E-02
    0.4300000000E+04    0.1735623007E-01    0.6913809712E+00    0.1862787579E-01    0.7120558522E-01    0.1817321174E-02
    0.4500000000E+04    0.1784800059E-01    0.6915054313E+00    0.1923954230E-01    0.7384838409E-01    0.1822076027E-02
    0.4700000000E+04    0.1832062700E-01    0.6916191697E+00    0.1983485529E-01    0.7644636586E-01    0.1826661832E-02
    0.4900000000E+04    0.1877499268E-01    0.6917235005E+00    0.2041450528E-01    0.7900135307E-01    0.1831070235E-02
    0.1000000000E+04    0.7353035865E-03    0.6821078626E+00    0.7038143303E-03    0.2538969889E-02    0.5540961923E-02
    0.3000000000E+04    0.1321196268E-01    0.6901625818E+00    0.1377124005E-01    0.5120747721E-01    0.1914437187E-02
    0.5000000000E+04    0.1899557329E-01    0.6917724913E+00    0.2069864387E-01    0.8026319653E-01    0.1833209889E-02
    0.7000000000E+04    0.2261336243E-01    0.6924541721E+00    0.2568393335E-01    0.1035523322E+00    0.1868975185E-02
    0.9000000000E+04    0.2506314631E-01    0.6928274107E+00    0.2960384001E-01    0.1237855785E+00    0.1895881786E-02
    0.1100000000E+05    0.2670508580E-01    0.6930611952E+00    0.3274015664E-01    0.1416758646E+00    0.1917521851E-02
    0.1300000000E+05    0.2777479022E-01    0.6932203610E+00    0.3528361100E-01    0.1577178025E+00    0.1935658310E-02
    0.1500000000E+05    0.2843148375E-01    0.6933350623E+00    0.3736786341E-01    0.1722664320E+00    0.1951290262E-02
    0.1700000000E+05    0.2878572380E-01    0.6934212006E+00    0.3908936561E-01    0.1855840381E+00    0.1965039985E-02
    0.1900000000E+05    0.2891604335E-01    0.6934879429E+00    0.4051948071E-01    0.1978692168E+00    0.1977321902E-02
    0.2100000000E+05    0.2887931212E-01    0.6935409388E+00    0.4171216033E-01    0.2092755870E+00    0.1988426185E-02
    0.2300000000E+05    0.2871739257E-01    0.6935838555E+00    0.4270896607E-01    0.2199242214E+00    0.1998564091E-02
    0.2500000000E+05    0.2846153343E-01    0.6936191744E+00    0.4354244694E-01    0.2299121319E+00    0.2007894294E-02
    0.2700000000E+05    0.2813533993E-01    0.6936486335E+00    0.4423846773E-01    0.2393182021E+00    0.2016539064E-02
    0.2900000000E+05    0.2775682452E-01    0.6936734845E+00    0.4481784934E-01    0.2482074249E+00    0.2024594654E-02
    0.3100000000E+05    0.2733984943E-01    0.6936946516E+00    0.4529754729E-01    0.2566339857E+00    0.2032138215E-02
    0.3300000000E+05    0.2689515848E-01    0.6937128312E+00    0.4569151314E-01    0.2646435457E+00    0.2039232559E-02
    0.3500000000E+05    0.2643112628E-01    0.6937285575E+00    0.4601133446E-01    0.2722749581E+00    0.2045929519E-02
    0.3700000000E+05    0.2595430966E-01    0.6937422471E+00    0.4626671686E-01    0.2795615768E+00    0.2052272374E-02
    0.3900000000E+05    0.2546985833E-01    0.6937542292E+00    0.4646585205E-01    0.2865322663E+00    0.2058297642E-02
    0.4100000000E+05    0.2498182439E-01    0.6937647674E+00    0.4661570218E-01    0.2932121914E+00    0.2064036424E-02
    0.4300000000E+05    0.2449339770E-01    0.6937740750E+00    0.4672222197E-01    0.2996234406E+00    0.2069515428E-02
    0.4500000000E+05    0.2400708664E-01    0.6937823263E+00    0.4679053397E-01    0.3057855231E+00    0.2074757764E-02
    0.4700000000E+05    0.2352485817E-01    0.6937896653E+00    0.4682506825E-01    0.3117157691E+00    0.2079783563E-02
    0.4900000000E+05    0.2304824696E-01    0.6937962115E+00    0.4682967459E-01    0.3174296551E+00    0.2084610473E-02
    0.1000000000E+05    0.2596814844E-01    0.6929564625E+00    0.3125638172E-01    0.1329886888E+00    0.1907224889E-02
    0.3000000000E+05    0.2755240978E-01    0.6936844806E+00    0.4506922479E-01    0.2524755069E+00    0.2028426221E-02
    0.5000000000E+05    0.2281243074E-01    0.6937992194E+00    0.4682182189E-01    0.3202098590E+00    0.2086954278E-02
    0.7000000000E+05    0.1855889815E-01    0.6938352760E+00    0.4571917899E-01    0.3671920444E+00    0.2126355261E-02
    0.9000000000E+05    0.1522919632E-01    0.6938479334E+00    0.4373735598E-01    0.4024677027E+00    0.2156244179E-02
    0.1100000000E+06    0.1266173924E-01    0.6938512373E+00    0.4152051485E-01    0.4301561378E+00    0.2180399873E-02
    0.1300000000E+06    0.1066621544E-01    0.6938501997E+00    0.3931436428E-01    0.4525463015E+00    0.2200708901E-02
    0.1500000000E+06    0.9094285461E-02    0.6938469770E+00    0.3721599874E-01    0.4710562091E+00    0.2218252368E-02
    0.1700000000E+06    0.7838334852E-02    0.6938426144E+00    0.3526038130E-01    0.4866263049E+00    0.2233708818E-02
    0.1900000000E+06    0.6821158085E-02    0.6938376605E+00    0.3345504084E-01    0.4999105182E+00    0.2247532693E-02
    0.2100000000E+06    0.5987006678E-02    0.6938324199E+00    0.3179530910E-01    0.5113799081E+00    0.2260043562E-02
    0.2300000000E+06    0.5295129999E-02    0.6938270683E+00    0.3027138952E-01    0.5213833755E+00    0.2271474869E-02
    0.2500000000E+06    0.4715322896E-02    0.6938217094E+00    0.2887172994E-01    0.5301852852E+00    0.2282002441E-02
    0.2700000000E+06    0.4224881017E-02    0.6938164051E+00    0.2758463443E-01    0.5379898110E+00    0.2291762070E-02
    0.2900000000E+06    0.3806507151E-02    0.6938111922E+00    0.2639900745E-01    0.5449572429E+00    0.2300860855E-02
    0.3100000000E+06    0.3446855844E-02    0.6938060918E+00    0.2530466271E-01    0.5512152248E+00    0.2309384784E-02
    0.3300000000E+06    0.3135508637E-02    0.6938011155E+00    0.2429241346E-01    0.5568666880E+00    0.2317403959E-02
    0.3500000000E+06    0.2864242831E-02    0.6937962686E+00    0.2335405536E-01    0.5619955683E+00    0.2324976297E-02
    0.3700000000E+06    0.2626502798E-02    0.6937915524E+00    0.2248229969E-01    0.5666710004E+00    0.2332150210E-02
    0.3900000000E+06    0.2417012863E-02    0.6937869660E+00    0.2167068723E-01    0.5709504458E+00    0.2338966587E-02
    0.4100000000E+06    0.2231490428E-02    0.6937825064E+00    0.2091349800E-01    0.5748820580E+00    0.2345460277E-02
    0.4300000000E+06    0.2066430950E-02    0.6937781701E+00    0.2020566470E-01    0.5785064942E+00    0.2351661232E-02
    0.4500000000E+06    0.1918945054E-02    0.6937739529E+00    0.1954269328E-01    0.5818583190E+00    0.2357595385E-02
    0.4700000000E+06    0.1786633897E-02    0.6937698501E+00    0.1892059173E-01    0.5849671048E+00    0.2363285340E-02
    0.4900000000E+06    0.1667492907E-02    0.6937658573E+00    0.1833580732E-01    0.5878583005E+00    0.2368750923E-02
    0.1000000000E+06    0.1386289840E-01    0.6938503391E+00    0.4263782836E-01    0.4170899169E+00    0.2168894490E-02
    0.3000000000E+06    0.3620051191E-02    0.6938086270E+00    0.2584102254E-01    0.5481679784E+00    0.2305189972E-02
    0.5000000000E+06    0.1612323798E-02    0.6937639006E+00    0.1805640526E-01    0.5892293014E+00    0.2371405121E-02
    0.7000000000E+06    0.9057103080E-03    0.6937294886E+00    0.1381678302E-01    0.6092751032E+00    0.2416046827E-02
    0.9000000000E+06    0.5787139213E-03    0.6937018410E+00    0.1117130522E-01    0.6211389146E+00    0.2449933949E-02
    0.1100000000E+07    0.4013358160E-03    0.6936787658E+00    0.9368095656E-02    0.6289764863E+00    0.2477331310E-02
    0.1300000000E+07    0.2945572215E-03    0.6936589607E+00    0.8061848309E-02    0.6345380778E+00    0.2500371368E-02
    0.1500000000E+07    0.2253640623E-03    0.6936416050E+00    0.7072733271E-02    0.6386883867E+00    0.2520277296E-02
    0.1700000000E+07    0.1779950387E-03    0.6936261512E+00    0.6298129456E-02    0.6419035543E+00    0.2537817294E-02
    0.1900000000E+07    0.1441571042E-03    0.6936122167E+00    0.5675286947E-02    0.6444673014E+00    0.2553506086E-02
    0.2100000000E+07    0.1191504792E-03    0.6935995243E+00    0.5163709523E-02    0.6465591789E+00    0.2567705756E-02
    0.2300000000E+07    0.1001508997E-03    0.6935878662E+00    0.4736107159E-02    0.6482983406E+00    0.2580680881E-02
    0.2500000000E+07    0.8537854530E-04    0.6935770831E+00    0.4373425427E-02    0.6497669599E+00    0.2592630776E-02
    0.2700000000E+07    0.7366679040E-04    0.6935670500E+00    0.4061960414E-02    0.6510235384E+00    0.2603709402E-02
    0.2900000000E+07    0.6422519832E-04    0.6935576670E+00    0.3791605933E-02    0.6521108543E+00    0.2614038207E-02
    0.3100000000E+07    0.5650286246E-04    0.6935488530E+00    0.3554746802E-02    0.6530609105E+00    0.2623714709E-02
    0.3300000000E+07    0.5010633001E-04    0.6935405415E+00    0.3345536666E-02    0.6538981248E+00    0.2632818420E-02
    0.3500000000E+07    0.4474854869E-04    0.6935326767E+00    0.3159413092E-02    0.6546414512E+00    0.2641415038E-02
    0.3700000000E+07    0.4021612723E-04    0.6935252120E+00    0.2992763782E-02    0.6553058260E+00    0.2649559482E-02
    0.3900000000E+07    0.3634777051E-04    0.6935181076E+00    0.2842691698E-02    0.6559031789E+00    0.2657298140E-02
    0.4100000000E+07    0.3301973455E-04    0.6935113296E+00    0.2706846535E-02    0.6564431527E+00    0.2664670552E-02
    0.4300000000E+07    0.3013580682E-04    0.6935048483E+00    0.2583301663E-02    0.6569336262E+00    0.2671710701E-02
    0.4500000000E+07    0.2762027164E-04    0.6934986384E+00    0.2470462857E-02    0.6573810996E+00    0.2678448014E-02
    0.4700000000E+07    0.2541288625E-04    0.6934926774E+00    0.2366999634E-02    0.6577909836E+00    0.2684908141E-02
    0.4900000000E+07    0.2346523669E-04    0.6934869456E+00    0.2271792924E-02    0.6581678182E+00    0.2691113581E-02
    0.1000000000E+07    0.4779294191E-03    0.6936898280E+00    0.1019152276E-01    0.6254212436E+00    0.2464280919E-02
    0.3000000000E+07    0.6017669363E-04    0.6935531933E+00    0.3669389719E-02    0.6526013649E+00    0.2618952660E-02
    0.5000000000E+07    0.2257624320E-04    0.6934841601E+00    0.2226983735E-02    0.6583450647E+00    0.2694127086E-02
    0.7000000000E+07    0.1192207274E-04    0.6934371390E+00    0.1595663281E-02    0.6608351671E+00    0.2744813538E-02
    0.9000000000E+07    0.7467105910E-05    0.6934012683E+00    0.1241977836E-02    0.6622249791E+00    0.2783290491E-02
    0.1100000000E+08    0.5183442965E-05    0.6933721809E+00    0.1015988995E-02    0.6631114281E+00    0.2814399180E-02
    0.1300000000E+08    0.3854740558E-05    0.6933476702E+00    0.8592020062E-03    0.6637258810E+00    0.2840560526E-02
    0.1500000000E+08    0.3011581907E-05    0.6933264628E+00    0.7440957629E-03    0.6641767896E+00    0.2863163245E-02
    0.1700000000E+08    0.2441561762E-05    0.6933077550E+00    0.6560248763E-03    0.6645217320E+00    0.2883079541E-02
    0.1900000000E+08    0.2037123013E-05    0.6932910067E+00    0.5864810226E-03    0.6647941063E+00    0.2900893840E-02
    0.2100000000E+08    0.1739019988E-05    0.6932758370E+00    0.5301844237E-03    0.6650146154E+00    0.2917017266E-02
    0.2300000000E+08    0.1512410485E-05    0.6932619670E+00    0.4836858150E-03    0.6651967738E+00    0.2931750233E-02
    0.2500000000E+08    0.1335700090E-05    0.6932491863E+00    0.4446367739E-03    0.6653497782E+00    0.2945319057E-02
    0.2700000000E+08    0.1194916490E-05    0.6932373320E+00    0.4113832083E-03    0.6654801034E+00    0.2957898558E-02
