  Pressure (Pa) 22mC5-500 (mol/kg) 24mC5-500 (mol/kg) 2mC6-500 (mol/kg) 3mC6-500 (mol/kg) C7-500 (mol/kg)
    0.1000000000E+01    0.1330666247E-04    0.3665944165E-01    0.7008888567E-05    0.6405239995E-05    0.4197225006E-02
    0.3000000000E+01    0.3514095676E-04    0.9948188334E-01    0.1809340454E-04    0.1639462563E-04    0.4265112327E-02
    0.5000000000E+01    0.5240831148E-04    0.1513577516E+00    0.2654194366E-04    0.2559758544E-04    0.4318510186E-02
    0.7000000000E+01    0.6633100128E-04    0.1949191455E+00    0.3312441336E-04    0.3442731350E-04    0.4363131477E-02
    0.9000000000E+01    0.7773198889E-04    0.2320169029E+00    0.3834344986E-04    0.4302307315E-04    0.4401132719E-02
    0.1100000000E+02    0.8719195634E-04    0.2639904474E+00    0.4254592012E-04    0.5145449080E-04    0.4433924817E-02
    0.1300000000E+02    0.9513235785E-04    0.2918330160E+00    0.4597834624E-04    0.5976297831E-04    0.4462524169E-02
    0.1500000000E+02    0.1018659487E-03    0.3162967173E+00    0.4881984791E-04    0.6797580827E-04    0.4487692256E-02
    0.1700000000E+02    0.1076291887E-03    0.3379615187E+00    0.5120295471E-04    0.7611220196E-04    0.4510013770E-02
    0.1900000000E+02    0.1126037540E-03    0.3572818318E+00    0.5322725111E-04    0.8418638172E-04    0.4529946120E-02
    0.2100000000E+02    0.1169312097E-03    0.3746187449E+00    0.5496857516E-04    0.9220926485E-04    0.4547852699E-02
    0.2300000000E+02    0.1207232508E-03    0.3902628115E+00    0.5648536307E-04    0.1001894763E-03    0.4564026068E-02
    0.2500000000E+02    0.1240689907E-03    0.4044504714E+00    0.5782311188E-04    0.1081339901E-03    0.4578704519E-02
    0.2700000000E+02    0.1270402409E-03    0.4173760888E+00    0.5901757253E-04    0.1160485538E-03    0.4592084174E-02
    0.2900000000E+02    0.1296953949E-03    0.4292009132E+00    0.6009706949E-04    0.1239379816E-03    0.4604327958E-02
    0.3100000000E+02    0.1320823261E-03    0.4400598441E+00    0.6108420905E-04    0.1318063607E-03    0.4615572371E-02
    0.3300000000E+02    0.1342405775E-03    0.4500666021E+00    0.6199715291E-04    0.1396572032E-03    0.4625932659E-02
    0.3500000000E+02    0.1362030351E-03    0.4593177287E+00    0.6285057827E-04    0.1474935576E-03    0.4635506812E-02
    0.3700000000E+02    0.1379972207E-03    0.4678957121E+00    0.6365640916E-04    0.1553180950E-03    0.4644378693E-02
    0.3900000000E+02    0.1396463004E-03    0.4758714544E+00    0.6442437862E-04    0.1631331743E-03    0.4652620501E-02
    0.4100000000E+02    0.1411698786E-03    0.4833062376E+00    0.6516246458E-04    0.1709408942E-03    0.4660294745E-02
    0.4300000000E+02    0.1425846272E-03    0.4902533010E+00    0.6587723056E-04    0.1787431343E-03    0.4667455817E-02
    0.4500000000E+02    0.1439047902E-03    0.4967591192E+00    0.6657409387E-04    0.1865415877E-03    0.4674151281E-02
    0.4700000000E+02    0.1451425884E-03    0.5028644433E+00    0.6725753830E-04    0.1943377882E-03    0.4680422911E-02
    0.4900000000E+02    0.1463085493E-03    0.5086051556E+00    0.6793128359E-04    0.2021331321E-03    0.4686307551E-02
    0.1000000000E+02    0.8267523205E-04    0.2485754621E+00    0.4055445831E-04    0.4725629963E-04    0.4418109210E-02
    0.3000000000E+02    0.1309197434E-03    0.4347435632E+00    0.6060095721E-04    0.1278745707E-03    0.4610067436E-02
    0.5000000000E+02    0.1468674845E-03    0.5113488408E+00    0.6826550665E-04    0.2060308862E-03    0.4689115094E-02
    0.7000000000E+02    0.1559351158E-03    0.5531251575E+00    0.7496114985E-04    0.2842024475E-03    0.4731186803E-02
    0.9000000000E+02    0.1632911802E-03    0.5794271214E+00    0.8223508268E-04    0.3632831863E-03    0.4756300070E-02
    0.1100000000E+03    0.1704302523E-03    0.5975095122E+00    0.9029239660E-04    0.4437687306E-03    0.4772087752E-02
    0.1300000000E+03    0.1778646749E-03    0.6107048872E+00    0.9910185628E-04    0.5259983242E-03    0.4782111493E-02
    0.1500000000E+03    0.1857848830E-03    0.6207586744E+00    0.1086001618E-03    0.6102371671E-03    0.4788262920E-02
    0.1700000000E+03    0.1942630433E-03    0.6286735078E+00    0.1187333827E-03    0.6967121701E-03    0.4791641524E-02
    0.1900000000E+03    0.2033256377E-03    0.6350663756E+00    0.1294632005E-03    0.7856300752E-03    0.4792929977E-02
    0.2100000000E+03    0.2129819319E-03    0.6403377753E+00    0.1407654034E-03    0.8771877449E-03    0.4792573728E-02
    0.2300000000E+03    0.2232358502E-03    0.6447590119E+00    0.1526271772E-03    0.9715785703E-03    0.4790874624E-02
    0.2500000000E+03    0.2340910978E-03    0.6485204058E+00    0.1650447148E-03    0.1068996805E-02    0.4788043095E-02
    0.2700000000E+03    0.2455533826E-03    0.6517594123E+00    0.1780213950E-03    0.1169640731E-02    0.4784228869E-02
    0.2900000000E+03    0.2576313511E-03    0.6545777859E+00    0.1915664668E-03    0.1273715138E-02    0.4779539870E-02
    0.3100000000E+03    0.2703369514E-03    0.6570524640E+00    0.2056941268E-03    0.1381433413E-02    0.4774054294E-02
    0.3300000000E+03    0.2836855492E-03    0.6592426987E+00    0.2204228884E-03    0.1493019394E-02    0.4767828553E-02
    0.3500000000E+03    0.2976959496E-03    0.6611948619E+00    0.2357751666E-03    0.1608709114E-02    0.4760902655E-02
    0.3700000000E+03    0.3123903987E-03    0.6629457650E+00    0.2517770227E-03    0.1728752505E-02    0.4753303913E-02
    0.3900000000E+03    0.3277945977E-03    0.6645250021E+00    0.2684580324E-03    0.1853415112E-02    0.4745049552E-02
    0.4100000000E+03    0.3439377463E-03    0.6659566363E+00    0.2858512474E-03    0.1982979872E-02    0.4736148567E-02
    0.4300000000E+03    0.3608526233E-03    0.6672604337E+00    0.3039932361E-03    0.2117748980E-02    0.4726603045E-02
    0.4500000000E+03    0.3785757066E-03    0.6684527822E+00    0.3229241874E-03    0.2258045886E-02    0.4716409127E-02
    0.4700000000E+03    0.3971473336E-03    0.6695473832E+00    0.3426880722E-03    0.2404217437E-02    0.4705557677E-02
    0.4900000000E+03    0.4166119056E-03    0.6705557808E+00    0.3633328571E-03    0.2556636209E-02    0.4694034764E-02
    0.1000000000E+03    0.1668442143E-03    0.5892345145E+00    0.8616601905E-04    0.4033268019E-03    0.4765081547E-02
    0.3000000000E+03    0.2639048175E-03    0.6558540343E+00    0.1985564116E-03    0.1327105068E-02    0.4776892690E-02
    0.5000000000E+03    0.4266940922E-03    0.6710307733E+00    0.3740017328E-03    0.2635312389E-02    0.4688015922E-02
    0.7000000000E+03    0.6903162064E-03    0.6777514792E+00    0.6495931033E-03    0.4657138741E-02    0.4525305294E-02
    0.9000000000E+03    0.1145361601E-02    0.6815427496E+00    0.1120032848E-02    0.8097643234E-02    0.4241664232E-02
    0.1100000000E+04    0.2011122546E-02    0.6839767360E+00    0.2012537808E-02    0.1463173092E-01    0.3716434221E-02
    0.1300000000E+04    0.3724410256E-02    0.6856713611E+00    0.3782887044E-02    0.2764382198E-01    0.2739542986E-02
    0.1500000000E+04    0.6153753386E-02    0.6869189024E+00    0.6315874008E-02    0.4643403004E-01    0.1531231099E-02
    0.1700000000E+04    0.7760193624E-02    0.6878755345E+00    0.8033519725E-02    0.5948055111E-01    0.9859374537E-03
    0.1900000000E+04    0.8621426681E-02    0.6886322888E+00    0.8997771582E-02    0.6710982461E-01    0.8847489378E-03
    0.2100000000E+04    0.9278027558E-02    0.6892458100E+00    0.9759904474E-02    0.7332705414E-01    0.8742224979E-03
    0.2300000000E+04    0.9868262910E-02    0.6897531911E+00    0.1046170152E-01    0.7916856121E-01    0.8768129975E-03
    0.2500000000E+04    0.1041711447E-01    0.6901797382E+00    0.1112831082E-01    0.8481535439E-01    0.8809347904E-03
    0.2700000000E+04    0.1093044574E-01    0.6905433076E+00    0.1176509353E-01    0.9030252366E-01    0.8849862823E-03
    0.2900000000E+04    0.1141101163E-01    0.6908568589E+00    0.1237422156E-01    0.9564177525E-01    0.8887795953E-03
    0.3100000000E+04    0.1186095212E-01    0.6911300256E+00    0.1295727835E-01    0.1008407481E+00    0.8923211550E-03
    0.3300000000E+04    0.1228218725E-01    0.6913701178E+00    0.1351566973E-01    0.1059060634E+00    0.8956392334E-03
    0.3500000000E+04    0.1267648859E-01    0.6915827824E+00    0.1405069523E-01    0.1108438348E+00    0.8987604041E-03
    0.3700000000E+04    0.1304549991E-01    0.6917724510E+00    0.1456356563E-01    0.1156597766E+00    0.9017071741E-03
    0.3900000000E+04    0.1339074892E-01    0.6919426498E+00    0.1505541161E-01    0.1203592469E+00    0.9044984469E-03
    0.4100000000E+04    0.1371365693E-01    0.6920962196E+00    0.1552729033E-01    0.1249472760E+00    0.9071502033E-03
    0.4300000000E+04    0.1401554744E-01    0.6922354746E+00    0.1598019129E-01    0.1294285921E+00    0.9096760674E-03
    0.4500000000E+04    0.1429765398E-01    0.6923623189E+00    0.1641504151E-01    0.1338076437E+00    0.9120877475E-03
    0.4700000000E+04    0.1456112710E-01    0.6924783336E+00    0.1683271038E-01    0.1380886204E+00    0.9143953805E-03
    0.4900000000E+04    0.1480704096E-01    0.6925848424E+00    0.1723401398E-01    0.1422754715E+00    0.9166078013E-03
    0.1000000000E+04    0.1504559199E-02    0.6828794023E+00    0.1490357817E-02    0.1080699348E-01    0.4021164438E-02
    0.3000000000E+04    0.1163968619E-01    0.6909979880E+00    0.1266891815E-01    0.9825836846E-01    0.8905801161E-03
    0.5000000000E+04    0.1492372938E-01    0.6926348880E+00    0.1742877024E-01    0.1443347728E+00    0.9176807656E-03
    0.7000000000E+04    0.1654700476E-01    0.6933340617E+00    0.2062826190E-01    0.1813814179E+00    0.9356061864E-03
    0.9000000000E+04    0.1722868397E-01    0.6937203295E+00    0.2283218355E-01    0.2121975733E+00    0.9490915752E-03
    0.1100000000E+05    0.1735872472E-01    0.6939645311E+00    0.2436777465E-01    0.2384769825E+00    0.9599377854E-03
    0.1300000000E+05    0.1716042739E-01    0.6941323933E+00    0.2543705911E-01    0.2613122466E+00    0.9690282061E-03
    0.1500000000E+05    0.1676700142E-01    0.6942545691E+00    0.2617116065E-01    0.2814452590E+00    0.9768634917E-03
    0.1700000000E+05    0.1626036212E-01    0.6943472682E+00    0.2665867959E-01    0.2994013424E+00    0.9837554771E-03
    0.1900000000E+05    0.1569198651E-01    0.6944198617E+00    0.2696148095E-01    0.3155656424E+00    0.9899118401E-03
    0.2100000000E+05    0.1509467944E-01    0.6944781408E+00    0.2712394804E-01    0.3302289075E+00    0.9954779981E-03
    0.2300000000E+05    0.1448948180E-01    0.6945258758E+00    0.2717864889E-01    0.3436161289E+00    0.1000559820E-02
    0.2500000000E+05    0.1388986362E-01    0.6945656254E+00    0.2714993828E-01    0.3559051323E+00    0.1005236827E-02
    0.2700000000E+05    0.1330434122E-01    0.6945991865E+00    0.2705632218E-01    0.3672390412E+00    0.1009570296E-02
    0.2900000000E+05    0.1273814944E-01    0.6946278577E+00    0.2691205388E-01    0.3777348694E+00    0.1013608464E-02
    0.3100000000E+05    0.1219433143E-01    0.6946526001E+00    0.2672823809E-01    0.3874895968E+00    0.1017389997E-02
    0.3300000000E+05    0.1167446053E-01    0.6946741405E+00    0.2651361139E-01    0.3965845606E+00    0.1020946377E-02
    0.3500000000E+05    0.1117912518E-01    0.6946930381E+00    0.2627510432E-01    0.4050886940E+00    0.1024303579E-02
    0.3700000000E+05    0.1070825795E-01    0.6947097301E+00    0.2601825334E-01    0.4130609576E+00    0.1027483295E-02
    0.3900000000E+05    0.1026136095E-01    0.6947245634E+00    0.2574750712E-01    0.4205521949E+00    0.1030503828E-02
    0.4100000000E+05    0.9837660970E-02    0.6947378164E+00    0.2546645751E-01    0.4276065697E+00    0.1033380764E-02
    0.4300000000E+05    0.9436216702E-02    0.6947497151E+00    0.2517801571E-01    0.4342626932E+00    0.1036127490E-02
    0.4500000000E+05    0.9055992804E-02    0.6947604451E+00    0.2488454826E-01    0.4405545203E+00    0.1038755589E-02
    0.4700000000E+05    0.8695910949E-02    0.6947701598E+00    0.2458798285E-01    0.4465120687E+00    0.1041275150E-02
    0.4900000000E+05    0.8354884714E-02    0.6947789873E+00    0.2428989155E-01    0.4521620034E+00    0.1043695018E-02
    0.1000000000E+05    0.1734595114E-01    0.6938548477E+00    0.2366877094E-01    0.2258257083E+00    0.9547768075E-03
    0.3000000000E+05    0.1246331753E-01    0.6946406700E+00    0.2682449534E-01    0.3826994631E+00    0.1015529196E-02
    0.5000000000E+05    0.8191181697E-02    0.6947831026E+00    0.2414068424E-01    0.4548791510E+00    0.1044870041E-02
    0.7000000000E+05    0.5679746006E-02    0.6948377640E+00    0.2128312791E-01    0.4976938563E+00    0.1064623520E-02
    0.9000000000E+05    0.4141751310E-02    0.6948645204E+00    0.1884656809E-01    0.5261620480E+00    0.1079608854E-02
    0.1100000000E+06    0.3144291081E-02    0.6948792120E+00    0.1683908464E-01    0.5464721672E+00    0.1091720162E-02
    0.1300000000E+06    0.2464398255E-02    0.6948877446E+00    0.1518458467E-01    0.5616897262E+00    0.1101903102E-02
    0.1500000000E+06    0.1981605453E-02    0.6948927866E+00    0.1380833810E-01    0.5735139867E+00    0.1110699606E-02
    0.1700000000E+06    0.1627048363E-02    0.6948957036E+00    0.1265050361E-01    0.5829640444E+00    0.1118449820E-02
    0.1900000000E+06    0.1359298152E-02    0.6948972593E+00    0.1166538859E-01    0.5906883559E+00    0.1125381555E-02
    0.2100000000E+06    0.1152307589E-02    0.6948979090E+00    0.1081838539E-01    0.5971191744E+00    0.1131655013E-02
    0.2300000000E+06    0.9890699913E-03    0.6948979387E+00    0.1008314514E-01    0.6025556822E+00    0.1137387224E-02
    0.2500000000E+06    0.8581153227E-03    0.6948975351E+00    0.9439404057E-02    0.6072115070E+00    0.1142666332E-02
    0.2700000000E+06    0.7514876401E-03    0.6948968241E+00    0.8871395853E-02    0.6112432408E+00    0.1147560415E-02
    0.2900000000E+06    0.6635319547E-03    0.6948958931E+00    0.8366707475E-02    0.6147682686E+00    0.1152123165E-02
    0.3100000000E+06    0.5901416154E-03    0.6948948038E+00    0.7915453494E-02    0.6178763068E+00    0.1156397691E-02
    0.3300000000E+06    0.5282772823E-03    0.6948936008E+00    0.7509675911E-02    0.6206370952E+00    0.1160419140E-02
    0.3500000000E+06    0.4756512577E-03    0.6948923167E+00    0.7142903429E-02    0.6231056595E+00    0.1164216547E-02
    0.3700000000E+06    0.4305153962E-03    0.6948909757E+00    0.6809824232E-02    0.6253259945E+00    0.1167814184E-02
    0.3900000000E+06    0.3915155658E-03    0.6948895959E+00    0.6506040285E-02    0.6273336945E+00    0.1171232551E-02
    0.4100000000E+06    0.3575898610E-03    0.6948881911E+00    0.6227880820E-02    0.6291578652E+00    0.1174489121E-02
    0.4300000000E+06    0.3278961788E-03    0.6948867718E+00    0.5972259232E-02    0.6308225372E+00    0.1177598910E-02
    0.4500000000E+06    0.3017598744E-03    0.6948853458E+00    0.5736562186E-02    0.6323477248E+00    0.1180574921E-02
    0.4700000000E+06    0.2786353850E-03    0.6948839193E+00    0.5518562866E-02    0.6337502311E+00    0.1183428486E-02
    0.4900000000E+06    0.2580777239E-03    0.6948824970E+00    0.5316352491E-02    0.6350442667E+00    0.1186169547E-02
    0.1000000000E+06    0.3592677666E-02    0.6948728905E+00    0.1779360211E-01    0.5371008166E+00    0.1085951486E-02
    0.3000000000E+06    0.6252267689E-03    0.6948953651E+00    0.8134937920E-02    0.6163696555E+00    0.1154294098E-02
    0.5000000000E+06    0.2486445109E-03    0.6948817887E+00    0.5220644980E-02    0.6356544606E+00    0.1187500668E-02
    0.7000000000E+06    0.1328830952E-03    0.6948683686E+00    0.3834888898E-02    0.6443323698E+00    0.1209889850E-02
    0.9000000000E+06    0.8276942591E-04    0.6948566511E+00    0.3027177371E-02    0.6492632434E+00    0.1226886132E-02
    0.1100000000E+07    0.5663638416E-04    0.6948464524E+00    0.2498871667E-02    0.6524419138E+00    0.1240627973E-02
    0.1300000000E+07    0.4130340552E-04    0.6948374740E+00    0.2126622250E-02    0.6546609631E+00    0.1252184670E-02
    0.1500000000E+07    0.3154182910E-04    0.6948294706E+00    0.1850303598E-02    0.6562977130E+00    0.1262169586E-02
    0.1700000000E+07    0.2494303212E-04    0.6948222564E+00    0.1637132960E-02    0.6575546462E+00    0.1270967950E-02
    0.1900000000E+07    0.2027235112E-04    0.6948156911E+00    0.1467723336E-02    0.6585501452E+00    0.1278837882E-02
    0.2100000000E+07    0.1684386255E-04    0.6948096675E+00    0.1329879446E-02    0.6593580403E+00    0.1285960965E-02
    0.2300000000E+07    0.1425174922E-04    0.6948041025E+00    0.1215547936E-02    0.6600267625E+00    0.1292469883E-02
    0.2500000000E+07    0.1224344793E-04    0.6947989304E+00    0.1119197610E-02    0.6605893985E+00    0.1298464593E-02
    0.2700000000E+07    0.1065509029E-04    0.6947940988E+00    0.1036904335E-02    0.6610693207E+00    0.1304022309E-02
    0.2900000000E+07    0.9376580957E-05    0.6947895648E+00    0.9658072583E-03    0.6614835077E+00    0.1309203940E-02
    0.3100000000E+07    0.8331725772E-05    0.6947852932E+00    0.9037717366E-03    0.6618445905E+00    0.1314058392E-02
    0.3300000000E+07    0.7466429105E-05    0.6947812548E+00    0.8491727960E-03    0.6621621597E+00    0.1318625544E-02
    0.3500000000E+07    0.6741421865E-05    0.6947774248E+00    0.8007516815E-03    0.6624436288E+00    0.1322938346E-02
    0.3700000000E+07    0.6127636184E-05    0.6947737824E+00    0.7575182545E-03    0.6626948180E+00    0.1327024342E-02
    0.3900000000E+07    0.5603180444E-05    0.6947703097E+00    0.7186830137E-03    0.6629203607E+00    0.1330906797E-02
    0.4100000000E+07    0.5151311664E-05    0.6947669911E+00    0.6836087561E-03    0.6631239913E+00    0.1334605544E-02
    0.4300000000E+07    0.4759046370E-05    0.6947638132E+00    0.6517755666E-03    0.6633087529E+00    0.1338137627E-02
    0.4500000000E+07    0.4416190034E-05    0.6947607643E+00    0.6227550357E-03    0.6634771502E+00    0.1341517804E-02
    0.4700000000E+07    0.4114646896E-05    0.6947578341E+00    0.5961909896E-03    0.6636312637E+00    0.1344758941E-02
    0.4900000000E+07    0.3847921248E-05    0.6947550135E+00    0.5717848907E-03    0.6637728355E+00    0.1347872323E-02
    0.1000000000E+07    0.6782350032E-04    0.6948513814E+00    0.2737987124E-02    0.6510075982E+00    0.1234082159E-02
    0.3000000000E+07    0.8828743955E-05    0.6947873981E+00    0.9337683531E-03    0.6616700282E+00    0.1311669387E-02
    0.5000000000E+07    0.3725930549E-05    0.6947536417E+00    0.5603107283E-03    0.6638393869E+00    0.1349384262E-02
    0.7000000000E+07    0.2242957223E-05    0.6947303915E+00    0.3995015284E-03    0.6647718655E+00    0.1374815587E-02
    0.9000000000E+07    0.1597715767E-05    0.6947125573E+00    0.3100991477E-03    0.6652904053E+00    0.1394122026E-02
    0.1100000000E+08    0.1251247547E-05    0.6946980466E+00    0.2532309385E-03    0.6656205013E+00    0.1409732003E-02
    0.1300000000E+08    0.1039339882E-05    0.6946857902E+00    0.2138932598E-03    0.6658490569E+00    0.1422859932E-02
    0.1500000000E+08    0.8977306510E-06    0.6946751669E+00    0.1850737228E-03    0.6660166685E+00    0.1434202468E-02
    0.1700000000E+08    0.7968460622E-06    0.6946657826E+00    0.1630576107E-03    0.6661448405E+00    0.1444197165E-02
    0.1900000000E+08    0.7214241349E-06    0.6946573717E+00    0.1456940062E-03    0.6662460268E+00    0.1453137216E-02
    0.2100000000E+08    0.6628846017E-06    0.6946497462E+00    0.1316515670E-03    0.6663279381E+00    0.1461228880E-02
    0.2300000000E+08    0.6160715737E-06    0.6946427682E+00    0.1200622801E-03    0.6663956036E+00    0.1468622875E-02
    0.2500000000E+08    0.5777172348E-06    0.6946363335E+00    0.1103361257E-03    0.6664524431E+00    0.1475432744E-02
    0.2700000000E+08    0.5456579805E-06    0.6946303615E+00    0.1020580897E-03    0.6665008633E+00    0.1481746199E-02
