  Pressure (Pa) 22mC5-500 (mol/kg) 24mC5-500 (mol/kg) 2mC6-500 (mol/kg) 3mC6-500 (mol/kg) C7-500 (mol/kg)
    0.1000000000E+01    0.1135151888E-04    0.1266283597E+00    0.2370489150E-04    0.8980434463E-06    0.4169105600E-02
    0.3000000000E+01    0.2346364655E-04    0.2785066410E+00    0.4678027018E-04    0.2259562096E-05    0.4197201891E-02
    0.5000000000E+01    0.2961831891E-04    0.3664021461E+00    0.5762355765E-04    0.3503532983E-05    0.4209869290E-02
    0.7000000000E+01    0.3324757793E-04    0.4237139280E+00    0.6397521806E-04    0.4691387239E-05    0.4217626781E-02
    0.9000000000E+01    0.3563612272E-04    0.4640400457E+00    0.6846362527E-04    0.5843657375E-05    0.4222875323E-02
    0.1100000000E+02    0.3735611247E-04    0.4939575908E+00    0.7214019688E-04    0.6970566219E-05    0.4226631837E-02
    0.1300000000E+02    0.3869300152E-04    0.5170360606E+00    0.7546966011E-04    0.8078177004E-05    0.4229420411E-02
    0.1500000000E+02    0.3980113156E-04    0.5353801716E+00    0.7867047088E-04    0.9170474168E-05    0.4231542483E-02
    0.1700000000E+02    0.4076908055E-04    0.5503113256E+00    0.8184866904E-04    0.1025026075E-04    0.4233184833E-02
    0.1900000000E+02    0.4165004843E-04    0.5627010081E+00    0.8505584154E-04    0.1131960733E-04    0.4234469762E-02
    0.2100000000E+02    0.4247713093E-04    0.5731472582E+00    0.8831609892E-04    0.1238010079E-04    0.4235480884E-02
    0.2300000000E+02    0.4327148627E-04    0.5820741201E+00    0.9163933882E-04    0.1343299278E-04    0.4236277383E-02
    0.2500000000E+02    0.4404692619E-04    0.5897906320E+00    0.9502804512E-04    0.1447929365E-04    0.4236902376E-02
    0.2700000000E+02    0.4481260603E-04    0.5965273406E+00    0.9848088246E-04    0.1551983465E-04    0.4237388045E-02
    0.2900000000E+02    0.4557465676E-04    0.6024597333E+00    0.1019946366E-03    0.1655531066E-04    0.4237758914E-02
    0.3100000000E+02    0.4633720476E-04    0.6077237493E+00    0.1055652731E-03    0.1758631047E-04    0.4238034010E-02
    0.3300000000E+02    0.4710302524E-04    0.6124263267E+00    0.1091885147E-03    0.1861333888E-04    0.4238228327E-02
    0.3500000000E+02    0.4787397020E-04    0.6166527446E+00    0.1128601497E-03    0.1963683305E-04    0.4238353848E-02
    0.3700000000E+02    0.4865125400E-04    0.6204718427E+00    0.1165761904E-03    0.2065717496E-04    0.4238420264E-02
    0.3900000000E+02    0.4943564695E-04    0.6239398005E+00    0.1203329455E-03    0.2167470108E-04    0.4238435505E-02
    0.4100000000E+02    0.5022760858E-04    0.6271029198E+00    0.1241270450E-03    0.2268970983E-04    0.4238406119E-02
    0.4300000000E+02    0.5102738024E-04    0.6299997044E+00    0.1279554384E-03    0.2370246761E-04    0.4238337565E-02
    0.4500000000E+02    0.5183505039E-04    0.6326624351E+00    0.1318153793E-03    0.2471321358E-04    0.4238234430E-02
    0.4700000000E+02    0.5265060078E-04    0.6351183787E+00    0.1357044030E-03    0.2572216360E-04    0.4238100598E-02
    0.4900000000E+02    0.5347393945E-04    0.6373907245E+00    0.1396203019E-03    0.2672951338E-04    0.4237939379E-02
    0.1000000000E+02    0.3655761202E-04    0.4800306227E+00    0.7036612403E-04    0.6409838722E-05    0.4224900176E-02
    0.3000000000E+02    0.4595566935E-04    0.6051680235E+00    0.1037731107E-03    0.1707133679E-04    0.4237907416E-02
    0.5000000000E+02    0.5388848649E-04    0.6384643642E+00    0.1415877037E-03    0.2723264451E-04    0.4237849403E-02
    0.7000000000E+02    0.6254292440E-04    0.6538851127E+00    0.1819670355E-03    0.3724738526E-04    0.4235127205E-02
    0.9000000000E+02    0.7175976175E-04    0.6627792684E+00    0.2237243071E-03    0.4723748251E-04    0.4231372429E-02
    0.1100000000E+03    0.8140035303E-04    0.6685666432E+00    0.2664454053E-03    0.5726595120E-04    0.4227085018E-02
    0.1300000000E+03    0.9138443005E-04    0.6726330541E+00    0.3099800549E-03    0.6737213586E-04    0.4222468564E-02
    0.1500000000E+03    0.1016665383E-03    0.6756467818E+00    0.3542795622E-03    0.7758368565E-04    0.4217620389E-02
    0.1700000000E+03    0.1122209811E-03    0.6779697503E+00    0.3993389074E-03    0.8792172696E-04    0.4212591859E-02
    0.1900000000E+03    0.1230336578E-03    0.6798150293E+00    0.4451734993E-03    0.9840345324E-04    0.4207411796E-02
    0.2100000000E+03    0.1340975918E-03    0.6813162270E+00    0.4918089743E-03    0.1090435613E-03    0.4202096897E-02
    0.2300000000E+03    0.1454103873E-03    0.6825613741E+00    0.5392764232E-03    0.1198551111E-03    0.4196656849E-02
    0.2500000000E+03    0.1569727278E-03    0.6836108313E+00    0.5876100633E-03    0.1308500722E-03    0.4191097058E-02
    0.2700000000E+03    0.1687874578E-03    0.6845073690E+00    0.6368460835E-03    0.1420396889E-03    0.4185420175E-02
    0.2900000000E+03    0.1808590053E-03    0.6852821398E+00    0.6870220766E-03    0.1534347344E-03    0.4179627007E-02
    0.3100000000E+03    0.1931930097E-03    0.6859583726E+00    0.7381767817E-03    0.1650456950E-03    0.4173717072E-02
    0.3300000000E+03    0.2057960783E-03    0.6865537411E+00    0.7903499908E-03    0.1768829080E-03    0.4167688956E-02
    0.3500000000E+03    0.2186756248E-03    0.6870819309E+00    0.8435825470E-03    0.1889566680E-03    0.4161540542E-02
    0.3700000000E+03    0.2318397632E-03    0.6875537042E+00    0.8979163951E-03    0.2012773124E-03    0.4155269161E-02
    0.3900000000E+03    0.2452972372E-03    0.6879776409E+00    0.9533946600E-03    0.2138552914E-03    0.4148871702E-02
    0.4100000000E+03    0.2590573765E-03    0.6883606651E+00    0.1010061744E-02    0.2267012275E-03    0.4142344674E-02
    0.4300000000E+03    0.2731300707E-03    0.6887084260E+00    0.1067963433E-02    0.2398259668E-03    0.4135684259E-02
    0.4500000000E+03    0.2875257562E-03    0.6890255787E+00    0.1127147012E-02    0.2532406260E-03    0.4128886343E-02
    0.4700000000E+03    0.3022554136E-03    0.6893159934E+00    0.1187661384E-02    0.2669566343E-03    0.4121946533E-02
    0.4900000000E+03    0.3173305720E-03    0.6895829140E+00    0.1249557193E-02    0.2809857737E-03    0.4114860176E-02
    0.1000000000E+03    0.7653316307E-04    0.6659498265E+00    0.2449772493E-03    0.5224409761E-04    0.4229278914E-02
    0.3000000000E+03    0.1869928079E-03    0.6856313600E+00    0.7124746275E-03    0.1592125771E-03    0.4176686705E-02
    0.5000000000E+03    0.3250014696E-03    0.6897084372E+00    0.1281039470E-02    0.2881215553E-03    0.4111260517E-02
    0.7000000000E+03    0.4998887333E-03    0.6914704718E+00    0.1997421104E-02    0.4505530287E-03    0.4030213455E-02
    0.9000000000E+03    0.7280052370E-03    0.6924531191E+00    0.2930474991E-02    0.6623330936E-03    0.3926899990E-02
    0.1100000000E+04    0.1035734866E-02    0.6930797719E+00    0.4189225061E-02    0.9484115556E-03    0.3790753441E-02
    0.1300000000E+04    0.1467117010E-02    0.6935141761E+00    0.5955185449E-02    0.1350359035E-02    0.3604597122E-02
    0.1500000000E+04    0.2097667838E-02    0.6938330079E+00    0.8539959635E-02    0.1939683304E-02    0.3340012609E-02
    0.1700000000E+04    0.3054891029E-02    0.6940769550E+00    0.1247137431E-01    0.2837927127E-02    0.2951677500E-02
    0.1900000000E+04    0.4521189235E-02    0.6942696137E+00    0.1851029277E-01    0.4221599432E-02    0.2382639763E-02
    0.2100000000E+04    0.6592386531E-02    0.6944256097E+00    0.2707742717E-01    0.6192965103E-02    0.1629905609E-02
    0.2300000000E+04    0.8879595758E-02    0.6945544913E+00    0.3660977668E-01    0.8402588517E-02    0.8865454835E-03
    0.2500000000E+04    0.1066889376E-01    0.6946627563E+00    0.4417334482E-01    0.1017967896E-01    0.4183316040E-03
    0.2700000000E+04    0.1183068034E-01    0.6947549803E+00    0.4920206604E-01    0.1138739020E-01    0.2200401451E-03
    0.2900000000E+04    0.1264319418E-01    0.6948344785E+00    0.5281858791E-01    0.1227782218E-01    0.1522214921E-03
    0.3100000000E+04    0.1330581026E-01    0.6949037116E+00    0.5583689769E-01    0.1303594252E-01    0.1309085728E-03
    0.3300000000E+04    0.1390100406E-01    0.6949645444E+00    0.5859491684E-01    0.1373882886E-01    0.1245158002E-03
    0.3500000000E+04    0.1445821760E-01    0.6950184160E+00    0.6121298029E-01    0.1441388090E-01    0.1227753976E-03
    0.3700000000E+04    0.1498799224E-01    0.6950664546E+00    0.6373353080E-01    0.1507063409E-01    0.1224767271E-03
    0.3900000000E+04    0.1549453860E-01    0.6951095573E+00    0.6617286205E-01    0.1571261102E-01    0.1226205806E-03
    0.4100000000E+04    0.1597994905E-01    0.6951484461E+00    0.6853853778E-01    0.1634132921E-01    0.1228944811E-03
    0.4300000000E+04    0.1644557845E-01    0.6951837088E+00    0.7083512284E-01    0.1695762473E-01    0.1232002904E-03
    0.4500000000E+04    0.1689249797E-01    0.6952158291E+00    0.7306607044E-01    0.1756208910E-01    0.1235073708E-03
    0.4700000000E+04    0.1732164691E-01    0.6952452079E+00    0.7523435237E-01    0.1815521502E-01    0.1238065257E-03
    0.4900000000E+04    0.1773388567E-01    0.6952721810E+00    0.7734267598E-01    0.1873744617E-01    0.1240953961E-03
    0.1000000000E+04    0.8697044094E-03    0.6927976543E+00    0.3510012093E-02    0.7939963578E-03    0.3863805794E-02
    0.3000000000E+04    0.1298620862E-01    0.6948702500E+00    0.5437371602E-01    0.1266685300E-01    0.1385010447E-03
    0.5000000000E+04    0.1793391625E-01    0.6952848557E+00    0.7837514793E-01    0.1902460608E-01    0.1242358788E-03
    0.7000000000E+04    0.2121743026E-01    0.6954620438E+00    0.9641739693E-01    0.2428463082E-01    0.1265983347E-03
    0.9000000000E+04    0.2347928898E-01    0.6955601407E+00    0.1106046274E+00    0.2880979121E-01    0.1283885255E-03
    0.1100000000E+05    0.2506184516E-01    0.6956223304E+00    0.1220707150E+00    0.3279352640E-01    0.1298343576E-03
    0.1300000000E+05    0.2617597953E-01    0.6956652138E+00    0.1315408694E+00    0.3636330925E-01    0.1310494373E-03
    0.1500000000E+05    0.2695767023E-01    0.6956965321E+00    0.1395010943E+00    0.3960705854E-01    0.1320987560E-03
    0.1700000000E+05    0.2749790305E-01    0.6957203800E+00    0.1462896816E+00    0.4258769825E-01    0.1330230576E-03
    0.1900000000E+05    0.2785944443E-01    0.6957391258E+00    0.1521496275E+00    0.4535166522E-01    0.1338496067E-03
    0.2100000000E+05    0.2808671364E-01    0.6957542339E+00    0.1572601628E+00    0.4793412482E-01    0.1345975641E-03
    0.2300000000E+05    0.2821183326E-01    0.6957666585E+00    0.1617565105E+00    0.5036229953E-01    0.1352809198E-03
    0.2500000000E+05    0.2825846741E-01    0.6957770475E+00    0.1657427048E+00    0.5265766713E-01    0.1359102067E-03
    0.2700000000E+05    0.2824432967E-01    0.6957858565E+00    0.1693001606E+00    0.5483745575E-01    0.1364935569E-03
    0.2900000000E+05    0.2818286450E-01    0.6957934148E+00    0.1724935548E+00    0.5691568711E-01    0.1370373826E-03
    0.3100000000E+05    0.2808440020E-01    0.6957999666E+00    0.1753749550E+00    0.5890392112E-01    0.1375468306E-03
    0.3300000000E+05    0.2795695563E-01    0.6958056966E+00    0.1779867786E+00    0.6081179801E-01    0.1380260965E-03
    0.3500000000E+05    0.2780681455E-01    0.6958107471E+00    0.1803639513E+00    0.6264744017E-01    0.1384786456E-03
    0.3700000000E+05    0.2763894120E-01    0.6958152295E+00    0.1825355082E+00    0.6441775478E-01    0.1389073744E-03
    0.3900000000E+05    0.2745728540E-01    0.6958192322E+00    0.1845257991E+00    0.6612866501E-01    0.1393147288E-03
    0.4100000000E+05    0.2726500928E-01    0.6958228263E+00    0.1863554072E+00    0.6778528910E-01    0.1397027933E-03
    0.4300000000E+05    0.2706465791E-01    0.6958260695E+00    0.1880418586E+00    0.6939208052E-01    0.1400733594E-03
    0.4500000000E+05    0.2685828908E-01    0.6958290094E+00    0.1896001763E+00    0.7095293913E-01    0.1404279778E-03
    0.4700000000E+05    0.2664757291E-01    0.6958316852E+00    0.1910433173E+00    0.7247129996E-01    0.1407680004E-03
    0.4900000000E+05    0.2643386905E-01    0.6958341298E+00    0.1923825200E+00    0.7395020504E-01    0.1410946125E-03
    0.1000000000E+05    0.2434006043E-01    0.6955943749E+00    0.1166254167E+00    0.3086021192E-01    0.1291457985E-03
    0.3000000000E+05    0.2813770958E-01    0.6957968038E+00    0.1739704054E+00    0.5792041155E-01    0.1372961223E-03
    0.5000000000E+05    0.2632625186E-01    0.6958352742E+00    0.1930162564E+00    0.7467571943E-01    0.1412532213E-03
    0.7000000000E+05    0.2419790287E-01    0.6958508951E+00    0.2020615947E+00    0.8763954865E-01    0.1439208695E-03
    0.9000000000E+05    0.2228897213E-01    0.6958590840E+00    0.2069341572E+00    0.9852681504E-01    0.1459458630E-03
    0.1100000000E+06    0.2064192632E-01    0.6958639787E+00    0.2096572722E+00    0.1080627296E+00    0.1475830845E-03
    0.1300000000E+06    0.1922351754E-01    0.6958671455E+00    0.2111308805E+00    0.1166301183E+00    0.1489599600E-03
    0.1500000000E+06    0.1799359569E-01    0.6958693033E+00    0.2118192182E+00    0.1244592861E+00    0.1501495750E-03
    0.1700000000E+06    0.1691768710E-01    0.6958708263E+00    0.2119867647E+00    0.1317012897E+00    0.1511978283E-03
    0.1900000000E+06    0.1596823987E-01    0.6958719276E+00    0.2117953282E+00    0.1384614832E+00    0.1521354732E-03
    0.2100000000E+06    0.1512358143E-01    0.6958727366E+00    0.2113493543E+00    0.1448167960E+00    0.1529841433E-03
    0.2300000000E+06    0.1436663631E-01    0.6958733364E+00    0.2107191331E+00    0.1508254376E+00    0.1537596458E-03
    0.2500000000E+06    0.1368384495E-01    0.6958737822E+00    0.2099535695E+00    0.1565327213E+00    0.1544738892E-03
    0.2700000000E+06    0.1306433177E-01    0.6958741123E+00    0.2090876233E+00    0.1619747499E+00    0.1551360723E-03
    0.2900000000E+06    0.1249928248E-01    0.6958743538E+00    0.2081468501E+00    0.1671808476E+00    0.1557534511E-03
    0.3100000000E+06    0.1198148027E-01    0.6958745265E+00    0.2071502829E+00    0.1721752250E+00    0.1563318520E-03
    0.3300000000E+06    0.1150495910E-01    0.6958746450E+00    0.2061123211E+00    0.1769781515E+00    0.1568760259E-03
    0.3500000000E+06    0.1106474233E-01    0.6958747205E+00    0.2050440037E+00    0.1816068034E+00    0.1573898980E-03
    0.3700000000E+06    0.1065664394E-01    0.6958747613E+00    0.2039538890E+00    0.1860758905E+00    0.1578767497E-03
    0.3900000000E+06    0.1027711566E-01    0.6958747741E+00    0.2028486754E+00    0.1903981281E+00    0.1583393526E-03
    0.4100000000E+06    0.9923128381E-02    0.6958747640E+00    0.2017336471E+00    0.1945845992E+00    0.1587800693E-03
    0.4300000000E+06    0.9592079129E-02    0.6958747353E+00    0.2006130004E+00    0.1986450352E+00    0.1592009304E-03
    0.4500000000E+06    0.9281717489E-02    0.6958746911E+00    0.1994900851E+00    0.2025880382E+00    0.1596036941E-03
    0.4700000000E+06    0.8990086872E-02    0.6958746343E+00    0.1983675864E+00    0.2064212578E+00    0.1599898930E-03
    0.4900000000E+06    0.8715477240E-02    0.6958745669E+00    0.1972476632E+00    0.2101515340E+00    0.1603608714E-03
    0.1000000000E+06    0.2143431320E-01    0.6958618153E+00    0.2084934654E+00    0.1034348638E+00    0.1468032090E-03
    0.3000000000E+06    0.1223487427E-01    0.6958744477E+00    0.2076545494E+00    0.1697031533E+00    0.1560472050E-03
    0.5000000000E+06    0.8584078735E-02    0.6958745298E+00    0.1966892246E+00    0.2119800133E+00    0.1605410290E-03
    0.7000000000E+06    0.6566141785E-02    0.6958735373E+00    0.1859310293E+00    0.2443597505E+00    0.1635714245E-03
    0.9000000000E+06    0.5272508436E-02    0.6958724100E+00    0.1761823134E+00    0.2708663569E+00    0.1658720884E-03
    0.1100000000E+07    0.4369917227E-02    0.6958713221E+00    0.1674369479E+00    0.2933571429E+00    0.1677323328E-03
    0.1300000000E+07    0.3704380629E-02    0.6958703099E+00    0.1595735815E+00    0.3128808020E+00    0.1692968419E-03
    0.1500000000E+07    0.3194049124E-02    0.6958693760E+00    0.1524675426E+00    0.3301019327E+00    0.1706486161E-03
    0.1700000000E+07    0.2791088468E-02    0.6958685141E+00    0.1460110404E+00    0.3454746687E+00    0.1718397877E-03
    0.1900000000E+07    0.2465552896E-02    0.6958677162E+00    0.1401145240E+00    0.3593262297E+00    0.1729052898E-03
    0.2100000000E+07    0.2197688826E-02    0.6958669746E+00    0.1347041309E+00    0.3719018437E+00    0.1738696978E-03
    0.2300000000E+07    0.1973918179E-02    0.6958662825E+00    0.1297187363E+00    0.3833909405E+00    0.1747509698E-03
    0.2500000000E+07    0.1784591752E-02    0.6958656340E+00    0.1251074054E+00    0.3939434039E+00    0.1755626350E-03
    0.2700000000E+07    0.1622661128E-02    0.6958650241E+00    0.1208273557E+00    0.4036801622E+00    0.1763151445E-03
    0.2900000000E+07    0.1482857211E-02    0.6958644485E+00    0.1168423635E+00    0.4127003711E+00    0.1770167424E-03
    0.3100000000E+07    0.1361162560E-02    0.6958639037E+00    0.1131215236E+00    0.4210864459E+00    0.1776740489E-03
    0.3300000000E+07    0.1254461413E-02    0.6958633866E+00    0.1096382802E+00    0.4289076883E+00    0.1782924618E-03
    0.3500000000E+07    0.1160301101E-02    0.6958628944E+00    0.1063696641E+00    0.4362229609E+00    0.1788764413E-03
    0.3700000000E+07    0.1076725455E-02    0.6958624248E+00    0.1032956882E+00    0.4430826993E+00    0.1794297159E-03
    0.3900000000E+07    0.1002156031E-02    0.6958619760E+00    0.1003988629E+00    0.4495304548E+00    0.1799554350E-03
    0.4100000000E+07    0.9353058407E-03    0.6958615460E+00    0.9766380595E-01    0.4556040931E+00    0.1804562831E-03
    0.4300000000E+07    0.8751156537E-03    0.6958611334E+00    0.9507692440E-01    0.4613367402E+00    0.1809345676E-03
    0.4500000000E+07    0.8207062577E-03    0.6958607367E+00    0.9262615410E-01    0.4667575371E+00    0.1813922863E-03
    0.4700000000E+07    0.7713422071E-03    0.6958603548E+00    0.9030074449E-01    0.4718922487E+00    0.1818311810E-03
    0.4900000000E+07    0.7264039539E-03    0.6958599867E+00    0.8809107959E-01    0.4767637599E+00    0.1822527792E-03
    0.1000000000E+07    0.4784360978E-02    0.6958718575E+00    0.1716912033E+00    0.2825361111E+00    0.1668462089E-03
    0.3000000000E+07    0.1419958873E-02    0.6958641725E+00    0.1149506764E+00    0.4169680716E+00    0.1773505699E-03
    0.5000000000E+07    0.7054271524E-03    0.6958598074E+00    0.8702691927E-01    0.4791072811E+00    0.1824575193E-03
    0.7000000000E+07    0.4248941153E-03    0.6958567527E+00    0.7012831152E-01    0.5161215206E+00    0.1859014330E-03
    0.9000000000E+07    0.2846055185E-03    0.6958543932E+00    0.5874645862E-01    0.5408701207E+00    0.1885160563E-03
    0.1100000000E+08    0.2041295711E-03    0.6958524660E+00    0.5054467901E-01    0.5586289372E+00    0.1906301656E-03
    0.1300000000E+08    0.1536132382E-03    0.6958508343E+00    0.4434920134E-01    0.5720069944E+00    0.1924081845E-03
    0.1500000000E+08    0.1198008002E-03    0.6958494177E+00    0.3950263998E-01    0.5824523185E+00    0.1939444382E-03
    0.1700000000E+08    0.9604962967E-04    0.6958481650E+00    0.3560724049E-01    0.5908358912E+00    0.1952981725E-03
    0.1900000000E+08    0.7872468227E-04    0.6958470412E+00    0.3240790857E-01    0.5977139998E+00    0.1965090873E-03
    0.2100000000E+08    0.6569817087E-04    0.6958460218E+00    0.2973339478E-01    0.6034589521E+00    0.1976051117E-03
    0.2300000000E+08    0.5565630567E-04    0.6958450885E+00    0.2746441312E-01    0.6083294774E+00    0.1986066544E-03
    0.2500000000E+08    0.4775188388E-04    0.6958442276E+00    0.2551529977E-01    0.6125110356E+00    0.1995290909E-03
    0.2700000000E+08    0.4141850553E-04    0.6958434283E+00    0.2382293713E-01    0.6161400699E+00    0.2003842984E-03
