  Pressure (Pa) 22mC5-500 (mol/kg) 24mC5-500 (mol/kg) 2mC6-500 (mol/kg) 3mC6-500 (mol/kg) C7-500 (mol/kg)
    0.1000000000E+01    0.8926798850E-05    0.2321299826E+00    0.4540452424E-05    0.8378949211E-06    0.4178161586E-02
    0.3000000000E+01    0.1474256308E-04    0.4177252050E+00    0.7160179916E-05    0.2127451668E-05    0.4200564315E-02
    0.5000000000E+01    0.1686426054E-04    0.4972379009E+00    0.8236338550E-05    0.3308586320E-05    0.4208904376E-02
    0.7000000000E+01    0.1807535626E-04    0.5414048663E+00    0.9084029838E-05    0.4436969886E-05    0.4213436091E-02
    0.9000000000E+01    0.1899262538E-04    0.5695087876E+00    0.9916059745E-05    0.5531351191E-05    0.4216291209E-02
    0.1100000000E+02    0.1980687998E-04    0.5889643628E+00    0.1077313618E-04    0.6601107998E-05    0.4218246684E-02
    0.1300000000E+02    0.2058813306E-04    0.6032313077E+00    0.1165960867E-04    0.7651821875E-05    0.4219659161E-02
    0.1500000000E+02    0.2136444302E-04    0.6141410703E+00    0.1257172831E-04    0.8687171328E-05    0.4220716775E-02
    0.1700000000E+02    0.2214734141E-04    0.6227538954E+00    0.1350455203E-04    0.9709750525E-05    0.4221528691E-02
    0.1900000000E+02    0.2294130973E-04    0.6297260941E+00    0.1445365130E-04    0.1072147984E-04    0.4222162849E-02
    0.2100000000E+02    0.2374768318E-04    0.6354856805E+00    0.1541542501E-04    0.1172383376E-04    0.4222663874E-02
    0.2300000000E+02    0.2456637635E-04    0.6403236959E+00    0.1638703870E-04    0.1271797715E-04    0.4223062357E-02
    0.2500000000E+02    0.2539668368E-04    0.6444449429E+00    0.1736628416E-04    0.1370485166E-04    0.4223380013E-02
    0.2700000000E+02    0.2623766150E-04    0.6479977240E+00    0.1835144294E-04    0.1468523295E-04    0.4223632712E-02
    0.2900000000E+02    0.2708831181E-04    0.6510920686E+00    0.1934117400E-04    0.1565977012E-04    0.4223832339E-02
    0.3100000000E+02    0.2794766892E-04    0.6538113313E+00    0.2033442613E-04    0.1662901364E-04    0.4223987982E-02
    0.3300000000E+02    0.2881483742E-04    0.6562198136E+00    0.2133037125E-04    0.1759343579E-04    0.4224106721E-02
    0.3500000000E+02    0.2968900583E-04    0.6583679136E+00    0.2232835396E-04    0.1855344578E-04    0.4224194156E-02
    0.3700000000E+02    0.3056944798E-04    0.6602956908E+00    0.2332785322E-04    0.1950940136E-04    0.4224254781E-02
    0.3900000000E+02    0.3145551857E-04    0.6620353883E+00    0.2432845329E-04    0.2046161768E-04    0.4224292246E-02
    0.4100000000E+02    0.3234664639E-04    0.6636132502E+00    0.2532982148E-04    0.2141037431E-04    0.4224309552E-02
    0.4300000000E+02    0.3324232661E-04    0.6650508550E+00    0.2633169098E-04    0.2235592080E-04    0.4224309186E-02
    0.4500000000E+02    0.3414211326E-04    0.6663661079E+00    0.2733384764E-04    0.2329848115E-04    0.4224293233E-02
    0.4700000000E+02    0.3504561223E-04    0.6675739912E+00    0.2833611954E-04    0.2423825745E-04    0.4224263451E-02
    0.4900000000E+02    0.3595247488E-04    0.6686871366E+00    0.2933836887E-04    0.2517543286E-04    0.4224221337E-02
    0.1000000000E+02    0.1940677197E-04    0.5800473203E+00    0.1034085288E-04    0.6068900023E-05    0.4217353485E-02
    0.3000000000E+02    0.2751695987E-04    0.6524941895E+00    0.1983741625E-04    0.1614502243E-04    0.4223915176E-02
    0.5000000000E+02    0.3640706966E-04    0.6692115987E+00    0.2983944972E-04    0.2564309791E-04    0.4224196062E-02
    0.7000000000E+02    0.4561701235E-04    0.6766414209E+00    0.3984304666E-04    0.3489357101E-04    0.4223275309E-02
    0.9000000000E+02    0.5496326932E-04    0.6808408119E+00    0.4980230848E-04    0.4400978895E-04    0.4221891039E-02
    0.1100000000E+03    0.6438383738E-04    0.6835403658E+00    0.5972557256E-04    0.5304905730E-04    0.4220271746E-02
    0.1300000000E+03    0.7385590740E-04    0.6854218296E+00    0.6962805181E-04    0.6204583536E-04    0.4218513205E-02
    0.1500000000E+03    0.8337143367E-04    0.6868081358E+00    0.7952401917E-04    0.7102310182E-04    0.4216663031E-02
    0.1700000000E+03    0.9292854964E-04    0.6878720155E+00    0.8942562947E-04    0.7999729316E-04    0.4214747641E-02
    0.1900000000E+03    0.1025281348E-03    0.6887142284E+00    0.9934305847E-04    0.8898078691E-04    0.4212782858E-02
    0.2100000000E+03    0.1121723107E-03    0.6893975117E+00    0.1092848635E-03    0.9798328244E-04    0.4210778695E-02
    0.2300000000E+03    0.1218637404E-03    0.6899629688E+00    0.1192583227E-03    0.1070126275E-03    0.4208741757E-02
    0.2500000000E+03    0.1316052891E-03    0.6904386544E+00    0.1292697095E-03    0.1160753420E-03    0.4206676533E-02
    0.2700000000E+03    0.1413998574E-03    0.6908443718E+00    0.1393245047E-03    0.1251769656E-03    0.4204586147E-02
    0.2900000000E+03    0.1512503009E-03    0.6911944987E+00    0.1494275592E-03    0.1343222966E-03    0.4202472805E-02
    0.3100000000E+03    0.1611593938E-03    0.6914997259E+00    0.1595832190E-03    0.1435155611E-03    0.4200338077E-02
    0.3300000000E+03    0.1711298151E-03    0.6917681685E+00    0.1697954217E-03    0.1527605375E-03    0.4198183087E-02
    0.3500000000E+03    0.1811641473E-03    0.6920060969E+00    0.1800677726E-03    0.1620606476E-03    0.4196008632E-02
    0.3700000000E+03    0.1912648808E-03    0.6922184330E+00    0.1904036038E-03    0.1714190271E-03    0.4193815268E-02
    0.3900000000E+03    0.2014344213E-03    0.6924090944E+00    0.2008060225E-03    0.1808385792E-03    0.4191603370E-02
    0.4100000000E+03    0.2116750984E-03    0.6925812378E+00    0.2112779492E-03    0.1903220176E-03    0.4189373177E-02
    0.4300000000E+03    0.2219891743E-03    0.6927374354E+00    0.2218221487E-03    0.1998718995E-03    0.4187124821E-02
    0.4500000000E+03    0.2323788521E-03    0.6928798042E+00    0.2324412565E-03    0.2094906535E-03    0.4184858348E-02
    0.4700000000E+03    0.2428462844E-03    0.6930101022E+00    0.2431377993E-03    0.2191806014E-03    0.4182573740E-02
    0.4900000000E+03    0.2533935800E-03    0.6931298016E+00    0.2539142133E-03    0.2289439764E-03    0.4180270925E-02
    0.1000000000E+03    0.5966619928E-04    0.6823229271E+00    0.5476750129E-04    0.4853653363E-04    0.4221103133E-02
    0.3000000000E+03    0.1561973464E-03    0.6913521672E+00    0.1544985588E-03    0.1389126917E-03    0.4201408035E-02
    0.5000000000E+03    0.2586978254E-03    0.6931860727E+00    0.2593331124E-03    0.2338538766E-03    0.4179112655E-02
    0.7000000000E+03    0.3694700254E-03    0.6939746617E+00    0.3724545097E-03    0.3364090143E-03    0.4154946489E-02
    0.9000000000E+03    0.4905228835E-03    0.6944133307E+00    0.4960602300E-03    0.4485833787E-03    0.4128679856E-02
    0.1100000000E+04    0.6239260173E-03    0.6946926310E+00    0.6323184684E-03    0.5723529576E-03    0.4099955228E-02
    0.1300000000E+04    0.7720195925E-03    0.6948860229E+00    0.7836522729E-03    0.7099302413E-03    0.4068336633E-02
    0.1500000000E+04    0.9375690349E-03    0.6950278354E+00    0.9529149286E-03    0.8639248902E-03    0.4033300564E-02
    0.1700000000E+04    0.1123923632E-02    0.6951362595E+00    0.1143558808E-02    0.1037498396E-02    0.3994213134E-02
    0.1900000000E+04    0.1335207274E-02    0.6952218332E+00    0.1359834550E-02    0.1234547020E-02    0.3950298228E-02
    0.2100000000E+04    0.1576563742E-02    0.6952910830E+00    0.1607045823E-02    0.1459936272E-02    0.3900595318E-02
    0.2300000000E+04    0.1854481388E-02    0.6953482666E+00    0.1891886198E-02    0.1719811491E-02    0.3843903768E-02
    0.2500000000E+04    0.2177228452E-02    0.6953962799E+00    0.2222891030E-02    0.2022015053E-02    0.3778709154E-02
    0.2700000000E+04    0.2555438623E-02    0.6954371612E+00    0.2611046044E-02    0.2376649165E-02    0.3703086207E-02
    0.2900000000E+04    0.3002893822E-02    0.6954723863E+00    0.3070602400E-02    0.2796831050E-02    0.3614572736E-02
    0.3100000000E+04    0.3537549261E-02    0.6955030507E+00    0.3620146884E-02    0.3299687173E-02    0.3510011375E-02
    0.3300000000E+04    0.4182812628E-02    0.6955299840E+00    0.4283943169E-02    0.3907604446E-02    0.3385365460E-02
    0.3500000000E+04    0.4968971357E-02    0.6955538262E+00    0.5093440846E-02    0.4649649052E-02    0.3235542318E-02
    0.3700000000E+04    0.5934339479E-02    0.6955750792E+00    0.6088519517E-02    0.5562763964E-02    0.3054323049E-02
    0.3900000000E+04    0.7124938480E-02    0.6955941416E+00    0.7317256854E-02    0.6691643764E-02    0.2834640519E-02
    0.4100000000E+04    0.8590032817E-02    0.6956113343E+00    0.8831463796E-02    0.8084761716E-02    0.2569705072E-02
    0.4300000000E+04    0.1036874995E-01    0.6956269187E+00    0.1067304282E-01    0.9781988156E-02    0.2255780862E-02
    0.4500000000E+04    0.1246277859E-01    0.6956411093E+00    0.1284589458E-01    0.1178885747E-01    0.1897248090E-02
    0.4700000000E+04    0.1479920746E-01    0.6956540845E+00    0.1527731873E-01    0.1404088667E-01    0.1512628604E-02
    0.4900000000E+04    0.1721193352E-01    0.6956659933E+00    0.1779801088E-01    0.1638446668E-01    0.1135923678E-02
    0.1000000000E+04    0.5555426294E-03    0.6945669359E+00    0.5624645304E-03    0.5088880591E-03    0.4114650190E-02
    0.3000000000E+04    0.3258002867E-02    0.6954882316E+00    0.3332760102E-02    0.3036665227E-02    0.3564527476E-02
    0.5000000000E+04    0.1837859624E-01    0.6956715878E+00    0.1902159772E-01    0.1752631188E-01    0.9631004667E-03
    0.7000000000E+04    0.2906718879E-01    0.6957496809E+00    0.3072781535E-01    0.2890097538E-01    0.9281602228E-04
    0.9000000000E+04    0.3404980239E-01    0.6957927798E+00    0.3675897657E-01    0.3528001992E-01    0.8957518703E-04
    0.1100000000E+05    0.3811532337E-01    0.6958200188E+00    0.4198204670E-01    0.4107239207E-01    0.9056166900E-04
    0.1300000000E+05    0.4148059155E-01    0.6958387440E+00    0.4657566172E-01    0.4640405354E-01    0.9140740139E-04
    0.1500000000E+05    0.4428520626E-01    0.6958523771E+00    0.5065154562E-01    0.5134933919E-01    0.9213808712E-04
    0.1700000000E+05    0.4663516651E-01    0.6958627260E+00    0.5429591547E-01    0.5596638683E-01    0.9278186770E-04
    0.1900000000E+05    0.4861234655E-01    0.6958708352E+00    0.5757648871E-01    0.6030148453E-01    0.9335766509E-04
    0.2100000000E+05    0.5028088915E-01    0.6958773499E+00    0.6054722098E-01    0.6439200357E-01    0.9387878599E-04
    0.2300000000E+05    0.5169168318E-01    0.6958826902E+00    0.6325165568E-01    0.6826849305E-01    0.9435495098E-04
    0.2500000000E+05    0.5288556069E-01    0.6958871410E+00    0.6572533854E-01    0.7195620495E-01    0.9479348135E-04
    0.2700000000E+05    0.5389561917E-01    0.6958909023E+00    0.6799758828E-01    0.7547622332E-01    0.9520003153E-04
    0.2900000000E+05    0.5474893458E-01    0.6958941187E+00    0.7009281547E-01    0.7884631320E-01    0.9557906115E-04
    0.3100000000E+05    0.5546784288E-01    0.6958968973E+00    0.7203151858E-01    0.8208156768E-01    0.9593415079E-04
    0.3300000000E+05    0.5607091091E-01    0.6958993189E+00    0.7383104611E-01    0.8519490732E-01    0.9626821955E-04
    0.3500000000E+05    0.5657368066E-01    0.6959014458E+00    0.7550618642E-01    0.8819747011E-01    0.9658367922E-04
    0.3700000000E+05    0.5698924582E-01    0.6959033267E+00    0.7706962921E-01    0.9109891906E-01    0.9688254575E-04
    0.3900000000E+05    0.5732870292E-01    0.6959050002E+00    0.7853233012E-01    0.9390768733E-01    0.9716652179E-04
    0.4100000000E+05    0.5760150749E-01    0.6959064973E+00    0.7990380147E-01    0.9663117521E-01    0.9743705860E-04
    0.4300000000E+05    0.5781575762E-01    0.6959078432E+00    0.8119234608E-01    0.9927590983E-01    0.9769540345E-04
    0.4500000000E+05    0.5797842153E-01    0.6959090585E+00    0.8240524670E-01    0.1018476755E+00    0.9794263626E-04
    0.4700000000E+05    0.5809552144E-01    0.6959101605E+00    0.8354892073E-01    0.1043516213E+00    0.9817969839E-04
    0.4900000000E+05    0.5817228332E-01    0.6959111632E+00    0.8462904739E-01    0.1067923493E+00    0.9840741546E-04
    0.1000000000E+05    0.3618050281E-01    0.6958077846E+00    0.3945745395E-01    0.3823925615E-01    0.9008383305E-04
    0.3000000000E+05    0.5512395051E-01    0.6958955571E+00    0.7108058205E-01    0.8047994144E-01    0.9575940257E-04
    0.5000000000E+05    0.5819698349E-01    0.6959116312E+00    0.8514687963E-01    0.1079903139E+00    0.9851800054E-04
    0.7000000000E+05    0.5741578283E-01    0.6959178950E+00    0.9313913828E-01    0.1294413423E+00    0.1003780678E-03
    0.9000000000E+05    0.5542466325E-01    0.6959210241E+00    0.9819544927E-01    0.1474865350E+00    0.1017901630E-03
    0.1100000000E+06    0.5305606166E-01    0.6959227894E+00    0.1015655487E+00    0.1632865459E+00    0.1029319124E-03
    0.1300000000E+06    0.5062169176E-01    0.6959238536E+00    0.1038608021E+00    0.1774586355E+00    0.1038921367E-03
    0.1500000000E+06    0.4824792900E-01    0.6959245171E+00    0.1054221480E+00    0.1903746520E+00    0.1047217864E-03
    0.1700000000E+06    0.4598599285E-01    0.6959249343E+00    0.1064577541E+00    0.2022788203E+00    0.1054528617E-03
    0.1900000000E+06    0.4385406246E-01    0.6959251919E+00    0.1071034096E+00    0.2133420108E+00    0.1061068049E-03
    0.2100000000E+06    0.4185514156E-01    0.6959253421E+00    0.1074522380E+00    0.2236896526E+00    0.1066987004E-03
    0.2300000000E+06    0.3998521231E-01    0.6959254176E+00    0.1075706417E+00    0.2334173399E+00    0.1072395706E-03
    0.2500000000E+06    0.3823714856E-01    0.6959254401E+00    0.1075074609E+00    0.2426001468E+00    0.1077377195E-03
    0.2700000000E+06    0.3660265276E-01    0.6959254241E+00    0.1072995329E+00    0.2512984888E+00    0.1081995616E-03
    0.2900000000E+06    0.3507322472E-01    0.6959253799E+00    0.1069752213E+00    0.2595619753E+00    0.1086301569E-03
    0.3100000000E+06    0.3364063913E-01    0.6959253148E+00    0.1065567437E+00    0.2674320351E+00    0.1090335686E-03
    0.3300000000E+06    0.3229716735E-01    0.6959252342E+00    0.1060617560E+00    0.2749437631E+00    0.1094131097E-03
    0.3500000000E+06    0.3103566465E-01    0.6959251420E+00    0.1055044619E+00    0.2821272533E+00    0.1097715175E-03
    0.3700000000E+06    0.2984958685E-01    0.6959250410E+00    0.1048964067E+00    0.2890085842E+00    0.1101110807E-03
    0.3900000000E+06    0.2873297085E-01    0.6959249336E+00    0.1042470595E+00    0.2956105621E+00    0.1104337319E-03
    0.4100000000E+06    0.2768039773E-01    0.6959248215E+00    0.1035642461E+00    0.3019532917E+00    0.1107411189E-03
    0.4300000000E+06    0.2668694883E-01    0.6959247059E+00    0.1028544768E+00    0.3080546216E+00    0.1110346578E-03
    0.4500000000E+06    0.2574816033E-01    0.6959245880E+00    0.1021231985E+00    0.3139304967E+00    0.1113155747E-03
    0.4700000000E+06    0.2485997923E-01    0.6959244686E+00    0.1013749906E+00    0.3195952408E+00    0.1115849387E-03
    0.4900000000E+06    0.2401872219E-01    0.6959243482E+00    0.1006137192E+00    0.3250617857E+00    0.1118436872E-03
    0.1000000000E+06    0.5426158139E-01    0.6959220230E+00    0.1000441941E+00    0.1556207370E+00    0.1023880447E-03
    0.3000000000E+06    0.3434532278E-01    0.6959253496E+00    0.1067765576E+00    0.2635438593E+00    0.1088350384E-03
    0.5000000000E+06    0.2361463088E-01    0.6959242878E+00    0.1002292284E+00    0.3277244410E+00    0.1119693429E-03
    0.7000000000E+06    0.1732625112E-01    0.6959231093E+00    0.9242675226E-01    0.3729276643E+00    0.1140829850E-03
    0.9000000000E+06    0.1329265938E-01    0.6959220498E+00    0.8510198558E-01    0.4070229906E+00    0.1156876661E-03
    0.1100000000E+07    0.1053714005E-01    0.6959211155E+00    0.7857426500E-01    0.4338297974E+00    0.1169851670E-03
    0.1300000000E+07    0.8565582971E-02    0.6959202870E+00    0.7283619330E-01    0.4555288980E+00    0.1180763991E-03
    0.1500000000E+07    0.7103792033E-02    0.6959195450E+00    0.6780037458E-01    0.4734849496E+00    0.1190192528E-03
    0.1700000000E+07    0.5988738613E-02    0.6959188740E+00    0.6336805777E-01    0.4886055474E+00    0.1198500889E-03
    0.1900000000E+07    0.5118167805E-02    0.6959182620E+00    0.5944886450E-01    0.5015217645E+00    0.1205932723E-03
    0.2100000000E+07    0.4425138696E-02    0.6959176996E+00    0.5596536340E-01    0.5126877686E+00    0.1212659439E-03
    0.2300000000E+07    0.3864260566E-02    0.6959171793E+00    0.5285281911E-01    0.5224395954E+00    0.1218806291E-03
    0.2500000000E+07    0.3403834702E-02    0.6959166952E+00    0.5005755512E-01    0.5310316445E+00    0.1224467643E-03
    0.2700000000E+07    0.3021161271E-02    0.6959162426E+00    0.4753510619E-01    0.5386602839E+00    0.1229716389E-03
    0.2900000000E+07    0.2699628220E-02    0.6959158177E+00    0.4524854182E-01    0.5454796363E+00    0.1234610032E-03
    0.3100000000E+07    0.2426846138E-02    0.6959154171E+00    0.4316705620E-01    0.5516124367E+00    0.1239194746E-03
    0.3300000000E+07    0.2193419251E-02    0.6959150382E+00    0.4126481954E-01    0.5571576819E+00    0.1243508179E-03
    0.3500000000E+07    0.1992115482E-02    0.6959146787E+00    0.3952005510E-01    0.5621961342E+00    0.1247581442E-03
    0.3700000000E+07    0.1817293676E-02    0.6959143367E+00    0.3791430100E-01    0.5667943529E+00    0.1251440541E-03
    0.3900000000E+07    0.1664500605E-02    0.6959140105E+00    0.3643181992E-01    0.5710076971E+00    0.1255107441E-03
    0.4100000000E+07    0.1530182447E-02    0.6959136988E+00    0.3505912585E-01    0.5748825947E+00    0.1258600867E-03
    0.4300000000E+07    0.1411474974E-02    0.6959134002E+00    0.3378460319E-01    0.5784582784E+00    0.1261936913E-03
    0.4500000000E+07    0.1306048786E-02    0.6959131137E+00    0.3259819872E-01    0.5817681320E+00    0.1265129515E-03
    0.4700000000E+07    0.1211993656E-02    0.6959128383E+00    0.3149117127E-01    0.5848407430E+00    0.1268190818E-03
    0.4900000000E+07    0.1127731076E-02    0.6959125731E+00    0.3045588712E-01    0.5877007363E+00    0.1271131480E-03
    0.1000000000E+07    0.1179311632E-01    0.6959215682E+00    0.8173563821E-01    0.4211758288E+00    0.1163671043E-03
    0.3000000000E+07    0.2557789453E-02    0.6959156145E+00    0.4418388334E-01    0.5486251849E+00    0.1236938479E-03
    0.5000000000E+07    0.1088852626E-02    0.6959124441E+00    0.2996302410E-01    0.5890577794E+00    0.1272559550E-03
    0.7000000000E+07    0.5991320007E-03    0.6959102576E+00    0.2261491598E-01    0.6089649287E+00    0.1296581011E-03
    0.9000000000E+07    0.3781798828E-03    0.6959085799E+00    0.1814137562E-01    0.6208085636E+00    0.1314818180E-03
    0.1100000000E+08    0.2600917092E-03    0.6959072149E+00    0.1513557634E-01    0.6286596512E+00    0.1329564261E-03
    0.1300000000E+08    0.1897006201E-03    0.6959060621E+00    0.1297857041E-01    0.6342440076E+00    0.1341966105E-03
    0.1500000000E+08    0.1444076511E-03    0.6959050631E+00    0.1135607892E-01    0.6384183820E+00    0.1352681629E-03
    0.1700000000E+08    0.1135662177E-03    0.6959041808E+00    0.1009174402E-01    0.6416562627E+00    0.1362124074E-03
    0.1900000000E+08    0.9162806137E-04    0.6959033902E+00    0.9079013423E-02    0.6442405878E+00    0.1370570345E-03
    0.2100000000E+08    0.7547180134E-04    0.6959026736E+00    0.8249739358E-02    0.6463508138E+00    0.1378215250E-03
    0.2300000000E+08    0.6323246085E-04    0.6959020180E+00    0.7558319024E-02    0.6481062472E+00    0.1385201139E-03
    0.2500000000E+08    0.5374022691E-04    0.6959014135E+00    0.6973090472E-02    0.6495892886E+00    0.1391635257E-03
    0.2700000000E+08    0.4623128134E-04    0.6959008527E+00    0.6471387439E-02    0.6508586736E+00    0.1397600449E-03
