  Pressure (Pa) 22mC5-500 (mol/kg) 24mC5-500 (mol/kg) 2mC6-500 (mol/kg) 3mC6-500 (mol/kg) C7-500 (mol/kg)
    0.1000000000E+01    0.9143462684E-05    0.2321333756E+00    0.7126936132E-05    0.2041058345E-05    0.4145532857E-02
    0.3000000000E+01    0.1520490725E-04    0.4177370145E+00    0.1141534102E-04    0.5034838624E-05    0.4168768873E-02
    0.5000000000E+01    0.1753340425E-04    0.4972554178E+00    0.1333176936E-04    0.7746583193E-05    0.4174175450E-02
    0.7000000000E+01    0.1893419973E-04    0.5414263090E+00    0.1488064634E-04    0.1032424444E-04    0.4176469816E-02
    0.9000000000E+01    0.2003088526E-04    0.5695330897E+00    0.1639110780E-04    0.1281674615E-04    0.4177609412E-02
    0.1100000000E+02    0.2101753816E-04    0.5889908470E+00    0.1792896770E-04    0.1524831702E-04    0.4178188509E-02
    0.1300000000E+02    0.2196605335E-04    0.6032595185E+00    0.1950348872E-04    0.1763327652E-04    0.4178452661E-02
    0.1500000000E+02    0.2290569777E-04    0.6141706864E+00    0.2111080620E-04    0.1998101010E-04    0.4178522457E-02
    0.1700000000E+02    0.2384883702E-04    0.6227846815E+00    0.2274471940E-04    0.2229810672E-04    0.4178464194E-02
    0.1900000000E+02    0.2480055850E-04    0.6297578723E+00    0.2439946755E-04    0.2458942532E-04    0.4178317360E-02
    0.2100000000E+02    0.2576265510E-04    0.6355183130E+00    0.2607031536E-04    0.2685868418E-04    0.4178106939E-02
    0.2300000000E+02    0.2673539774E-04    0.6403570735E+00    0.2775353004E-04    0.2910881230E-04    0.4177849500E-02
    0.2500000000E+02    0.2771836512E-04    0.6444789775E+00    0.2944621332E-04    0.3134217117E-04    0.4177556449E-02
    0.2700000000E+02    0.2871084498E-04    0.6480323434E+00    0.3114612465E-04    0.3356070148E-04    0.4177235890E-02
    0.2900000000E+02    0.2971203088E-04    0.6511272129E+00    0.3285153152E-04    0.3576602379E-04    0.4176893727E-02
    0.3100000000E+02    0.3072111796E-04    0.6538469501E+00    0.3456109155E-04    0.3795950987E-04    0.4176534360E-02
    0.3300000000E+02    0.3173734760E-04    0.6562558641E+00    0.3627376194E-04    0.4014233450E-04    0.4176161128E-02
    0.3500000000E+02    0.3276002582E-04    0.6584043589E+00    0.3798873088E-04    0.4231551406E-04    0.4175776605E-02
    0.3700000000E+02    0.3378852840E-04    0.6603324994E+00    0.3970536544E-04    0.4447993575E-04    0.4175382808E-02
    0.3900000000E+02    0.3482229924E-04    0.6620725324E+00    0.4142317205E-04    0.4663638015E-04    0.4174981334E-02
    0.4100000000E+02    0.3586084574E-04    0.6636507055E+00    0.4314176633E-04    0.4878553889E-04    0.4174573460E-02
    0.4300000000E+02    0.3690373283E-04    0.6650886001E+00    0.4486084983E-04    0.5092802864E-04    0.4174160222E-02
    0.4500000000E+02    0.3795057685E-04    0.6664041238E+00    0.4658019216E-04    0.5306440243E-04    0.4173742463E-02
    0.4700000000E+02    0.3900103959E-04    0.6676122609E+00    0.4829961704E-04    0.5519515874E-04    0.4173320879E-02
    0.4900000000E+02    0.4005482288E-04    0.6687256449E+00    0.5001899142E-04    0.5732074904E-04    0.4172896043E-02
    0.1000000000E+02    0.2053196963E-04    0.5800727815E+00    0.1715548982E-04    0.1403910021E-04    0.4177949372E-02
    0.3000000000E+02    0.3021563557E-04    0.6525295769E+00    0.3370586369E-04    0.3686416883E-04    0.4176715965E-02
    0.5000000000E+02    0.4058287629E-04    0.6692502210E+00    0.5087862775E-04    0.5838173671E-04    0.4172682559E-02
    0.7000000000E+02    0.5126893016E-04    0.6766818018E+00    0.6805688572E-04    0.7941325118E-04    0.4168324557E-02
    0.9000000000E+02    0.6212121060E-04    0.6808823563E+00    0.8521697400E-04    0.1002376889E-03    0.4163897657E-02
    0.1100000000E+03    0.7309336745E-04    0.6835827645E+00    0.1023943300E-03    0.1209962658E-03    0.4159455275E-02
    0.1300000000E+03    0.8417238509E-04    0.6854648972E+00    0.1196261761E-03    0.1417746755E-03    0.4155008970E-02
    0.1500000000E+03    0.9535723151E-04    0.6868517502E+00    0.1369442837E-03    0.1626309997E-03    0.4150558757E-02
    0.1700000000E+03    0.1066515643E-03    0.6879160910E+00    0.1543750860E-03    0.1836077536E-03    0.4146101158E-02
    0.1900000000E+03    0.1180609269E-03    0.6887587018E+00    0.1719408025E-03    0.2047379092E-03    0.4141631732E-02
    0.2100000000E+03    0.1295915855E-03    0.6894423345E+00    0.1896604772E-03    0.2260482299E-03    0.4137145949E-02
    0.2300000000E+03    0.1412500287E-03    0.6900081030E+00    0.2075507789E-03    0.2475612588E-03    0.4132639483E-02
    0.2500000000E+03    0.1530427522E-03    0.6904840692E+00    0.2256265935E-03    0.2692965765E-03    0.4128108294E-02
    0.2700000000E+03    0.1649761750E-03    0.6908900420E+00    0.2439014624E-03    0.2912716327E-03    0.4123548635E-02
    0.2900000000E+03    0.1770566144E-03    0.6912404030E+00    0.2623879082E-03    0.3135023196E-03    0.4118957019E-02
    0.3100000000E+03    0.1892902897E-03    0.6915458466E+00    0.2810976811E-03    0.3360033787E-03    0.4114330187E-02
    0.3300000000E+03    0.2016833390E-03    0.6918144900E+00    0.3000419470E-03    0.3587886981E-03    0.4109665075E-02
    0.3500000000E+03    0.2142418399E-03    0.6920526059E+00    0.3192314350E-03    0.3818715358E-03    0.4104958778E-02
    0.3700000000E+03    0.2269718325E-03    0.6922651179E+00    0.3386765536E-03    0.4052646903E-03    0.4100208523E-02
    0.3900000000E+03    0.2398793415E-03    0.6924559449E+00    0.3583874840E-03    0.4289806346E-03    0.4095411648E-02
    0.4100000000E+03    0.2529703975E-03    0.6926282447E+00    0.3783742564E-03    0.4530316227E-03    0.4090565574E-02
    0.4300000000E+03    0.2662510566E-03    0.6927845905E+00    0.3986468133E-03    0.4774297765E-03    0.4085667792E-02
    0.4500000000E+03    0.2797274184E-03    0.6929271001E+00    0.4192150626E-03    0.5021871571E-03    0.4080715846E-02
    0.4700000000E+03    0.2934056438E-03    0.6930575323E+00    0.4400889234E-03    0.5273158256E-03    0.4075707319E-02
    0.4900000000E+03    0.3072919699E-03    0.6931773598E+00    0.4612783649E-03    0.5528278945E-03    0.4070639820E-02
    0.1000000000E+03    0.6759353941E-04    0.6823649276E+00    0.9380105723E-04    0.1106189981E-03    0.4161677240E-02
    0.3000000000E+03    0.1831539122E-03    0.6913981818E+00    0.2717141691E-03    0.3247181675E-03    0.4116648201E-02
    0.5000000000E+03    0.3143151445E-03    0.6932336929E+00    0.4719945662E-03    0.5657315144E-03    0.4068083215E-02
    0.7000000000E+03    0.4673304874E-03    0.6940233015E+00    0.7054453978E-03    0.8470379493E-03    0.4013270372E-02
    0.9000000000E+03    0.6495014598E-03    0.6944627220E+00    0.9834738554E-03    0.1182486299E-02    0.3949695816E-02
    0.1100000000E+04    0.8704830200E-03    0.6947426190E+00    0.1320976256E-02    0.1590175031E-02    0.3874314966E-02
    0.1300000000E+04    0.1143747601E-02    0.6949365068E+00    0.1738698238E-02    0.2095344047E-02    0.3783055711E-02
    0.1500000000E+04    0.1488701664E-02    0.6950787442E+00    0.2266532071E-02    0.2734409497E-02    0.3670217738E-02
    0.1700000000E+04    0.1933950836E-02    0.6951875402E+00    0.2948587248E-02    0.3561183852E-02    0.3527616129E-02
    0.1900000000E+04    0.2522255153E-02    0.6952734450E+00    0.3850906133E-02    0.4656376062E-02    0.3343376885E-02
    0.2100000000E+04    0.3317251738E-02    0.6953429933E+00    0.5072007733E-02    0.6140667950E-02    0.3100526827E-02
    0.2300000000E+04    0.4409120860E-02    0.6954004488E+00    0.6752039711E-02    0.8186377839E-02    0.2776530846E-02
    0.2500000000E+04    0.5905531938E-02    0.6954487119E+00    0.9059688673E-02    0.1100253206E-01    0.2348163962E-02
    0.2700000000E+04    0.7869824295E-02    0.6954898241E+00    0.1209815435E-01    0.1472169254E-01    0.1812110011E-02
    0.2900000000E+04    0.1017408718E-01    0.6955252642E+00    0.1567863975E-01    0.1912362971E-01    0.1225292021E-02
    0.3100000000E+04    0.1242278286E-01    0.6955561296E+00    0.1919774541E-01    0.2347996007E-01    0.7116998984E-03
    0.3300000000E+04    0.1423454512E-01    0.6955832517E+00    0.2206558142E-01    0.2706884995E-01    0.3667210257E-03
    0.3500000000E+04    0.1555236608E-01    0.6956072721E+00    0.2418682437E-01    0.2976524669E-01    0.1812011694E-03
    0.3700000000E+04    0.1652919592E-01    0.6956286936E+00    0.2579142254E-01    0.3184277599E-01    0.9435131011E-04
    0.3900000000E+04    0.1731655386E-01    0.6956479160E+00    0.2711033755E-01    0.3358012270E-01    0.5641784137E-04
    0.4100000000E+04    0.1800450384E-01    0.6956652610E+00    0.2828153423E-01    0.3514459563E-01    0.4034171583E-04
    0.4300000000E+04    0.1863761611E-01    0.6956809907E+00    0.2937342539E-01    0.3661934492E-01    0.3361572857E-04
    0.4500000000E+04    0.1923653767E-01    0.6956953203E+00    0.3041766449E-01    0.3804281741E-01    0.3082659258E-04
    0.4700000000E+04    0.1981074526E-01    0.6957084286E+00    0.3142867978E-01    0.3943243670E-01    0.2968851034E-04
    0.4900000000E+04    0.2036472712E-01    0.6957204652E+00    0.3241318689E-01    0.4079618743E-01    0.2924332644E-04
    0.1000000000E+04    0.7544088559E-03    0.6946166407E+00    0.1143663375E-02    0.1375929709E-02    0.3913705499E-02
    0.3000000000E+04    0.1133503733E-01    0.6955412116E+00    0.1749148735E-01    0.2136302757E-01    0.9511387002E-03
    0.5000000000E+04    0.2063489552E-01    0.6957261218E+00    0.3289660709E-01    0.4146964206E-01    0.2914382614E-04
    0.7000000000E+04    0.2525784020E-01    0.6958052562E+00    0.4155561825E-01    0.5399172071E-01    0.2943920749E-04
    0.9000000000E+04    0.2871097431E-01    0.6958491432E+00    0.4866565311E-01    0.6503899457E-01    0.2985411811E-04
    0.1100000000E+05    0.3131607515E-01    0.6958770184E+00    0.5460487875E-01    0.7493752512E-01    0.3018951189E-04
    0.1300000000E+05    0.3329129263E-01    0.6958962781E+00    0.5963581000E-01    0.8391787327E-01    0.3047150472E-04
    0.1500000000E+05    0.3478954173E-01    0.6959103726E+00    0.6394724518E-01    0.9214920357E-01    0.3071510497E-04
    0.1700000000E+05    0.3592072663E-01    0.6959211278E+00    0.6767850483E-01    0.9975878150E-01    0.3092973228E-04
    0.1900000000E+05    0.3676554695E-01    0.6959296003E+00    0.7093469625E-01    0.1068444344E+00    0.3112169515E-04
    0.2100000000E+05    0.3738436369E-01    0.6959364437E+00    0.7379665279E-01    0.1134827805E+00    0.3129542980E-04
    0.2300000000E+05    0.3782305801E-01    0.6959420843E+00    0.7632759531E-01    0.1197348196E+00    0.3145417689E-04
    0.2500000000E+05    0.3811700101E-01    0.6959468115E+00    0.7857771106E-01    0.1256498265E+00    0.3160037722E-04
    0.2700000000E+05    0.3829380361E-01    0.6959508291E+00    0.8058737192E-01    0.1312681221E+00    0.3173591585E-04
    0.2900000000E+05    0.3837525902E-01    0.6959542844E+00    0.8238944174E-01    0.1366230847E+00    0.3186227958E-04
    0.3100000000E+05    0.3837873917E-01    0.6959572868E+00    0.8401096002E-01    0.1417426352E+00    0.3198066208E-04
    0.3300000000E+05    0.3831821444E-01    0.6959599189E+00    0.8547439042E-01    0.1466503513E+00    0.3209203655E-04
    0.3500000000E+05    0.3820500904E-01    0.6959622445E+00    0.8679856006E-01    0.1513663149E+00    0.3219720703E-04
    0.3700000000E+05    0.3804836780E-01    0.6959643137E+00    0.8799937541E-01    0.1559077655E+00    0.3229684562E-04
    0.3900000000E+05    0.3785588654E-01    0.6959661661E+00    0.8909037469E-01    0.1602896097E+00    0.3239151993E-04
    0.4100000000E+05    0.3763384227E-01    0.6959678336E+00    0.9008315870E-01    0.1645248223E+00    0.3248171380E-04
    0.4300000000E+05    0.3738744923E-01    0.6959693423E+00    0.9098773027E-01    0.1686247665E+00    0.3256784305E-04
    0.4500000000E+05    0.3712105908E-01    0.6959707133E+00    0.9181276438E-01    0.1725994501E+00    0.3265026771E-04
    0.4700000000E+05    0.3683831887E-01    0.6959719646E+00    0.9256582473E-01    0.1764577342E+00    0.3272930161E-04
    0.4900000000E+05    0.3654229656E-01    0.6959731107E+00    0.9325353906E-01    0.1802075028E+00    0.3280522000E-04
    0.1000000000E+05    0.3010402503E-01    0.6958644813E+00    0.5176311322E-01    0.7011570916E-01    0.3002976220E-04
    0.3000000000E+05    0.3838580306E-01    0.6959558365E+00    0.8322127087E-01    0.1392107221E+00    0.3192240317E-04
    0.5000000000E+05    0.3639013018E-01    0.6959736483E+00    0.9357474238E-01    0.1820439253E+00    0.3284208787E-04
    0.7000000000E+05    0.3309999586E-01    0.6959810833E+00    0.9767395220E-01    0.2144514665E+00    0.3346221525E-04
    0.9000000000E+05    0.2988131203E-01    0.6959851012E+00    0.9906482016E-01    0.2409430138E+00    0.3393299464E-04
    0.1100000000E+06    0.2699813331E-01    0.6959875851E+00    0.9906504305E-01    0.2634837578E+00    0.3431364406E-04
    0.1300000000E+06    0.2447445254E-01    0.6959892534E+00    0.9828518770E-01    0.2831367571E+00    0.3463377517E-04
    0.1500000000E+06    0.2227615080E-01    0.6959904389E+00    0.9704780903E-01    0.3005572057E+00    0.3491037415E-04
    0.1700000000E+06    0.2035842344E-01    0.6959913160E+00    0.9553841979E-01    0.3161852313E+00    0.3515410950E-04
    0.1900000000E+06    0.1867898431E-01    0.6959919850E+00    0.9387005622E-01    0.3303348627E+00    0.3537212982E-04
    0.2100000000E+06    0.1720129953E-01    0.6959925075E+00    0.9211440755E-01    0.3432402618E+00    0.3556946404E-04
    0.2300000000E+06    0.1589476754E-01    0.6959929232E+00    0.9031820854E-01    0.3550819710E+00    0.3574978694E-04
    0.2500000000E+06    0.1473402247E-01    0.6959932590E+00    0.8851247255E-01    0.3660028680E+00    0.3591586694E-04
    0.2700000000E+06    0.1369807513E-01    0.6959935335E+00    0.8671797341E-01    0.3761184053E+00    0.3606984259E-04
    0.2900000000E+06    0.1276951854E-01    0.6959937601E+00    0.8494864011E-01    0.3855234748E+00    0.3621340084E-04
    0.3100000000E+06    0.1193385642E-01    0.6959939487E+00    0.8321373210E-01    0.3942971810E+00    0.3634789631E-04
    0.3300000000E+06    0.1117895591E-01    0.6959941068E+00    0.8151927301E-01    0.4025062593E+00    0.3647443351E-04
    0.3500000000E+06    0.1049460796E-01    0.6959942399E+00    0.7986901773E-01    0.4102075886E+00    0.3659392509E-04
    0.3700000000E+06    0.9872175965E-02    0.6959943524E+00    0.7826511766E-01    0.4174500790E+00    0.3670713397E-04
    0.3900000000E+06    0.9304315073E-02    0.6959944479E+00    0.7670858570E-01    0.4242761150E+00    0.3681470456E-04
    0.4100000000E+06    0.8784747119E-02    0.6959945290E+00    0.7519962569E-01    0.4307226789E+00    0.3691718617E-04
    0.4300000000E+06    0.8308079594E-02    0.6959945981E+00    0.7373786855E-01    0.4368222375E+00    0.3701505092E-04
    0.4500000000E+06    0.7869659244E-02    0.6959946568E+00    0.7232254287E-01    0.4426034497E+00    0.3710870763E-04
    0.4700000000E+06    0.7465453067E-02    0.6959947066E+00    0.7095259924E-01    0.4480917390E+00    0.3719851264E-04
    0.4900000000E+06    0.7091951085E-02    0.6959947489E+00    0.6962680117E-01    0.4533097608E+00    0.3728477854E-04
    0.1000000000E+06    0.2839390672E-01    0.6959864764E+00    0.9919103920E-01    0.2526277583E+00    0.3413232316E-04
    0.3000000000E+06    0.1234088373E-01    0.6959938586E+00    0.8407644375E-01    0.3899848205E+00    0.3628170730E-04
    0.5000000000E+06    0.6915740358E-02    0.6959947675E+00    0.6898003600E-01    0.4558238402E+00    0.3732667176E-04
    0.7000000000E+06    0.4432009052E-02    0.6959949176E+00    0.5801420655E-01    0.4958740174E+00    0.3803135461E-04
    0.9000000000E+06    0.3084584762E-02    0.6959948666E+00    0.4992449288E-01    0.5230269987E+00    0.3856635286E-04
    0.1100000000E+07    0.2270960511E-02    0.6959947476E+00    0.4376127623E-01    0.5427069592E+00    0.3899893873E-04
    0.1300000000E+07    0.1741761746E-02    0.6959946045E+00    0.3892587155E-01    0.5576453077E+00    0.3936275550E-04
    0.1500000000E+07    0.1378162703E-02    0.6959944548E+00    0.3503746782E-01    0.5693789548E+00    0.3967710344E-04
    0.1700000000E+07    0.1117571036E-02    0.6959943056E+00    0.3184576486E-01    0.5788424081E+00    0.3995410504E-04
    0.1900000000E+07    0.9244305460E-03    0.6959941604E+00    0.2918053974E-01    0.5866377945E+00    0.4020188349E-04
    0.2100000000E+07    0.7773136715E-03    0.6959940203E+00    0.2692238683E-01    0.5931710475E+00    0.4042615346E-04
    0.2300000000E+07    0.6626774501E-03    0.6959938859E+00    0.2498523596E-01    0.5987260048E+00    0.4063109089E-04
    0.2500000000E+07    0.5716195046E-03    0.6959937573E+00    0.2330555471E-01    0.6035071985E+00    0.4081984183E-04
    0.2700000000E+07    0.4980918277E-03    0.6959936342E+00    0.2183546306E-01    0.6076657921E+00    0.4099483654E-04
    0.2900000000E+07    0.4378685645E-03    0.6959935164E+00    0.2053821348E-01    0.6113159459E+00    0.4115799214E-04
    0.3100000000E+07    0.3879246237E-03    0.6959934036E+00    0.1938514485E-01    0.6145454989E+00    0.4131084807E-04
    0.3300000000E+07    0.3460482560E-03    0.6959932954E+00    0.1835358111E-01    0.6174231491E+00    0.4145465953E-04
    0.3500000000E+07    0.3105920392E-03    0.6959931915E+00    0.1742535088E-01    0.6200034012E+00    0.4159046372E-04
    0.3700000000E+07    0.2803084961E-03    0.6959930917E+00    0.1658572451E-01    0.6223300549E+00    0.4171912766E-04
    0.3900000000E+07    0.2542389901E-03    0.6959929956E+00    0.1582263791E-01    0.6244387108E+00    0.4184138370E-04
    0.4100000000E+07    0.2316370362E-03    0.6959929031E+00    0.1512611694E-01    0.6263586042E+00    0.4195785613E-04
    0.4300000000E+07    0.2119143594E-03    0.6959928138E+00    0.1448784446E-01    0.6281139673E+00    0.4206908149E-04
    0.4500000000E+07    0.1946023018E-03    0.6959927276E+00    0.1390083057E-01    0.6297250555E+00    0.4217552438E-04
    0.4700000000E+07    0.1793237838E-03    0.6959926442E+00    0.1335915848E-01    0.6312089315E+00    0.4227758981E-04
    0.4900000000E+07    0.1657726432E-03    0.6959925635E+00    0.1285778648E-01    0.6325800703E+00    0.4237563301E-04
    0.1000000000E+07    0.2631124688E-02    0.6959948118E+00    0.4664595925E-01    0.5335917162E+00    0.3879287694E-04
    0.3000000000E+07    0.4117655443E-03    0.6959934594E+00    0.1994519429E-01    0.6129786218E+00    0.4123562333E-04
    0.5000000000E+07    0.1595646781E-03    0.6959925241E+00    0.1262083774E-01    0.6332272976E+00    0.4242324564E-04
    0.7000000000E+07    0.8396204925E-04    0.6959918438E+00    0.9214493440E-02    0.6424788001E+00    0.4322413578E-04
    0.9000000000E+07    0.5163476065E-04    0.6959913092E+00    0.7249030469E-02    0.6477742455E+00    0.4383217628E-04
    0.1100000000E+08    0.3491230639E-04    0.6959908680E+00    0.5970942646E-02    0.6512022224E+00    0.4432382272E-04
    0.1300000000E+08    0.2516115737E-04    0.6959904920E+00    0.5073811663E-02    0.6536015852E+00    0.4473731128E-04
    0.1500000000E+08    0.1898545663E-04    0.6959901639E+00    0.4409662553E-02    0.6553744140E+00    0.4509457714E-04
    0.1700000000E+08    0.1483021946E-04    0.6959898726E+00    0.3898316525E-02    0.6567374860E+00    0.4540939781E-04
    0.1900000000E+08    0.1190200224E-04    0.6959896105E+00    0.3492570644E-02    0.6578179679E+00    0.4569100550E-04
    0.2100000000E+08    0.9761638878E-05    0.6959893722E+00    0.3162833145E-02    0.6586953690E+00    0.4594589510E-04
    0.2300000000E+08    0.8150120597E-05    0.6959891535E+00    0.2889614742E-02    0.6594219470E+00    0.4617881267E-04
    0.2500000000E+08    0.6906696869E-05    0.6959889513E+00    0.2659558597E-02    0.6600334578E+00    0.4639333380E-04
    0.2700000000E+08    0.5927329228E-05    0.6959887634E+00    0.2463205429E-02    0.6605551906E+00    0.4659222056E-04
