  Pressure (Pa) 22mC5-500 (mol/kg) 24mC5-500 (mol/kg) 2mC6-500 (mol/kg) 3mC6-500 (mol/kg) C7-500 (mol/kg)
    0.1000000000E+01    0.1185435219E-04    0.9949525859E-01    0.1850210337E-04    0.1600509633E-05    0.4194205154E-02
    0.3000000000E+01    0.2622157335E-04    0.2320889742E+00    0.3923867556E-04    0.4093078287E-05    0.4243995317E-02
    0.5000000000E+01    0.3440099213E-04    0.3164295664E+00    0.5009642100E-04    0.6385518114E-05    0.4273939364E-02
    0.7000000000E+01    0.3953503114E-04    0.3748037735E+00    0.5656114141E-04    0.8581445972E-05    0.4294600013E-02
    0.9000000000E+01    0.4299933718E-04    0.4176043186E+00    0.6087505117E-04    0.1071584359E-04    0.4309789241E-02
    0.1100000000E+02    0.4547904188E-04    0.4503304985E+00    0.6407592694E-04    0.1280622238E-04    0.4321444644E-02
    0.1300000000E+02    0.4734712332E-04    0.4761650015E+00    0.6668531444E-04    0.1486300789E-04    0.4330675150E-02
    0.1500000000E+02    0.4882044305E-04    0.4970775581E+00    0.6898095812E-04    0.1689307121E-04    0.4338165211E-02
    0.1700000000E+02    0.5003164544E-04    0.5143525267E+00    0.7111694483E-04    0.1890125758E-04    0.4344361431E-02
    0.1900000000E+02    0.5106518066E-04    0.5288631416E+00    0.7318113805E-04    0.2089115328E-04    0.4349568163E-02
    0.2100000000E+02    0.5197658082E-04    0.5412238295E+00    0.7522441227E-04    0.2286551147E-04    0.4354000246E-02
    0.2300000000E+02    0.5280333896E-04    0.5518794793E+00    0.7727629782E-04    0.2482650697E-04    0.4357813820E-02
    0.2500000000E+02    0.5357132505E-04    0.5611601458E+00    0.7935369989E-04    0.2677589765E-04    0.4361125192E-02
    0.2700000000E+02    0.5429871246E-04    0.5693158557E+00    0.8146592192E-04    0.2871513147E-04    0.4364022842E-02
    0.2900000000E+02    0.5499845785E-04    0.5765394773E+00    0.8361763937E-04    0.3064542016E-04    0.4366575324E-02
    0.3100000000E+02    0.5567991038E-04    0.5829821722E+00    0.8581069941E-04    0.3256779145E-04    0.4368836606E-02
    0.3300000000E+02    0.5634988102E-04    0.5887640903E+00    0.8804522937E-04    0.3448312721E-04    0.4370849780E-02
    0.3500000000E+02    0.5701336782E-04    0.5939819354E+00    0.9032032855E-04    0.3639219177E-04    0.4372649684E-02
    0.3700000000E+02    0.5767405692E-04    0.5987144181E+00    0.9263450389E-04    0.3829565354E-04    0.4374264806E-02
    0.3900000000E+02    0.5833467432E-04    0.6030262549E+00    0.9498594564E-04    0.4019410161E-04    0.4375718675E-02
    0.4100000000E+02    0.5899723639E-04    0.6069711462E+00    0.9737270161E-04    0.4208805883E-04    0.4377030906E-02
    0.4300000000E+02    0.5966323054E-04    0.6105940241E+00    0.9979278654E-04    0.4397799220E-04    0.4378217983E-02
    0.4500000000E+02    0.6033374719E-04    0.6139327725E+00    0.1022442495E-03    0.4586432122E-04    0.4379293869E-02
    0.4700000000E+02    0.6100957692E-04    0.6170195567E+00    0.1047252142E-03    0.4774742465E-04    0.4380270475E-02
    0.4900000000E+02    0.6169128290E-04    0.6198818633E+00    0.1072339017E-03    0.4962764611E-04    0.4381158020E-02
    0.1000000000E+02    0.4433406288E-04    0.4349904682E+00    0.6257420746E-04    0.1176577397E-04    0.4315976239E-02
    0.3000000000E+02    0.5534099537E-04    0.5798503054E+00    0.8470896296E-04    0.3160753732E-04    0.4367739452E-02
    0.5000000000E+02    0.6203446691E-04    0.6212363532E+00    0.1084981150E-03    0.5056677503E-04    0.4381571202E-02
    0.7000000000E+02    0.6924733750E-04    0.6408413008E+00    0.1348924800E-03    0.6926154942E-04    0.4386779095E-02
    0.9000000000E+02    0.7707690444E-04    0.6522780315E+00    0.1627853053E-03    0.8790619752E-04    0.4388510420E-02
    0.1100000000E+03    0.8540500556E-04    0.6597712910E+00    0.1916731240E-03    0.1066116444E-03    0.4388436905E-02
    0.1300000000E+03    0.9413747147E-04    0.6650607481E+00    0.2213253304E-03    0.1254470618E-03    0.4387275147E-02
    0.1500000000E+03    0.1032118894E-03    0.6689939685E+00    0.2516323512E-03    0.1444609028E-03    0.4385386908E-02
    0.1700000000E+03    0.1125879444E-03    0.6720332779E+00    0.2825427083E-03    0.1636900114E-03    0.4382975745E-02
    0.1900000000E+03    0.1222397067E-03    0.6744523070E+00    0.3140349950E-03    0.1831641940E-03    0.4380165344E-02
    0.2100000000E+03    0.1321506763E-03    0.6764233466E+00    0.3461044125E-03    0.2029087569E-03    0.4377035241E-02
    0.2300000000E+03    0.1423106897E-03    0.6780602870E+00    0.3787558713E-03    0.2229460269E-03    0.4373638809E-02
    0.2500000000E+03    0.1527139661E-03    0.6794414293E+00    0.4120002654E-03    0.2432963180E-03    0.4370013039E-02
    0.2700000000E+03    0.1633578490E-03    0.6806223798E+00    0.4458523767E-03    0.2639785757E-03    0.4366184187E-02
    0.2900000000E+03    0.1742419762E-03    0.6816437168E+00    0.4803296574E-03    0.2850108254E-03    0.4362171210E-02
    0.3100000000E+03    0.1853677217E-03    0.6825357461E+00    0.5154515071E-03    0.3064104956E-03    0.4357987931E-02
    0.3300000000E+03    0.1967378134E-03    0.6833215580E+00    0.5512388395E-03    0.3281946584E-03    0.4353644463E-02
    0.3500000000E+03    0.2083560665E-03    0.6840190541E+00    0.5877138221E-03    0.3503802148E-03    0.4349148169E-02
    0.3700000000E+03    0.2202271963E-03    0.6846423275E+00    0.6248997249E-03    0.3729840406E-03    0.4344504322E-02
    0.3900000000E+03    0.2323566854E-03    0.6852026242E+00    0.6628208375E-03    0.3960231052E-03    0.4339716575E-02
    0.4100000000E+03    0.2447506891E-03    0.6857090276E+00    0.7015024307E-03    0.4195145713E-03    0.4334787304E-02
    0.4300000000E+03    0.2574159688E-03    0.6861689543E+00    0.7409707488E-03    0.4434758800E-03    0.4329717846E-02
    0.4500000000E+03    0.2703598449E-03    0.6865885199E+00    0.7812530221E-03    0.4679248259E-03    0.4324508692E-02
    0.4700000000E+03    0.2835901662E-03    0.6869728123E+00    0.8223774946E-03    0.4928796248E-03    0.4319159618E-02
    0.4900000000E+03    0.2971152889E-03    0.6873260985E+00    0.8643734620E-03    0.5183589762E-03    0.4313669794E-02
    0.1000000000E+03    0.8118537164E-04    0.6563780949E+00    0.1771232272E-03    0.9724635448E-04    0.4388642380E-02
    0.3000000000E+03    0.1797745043E-03    0.6821043103E+00    0.4978087358E-03    0.2956636599E-03    0.4360100152E-02
    0.5000000000E+03    0.3039911481E-03    0.6874922634E+00    0.8857077102E-03    0.5313013493E-03    0.4310871694E-02
    0.7000000000E+03    0.4594558753E-03    0.6898265401E+00    0.1366348353E-02    0.8228158181E-03    0.4246943560E-02
    0.9000000000E+03    0.6583109928E-03    0.6911295654E+00    0.1979058135E-02    0.1194598059E-02    0.4164852750E-02
    0.1100000000E+04    0.9199586308E-03    0.6919608696E+00    0.2784428574E-02    0.1683764773E-02    0.4057626465E-02
    0.1300000000E+04    0.1275923107E-02    0.6925372219E+00    0.3880239214E-02    0.2350158408E-02    0.3913689894E-02
    0.1500000000E+04    0.1779091532E-02    0.6929602312E+00    0.5430448492E-02    0.3294244582E-02    0.3713911658E-02
    0.1700000000E+04    0.2519783002E-02    0.6932838524E+00    0.7715559510E-02    0.4688294353E-02    0.3426691598E-02
    0.1900000000E+04    0.3646051248E-02    0.6935393896E+00    0.1119721539E-01    0.6816973841E-02    0.3003355818E-02
    0.2100000000E+04    0.5345656774E-02    0.6937462531E+00    0.1646705438E-01    0.1004881767E-01    0.2391936565E-02
    0.2300000000E+04    0.7627261559E-02    0.6939171171E+00    0.2357599532E-01    0.1442949501E-01    0.1625522110E-02
    0.2500000000E+04    0.9933421432E-02    0.6940606086E+00    0.3082478481E-01    0.1893439278E-01    0.9399996514E-03
    0.2700000000E+04    0.1160803614E-01    0.6941828031E+00    0.3617606775E-01    0.2231236193E-01    0.5498087475E-03
    0.2900000000E+04    0.1268248587E-01    0.6942881027E+00    0.3970076454E-01    0.2459133025E-01    0.3940058675E-03
    0.3100000000E+04    0.1345337983E-01    0.6943797752E+00    0.4230308975E-01    0.2631676222E-01    0.3420610003E-03
    0.3300000000E+04    0.1409602611E-01    0.6944602973E+00    0.4452211318E-01    0.2781668752E-01    0.3262103031E-03
    0.3500000000E+04    0.1467951483E-01    0.6945315800E+00    0.4657086307E-01    0.2922112350E-01    0.3219121410E-03
    0.3700000000E+04    0.1522833604E-01    0.6945951215E+00    0.4852458221E-01    0.3057587028E-01    0.3212183141E-03
    0.3900000000E+04    0.1575133297E-01    0.6946521132E+00    0.5040997295E-01    0.3189693313E-01    0.3216292115E-03
    0.4100000000E+04    0.1625210357E-01    0.6947035140E+00    0.5223743194E-01    0.3319028432E-01    0.3223619796E-03
    0.4300000000E+04    0.1673248098E-01    0.6947501044E+00    0.5401188429E-01    0.3445853423E-01    0.3231714179E-03
    0.4500000000E+04    0.1719367973E-01    0.6947925263E+00    0.5573636429E-01    0.3570314447E-01    0.3239814506E-03
    0.4700000000E+04    0.1763667453E-01    0.6948313125E+00    0.5741320141E-01    0.3692516269E-01    0.3247695210E-03
    0.4900000000E+04    0.1806232770E-01    0.6948669087E+00    0.5904441839E-01    0.3812546897E-01    0.3255300374E-03
    0.1000000000E+04    0.7796808829E-03    0.6915865939E+00    0.2352677522E-02    0.1421459243E-02    0.4114971555E-02
    0.3000000000E+04    0.1309150370E-01    0.6943354721E+00    0.4107307771E-01    0.2549640815E-01    0.3607378957E-03
    0.5000000000E+04    0.1826890154E-01    0.6948836303E+00    0.5984350351E-01    0.3871773142E-01    0.3258997927E-03
    0.7000000000E+04    0.2165926515E-01    0.6951169450E+00    0.7382676354E-01    0.4959377269E-01    0.3321134918E-03
    0.9000000000E+04    0.2398334306E-01    0.6952455592E+00    0.8482624160E-01    0.5898250315E-01    0.3368183597E-03
    0.1100000000E+05    0.2558986659E-01    0.6953267310E+00    0.9369370536E-01    0.6726311068E-01    0.3406165200E-03
    0.1300000000E+05    0.2669750012E-01    0.6953824457E+00    0.1009830752E+00    0.7468928289E-01    0.3438075773E-03
    0.1500000000E+05    0.2744919026E-01    0.6954229424E+00    0.1070703900E+00    0.8143801588E-01    0.3465627513E-03
    0.1700000000E+05    0.2794161776E-01    0.6954536300E+00    0.1122200920E+00    0.8763712421E-01    0.3489893054E-03
    0.1900000000E+05    0.2824204236E-01    0.6954776326E+00    0.1166237063E+00    0.9338160140E-01    0.3511589802E-03
    0.2100000000E+05    0.2839837817E-01    0.6954968795E+00    0.1204234575E+00    0.9874379235E-01    0.3531221728E-03
    0.2300000000E+05    0.2844545199E-01    0.6955126259E+00    0.1237272510E+00    0.1037799603E+00    0.3549156692E-03
    0.2500000000E+05    0.2840901815E-01    0.6955257230E+00    0.1266184940E+00    0.1085346650E+00    0.3565671578E-03
    0.2700000000E+05    0.2830840700E-01    0.6955367683E+00    0.1291627172E+00    0.1130437636E+00    0.3580980115E-03
    0.2900000000E+05    0.2815831508E-01    0.6955461935E+00    0.1314121538E+00    0.1173365192E+00    0.3595250797E-03
    0.3100000000E+05    0.2797004140E-01    0.6955543178E+00    0.1334089740E+00    0.1214371133E+00    0.3608618855E-03
    0.3300000000E+05    0.2775235758E-01    0.6955613824E+00    0.1351876158E+00    0.1253657531E+00    0.3621194503E-03
    0.3500000000E+05    0.2751213070E-01    0.6955675730E+00    0.1367764946E+00    0.1291394953E+00    0.3633068771E-03
    0.3700000000E+05    0.2725477606E-01    0.6955730345E+00    0.1381992752E+00    0.1327728681E+00    0.3644317734E-03
    0.3900000000E+05    0.2698459073E-01    0.6955778821E+00    0.1394758340E+00    0.1362783486E+00    0.3655005628E-03
    0.4100000000E+05    0.2670500245E-01    0.6955822079E+00    0.1406229946E+00    0.1396667335E+00    0.3665187196E-03
    0.4300000000E+05    0.2641875742E-01    0.6955860869E+00    0.1416550975E+00    0.1429474290E+00    0.3674909476E-03
    0.4500000000E+05    0.2612806345E-01    0.6955895805E+00    0.1425844460E+00    0.1461286824E+00    0.3684213189E-03
    0.4700000000E+05    0.2583470008E-01    0.6955927394E+00    0.1434216594E+00    0.1492177664E+00    0.3693133828E-03
    0.4900000000E+05    0.2554010416E-01    0.6955956061E+00    0.1441759536E+00    0.1522211290E+00    0.3701702517E-03
    0.1000000000E+05    0.2486038647E-01    0.6952902882E+00    0.8948663497E-01    0.6324323716E-01    0.3388078582E-03
    0.3000000000E+05    0.2806835178E-01    0.6955504017E+00    0.1324398299E+00    0.1194094911E+00    0.3602040257E-03
    0.5000000000E+05    0.2539271604E-01    0.6955969412E+00    0.1445245589E+00    0.1536924848E+00    0.3705863584E-03
    0.7000000000E+05    0.2256482484E-01    0.6956145581E+00    0.1486429691E+00    0.1797356181E+00    0.3775845217E-03
    0.9000000000E+05    0.2012082577E-01    0.6956230357E+00    0.1495718865E+00    0.2011916438E+00    0.3828964131E-03
    0.1100000000E+06    0.1806659143E-01    0.6956275865E+00    0.1489605839E+00    0.2196232647E+00    0.3871909380E-03
    0.1300000000E+06    0.1633730119E-01    0.6956301463E+00    0.1475313315E+00    0.2358649690E+00    0.3908024598E-03
    0.1500000000E+06    0.1486932427E-01    0.6956315860E+00    0.1456477460E+00    0.2504245539E+00    0.3939227371E-03
    0.1700000000E+06    0.1361109478E-01    0.6956323495E+00    0.1435102050E+00    0.2636387883E+00    0.3966721897E-03
    0.1900000000E+06    0.1252253930E-01    0.6956326838E+00    0.1412361646E+00    0.2757450281E+00    0.3991314983E-03
    0.2100000000E+06    0.1157268608E-01    0.6956327357E+00    0.1388974973E+00    0.2869183004E+00    0.4013574155E-03
    0.2300000000E+06    0.1073744902E-01    0.6956325968E+00    0.1365394915E+00    0.2972922510E+00    0.4033914094E-03
    0.2500000000E+06    0.9997906085E-02    0.6956323265E+00    0.1341912106E+00    0.3069717904E+00    0.4052647186E-03
    0.2700000000E+06    0.9339024892E-02    0.6956319647E+00    0.1318714570E+00    0.3160411431E+00    0.4070014731E-03
    0.2900000000E+06    0.8748729838E-02    0.6956315389E+00    0.1295923599E+00    0.3245691936E+00    0.4086207071E-03
    0.3100000000E+06    0.8217217606E-02    0.6956310685E+00    0.1273616120E+00    0.3326131671E+00    0.4101377041E-03
    0.3300000000E+06    0.7736450871E-02    0.6956305671E+00    0.1251839063E+00    0.3402212379E+00    0.4115649256E-03
    0.3500000000E+06    0.7299779952E-02    0.6956300449E+00    0.1230618826E+00    0.3474344270E+00    0.4129126681E-03
    0.3700000000E+06    0.6901656934E-02    0.6956295092E+00    0.1209967636E+00    0.3542880139E+00    0.4141895389E-03
    0.3900000000E+06    0.6537417297E-02    0.6956289654E+00    0.1189887900E+00    0.3608126049E+00    0.4154028080E-03
    0.4100000000E+06    0.6203111311E-02    0.6956284176E+00    0.1170375234E+00    0.3670349577E+00    0.4165586724E-03
    0.4300000000E+06    0.5895372535E-02    0.6956278689E+00    0.1151420579E+00    0.3729786260E+00    0.4176624581E-03
    0.4500000000E+06    0.5611314283E-02    0.6956273216E+00    0.1133011716E+00    0.3786644706E+00    0.4187187771E-03
    0.4700000000E+06    0.5348447354E-02    0.6956267773E+00    0.1115134342E+00    0.3841110694E+00    0.4197316494E-03
    0.4900000000E+06    0.5104614132E-02    0.6956262374E+00    0.1097772841E+00    0.3893350501E+00    0.4207046011E-03
    0.1000000000E+06    0.1904876170E-01    0.6956256432E+00    0.1494015116E+00    0.2107228808E+00    0.3851452979E-03
    0.3000000000E+06    0.8476164633E-02    0.6956313083E+00    0.1284705917E+00    0.3286484921E+00    0.4093911490E-03
    0.5000000000E+06    0.4989238261E-02    0.6956259694E+00    0.1089280447E+00    0.3918682896E+00    0.4211770931E-03
    0.7000000000E+06    0.3331844385E-02    0.6956209681E+00    0.9425084846E-01    0.4337971348E+00    0.4291247087E-03
    0.9000000000E+06    0.2396520597E-02    0.6956166708E+00    0.8300273985E-01    0.4641622962E+00    0.4351584149E-03
    0.1100000000E+07    0.1811769281E-02    0.6956129600E+00    0.7413577900E-01    0.4873346194E+00    0.4400370263E-03
    0.1300000000E+07    0.1419996151E-02    0.6956097088E+00    0.6697228638E-01    0.5056649750E+00    0.4441400175E-03
    0.1500000000E+07    0.1143950026E-02    0.6956068200E+00    0.6106591608E-01    0.5205570486E+00    0.4476850774E-03
    0.1700000000E+07    0.9417991800E-03    0.6956042221E+00    0.5611286823E-01    0.5329099159E+00    0.4508089345E-03
    0.1900000000E+07    0.7891655612E-03    0.6956018622E+00    0.5189971108E-01    0.5433297321E+00    0.4536032075E-03
    0.2100000000E+07    0.6710129673E-03    0.6955997001E+00    0.4827224558E-01    0.5522416332E+00    0.4561323501E-03
    0.2300000000E+07    0.5776368390E-03    0.6955977050E+00    0.4511632926E-01    0.5599533728E+00    0.4584434605E-03
    0.2500000000E+07    0.5025363957E-03    0.6955958525E+00    0.4234567237E-01    0.5666936022E+00    0.4605720209E-03
    0.2700000000E+07    0.4412193460E-03    0.6955941235E+00    0.3989383232E-01    0.5726359554E+00    0.4625454407E-03
    0.2900000000E+07    0.3904981177E-03    0.6955925021E+00    0.3770881713E-01    0.5779147729E+00    0.4643853415E-03
    0.3100000000E+07    0.3480587647E-03    0.6955909755E+00    0.3574935851E-01    0.5826356875E+00    0.4661090854E-03
    0.3300000000E+07    0.3121878218E-03    0.6955895330E+00    0.3398228177E-01    0.5868829440E+00    0.4677308289E-03
    0.3500000000E+07    0.2815941009E-03    0.6955881657E+00    0.3238061387E-01    0.5907245759E+00    0.4692622691E-03
    0.3700000000E+07    0.2552894129E-03    0.6955868660E+00    0.3092219851E-01    0.5942161414E+00    0.4707131846E-03
    0.3900000000E+07    0.2325069086E-03    0.6955856273E+00    0.2958866664E-01    0.5974034675E+00    0.4720918349E-03
    0.4100000000E+07    0.2126440365E-03    0.6955844440E+00    0.2836466028E-01    0.6003246978E+00    0.4734052603E-03
    0.4300000000E+07    0.1952219739E-03    0.6955833113E+00    0.2723723972E-01    0.6030118425E+00    0.4746595122E-03
    0.4500000000E+07    0.1798563000E-03    0.6955822249E+00    0.2619542554E-01    0.6054919664E+00    0.4758598301E-03
    0.4700000000E+07    0.1662354818E-03    0.6955811811E+00    0.2522984096E-01    0.6077881104E+00    0.4770107816E-03
    0.4900000000E+07    0.1541048779E-03    0.6955801766E+00    0.2433242966E-01    0.6099200143E+00    0.4781163730E-03
    0.1000000000E+07    0.2072916252E-02    0.6956147507E+00    0.7832077308E-01    0.4764706090E+00    0.4377131147E-03
    0.3000000000E+07    0.3683619285E-03    0.6955917276E+00    0.3670313125E-01    0.5803392705E+00    0.4652607831E-03
    0.5000000000E+07    0.1485313615E-03    0.6955796881E+00    0.2390707626E-01    0.6109297854E+00    0.4786532792E-03
    0.7000000000E+07    0.7970353054E-04    0.6955714185E+00    0.1770220862E-01    0.6256107878E+00    0.4876844530E-03
    0.9000000000E+07    0.4960258026E-04    0.6955650850E+00    0.1404259758E-01    0.6342294955E+00    0.4945408420E-03
    0.1100000000E+08    0.3381344873E-04    0.6955599373E+00    0.1163032277E-01    0.6398958703E+00    0.5000846655E-03
    0.1300000000E+08    0.2451842298E-04    0.6955555928E+00    0.9921343144E-02    0.6439036633E+00    0.5047471214E-03
    0.1500000000E+08    0.1859043972E-04    0.6955518296E+00    0.8647668172E-02    0.6468873042E+00    0.5087755740E-03
    0.1700000000E+08    0.1458048321E-04    0.6955485072E+00    0.7662030989E-02    0.6491943888E+00    0.5123253919E-03
    0.1900000000E+08    0.1174257908E-04    0.6955455309E+00    0.6876813692E-02    0.6510312858E+00    0.5155006856E-03
    0.2100000000E+08    0.9660966118E-05    0.6955428336E+00    0.6236635781E-02    0.6525282297E+00    0.5183746963E-03
    0.2300000000E+08    0.8089072034E-05    0.6955403663E+00    0.5704782953E-02    0.6537714545E+00    0.5210009442E-03
    0.2500000000E+08    0.6873163612E-05    0.6955380919E+00    0.5255957497E-02    0.6548203226E+00    0.5234197496E-03
    0.2700000000E+08    0.5913361963E-05    0.6955359816E+00    0.4872162939E-02    0.6557170311E+00    0.5256622593E-03
