  Pressure (Pa) 22mC5-500 (mol/kg) 24mC5-500 (mol/kg) 2mC6-500 (mol/kg) 3mC6-500 (mol/kg) C7-500 (mol/kg)
    0.1000000000E+01    0.1179680500E-04    0.9949401262E-01    0.1222278910E-04    0.1503653088E-05    0.4213847486E-02
    0.3000000000E+01    0.2609243207E-04    0.2320815762E+00    0.2590829515E-04    0.3876570152E-05    0.4285357030E-02
    0.5000000000E+01    0.3420979174E-04    0.3164148412E+00    0.3302659052E-04    0.6065502803E-05    0.4330121095E-02
    0.7000000000E+01    0.3928602592E-04    0.3747819476E+00    0.3722442927E-04    0.8164850143E-05    0.4361356410E-02
    0.9000000000E+01    0.4269507249E-04    0.4175759729E+00    0.3999324294E-04    0.1020666612E-04    0.4384501656E-02
    0.1100000000E+02    0.4512121410E-04    0.4502962681E+00    0.4202321684E-04    0.1220704919E-04    0.4402391245E-02
    0.1300000000E+02    0.4693692461E-04    0.4761254835E+00    0.4366106758E-04    0.1417560647E-04    0.4416662764E-02
    0.1500000000E+02    0.4835873446E-04    0.4970332861E+00    0.4509131970E-04    0.1611868152E-04    0.4428331844E-02
    0.1700000000E+02    0.4951905593E-04    0.5143039686E+00    0.4641625364E-04    0.1804075447E-04    0.4438063129E-02
    0.1900000000E+02    0.5050216873E-04    0.5288107051E+00    0.4769412098E-04    0.1994514571E-04    0.4446310477E-02
    0.2100000000E+02    0.5136347533E-04    0.5411678695E+00    0.4895859288E-04    0.2183440708E-04    0.4453394742E-02
    0.2300000000E+02    0.5214036740E-04    0.5518203054E+00    0.5022916526E-04    0.2371055634E-04    0.4459549398E-02
    0.2500000000E+02    0.5285863381E-04    0.5610980289E+00    0.5151695602E-04    0.2557522576E-04    0.4464948531E-02
    0.2700000000E+02    0.5353638183E-04    0.5692510337E+00    0.5282804366E-04    0.2742976079E-04    0.4469724699E-02
    0.2900000000E+02    0.5418651335E-04    0.5764721603E+00    0.5416544274E-04    0.2927528806E-04    0.4473980684E-02
    0.3100000000E+02    0.5481833153E-04    0.5829125462E+00    0.5553029879E-04    0.3111276364E-04    0.4477797465E-02
    0.3300000000E+02    0.5543860823E-04    0.5886923209E+00    0.5692262366E-04    0.3294300824E-04    0.4481239744E-02
    0.3500000000E+02    0.5605230786E-04    0.5939081705E+00    0.5834175409E-04    0.3476673343E-04    0.4484359868E-02
    0.3700000000E+02    0.5666308738E-04    0.5986387903E+00    0.5978664022E-04    0.3658456164E-04    0.4487200668E-02
    0.3900000000E+02    0.5727364723E-04    0.6029488836E+00    0.6125602777E-04    0.3839704155E-04    0.4489797543E-02
    0.4100000000E+02    0.5788598120E-04    0.6068921391E+00    0.6274857309E-04    0.4020466021E-04    0.4492180020E-02
    0.4300000000E+02    0.5850155668E-04    0.6105134791E+00    0.6426291513E-04    0.4200785262E-04    0.4494372931E-02
    0.4500000000E+02    0.5912144612E-04    0.6138507783E+00    0.6579771961E-04    0.4380700956E-04    0.4496397323E-02
    0.4700000000E+02    0.5974642394E-04    0.6169361944E+00    0.6735170534E-04    0.4560248380E-04    0.4498271156E-02
    0.4900000000E+02    0.6037703868E-04    0.6197972068E+00    0.6892365880E-04    0.4739459536E-04    0.4500009856E-02
    0.1000000000E+02    0.4400284146E-04    0.4349591021E+00    0.4107371616E-04    0.1121133561E-04    0.4393981899E-02
    0.3000000000E+02    0.5450423885E-04    0.5797818120E+00    0.5484441774E-04    0.3019497819E-04    0.4475939602E-02
    0.5000000000E+02    0.6069458311E-04    0.6211510755E+00    0.6971601454E-04    0.4828948223E-04    0.4500832769E-02
    0.7000000000E+02    0.6737938591E-04    0.6407463026E+00    0.8627107699E-04    0.6606974749E-04    0.4512645522E-02
    0.9000000000E+02    0.7464665827E-04    0.6521765755E+00    0.1037541340E-03    0.8373482594E-04    0.4519164709E-02
    0.1100000000E+03    0.8237303630E-04    0.6596651662E+00    0.1218194641E-03    0.1013867694E-03    0.4522937454E-02
    0.1300000000E+03    0.9046061234E-04    0.6649510499E+00    0.1403059682E-03    0.1190882021E-03    0.4525064117E-02
    0.1500000000E+03    0.9884386647E-04    0.6688814210E+00    0.1591344047E-03    0.1368820307E-03    0.4526105114E-02
    0.1700000000E+03    0.1074796664E-03    0.6719183875E+00    0.1782647924E-03    0.1548000038E-03    0.4526379005E-02
    0.1900000000E+03    0.1163393896E-03    0.6743354436E+00    0.1976774186E-03    0.1728670134E-03    0.4526081701E-02
    0.2100000000E+03    0.1254038789E-03    0.6763047897E+00    0.2173636931E-03    0.1911034851E-03    0.4525341010E-02
    0.2300000000E+03    0.1346602950E-03    0.6779402537E+00    0.2373214467E-03    0.2095268092E-03    0.4524244224E-02
    0.2500000000E+03    0.1441001283E-03    0.6793200924E+00    0.2575523809E-03    0.2281522486E-03    0.4522853169E-02
    0.2700000000E+03    0.1537179155E-03    0.6804998792E+00    0.2780606226E-03    0.2469935415E-03    0.4521212938E-02
    0.2900000000E+03    0.1635103915E-03    0.6815201678E+00    0.2988518759E-03    0.2660633170E-03    0.4519357216E-02
    0.3100000000E+03    0.1734759158E-03    0.6824112450E+00    0.3199329109E-03    0.2853733922E-03    0.4517311667E-02
    0.3300000000E+03    0.1836140769E-03    0.6831961862E+00    0.3413112483E-03    0.3049349898E-03    0.4515096159E-02
    0.3500000000E+03    0.1939254148E-03    0.6838928814E+00    0.3629949626E-03    0.3247589011E-03    0.4512726278E-02
    0.3700000000E+03    0.2044112220E-03    0.6845154140E+00    0.3849925586E-03    0.3448556126E-03    0.4510214374E-02
    0.3900000000E+03    0.2150734000E-03    0.6850750223E+00    0.4073128944E-03    0.3652354049E-03    0.4507570316E-02
    0.4100000000E+03    0.2259143539E-03    0.6855807832E+00    0.4299651337E-03    0.3859084318E-03    0.4504802031E-02
    0.4300000000E+03    0.2369369151E-03    0.6860401080E+00    0.4529587183E-03    0.4068847857E-03    0.4501915908E-02
    0.4500000000E+03    0.2481442831E-03    0.6864591078E+00    0.4763033534E-03    0.4281745511E-03    0.4498917100E-02
    0.4700000000E+03    0.2595399821E-03    0.6868428666E+00    0.5000090023E-03    0.4497878512E-03    0.4495809751E-02
    0.4900000000E+03    0.2711278295E-03    0.6871956483E+00    0.5240858868E-03    0.4717348867E-03    0.4492597177E-02
    0.1000000000E+03    0.7845944697E-04    0.6562741349E+00    0.1127267715E-03    0.9255791534E-04    0.4521307231E-02
    0.3000000000E+03    0.1684715734E-03    0.6819802742E+00    0.3093557155E-03    0.2756876039E-03    0.4518356812E-02
    0.5000000000E+03    0.2769950758E-03    0.6873615708E+00    0.5362668086E-03    0.4828367729E-03    0.4490952275E-02
    0.7000000000E+03    0.4055705910E-03    0.6896920069E+00    0.8021187046E-03    0.7250346499E-03    0.4452893829E-02
    0.9000000000E+03    0.5596564736E-03    0.6909923611E+00    0.1119403619E-02    0.1014124204E-02    0.4404793186E-02
    0.1100000000E+04    0.7472789418E-03    0.6918216244E+00    0.1505117199E-02    0.1365798390E-02    0.4344963111E-02
    0.1300000000E+04    0.9800015190E-03    0.6923963270E+00    0.1983318054E-02    0.1802179417E-02    0.4270230185E-02
    0.1500000000E+04    0.1274809351E-02    0.6928179521E+00    0.2589181427E-02    0.2355603431E-02    0.4175661959E-02
    0.1700000000E+04    0.1657270416E-02    0.6931403808E+00    0.3375615675E-02    0.3074747867E-02    0.4053779408E-02
    0.1900000000E+04    0.2166744596E-02    0.6933948703E+00    0.4424129282E-02    0.4034703916E-02    0.3893203247E-02
    0.2100000000E+04    0.2864548946E-02    0.6936007993E+00    0.5861918223E-02    0.5352878279E-02    0.3676636356E-02
    0.2300000000E+04    0.3844469968E-02    0.6937708196E+00    0.7884102647E-02    0.7209904441E-02    0.3378705103E-02
    0.2500000000E+04    0.5235765200E-02    0.6939135419E+00    0.1076112169E-01    0.9857517484E-02    0.2967234914E-02
    0.2700000000E+04    0.7156537979E-02    0.6940350294E+00    0.1474457890E-01    0.1353393823E-01    0.2420802685E-02
    0.2900000000E+04    0.9537665107E-02    0.6941396749E+00    0.1970464565E-01    0.1813152442E-01    0.1781982422E-02
    0.3100000000E+04    0.1193184285E-01    0.6942307386E+00    0.2472848606E-01    0.2282117913E-01    0.1199040088E-02
    0.3300000000E+04    0.1381991147E-01    0.6943106911E+00    0.2874035118E-01    0.2661104044E-01    0.8125215421E-03
    0.3500000000E+04    0.1511796126E-01    0.6943814387E+00    0.3155373964E-01    0.2931793871E-01    0.6179697551E-03
    0.3700000000E+04    0.1603436856E-01    0.6944444756E+00    0.3358988567E-01    0.3132097048E-01    0.5353000637E-03
    0.3900000000E+04    0.1675714891E-01    0.6945009898E+00    0.3523387634E-01    0.3297128864E-01    0.5031821611E-03
    0.4100000000E+04    0.1738612947E-01    0.6945519372E+00    0.3669115393E-01    0.3445714110E-01    0.4915245940E-03
    0.4300000000E+04    0.1796563365E-01    0.6945980962E+00    0.3805308410E-01    0.3586240658E-01    0.4878017711E-03
    0.4500000000E+04    0.1851431291E-01    0.6946401066E+00    0.3935801246E-01    0.3722222116E-01    0.4871026651E-03
    0.4700000000E+04    0.1904008619E-01    0.6946784993E+00    0.4062204058E-01    0.3855119843E-01    0.4875385720E-03
    0.4900000000E+04    0.1954652827E-01    0.6947137183E+00    0.4185224564E-01    0.3985560510E-01    0.4883863558E-03
    0.1000000000E+04    0.6486530665E-03    0.6914483092E+00    0.1302406908E-02    0.1180942282E-02    0.4376507353E-02
    0.3000000000E+04    0.1077204641E-01    0.6941867346E+00    0.2228879438E-01    0.2053838499E-01    0.1472056286E-02
    0.5000000000E+04    0.1979310440E-01    0.6947302572E+00    0.4245581055E-01    0.4049956642E-01    0.4888698467E-03
    0.7000000000E+04    0.2395324742E-01    0.6949605255E+00    0.5317865386E-01    0.5241975109E-01    0.4980647143E-03
    0.9000000000E+04    0.2697210492E-01    0.6950868556E+00    0.6184902072E-01    0.6285107162E-01    0.5051189664E-03
    0.1100000000E+05    0.2918489661E-01    0.6951661943E+00    0.6899889500E-01    0.7214115780E-01    0.5108137322E-03
    0.1300000000E+05    0.3081279466E-01    0.6952203748E+00    0.7498926642E-01    0.8053121834E-01    0.5155982192E-03
    0.1500000000E+05    0.3200699133E-01    0.6952595506E+00    0.8007431370E-01    0.8819494986E-01    0.5197291533E-03
    0.1700000000E+05    0.3287379541E-01    0.6952890772E+00    0.8443828705E-01    0.9526102889E-01    0.5233673641E-03
    0.1900000000E+05    0.3348975999E-01    0.6953120433E+00    0.8821809012E-01    0.1018271071E+00    0.5266204183E-03
    0.2100000000E+05    0.3391114678E-01    0.6953303537E+00    0.9151763546E-01    0.1079688468E+00    0.5295638807E-03
    0.2300000000E+05    0.3418003906E-01    0.6953452453E+00    0.9441726908E-01    0.1137459416E+00    0.5322529072E-03
    0.2500000000E+05    0.3432840079E-01    0.6953575561E+00    0.9698013346E-01    0.1192062401E+00    0.5347290131E-03
    0.2700000000E+05    0.3438083777E-01    0.6953678731E+00    0.9925657000E-01    0.1243886387E+00    0.5370242445E-03
    0.2900000000E+05    0.3435651665E-01    0.6953766198E+00    0.1012872317E+00    0.1293251548E+00    0.5391638649E-03
    0.3100000000E+05    0.3427052396E-01    0.6953841088E+00    0.1031053270E+00    0.1340424407E+00    0.5411681504E-03
    0.3300000000E+05    0.3413484524E-01    0.6953905761E+00    0.1047382649E+00    0.1385629082E+00    0.5430536259E-03
    0.3500000000E+05    0.3395908110E-01    0.6953962029E+00    0.1062088811E+00    0.1429055767E+00    0.5448339404E-03
    0.3700000000E+05    0.3375097839E-01    0.6954011306E+00    0.1075363633E+00    0.1470867219E+00    0.5465205003E-03
    0.3900000000E+05    0.3351682896E-01    0.6954054711E+00    0.1087369607E+00    0.1511203780E+00    0.5481229367E-03
    0.4100000000E+05    0.3326177267E-01    0.6954093141E+00    0.1098245314E+00    0.1550187310E+00    0.5496494576E-03
    0.4300000000E+05    0.3299002984E-01    0.6954127321E+00    0.1108109731E+00    0.1587924304E+00    0.5511071156E-03
    0.4500000000E+05    0.3270508151E-01    0.6954157846E+00    0.1117065615E+00    0.1624508383E+00    0.5525020166E-03
    0.4700000000E+05    0.3240981026E-01    0.6954185208E+00    0.1125202217E+00    0.1660022301E+00    0.5538394818E-03
    0.4900000000E+05    0.3210661127E-01    0.6954209815E+00    0.1132597456E+00    0.1694539579E+00    0.5551241779E-03
    0.1000000000E+05    0.2816340479E-01    0.6951306234E+00    0.6558838417E-01    0.6762176635E-01    0.5081019211E-03
    0.3000000000E+05    0.3432041693E-01    0.6953805052E+00    0.1022210172E+00    0.1317097124E+00    0.5401818155E-03
    0.5000000000E+05    0.3195267618E-01    0.6954221195E+00    0.1136038759E+00    0.1711445263E+00    0.5557480427E-03
    0.7000000000E+05    0.2879635704E-01    0.6954364236E+00    0.1178820463E+00    0.2010025234E+00    0.5662402715E-03
    0.9000000000E+05    0.2586607991E-01    0.6954423892E+00    0.1191737295E+00    0.2254721344E+00    0.5742042393E-03
    0.1100000000E+06    0.2330916881E-01    0.6954449105E+00    0.1189671629E+00    0.2463645245E+00    0.5806428593E-03
    0.1300000000E+06    0.2110649365E-01    0.6954457642E+00    0.1179371702E+00    0.2646539383E+00    0.5860574510E-03
    0.1500000000E+06    0.1920789795E-01    0.6954457303E+00    0.1164336722E+00    0.2809373757E+00    0.5907355221E-03
    0.1700000000E+06    0.1756349937E-01    0.6954451955E+00    0.1146546171E+00    0.2956134992E+00    0.5948576195E-03
    0.1900000000E+06    0.1613056506E-01    0.6954443689E+00    0.1127188355E+00    0.3089651219E+00    0.5985447082E-03
    0.2100000000E+06    0.1487404828E-01    0.6954433701E+00    0.1107006761E+00    0.3212020241E+00    0.6018818779E-03
    0.2300000000E+06    0.1376555982E-01    0.6954422712E+00    0.1086480017E+00    0.3324852106E+00    0.6049313013E-03
    0.2500000000E+06    0.1278211815E-01    0.6954411168E+00    0.1065921953E+00    0.3429416130E+00    0.6077398145E-03
    0.2700000000E+06    0.1190504058E-01    0.6954399355E+00    0.1045540288E+00    0.3526734879E+00    0.6103435956E-03
    0.2900000000E+06    0.1111904380E-01    0.6954387457E+00    0.1025472544E+00    0.3617646903E+00    0.6127711819E-03
    0.3100000000E+06    0.1041153746E-01    0.6954375595E+00    0.1005808821E+00    0.3702850136E+00    0.6150454881E-03
    0.3300000000E+06    0.9772075437E-02    0.6954363848E+00    0.9866066450E-01    0.3782932833E+00    0.6171851975E-03
    0.3500000000E+06    0.9191929924E-02    0.6954352267E+00    0.9679008974E-01    0.3858396187E+00    0.6192057473E-03
    0.3700000000E+06    0.8663759980E-02    0.6954340886E+00    0.9497105823E-01    0.3929671233E+00    0.6211200424E-03
    0.3900000000E+06    0.8181351995E-02    0.6954329725E+00    0.9320435192E-01    0.3997131719E+00    0.6229389823E-03
    0.4100000000E+06    0.7739415206E-02    0.6954318795E+00    0.9148996444E-01    0.4061104080E+00    0.6246718581E-03
    0.4300000000E+06    0.7333419441E-02    0.6954308101E+00    0.8982733593E-01    0.4121875265E+00    0.6263266551E-03
    0.4500000000E+06    0.6959465444E-02    0.6954297645E+00    0.8821552177E-01    0.4179698979E+00    0.6279102876E-03
    0.4700000000E+06    0.6614180529E-02    0.6954287425E+00    0.8665331470E-01    0.4234800705E+00    0.6294287829E-03
    0.4900000000E+06    0.6294634047E-02    0.6954277437E+00    0.8513933366E-01    0.4287381784E+00    0.6308874276E-03
    0.1000000000E+06    0.2454071433E-01    0.6954439338E+00    0.1192046937E+00    0.2362925219E+00    0.5775759122E-03
    0.3000000000E+06    0.1075617695E-01    0.6954381515E+00    0.1015585956E+00    0.3660923080E+00    0.6139262413E-03
    0.5000000000E+06    0.6143700530E-02    0.6954272528E+00    0.8439996515E-01    0.4312784241E+00    0.6315957846E-03
    0.7000000000E+06    0.4000211848E-02    0.6954185032E+00    0.7176828925E-01    0.4723932855E+00    0.6435107378E-03
    0.9000000000E+06    0.2819200162E-02    0.6954113607E+00    0.6230897580E-01    0.5010383553E+00    0.6525563042E-03
    0.1100000000E+07    0.2096406416E-02    0.6954053495E+00    0.5500648279E-01    0.5222400902E+00    0.6598701333E-03
    0.1300000000E+07    0.1620934613E-02    0.6954001637E+00    0.4921278338E-01    0.5386026108E+00    0.6660211468E-03
    0.1500000000E+07    0.1291126355E-02    0.6953956035E+00    0.4450958562E-01    0.5516282712E+00    0.6713357099E-03
    0.1700000000E+07    0.1052840245E-02    0.6953915329E+00    0.4061804963E-01    0.5622503873E+00    0.6760188082E-03
    0.1900000000E+07    0.8750115360E-03    0.6953878556E+00    0.3734610094E-01    0.5710814892E+00    0.6802077983E-03
    0.2100000000E+07    0.7387509118E-03    0.6953845012E+00    0.3455745919E-01    0.5785411228E+00    0.6839993093E-03
    0.2300000000E+07    0.6320238894E-03    0.6953814165E+00    0.3215289007E-01    0.5849267051E+00    0.6874639512E-03
    0.2500000000E+07    0.5468630747E-03    0.6953785606E+00    0.3005848139E-01    0.5904551425E+00    0.6906549190E-03
    0.2700000000E+07    0.4778210215E-03    0.6953759013E+00    0.2821808177E-01    0.5952884470E+00    0.6936133046E-03
    0.2900000000E+07    0.4210696351E-03    0.6953734125E+00    0.2658828470E-01    0.5995501220E+00    0.6963715231E-03
    0.3100000000E+07    0.3738543776E-03    0.6953710734E+00    0.2513501616E-01    0.6033359915E+00    0.6989556034E-03
    0.3300000000E+07    0.3341518781E-03    0.6953688664E+00    0.2383115991E-01    0.6067215606E+00    0.7013867686E-03
    0.3500000000E+07    0.3004486157E-03    0.6953667772E+00    0.2265487135E-01    0.6097671400E+00    0.7036825551E-03
    0.3700000000E+07    0.2715940605E-03    0.6953647935E+00    0.2158835794E-01    0.6125214913E+00    0.7058576228E-03
    0.3900000000E+07    0.2467009368E-03    0.6953629049E+00    0.2061698287E-01    0.6150244689E+00    0.7079243537E-03
    0.4100000000E+07    0.2250760749E-03    0.6953611025E+00    0.1972859608E-01    0.6173089675E+00    0.7098933030E-03
    0.4300000000E+07    0.2061715743E-03    0.6953593786E+00    0.1891302840E-01    0.6194023795E+00    0.7117735423E-03
    0.4500000000E+07    0.1895497305E-03    0.6953577264E+00    0.1816170419E-01    0.6213276998E+00    0.7135729269E-03
    0.4700000000E+07    0.1748574629E-03    0.6953561401E+00    0.1746734132E-01    0.6231043754E+00    0.7152983043E-03
    0.4900000000E+07    0.1618074094E-03    0.6953546145E+00    0.1682371648E-01    0.6247489643E+00    0.7169556803E-03
    0.1000000000E+07    0.2417452879E-02    0.6954082360E+00    0.5843541543E-01    0.5123715383E+00    0.6563862190E-03
    0.3000000000E+07    0.3964105435E-03    0.6953722254E+00    0.2584141972E-01    0.6014974059E+00    0.6976839064E-03
    0.5000000000E+07    0.1558228245E-03    0.6953538729E+00    0.1651922907E-01    0.6255262404E+00    0.7177605479E-03
    0.7000000000E+07    0.8258392057E-04    0.6953413464E+00    0.1211965757E-01    0.6367055830E+00    0.7312989534E-03
    0.9000000000E+07    0.5101892231E-04    0.6953317813E+00    0.9561761087E-02    0.6431634339E+00    0.7415770895E-03
    0.1100000000E+08    0.3461061848E-04    0.6953240207E+00    0.7890662228E-02    0.6473671667E+00    0.7498875458E-03
    0.1300000000E+08    0.2501022301E-04    0.6953174788E+00    0.6713956323E-02    0.6503204843E+00    0.7568767444E-03
    0.1500000000E+08    0.1891469156E-04    0.6953118170E+00    0.5840847883E-02    0.6525084441E+00    0.7629155145E-03
    0.1700000000E+08    0.1480530578E-04    0.6953068216E+00    0.5167457464E-02    0.6541940678E+00    0.7682367713E-03
    0.1900000000E+08    0.1190473673E-04    0.6953023488E+00    0.4632409063E-02    0.6555323107E+00    0.7729965873E-03
    0.2100000000E+08    0.9781701295E-05    0.6952982970E+00    0.4197118394E-02    0.6566203764E+00    0.7773047588E-03
    0.2300000000E+08    0.8181345798E-05    0.6952945921E+00    0.3836116988E-02    0.6575223199E+00    0.7812415174E-03
    0.2500000000E+08    0.6945244398E-05    0.6952911778E+00    0.3531918388E-02    0.6582820631E+00    0.7848673070E-03
    0.2700000000E+08    0.5970724072E-05    0.6952880107E+00    0.3272119902E-02    0.6589307257E+00    0.7882288194E-03
