  Pressure (Pa) 22mC5-500 (mol/kg) 24mC5-500 (mol/kg) 2mC6-500 (mol/kg) 3mC6-500 (mol/kg) C7-500 (mol/kg)
    0.1000000000E+01    0.1342222784E-04    0.3665875124E-01    0.3204680519E-04    0.2695123178E-05    0.4171197015E-02
    0.3000000000E+01    0.3539103591E-04    0.9947721012E-01    0.8251975876E-04    0.6785457687E-05    0.4211292267E-02
    0.5000000000E+01    0.5277142554E-04    0.1513478318E+00    0.1210376290E-03    0.1052726713E-04    0.4238655164E-02
    0.7000000000E+01    0.6679759421E-04    0.1949040996E+00    0.1511161792E-03    0.1410443476E-04    0.4260889403E-02
    0.9000000000E+01    0.7829631026E-04    0.2319974650E+00    0.1750334718E-03    0.1757834819E-04    0.4279586069E-02
    0.1100000000E+02    0.8785004886E-04    0.2639675822E+00    0.1943580815E-03    0.2097954431E-04    0.4295585276E-02
    0.1300000000E+02    0.9588126029E-04    0.2918077301E+00    0.2102036861E-03    0.2432612189E-04    0.4309444619E-02
    0.1500000000E+02    0.1027033109E-03    0.3162699676E+00    0.2233790384E-03    0.2762996768E-04    0.4321566592E-02
    0.1700000000E+02    0.1085530631E-03    0.3379341732E+00    0.2344823549E-03    0.3089944031E-04    0.4332254281E-02
    0.1900000000E+02    0.1136124733E-03    0.3572546558E+00    0.2439630766E-03    0.3414071241E-04    0.4341742103E-02
    0.2100000000E+02    0.1180233118E-03    0.3745924011E+00    0.2521634546E-03    0.3735851381E-04    0.4350214956E-02
    0.2300000000E+02    0.1218974289E-03    0.3902378664E+00    0.2593472118E-03    0.4055657507E-04    0.4357820965E-02
    0.2500000000E+02    0.1253240602E-03    0.4044274045E+00    0.2657196917E-03    0.4373790795E-04    0.4364680357E-02
    0.2700000000E+02    0.1283751159E-03    0.4173553024E+00    0.2714422698E-03    0.4690499096E-04    0.4370891823E-02
    0.2900000000E+02    0.1311090712E-03    0.4291827424E+00    0.2766428200E-03    0.5005989690E-04    0.4376537181E-02
    0.3100000000E+02    0.1335738687E-03    0.4400445655E+00    0.2814234217E-03    0.5320438313E-04    0.4381684869E-02
    0.3300000000E+02    0.1358091105E-03    0.4500544421E+00    0.2858661041E-03    0.5633995739E-04    0.4386392589E-02
    0.3500000000E+02    0.1378477343E-03    0.4593088704E+00    0.2900371766E-03    0.5946792661E-04    0.4390709349E-02
    0.3700000000E+02    0.1397173073E-03    0.4678903016E+00    0.2939905270E-03    0.6258943403E-04    0.4394677048E-02
    0.3900000000E+02    0.1414410361E-03    0.4758696066E+00    0.2977701572E-03    0.6570548784E-04    0.4398331729E-02
    0.4100000000E+02    0.1430385612E-03    0.4833080402E+00    0.3014121483E-03    0.6881698357E-04    0.4401704573E-02
    0.4300000000E+02    0.1445265872E-03    0.4902588190E+00    0.3049461977E-03    0.7192472189E-04    0.4404822691E-02
    0.4500000000E+02    0.1459193876E-03    0.4967683980E+00    0.3083968287E-03    0.7502942290E-04    0.4407709779E-02
    0.4700000000E+02    0.1472292102E-03    0.5028775119E+00    0.3117843494E-03    0.7813173779E-04    0.4410386631E-02
    0.4900000000E+02    0.1484666072E-03    0.5086220292E+00    0.3151256175E-03    0.8123225828E-04    0.4412871583E-02
    0.1000000000E+02    0.8328685930E-04    0.2485541843E+00    0.1851917022E-03    0.1928671259E-04    0.4287883435E-02
    0.3000000000E+02    0.1323724658E-03    0.4347268073E+00    0.2790800743E-03    0.5163334303E-04    0.4379169402E-02
    0.5000000000E+02    0.1490610470E-03    0.5113676186E+00    0.3167833850E-03    0.8278201626E-04    0.4414047240E-02
    0.7000000000E+02    0.1588124962E-03    0.5531807855E+00    0.3498738720E-03    0.1137930986E-03    0.4430584588E-02
    0.9000000000E+02    0.1668107823E-03    0.5795151497E+00    0.3853852232E-03    0.1450412443E-03    0.4438721139E-02
    0.1100000000E+03    0.1745579218E-03    0.5976250806E+00    0.4242721429E-03    0.1767288085E-03    0.4442228416E-02
    0.1300000000E+03    0.1825699417E-03    0.6108437976E+00    0.4664086264E-03    0.2089901106E-03    0.4442857617E-02
    0.1500000000E+03    0.1910388658E-03    0.6209174944E+00    0.5115152217E-03    0.2419267887E-03    0.4441533534E-02
    0.1700000000E+03    0.2000371340E-03    0.6288494629E+00    0.5593490266E-03    0.2756230804E-03    0.4438789981E-02
    0.1900000000E+03    0.2095905850E-03    0.6352572173E+00    0.6097335033E-03    0.3101535110E-03    0.4434955535E-02
    0.2100000000E+03    0.2197071397E-03    0.6405416670E+00    0.6625526012E-03    0.3455872067E-03    0.4430242231E-02
    0.2300000000E+03    0.2303887932E-03    0.6449744392E+00    0.7177390299E-03    0.3819905322E-03    0.4424791685E-02
    0.2500000000E+03    0.2416367975E-03    0.6487461076E+00    0.7752637346E-03    0.4194288255E-03    0.4418700748E-02
    0.2700000000E+03    0.2534539103E-03    0.6519943285E+00    0.8351277850E-03    0.4579676188E-03    0.4412036571E-02
    0.2900000000E+03    0.2658453348E-03    0.6548210173E+00    0.8973564480E-03    0.4976735521E-03    0.4404845843E-02
    0.3100000000E+03    0.2788190694E-03    0.6573032417E+00    0.9619949575E-03    0.5386150996E-03    0.4397160676E-02
    0.3300000000E+03    0.2923859992E-03    0.6595003600E+00    0.1029105545E-02    0.5808631806E-03    0.4389002473E-02
    0.3500000000E+03    0.3065598811E-03    0.6614588316E+00    0.1098765393E-02    0.6244917001E-03    0.4380384522E-02
    0.3700000000E+03    0.3213572995E-03    0.6632155407E+00    0.1171065264E-02    0.6695780486E-03    0.4371313793E-02
    0.3900000000E+03    0.3367976248E-03    0.6648001422E+00    0.1246108647E-02    0.7162035828E-03    0.4361792175E-02
    0.4100000000E+03    0.3529029925E-03    0.6662367505E+00    0.1324011274E-02    0.7644541018E-03    0.4351817370E-02
    0.4300000000E+03    0.3696983073E-03    0.6675451754E+00    0.1404900949E-02    0.8144203296E-03    0.4341383510E-02
    0.4500000000E+03    0.3872112779E-03    0.6687418421E+00    0.1488917617E-02    0.8661984142E-03    0.4330481605E-02
    0.4700000000E+03    0.4054724792E-03    0.6698404840E+00    0.1576213625E-02    0.9198904504E-03    0.4319099853E-02
    0.4900000000E+03    0.4245154448E-03    0.6708526728E+00    0.1666954170E-02    0.9756050331E-03    0.4307223847E-02
    0.1000000000E+03    0.1706718268E-03    0.5893368865E+00    0.4044064604E-03    0.1608206735E-03    0.4440916516E-02
    0.3000000000E+03    0.2722588008E-03    0.6561011278E+00    0.9293709530E-03    0.5179855055E-03    0.4401063511E-02
    0.5000000000E+03    0.4343414065E-03    0.6713294750E+00    0.1713671424E-02    0.1004256637E-02    0.4301095321E-02
    0.7000000000E+03    0.6830235532E-03    0.6780777311E+00    0.2882171768E-02    0.1717211513E-02    0.4146995527E-02
    0.9000000000E+03    0.1081814992E-02    0.6818866748E+00    0.4734843607E-02    0.2843712759E-02    0.3905770858E-02
    0.1100000000E+04    0.1769270537E-02    0.6843332361E+00    0.7916841578E-02    0.4779332939E-02    0.3504779229E-02
    0.1300000000E+04    0.3025183571E-02    0.6860374214E+00    0.1373389591E-01    0.8327128127E-02    0.2809961041E-02
    0.1500000000E+04    0.5105124194E-02    0.6872925718E+00    0.2341352234E-01    0.1426288289E-01    0.1757213783E-02
    0.1700000000E+04    0.7245669500E-02    0.6882554667E+00    0.3349708838E-01    0.2052026437E-01    0.8589266070E-03
    0.1900000000E+04    0.8525788617E-02    0.6890175084E+00    0.3969875861E-01    0.2446996482E-01    0.5264387169E-03
    0.2100000000E+04    0.9314559957E-02    0.6896355838E+00    0.4367086360E-01    0.2708758848E-01    0.4540551645E-03
    0.2300000000E+04    0.9949697871E-02    0.6901469507E+00    0.4696255198E-01    0.2931066987E-01    0.4419164233E-03
    0.2500000000E+04    0.1052534503E-01    0.6905770325E+00    0.5000696732E-01    0.3140224177E-01    0.4413547327E-03
    0.2700000000E+04    0.1106337698E-01    0.6909437710E+00    0.5290321615E-01    0.3342167224E-01    0.4428655795E-03
    0.2900000000E+04    0.1156994287E-01    0.6912601899E+00    0.5567741453E-01    0.3538363013E-01    0.4446610422E-03
    0.3100000000E+04    0.1204784449E-01    0.6915359719E+00    0.5834023102E-01    0.3729336180E-01    0.4464130449E-03
    0.3300000000E+04    0.1249907827E-01    0.6917784656E+00    0.6089876172E-01    0.3915400784E-01    0.4480699420E-03
    0.3500000000E+04    0.1292536403E-01    0.6919933486E+00    0.6335899957E-01    0.4096812529E-01    0.4496317258E-03
    0.3700000000E+04    0.1332826389E-01    0.6921850771E+00    0.6572637804E-01    0.4273801727E-01    0.4511069191E-03
    0.3900000000E+04    0.1370921608E-01    0.6923571975E+00    0.6800591430E-01    0.4446581383E-01    0.4525044092E-03
    0.4100000000E+04    0.1406955019E-01    0.6925125672E+00    0.7020226574E-01    0.4615349928E-01    0.4538320747E-03
    0.4300000000E+04    0.1441049768E-01    0.6926535144E+00    0.7231976533E-01    0.4780292719E-01    0.4550967107E-03
    0.4500000000E+04    0.1473320061E-01    0.6927819548E+00    0.7436245009E-01    0.4941583171E-01    0.4563041745E-03
    0.4700000000E+04    0.1503871941E-01    0.6928994795E+00    0.7633408612E-01    0.5099383733E-01    0.4574595406E-03
    0.4900000000E+04    0.1532803976E-01    0.6930074207E+00    0.7823819086E-01    0.5253846763E-01    0.4585672330E-03
    0.1000000000E+04    0.1376013264E-02    0.6832300875E+00    0.6097115409E-02    0.3672029326E-02    0.3732095839E-02
    0.3000000000E+04    0.1181234279E-01    0.6914026555E+00    0.5702226378E-01    0.3634480669E-01    0.4455479587E-03
    0.5000000000E+04    0.1546691467E-01    0.6930581558E+00    0.7916595522E-01    0.5329871751E-01    0.4591044327E-03
    0.7000000000E+04    0.1758576835E-01    0.6937683963E+00    0.9487085873E-01    0.6705651180E-01    0.4680790309E-03
    0.9000000000E+04    0.1881829425E-01    0.6941625186E+00    0.1065183627E+00    0.7867328040E-01    0.4748305851E-03
    0.1100000000E+05    0.1950962480E-01    0.6944128071E+00    0.1154435245E+00    0.8876520008E-01    0.4802607918E-03
    0.1300000000E+05    0.1985680889E-01    0.6945856406E+00    0.1224530243E+00    0.9771952901E-01    0.4848119502E-03
    0.1500000000E+05    0.1997867308E-01    0.6947120206E+00    0.1280632406E+00    0.1057938013E+00    0.4887347234E-03
    0.1700000000E+05    0.1995000641E-01    0.6948083640E+00    0.1326202352E+00    0.1131671487E+00    0.4921852354E-03
    0.1900000000E+05    0.1981951302E-01    0.6948841752E+00    0.1363647481E+00    0.1199688077E+00    0.4952674614E-03
    0.2100000000E+05    0.1961979322E-01    0.6949453364E+00    0.1394695158E+00    0.1262948872E+00    0.4980542046E-03
    0.2300000000E+05    0.1937315896E-01    0.6949956823E+00    0.1420617558E+00    0.1322187088E+00    0.5005984685E-03
    0.2500000000E+05    0.1909515784E-01    0.6950378190E+00    0.1442372701E+00    0.1377974419E+00    0.5029400645E-03
    0.2700000000E+05    0.1879678054E-01    0.6950735796E+00    0.1460696023E+00    0.1430765075E+00    0.5051096706E-03
    0.2900000000E+05    0.1848588368E-01    0.6951042904E+00    0.1476161621E+00    0.1480925882E+00    0.5071314364E-03
    0.3100000000E+05    0.1816812979E-01    0.6951309348E+00    0.1489224284E+00    0.1528757377E+00    0.5090247202E-03
    0.3300000000E+05    0.1784762174E-01    0.6951542573E+00    0.1500249013E+00    0.1574508937E+00    0.5108052821E-03
    0.3500000000E+05    0.1752733915E-01    0.6951748316E+00    0.1509532158E+00    0.1618389843E+00    0.5124861271E-03
    0.3700000000E+05    0.1720944360E-01    0.6951931071E+00    0.1517316848E+00    0.1660577507E+00    0.5140781148E-03
    0.3900000000E+05    0.1689549522E-01    0.6952094405E+00    0.1523804420E+00    0.1701223705E+00    0.5155904081E-03
    0.4100000000E+05    0.1658660846E-01    0.6952241190E+00    0.1529163022E+00    0.1740459352E+00    0.5170308105E-03
    0.4300000000E+05    0.1628356541E-01    0.6952373757E+00    0.1533534169E+00    0.1778398217E+00    0.5184060239E-03
    0.4500000000E+05    0.1598689904E-01    0.6952494025E+00    0.1537037799E+00    0.1815139842E+00    0.5197218469E-03
    0.4700000000E+05    0.1569695500E-01    0.6952603581E+00    0.1539776219E+00    0.1850771866E+00    0.5209833309E-03
    0.4900000000E+05    0.1541393780E-01    0.6952703755E+00    0.1541837209E+00    0.1885371888E+00    0.5221949040E-03
    0.1000000000E+05    0.1921688835E-01    0.6943002502E+00    0.1112620361E+00    0.8388176600E-01    0.4776769251E-03
    0.3000000000E+05    0.1832757676E-01    0.6951180697E+00    0.1482968683E+00    0.1505116154E+00    0.5080930805E-03
    0.5000000000E+05    0.1527506083E-01    0.6952750679E+00    0.1542637749E+00    0.1902306782E+00    0.5227832119E-03
    0.7000000000E+05    0.1285291624E-01    0.6953393732E+00    0.1536928232E+00    0.2200234840E+00    0.5326734493E-03
    0.9000000000E+05    0.1099958346E-01    0.6953733866E+00    0.1509542237E+00    0.2442827238E+00    0.5401764924E-03
    0.1100000000E+06    0.9555890753E-02    0.6953939154E+00    0.1474005347E+00    0.2648897259E+00    0.5462406229E-03
    0.1300000000E+06    0.8405753921E-02    0.6954073402E+00    0.1435628332E+00    0.2828540494E+00    0.5513392845E-03
    0.1500000000E+06    0.7470732880E-02    0.6954165987E+00    0.1396774231E+00    0.2987927927E+00    0.5557437978E-03
    0.1700000000E+06    0.6697335696E-02    0.6954232246E+00    0.1358562666E+00    0.3131166389E+00    0.5596244592E-03
    0.1900000000E+06    0.6048185011E-02    0.6954280931E+00    0.1321531172E+00    0.3261157569E+00    0.5630953248E-03
    0.2100000000E+06    0.5496481638E-02    0.6954317380E+00    0.1285925264E+00    0.3380044596E+00    0.5662366022E-03
    0.2300000000E+06    0.5022546310E-02    0.6954345022E+00    0.1251837288E+00    0.3489465252E+00    0.5691068843E-03
    0.2500000000E+06    0.4611616630E-02    0.6954366152E+00    0.1219277312E+00    0.3590705371E+00    0.5717503029E-03
    0.2700000000E+06    0.4252408066E-02    0.6954382360E+00    0.1188211097E+00    0.3684796791E+00    0.5742009423E-03
    0.2900000000E+06    0.3936150100E-02    0.6954394779E+00    0.1158581155E+00    0.3772582606E+00    0.5764856850E-03
    0.3100000000E+06    0.3655925204E-02    0.6954404233E+00    0.1130318713E+00    0.3854762195E+00    0.5786261149E-03
    0.3300000000E+06    0.3406205609E-02    0.6954411339E+00    0.1103350603E+00    0.3931923229E+00    0.5806398285E-03
    0.3500000000E+06    0.3182522258E-02    0.6954416562E+00    0.1077603230E+00    0.4004565012E+00    0.5825413641E-03
    0.3700000000E+06    0.2981223987E-02    0.6954420261E+00    0.1053004834E+00    0.4073115855E+00    0.5843428744E-03
    0.3900000000E+06    0.2799299529E-02    0.6954422717E+00    0.1029486731E+00    0.4137946288E+00    0.5860546229E-03
    0.4100000000E+06    0.2634243998E-02    0.6954424149E+00    0.1006983933E+00    0.4199379241E+00    0.5876853581E-03
    0.4300000000E+06    0.2483957431E-02    0.6954424735E+00    0.9854353984E-01    0.4257698033E+00    0.5892425988E-03
    0.4500000000E+06    0.2346666736E-02    0.6954424616E+00    0.9647840665E-01    0.4313152711E+00    0.5907328549E-03
    0.4700000000E+06    0.2220864991E-02    0.6954423909E+00    0.9449767526E-01    0.4365965139E+00    0.5921618010E-03
    0.4900000000E+06    0.2105263747E-02    0.6954422708E+00    0.9259639737E-01    0.4416333130E+00    0.5935344142E-03
    0.1000000000E+06    0.1023483643E-01    0.6953848164E+00    0.1492358587E+00    0.2549671027E+00    0.5433522371E-03
    0.3000000000E+06    0.3791907173E-02    0.6954399834E+00    0.1144283524E+00    0.3814334139E+00    0.5775727582E-03
    0.5000000000E+06    0.2050935942E-02    0.6954421948E+00    0.9167410318E-01    0.4440656549E+00    0.5942009881E-03
    0.7000000000E+06    0.1298536249E-02    0.6954394049E+00    0.7644533558E-01    0.4833472646E+00    0.6054127910E-03
    0.9000000000E+06    0.8996306713E-03    0.6954357532E+00    0.6555685270E-01    0.5106210954E+00    0.6139242111E-03
    0.1100000000E+07    0.6613240389E-03    0.6954320745E+00    0.5738199000E-01    0.5307586779E+00    0.6208060039E-03
    0.1300000000E+07    0.5071515562E-03    0.6954285790E+00    0.5101670225E-01    0.5462709667E+00    0.6265935898E-03
    0.1500000000E+07    0.4015093069E-03    0.6954253129E+00    0.4591904317E-01    0.5586014101E+00    0.6315940988E-03
    0.1700000000E+07    0.3258925924E-03    0.6954222733E+00    0.4174422013E-01    0.5686442951E+00    0.6360004280E-03
    0.1900000000E+07    0.2698755439E-03    0.6954194423E+00    0.3826228731E-01    0.5769852561E+00    0.6399418301E-03
    0.2100000000E+07    0.2272075596E-03    0.6954167990E+00    0.3531393366E-01    0.5840246903E+00    0.6435092316E-03
    0.2300000000E+07    0.1939511157E-03    0.6954143231E+00    0.3278525909E-01    0.5900460028E+00    0.6467690742E-03
    0.2500000000E+07    0.1675234000E-03    0.6954119965E+00    0.3059265195E-01    0.5952556067E+00    0.6497714121E-03
    0.2700000000E+07    0.1461720758E-03    0.6954098031E+00    0.2867333897E-01    0.5998074972E+00    0.6525549107E-03
    0.2900000000E+07    0.1286737426E-03    0.6954077291E+00    0.2697926903E-01    0.6038189453E+00    0.6551500705E-03
    0.3100000000E+07    0.1141530132E-03    0.6954057625E+00    0.2547303346E-01    0.6073808568E+00    0.6575813830E-03
    0.3300000000E+07    0.1019699820E-03    0.6954038929E+00    0.2412507279E-01    0.6105648022E+00    0.6598688176E-03
    0.3500000000E+07    0.9164801859E-04    0.6954021111E+00    0.2291171990E-01    0.6134279071E+00    0.6620288747E-03
    0.3700000000E+07    0.8282616081E-04    0.6954004095E+00    0.2181380109E-01    0.6160163269E+00    0.6640753480E-03
    0.3900000000E+07    0.7522696519E-04    0.6953987810E+00    0.2081561786E-01    0.6183677626E+00    0.6660198881E-03
    0.4100000000E+07    0.6863432841E-04    0.6953972195E+00    0.1990419358E-01    0.6205133141E+00    0.6678724262E-03
    0.4300000000E+07    0.6287789331E-04    0.6953957199E+00    0.1906870811E-01    0.6224788656E+00    0.6696414980E-03
    0.4500000000E+07    0.5782189456E-04    0.6953942772E+00    0.1830006771E-01    0.6242861358E+00    0.6713344945E-03
    0.4700000000E+07    0.5335705517E-04    0.6953928872E+00    0.1759057397E-01    0.6259534839E+00    0.6729578587E-03
    0.4900000000E+07    0.4939461547E-04    0.6953915463E+00    0.1693366612E-01    0.6274965355E+00    0.6745172413E-03
    0.1000000000E+07    0.7666047703E-03    0.6954338978E+00    0.6119804430E-01    0.5213906791E+00    0.6175279027E-03
    0.3000000000E+07    0.1210856951E-03    0.6954067331E+00    0.2620467719E-01    0.6056512324E+00    0.6563848676E-03
    0.5000000000E+07    0.4757854771E-04    0.6953908931E+00    0.1662314197E-01    0.6282257086E+00    0.6752745204E-03
    0.7000000000E+07    0.2540575634E-04    0.6953797365E+00    0.1215370499E-01    0.6387049085E+00    0.6880124356E-03
    0.9000000000E+07    0.1587297198E-04    0.6953710913E+00    0.9569718585E-02    0.6447509474E+00    0.6976828351E-03
    0.1100000000E+08    0.1091623451E-04    0.6953640159E+00    0.7887169730E-02    0.6486835228E+00    0.7055018955E-03
    0.1300000000E+08    0.8010954245E-05    0.6953580170E+00    0.6705006687E-02    0.6514448012E+00    0.7120778211E-03
    0.1500000000E+08    0.6161265337E-05    0.6953528035E+00    0.5829224277E-02    0.6534896291E+00    0.7177595163E-03
    0.1700000000E+08    0.4909976134E-05    0.6953481891E+00    0.5154565210E-02    0.6550644609E+00    0.7227661246E-03
    0.1900000000E+08    0.4023237222E-05    0.6953440469E+00    0.4618998630E-02    0.6563144072E+00    0.7272444903E-03
    0.2100000000E+08    0.3371313520E-05    0.6953402871E+00    0.4183604952E-02    0.6573304544E+00    0.7312979175E-03
    0.2300000000E+08    0.2877516171E-05    0.6953368432E+00    0.3822734173E-02    0.6581725376E+00    0.7350018938E-03
    0.2500000000E+08    0.2494141355E-05    0.6953336649E+00    0.3518797320E-02    0.6588817410E+00    0.7384132891E-03
    0.2700000000E+08    0.2190244821E-05    0.6953307131E+00    0.3259331967E-02    0.6594871657E+00    0.7415760342E-03
