  Pressure (Pa) 22mC5-500 (mol/kg) 24mC5-500 (mol/kg) 2mC6-500 (mol/kg) 3mC6-500 (mol/kg) C7-500 (mol/kg)
    0.1000000000E+01    0.1177683475E-04    0.9949451137E-01    0.3045959894E-05    0.2939694131E-05    0.4223050047E-02
    0.3000000000E+01    0.2604779362E-04    0.2320834306E+00    0.6455283933E-05    0.7601818313E-05    0.4305621376E-02
    0.5000000000E+01    0.3414402610E-04    0.3164169402E+00    0.8224563988E-05    0.1190846664E-04    0.4357749080E-02
    0.7000000000E+01    0.3920079645E-04    0.3747832836E+00    0.9264571488E-05    0.1604194434E-04    0.4394195551E-02
    0.9000000000E+01    0.4259147807E-04    0.4175759160E+00    0.9947877951E-05    0.2006426257E-04    0.4421235066E-02
    0.1100000000E+02    0.4500008461E-04    0.4502944719E+00    0.1044688987E-04    0.2400659344E-04    0.4442155883E-02
    0.1300000000E+02    0.4679893056E-04    0.4761217824E+00    0.1084820309E-04    0.2788755100E-04    0.4458861727E-02
    0.1500000000E+02    0.4820443963E-04    0.4970276245E+00    0.1119789333E-04    0.3171943179E-04    0.4472534506E-02
    0.1700000000E+02    0.4934894719E-04    0.5142963565E+00    0.1152149124E-04    0.3551092347E-04    0.4483948154E-02
    0.1900000000E+02    0.5031667478E-04    0.5288011900E+00    0.1183353027E-04    0.3926846675E-04    0.4493631371E-02
    0.2100000000E+02    0.5116297940E-04    0.5411565200E+00    0.1214240554E-04    0.4299701297E-04    0.4501958036E-02
    0.2300000000E+02    0.5192521627E-04    0.5518072006E+00    0.1245297309E-04    0.4670047810E-04    0.4509200262E-02
    0.2500000000E+02    0.5262914454E-04    0.5610832521E+00    0.1276799789E-04    0.5038203071E-04    0.4515560988E-02
    0.2700000000E+02    0.5329284683E-04    0.5692346686E+00    0.1308898769E-04    0.5404428319E-04    0.4521194763E-02
    0.2900000000E+02    0.5392920430E-04    0.5764542887E+00    0.1341668620E-04    0.5768942345E-04    0.4526221439E-02
    0.3100000000E+02    0.5454750254E-04    0.5828932466E+00    0.1375137145E-04    0.6131930858E-04    0.4530735452E-02
    0.3300000000E+02    0.5515449832E-04    0.5886716679E+00    0.1409303929E-04    0.6493553304E-04    0.4534812267E-02
    0.3500000000E+02    0.5575514302E-04    0.5938862346E+00    0.1444151777E-04    0.6853947958E-04    0.4538512943E-02
    0.3700000000E+02    0.5635308225E-04    0.5986156376E+00    0.1479653912E-04    0.7213235791E-04    0.4541887446E-02
    0.3900000000E+02    0.5695100649E-04    0.6029245760E+00    0.1515778511E-04    0.7571523466E-04    0.4544977074E-02
    0.4100000000E+02    0.5755090076E-04    0.6068667346E+00    0.1552491576E-04    0.7928905682E-04    0.4547816279E-02
    0.4300000000E+02    0.5815422467E-04    0.6104870316E+00    0.1589758718E-04    0.8285467043E-04    0.4550434036E-02
    0.4500000000E+02    0.5876204373E-04    0.6138233384E+00    0.1627546260E-04    0.8641283560E-04    0.4552854906E-02
    0.4700000000E+02    0.5937512615E-04    0.6169078091E+00    0.1665821883E-04    0.8996423875E-04    0.4555099851E-02
    0.4900000000E+02    0.5999401488E-04    0.6197679201E+00    0.1704554993E-04    0.9350950264E-04    0.4557186875E-02
    0.1000000000E+02    0.4389038737E-04    0.4349582056E+00    0.1021370962E-04    0.2204406812E-04    0.4432319112E-02
    0.3000000000E+02    0.5424013906E-04    0.5797632167E+00    0.1358315072E-04    0.5950616777E-04    0.4528537428E-02
    0.5000000000E+02    0.6030575825E-04    0.6211213537E+00    0.1724084060E-04    0.9528001166E-04    0.4558176113E-02
    0.7000000000E+02    0.6688243606E-04    0.6407095945E+00    0.2132753477E-04    0.1304829327E-03    0.4572529065E-02
    0.9000000000E+02    0.7405491297E-04    0.6521350825E+00    0.2565285710E-04    0.1655029011E-03    0.4580687739E-02
    0.1100000000E+03    0.8169839473E-04    0.6596201722E+00    0.3012972141E-04    0.2005395919E-03    0.4585628702E-02
    0.1300000000E+03    0.8971428530E-04    0.6649033672E+00    0.3471754167E-04    0.2357161744E-03    0.4588639021E-02
    0.1500000000E+03    0.9803675082E-04    0.6688315967E+00    0.3939637192E-04    0.2711175948E-03    0.4590374819E-02
    0.1700000000E+03    0.1066225637E-03    0.6718668089E+00    0.4415618498E-04    0.3068072035E-03    0.4591209423E-02
    0.1900000000E+03    0.1154431478E-03    0.6742823951E+00    0.4899208866E-04    0.3428351126E-03    0.4591372643E-02
    0.2100000000E+03    0.1244794928E-03    0.6762504873E+00    0.5390201993E-04    0.3792428426E-03    0.4591014557E-02
    0.2300000000E+03    0.1337189820E-03    0.6778848654E+00    0.5888555799E-04    0.4160661051E-03    0.4590237762E-02
    0.2500000000E+03    0.1431533892E-03    0.6792637516E+00    0.6394327964E-04    0.4533365689E-03    0.4589114991E-02
    0.2700000000E+03    0.1527775859E-03    0.6804426941E+00    0.6907639342E-04    0.4910830347E-03    0.4587699346E-02
    0.2900000000E+03    0.1625886868E-03    0.6814622273E+00    0.7428652477E-04    0.5293322466E-03    0.4586030525E-02
    0.3100000000E+03    0.1725854723E-03    0.6823526231E+00    0.7957558619E-04    0.5681094731E-03    0.4584138801E-02
    0.3300000000E+03    0.1827679907E-03    0.6831369455E+00    0.8494569726E-04    0.6074389334E-03    0.4582047626E-02
    0.3500000000E+03    0.1931372783E-03    0.6838330752E+00    0.9039913481E-04    0.6473441206E-03    0.4579775407E-02
    0.3700000000E+03    0.2036951604E-03    0.6844550882E+00    0.9593830162E-04    0.6878480511E-03    0.4577336738E-02
    0.3900000000E+03    0.2144441072E-03    0.6850142166E+00    0.1015657071E-03    0.7289734626E-03    0.4574743284E-02
    0.4100000000E+03    0.2253871286E-03    0.6855195323E+00    0.1072839554E-03    0.7707429740E-03    0.4572004416E-02
    0.4300000000E+03    0.2365276972E-03    0.6859784426E+00    0.1130957391E-03    0.8131792173E-03    0.4569127681E-02
    0.4500000000E+03    0.2478696913E-03    0.6863970550E+00    0.1190038357E-03    0.8563049497E-03    0.4566119165E-02
    0.4700000000E+03    0.2594173524E-03    0.6867804505E+00    0.1250111069E-03    0.9001431493E-03    0.4562983755E-02
    0.4900000000E+03    0.2711752547E-03    0.6871328905E+00    0.1311204996E-03    0.9447170991E-03    0.4559725351E-02
    0.1000000000E+03    0.7782482065E-04    0.6562307671E+00    0.2787556047E-04    0.1830102746E-03    0.4583458516E-02
    0.3000000000E+03    0.1675638919E-03    0.6819219845E+00    0.7692106090E-04    0.5486533239E-03    0.4585110925E-02
    0.5000000000E+03    0.2771345609E-03    0.6872986496E+00    0.1342144360E-03    0.9672873583E-03    0.4558051016E-02
    0.7000000000E+03    0.4087243017E-03    0.6896265544E+00    0.2022557355E-03    0.1463445947E-02    0.4518525427E-02
    0.9000000000E+03    0.5689103464E-03    0.6909252163E+00    0.2847459892E-03    0.2065067368E-02    0.4467166775E-02
    0.1100000000E+04    0.7675858637E-03    0.6917532243E+00    0.3868985221E-03    0.2810633303E-02    0.4401740598E-02
    0.1300000000E+04    0.1019478310E-02    0.6923269351E+00    0.5163634975E-03    0.3756429682E-02    0.4317989903E-02
    0.1500000000E+04    0.1347060842E-02    0.6927477434E+00    0.6847745757E-03    0.4988058670E-02    0.4209087024E-02
    0.1700000000E+04    0.1785633513E-02    0.6930694788E+00    0.9104021544E-03    0.6640097160E-02    0.4064277316E-02
    0.1900000000E+04    0.2391999402E-02    0.6933233668E+00    0.1222681620E-02    0.8929717875E-02    0.3866539859E-02
    0.2100000000E+04    0.3257944588E-02    0.6935287648E+00    0.1669288551E-02    0.1220953681E-01    0.3589255804E-02
    0.2300000000E+04    0.4523478499E-02    0.6936983101E+00    0.2323262969E-02    0.1702207680E-01    0.3194251517E-02
    0.2500000000E+04    0.6352223498E-02    0.6938406027E+00    0.3270924853E-02    0.2401539732E-01    0.2644040654E-02
    0.2700000000E+04    0.8754178197E-02    0.6939616981E+00    0.4521011770E-02    0.3327962874E-01    0.1961089764E-02
    0.2900000000E+04    0.1127506919E-01    0.6940659828E+00    0.5842677876E-02    0.4314415414E-01    0.1310051944E-02
    0.3100000000E+04    0.1325774776E-01    0.6941567125E+00    0.6896038835E-02    0.5110575458E-01    0.8824888841E-03
    0.3300000000E+04    0.1457554750E-01    0.6942363541E+00    0.7611716125E-02    0.5662596242E-01    0.6809225439E-03
    0.3500000000E+04    0.1548629630E-01    0.6943068108E+00    0.8120200028E-02    0.6064566781E-01    0.6031106428E-03
    0.3700000000E+04    0.1620660083E-01    0.6943695745E+00    0.8532550835E-02    0.6397615691E-01    0.5761076985E-03
    0.3900000000E+04    0.1684020347E-01    0.6944258311E+00    0.8902209576E-02    0.6700968849E-01    0.5676690453E-03
    0.4100000000E+04    0.1742868972E-01    0.6944765348E+00    0.9250619718E-02    0.6990389007E-01    0.5657247741E-03
    0.4300000000E+04    0.1798801807E-01    0.6945224625E+00    0.9585967559E-02    0.7271870318E-01    0.5660027954E-03
    0.4500000000E+04    0.1852448837E-01    0.6945642528E+00    0.9911424882E-02    0.7547698344E-01    0.5670164761E-03
    0.4700000000E+04    0.1904085121E-01    0.6946024356E+00    0.1022831706E-01    0.7818789839E-01    0.5682511431E-03
    0.4900000000E+04    0.1953854999E-01    0.6946374540E+00    0.1053729048E-01    0.8085558380E-01    0.5695297140E-03
    0.1000000000E+04    0.6626559575E-03    0.6913804958E+00    0.3329576445E-03    0.2416863026E-02    0.4436428282E-02
    0.3000000000E+04    0.1235741298E-01    0.6941128724E+00    0.6415386464E-02    0.4745636093E-01    0.1063298849E-02
    0.5000000000E+04    0.1978070664E-01    0.6946538957E+00    0.1068893509E-01    0.8217395872E-01    0.5701647715E-03
    0.7000000000E+04    0.2381578544E-01    0.6948825596E+00    0.1337310878E-01    0.1066256911E+00    0.5810141102E-03
    0.9000000000E+04    0.2664000037E-01    0.6950077012E+00    0.1551689238E-01    0.1280370498E+00    0.5892422881E-03
    0.1100000000E+05    0.2860356417E-01    0.6950860929E+00    0.1725481214E-01    0.1470772913E+00    0.5958847145E-03
    0.1300000000E+05    0.2994242895E-01    0.6951394849E+00    0.1868026059E-01    0.1642212816E+00    0.6014653750E-03
    0.1500000000E+05    0.3082020958E-01    0.6951779842E+00    0.1986009812E-01    0.1798162738E+00    0.6062837198E-03
    0.1700000000E+05    0.3135312374E-01    0.6952069179E+00    0.2084344870E-01    0.1941227294E+00    0.6105273440E-03
    0.1900000000E+05    0.3162542810E-01    0.6952293559E+00    0.2166722238E-01    0.2073403586E+00    0.6143217156E-03
    0.2100000000E+05    0.3169928626E-01    0.6952471898E+00    0.2235969868E-01    0.2196252746E+00    0.6177549747E-03
    0.2300000000E+05    0.3162125704E-01    0.6952616472E+00    0.2294291935E-01    0.2311016112E+00    0.6208914562E-03
    0.2500000000E+05    0.3142666687E-01    0.6952735590E+00    0.2343432677E-01    0.2418695874E+00    0.6237795843E-03
    0.2700000000E+05    0.3114262116E-01    0.6952835068E+00    0.2384791118E-01    0.2520112261E+00    0.6264567382E-03
    0.2900000000E+05    0.3079011879E-01    0.6952919098E+00    0.2419503002E-01    0.2615944896E+00    0.6289523857E-03
    0.3100000000E+05    0.3038556273E-01    0.6952990774E+00    0.2448500384E-01    0.2706763217E+00    0.6312901771E-03
    0.3300000000E+05    0.2994185607E-01    0.6953052426E+00    0.2472555653E-01    0.2793049207E+00    0.6334893873E-03
    0.3500000000E+05    0.2946920855E-01    0.6953105844E+00    0.2492314561E-01    0.2875214626E+00    0.6355659367E-03
    0.3700000000E+05    0.2897573765E-01    0.6953152425E+00    0.2508321316E-01    0.2953614233E+00    0.6375331298E-03
    0.3900000000E+05    0.2846792163E-01    0.6953193269E+00    0.2521037895E-01    0.3028556073E+00    0.6394022008E-03
    0.4100000000E+05    0.2795094480E-01    0.6953229261E+00    0.2530859076E-01    0.3100309540E+00    0.6411827232E-03
    0.4300000000E+05    0.2742896304E-01    0.6953261115E+00    0.2538124252E-01    0.3169111790E+00    0.6428829237E-03
    0.4500000000E+05    0.2690530984E-01    0.6953289416E+00    0.2543126819E-01    0.3235172869E+00    0.6445099238E-03
    0.4700000000E+05    0.2638265753E-01    0.6953314646E+00    0.2546121693E-01    0.3298679859E+00    0.6460699305E-03
    0.4900000000E+05    0.2586314433E-01    0.6953337206E+00    0.2547331385E-01    0.3359800254E+00    0.6475683871E-03
    0.1000000000E+05    0.2771253849E-01    0.6950509717E+00    0.1642999230E-01    0.1378202731E+00    0.5927216348E-03
    0.3000000000E+05    0.3059346963E-01    0.6952956320E+00    0.2434664422E-01    0.2661948897E+00    0.6301397198E-03
    0.5000000000E+05    0.2560511228E-01    0.6953347593E+00    0.2547328698E-01    0.3389513156E+00    0.6482960564E-03
    0.7000000000E+05    0.2086836432E-01    0.6953473953E+00    0.2490136418E-01    0.3888306403E+00    0.6605340542E-03
    0.9000000000E+05    0.1709101978E-01    0.6953520978E+00    0.2378944230E-01    0.4257222263E+00    0.6698230867E-03
    0.1100000000E+06    0.1415843251E-01    0.6953535992E+00    0.2252736444E-01    0.4542157135E+00    0.6773329579E-03
    0.1300000000E+06    0.1187567704E-01    0.6953535959E+00    0.2126676718E-01    0.4768886400E+00    0.6836484086E-03
    0.1500000000E+06    0.1007969636E-01    0.6953528220E+00    0.2006830387E-01    0.4953434025E+00    0.6891047875E-03
    0.1700000000E+06    0.8648589027E-02    0.6953516356E+00    0.1895401761E-01    0.5106407181E+00    0.6939126846E-03
    0.1900000000E+06    0.7493559597E-02    0.6953502261E+00    0.1792876734E-01    0.5235140208E+00    0.6982131928E-03
    0.2100000000E+06    0.6549985528E-02    0.6953487000E+00    0.1698975550E-01    0.5344874276E+00    0.7021055603E-03
    0.2300000000E+06    0.5770455837E-02    0.6953471192E+00    0.1613097717E-01    0.5439454810E+00    0.7056623050E-03
    0.2500000000E+06    0.5119789134E-02    0.6953455212E+00    0.1534534602E-01    0.5521765740E+00    0.7089380561E-03
    0.2700000000E+06    0.4571553500E-02    0.6953439285E+00    0.1462570678E-01    0.5594010794E+00    0.7119750113E-03
    0.2900000000E+06    0.4105642613E-02    0.6953423553E+00    0.1396529828E-01    0.5657901582E+00    0.7148064564E-03
    0.3100000000E+06    0.3706577703E-02    0.6953408099E+00    0.1335794138E-01    0.5714786718E+00    0.7174591186E-03
    0.3300000000E+06    0.3362306512E-02    0.6953392972E+00    0.1279808982E-01    0.5765742473E+00    0.7199547901E-03
    0.3500000000E+06    0.3063344241E-02    0.6953378201E+00    0.1228081439E-01    0.5811637688E+00    0.7223114764E-03
    0.3700000000E+06    0.2802151911E-02    0.6953363797E+00    0.1180175713E-01    0.5853181062E+00    0.7245442297E-03
    0.3900000000E+06    0.2572681266E-02    0.6953349763E+00    0.1135707430E-01    0.5890956142E+00    0.7266657631E-03
    0.4100000000E+06    0.2370037823E-02    0.6953336096E+00    0.1094337781E-01    0.5925447575E+00    0.7286869134E-03
    0.4300000000E+06    0.2190228688E-02    0.6953322789E+00    0.1055767961E-01    0.5957061052E+00    0.7306169946E-03
    0.4500000000E+06    0.2029971874E-02    0.6953309833E+00    0.1019734113E-01    0.5986138650E+00    0.7324640715E-03
    0.4700000000E+06    0.1886550689E-02    0.6953297214E+00    0.9860028324E-02    0.6012970737E+00    0.7342351742E-03
    0.4900000000E+06    0.1757701540E-02    0.6953284923E+00    0.9543672322E-02    0.6037805329E+00    0.7359364687E-03
    0.1000000000E+06    0.1553165934E-01    0.6953531082E+00    0.2316457676E-01    0.4408272053E+00    0.6737557377E-03
    0.3000000000E+06    0.3898576548E-02    0.6953415787E+00    0.1365534988E-01    0.5687147070E+00    0.7161536730E-03
    0.5000000000E+06    0.1698136128E-02    0.6953278896E+00    0.9392770578E-02    0.6049541341E+00    0.7367626627E-03
    0.7000000000E+06    0.9416132425E-03    0.6953172583E+00    0.7123120573E-02    0.6218097224E+00    0.7506596595E-03
    0.9000000000E+06    0.5964976995E-03    0.6953086869E+00    0.5726431145E-02    0.6315103731E+00    0.7612099015E-03
    0.1100000000E+07    0.4110778081E-03    0.6953015201E+00    0.4783210735E-02    0.6378036818E+00    0.7697403119E-03
    0.1300000000E+07    0.3002248932E-03    0.6952953621E+00    0.4104438567E-02    0.6422131151E+00    0.7769144631E-03
    0.1500000000E+07    0.2287656017E-03    0.6952899618E+00    0.3592989231E-02    0.6454729561E+00    0.7831130162E-03
    0.1700000000E+07    0.1800462522E-03    0.6952851507E+00    0.3193987133E-02    0.6479802180E+00    0.7885750589E-03
    0.1900000000E+07    0.1453602867E-03    0.6952808109E+00    0.2874134307E-02    0.6499681692E+00    0.7934607984E-03
    0.2100000000E+07    0.1197988045E-03    0.6952768567E+00    0.2612072492E-02    0.6515827943E+00    0.7978829390E-03
    0.2300000000E+07    0.1004242257E-03    0.6952732238E+00    0.2393479951E-02    0.6529200968E+00    0.8019238369E-03
    0.2500000000E+07    0.8539179857E-04    0.6952698629E+00    0.2208398152E-02    0.6540457888E+00    0.8056455365E-03
    0.2700000000E+07    0.7349593321E-04    0.6952667352E+00    0.2049689818E-02    0.6550063572E+00    0.8090959656E-03
    0.2900000000E+07    0.6392188711E-04    0.6952638098E+00    0.1912107073E-02    0.6558356115E+00    0.8123129313E-03
    0.3100000000E+07    0.5610308381E-04    0.6952610615E+00    0.1791705715E-02    0.6565587269E+00    0.8153267925E-03
    0.3300000000E+07    0.4963567770E-04    0.6952584695E+00    0.1685464475E-02    0.6571948342E+00    0.8181623030E-03
    0.3500000000E+07    0.4422555187E-04    0.6952560166E+00    0.1591030249E-02    0.6577587301E+00    0.8208399161E-03
    0.3700000000E+07    0.3965440825E-04    0.6952536883E+00    0.1506543237E-02    0.6582620382E+00    0.8233767303E-03
    0.3900000000E+07    0.3575747837E-04    0.6952514722E+00    0.1430514231E-02    0.6587140157E+00    0.8257871876E-03
    0.4100000000E+07    0.3240851793E-04    0.6952493578E+00    0.1361736769E-02    0.6591221268E+00    0.8280835987E-03
    0.4300000000E+07    0.2950948734E-04    0.6952473358E+00    0.1299223129E-02    0.6594924558E+00    0.8302765444E-03
    0.4500000000E+07    0.2698331793E-04    0.6952453984E+00    0.1242156949E-02    0.6598300125E+00    0.8323751864E-03
    0.4700000000E+07    0.2476875290E-04    0.6952435385E+00    0.1189857640E-02    0.6601389588E+00    0.8343875115E-03
    0.4900000000E+07    0.2281661004E-04    0.6952417500E+00    0.1141753311E-02    0.6604227807E+00    0.8363205245E-03
    0.1000000000E+07    0.4909653599E-03    0.6953049570E+00    0.5213037570E-02    0.6349604032E+00    0.7656768871E-03
    0.3000000000E+07    0.5982139586E-04    0.6952624149E+00    0.1849965718E-02    0.6562091225E+00    0.8138435889E-03
    0.5000000000E+07    0.2192618795E-04    0.6952408809E+00    0.1119120038E-02    0.6605562078E+00    0.8372592485E-03
    0.7000000000E+07    0.1129581247E-04    0.6952262059E+00    0.8007216191E-03    0.6624260247E+00    0.8530491572E-03
    0.9000000000E+07    0.6887966534E-05    0.6952150077E+00    0.6227398304E-03    0.6634659693E+00    0.8650365341E-03
    0.1100000000E+08    0.4647033130E-05    0.6952059254E+00    0.5091661950E-03    0.6641279811E+00    0.8747289684E-03
    0.1300000000E+08    0.3354224986E-05    0.6951982710E+00    0.4304389491E-03    0.6645863145E+00    0.8828803998E-03
    0.1500000000E+08    0.2541078563E-05    0.6951916472E+00    0.3726763209E-03    0.6649223913E+00    0.8899233354E-03
    0.1700000000E+08    0.1996407424E-05    0.6951858035E+00    0.3285008898E-03    0.6651793479E+00    0.8961294291E-03
    0.1900000000E+08    0.1613656610E-05    0.6951805713E+00    0.2936308671E-03    0.6653821676E+00    0.9016807110E-03
    0.2100000000E+08    0.1334342684E-05    0.6951758319E+00    0.2654112008E-03    0.6655463198E+00    0.9067052382E-03
    0.2300000000E+08    0.1124196012E-05    0.6951714981E+00    0.2421083774E-03    0.6656818943E+00    0.9112965859E-03
    0.2500000000E+08    0.9620550899E-06    0.6951675043E+00    0.2225427052E-03    0.6657957522E+00    0.9155252506E-03
    0.2700000000E+08    0.8342790561E-06    0.6951637998E+00    0.2058836085E-03    0.6658927219E+00    0.9194456893E-03
