  Pressure (Pa) 22mC5-500 (mol/kg) 24mC5-500 (mol/kg) 2mC6-500 (mol/kg) 3mC6-500 (mol/kg) C7-500 (mol/kg)
    0.1000000000E+01    0.9961844679E-05    0.1950001424E+00    0.7804789471E-05    0.4083345863E-05    0.4145652254E-02
    0.3000000000E+01    0.1775513399E-04    0.3749074815E+00    0.1330187776E-04    0.1007788747E-04    0.4169750848E-02
    0.5000000000E+01    0.2095708154E-04    0.4597406212E+00    0.1563920454E-04    0.1551323936E-04    0.4175655920E-02
    0.7000000000E+01    0.2278426513E-04    0.5091134901E+00    0.1728146367E-04    0.2068481923E-04    0.4178197497E-02
    0.9000000000E+01    0.2408828193E-04    0.5414165082E+00    0.1875999886E-04    0.2569021653E-04    0.4179438793E-02
    0.1100000000E+02    0.2516839620E-04    0.5641975180E+00    0.2021939707E-04    0.3057772011E-04    0.4180031053E-02
    0.1300000000E+02    0.2614815615E-04    0.5811260080E+00    0.2170126062E-04    0.3537584811E-04    0.4180251344E-02
    0.1500000000E+02    0.2708398458E-04    0.5942006026E+00    0.2321551879E-04    0.4010327992E-04    0.4180238740E-02
    0.1700000000E+02    0.2800334883E-04    0.6046028863E+00    0.2476184793E-04    0.4477312173E-04    0.4180070991E-02
    0.1900000000E+02    0.2892011283E-04    0.6130762019E+00    0.2633681482E-04    0.4939503370E-04    0.4179795013E-02
    0.2100000000E+02    0.2984134514E-04    0.6201115871E+00    0.2793637577E-04    0.5397640529E-04    0.4179440799E-02
    0.2300000000E+02    0.3077056827E-04    0.6260464492E+00    0.2955673509E-04    0.5852305543E-04    0.4179028399E-02
    0.2500000000E+02    0.3170939955E-04    0.6311202895E+00    0.3119459750E-04    0.6303967449E-04    0.4178571713E-02
    0.2700000000E+02    0.3265841696E-04    0.6355078134E+00    0.3284719603E-04    0.6753011645E-04    0.4178080664E-02
    0.2900000000E+02    0.3361763139E-04    0.6393394553E+00    0.3451224207E-04    0.7199759936E-04    0.4177562516E-02
    0.3100000000E+02    0.3458675081E-04    0.6427145662E+00    0.3618785491E-04    0.7644484723E-04    0.4177022701E-02
    0.3300000000E+02    0.3556533036E-04    0.6457101526E+00    0.3787249226E-04    0.8087419320E-04    0.4176465349E-02
    0.3500000000E+02    0.3655285842E-04    0.6483868234E+00    0.3956488911E-04    0.8528765621E-04    0.4175893657E-02
    0.3700000000E+02    0.3754880568E-04    0.6507929346E+00    0.4126400651E-04    0.8968699912E-04    0.4175310128E-02
    0.3900000000E+02    0.3855265282E-04    0.6529675359E+00    0.4296898960E-04    0.9407377353E-04    0.4174716748E-02
    0.4100000000E+02    0.3956390533E-04    0.6549425076E+00    0.4467913358E-04    0.9844935489E-04    0.4174115108E-02
    0.4300000000E+02    0.4058210091E-04    0.6567441330E+00    0.4639385636E-04    0.1028149704E-03    0.4173506497E-02
    0.4500000000E+02    0.4160681236E-04    0.6583942755E+00    0.4811267639E-04    0.1071717211E-03    0.4172891966E-02
    0.4700000000E+02    0.4263764791E-04    0.6599112702E+00    0.4983519489E-04    0.1115206005E-03    0.4172272377E-02
    0.4900000000E+02    0.4367424999E-04    0.6613106077E+00    0.5156108143E-04    0.1158625091E-03    0.4171648446E-02
    0.1000000000E+02    0.2464630702E-04    0.5537131820E+00    0.1948831276E-04    0.2814661797E-04    0.4179794025E-02
    0.3000000000E+02    0.3410097844E-04    0.6410788209E+00    0.3534883120E-04    0.7422359870E-04    0.4177295033E-02
    0.5000000000E+02    0.4419461065E-04    0.6619703513E+00    0.5242520022E-04    0.1180311084E-03    0.4171335042E-02
    0.7000000000E+02    0.5484043867E-04    0.6713471621E+00    0.6983909744E-04    0.1612032213E-03    0.4164940919E-02
    0.9000000000E+02    0.6583641451E-04    0.6766724238E+00    0.8746115123E-04    0.2043005261E-03    0.4158427640E-02
    0.1100000000E+03    0.7710532531E-04    0.6801055486E+00    0.1052894438E-03    0.2476130212E-03    0.4151857262E-02
    0.1300000000E+03    0.8861798031E-04    0.6825028691E+00    0.1233471138E-03    0.2913226212E-03    0.4145239928E-02
    0.1500000000E+03    0.1003652573E-03    0.6842717116E+00    0.1416615852E-03    0.3355581485E-03    0.4138571788E-02
    0.1700000000E+03    0.1123473404E-03    0.6856305793E+00    0.1602597602E-03    0.3804190194E-03    0.4131844926E-02
    0.1900000000E+03    0.1245691306E-03    0.6867072043E+00    0.1791670667E-03    0.4259870813E-03    0.4125050419E-02
    0.2100000000E+03    0.1370381196E-03    0.6875812490E+00    0.1984075165E-03    0.4723331717E-03    0.4118179333E-02
    0.2300000000E+03    0.1497633445E-03    0.6883049740E+00    0.2180040059E-03    0.5195210459E-03    0.4111223025E-02
    0.2500000000E+03    0.1627548507E-03    0.6889140873E+00    0.2379786407E-03    0.5676098779E-03    0.4104173202E-02
    0.2700000000E+03    0.1760234133E-03    0.6894338168E+00    0.2583530258E-03    0.6166559369E-03    0.4097021883E-02
    0.2900000000E+03    0.1895803914E-03    0.6898824924E+00    0.2791485110E-03    0.6667137630E-03    0.4089761340E-02
    0.3100000000E+03    0.2034376588E-03    0.6902737527E+00    0.3003863961E-03    0.7178370250E-03    0.4082384033E-02
    0.3300000000E+03    0.2176075759E-03    0.6906179558E+00    0.3220881043E-03    0.7700791719E-03    0.4074882539E-02
    0.3500000000E+03    0.2321029872E-03    0.6909231094E+00    0.3442753303E-03    0.8234939444E-03    0.4067249501E-02
    0.3700000000E+03    0.2469372350E-03    0.6911955019E+00    0.3669701695E-03    0.8781357920E-03    0.4059477570E-02
    0.3900000000E+03    0.2621241816E-03    0.6914401403E+00    0.3901952333E-03    0.9340602247E-03    0.4051559363E-02
    0.4100000000E+03    0.2776782393E-03    0.6916610606E+00    0.4139737542E-03    0.9913241187E-03    0.4043487421E-02
    0.4300000000E+03    0.2936144048E-03    0.6918615526E+00    0.4383296841E-03    0.1049985991E-02    0.4035254167E-02
    0.4500000000E+03    0.3099482972E-03    0.6920443243E+00    0.4632877872E-03    0.1110106253E-02    0.4026851877E-02
    0.4700000000E+03    0.3266961998E-03    0.6922116257E+00    0.4888737309E-03    0.1171747448E-02    0.4018272641E-02
    0.4900000000E+03    0.3438751037E-03    0.6923653410E+00    0.5151141745E-03    0.1234974488E-02    0.4009508336E-02
    0.1000000000E+03    0.7143924650E-04    0.6785563291E+00    0.9634828163E-04    0.2259168498E-03    0.4155148418E-02
    0.3000000000E+03    0.1964707277E-03    0.6900845879E+00    0.2897108193E-03    0.6921388753E-03    0.4086087748E-02
    0.5000000000E+03    0.3526316962E-03    0.6924376107E+00    0.5284884581E-03    0.1267203687E-02    0.4005054179E-02
    0.7000000000E+03    0.5552787497E-03    0.6934509629E+00    0.8379308188E-03    0.2013515329E-02    0.3904012192E-02
    0.9000000000E+03    0.8287491248E-03    0.6940151947E+00    0.1255710151E-02    0.3022697156E-02    0.3772116351E-02
    0.1100000000E+04    0.1213991439E-02    0.6943747058E+00    0.1844900357E-02    0.4448277098E-02    0.3592088467E-02
    0.1300000000E+04    0.1783084592E-02    0.6946237960E+00    0.2716625262E-02    0.6561292550E-02    0.3334787629E-02
    0.1500000000E+04    0.2663732838E-02    0.6948065585E+00    0.4068350922E-02    0.9844910210E-02    0.2951452528E-02
    0.1700000000E+04    0.4056122660E-02    0.6949463685E+00    0.6211657577E-02    0.1506642923E-01    0.2374104978E-02
    0.1900000000E+04    0.6106770503E-02    0.6950567721E+00    0.9382189363E-02    0.2282418435E-01    0.1582272044E-02
    0.2100000000E+04    0.8435606719E-02    0.6951461616E+00    0.1301114400E-01    0.3177151320E-01    0.7869185121E-03
    0.2300000000E+04    0.1024133931E-01    0.6952200132E+00    0.1586781961E-01    0.3891717247E-01    0.3046772471E-03
    0.2500000000E+04    0.1139842345E-01    0.6952820526E+00    0.1774540876E-01    0.4372545511E-01    0.1170781917E-03
    0.2700000000E+04    0.1222150953E-01    0.6953349027E+00    0.1911958139E-01    0.4733482736E-01    0.5887508312E-04
    0.2900000000E+04    0.1291002882E-01    0.6953804632E+00    0.2029511478E-01    0.5048277360E-01    0.4219736535E-04
    0.3100000000E+04    0.1353812733E-01    0.6954201442E+00    0.2138563906E-01    0.5344513456E-01    0.3756283207E-04
    0.3300000000E+04    0.1413000850E-01    0.6954550140E+00    0.2242804337E-01    0.5631109094E-01    0.3633393476E-04
    0.3500000000E+04    0.1469381847E-01    0.6954858970E+00    0.2343443365E-01    0.5910926619E-01    0.3606449266E-04
    0.3700000000E+04    0.1523280005E-01    0.6955134395E+00    0.2440933506E-01    0.6184971793E-01    0.3606433166E-04
    0.3900000000E+04    0.1574868811E-01    0.6955381551E+00    0.2535495394E-01    0.6453684372E-01    0.3613785119E-04
    0.4100000000E+04    0.1624272501E-01    0.6955604575E+00    0.2627275718E-01    0.6717327023E-01    0.3622936329E-04
    0.4300000000E+04    0.1671596527E-01    0.6955806833E+00    0.2716394701E-01    0.6976102481E-01    0.3632306205E-04
    0.4500000000E+04    0.1716936921E-01    0.6955991093E+00    0.2802960600E-01    0.7230189210E-01    0.3641459452E-04
    0.4700000000E+04    0.1760383348E-01    0.6956159653E+00    0.2887074328E-01    0.7479752570E-01    0.3650290877E-04
    0.4900000000E+04    0.1802020260E-01    0.6956314434E+00    0.2968831088E-01    0.7724948562E-01    0.3658789595E-04
    0.1000000000E+04    0.1003859273E-02    0.6942128831E+00    0.1523426715E-02    0.3670153605E-02    0.3689579057E-02
    0.3000000000E+04    0.1322951195E-01    0.6954009652E+00    0.2084776312E-01    0.5197929790E-01    0.3915350951E-04
    0.5000000000E+04    0.1822185255E-01    0.6956387174E+00    0.3008853980E-01    0.7845955368E-01    0.3662918485E-04
    0.7000000000E+04    0.2147735281E-01    0.6957404878E+00    0.3705216289E-01    0.1006926003E+00    0.3732339064E-04
    0.9000000000E+04    0.2360987575E-01    0.6957969365E+00    0.4244862508E-01    0.1198740611E+00    0.3784988577E-04
    0.1100000000E+05    0.2498576966E-01    0.6958327943E+00    0.4671453618E-01    0.1367517279E+00    0.3827533636E-04
    0.1300000000E+05    0.2583799214E-01    0.6958575718E+00    0.5013851225E-01    0.1518337622E+00    0.3863301186E-04
    0.1500000000E+05    0.2632022119E-01    0.6958757060E+00    0.5291893966E-01    0.1654789475E+00    0.3894196952E-04
    0.1700000000E+05    0.2653693382E-01    0.6958895450E+00    0.5519668735E-01    0.1779488172E+00    0.3921416707E-04
    0.1900000000E+05    0.2656095390E-01    0.6959004476E+00    0.5707456569E-01    0.1894392456E+00    0.3945761141E-04
    0.2100000000E+05    0.2644411335E-01    0.6959092546E+00    0.5862939045E-01    0.2001003831E+00    0.3967793227E-04
    0.2300000000E+05    0.2622395680E-01    0.6959165141E+00    0.5991973099E-01    0.2100496774E+00    0.3987924177E-04
    0.2500000000E+05    0.2592808522E-01    0.6959225986E+00    0.6099104094E-01    0.2193806365E+00    0.4006463679E-04
    0.2700000000E+05    0.2557704349E-01    0.6959277700E+00    0.6187914727E-01    0.2281688813E+00    0.4023650893E-04
    0.2900000000E+05    0.2518628399E-01    0.6959322180E+00    0.6261267955E-01    0.2364764231E+00    0.4039674435E-04
    0.3100000000E+05    0.2476752872E-01    0.6959360831E+00    0.6321479687E-01    0.2443547491E+00    0.4054685735E-04
    0.3300000000E+05    0.2432973121E-01    0.6959394718E+00    0.6370443867E-01    0.2518470890E+00    0.4068808241E-04
    0.3500000000E+05    0.2387976650E-01    0.6959424662E+00    0.6409724593E-01    0.2589901070E+00    0.4082143945E-04
    0.3700000000E+05    0.2342293320E-01    0.6959451305E+00    0.6440625019E-01    0.2658151853E+00    0.4094778095E-04
    0.3900000000E+05    0.2296332354E-01    0.6959475158E+00    0.6464239583E-01    0.2723494085E+00    0.4106782689E-04
    0.4100000000E+05    0.2250409919E-01    0.6959496632E+00    0.6481494118E-01    0.2786163308E+00    0.4118219094E-04
    0.4300000000E+05    0.2204769906E-01    0.6959516061E+00    0.6493176996E-01    0.2846365787E+00    0.4129140048E-04
    0.4500000000E+05    0.2159599730E-01    0.6959533720E+00    0.6499963586E-01    0.2904283299E+00    0.4139591215E-04
    0.4700000000E+05    0.2115042452E-01    0.6959549836E+00    0.6502435635E-01    0.2960076983E+00    0.4149612398E-04
    0.4900000000E+05    0.2071206147E-01    0.6959564599E+00    0.6501096772E-01    0.3013890455E+00    0.4159238503E-04
    0.1000000000E+05    0.2437550702E-01    0.6958166665E+00    0.4470223292E-01    0.1285647972E+00    0.3807269849E-04
    0.3000000000E+05    0.2497979051E-01    0.6959342160E+00    0.6292889459E-01    0.2404663649E+00    0.4047298331E-04
    0.5000000000E+05    0.2049584394E-01    0.6959571525E+00    0.6499137401E-01    0.3040095335E+00    0.4163913167E-04
    0.7000000000E+05    0.1665134404E-01    0.6959667326E+00    0.6340917495E-01    0.3485492360E+00    0.4242541054E-04
    0.9000000000E+05    0.1368777614E-01    0.6959719128E+00    0.6073676303E-01    0.3824155205E+00    0.4302231453E-04
    0.1100000000E+06    0.1141569779E-01    0.6959751173E+00    0.5778437909E-01    0.4093477166E+00    0.4350493673E-04
    0.1300000000E+06    0.9652061636E-02    0.6959772710E+00    0.5485574224E-01    0.4314072123E+00    0.4391082534E-04
    0.1500000000E+06    0.8261428462E-02    0.6959788022E+00    0.5206943593E-01    0.4498676983E+00    0.4426151856E-04
    0.1700000000E+06    0.7147859223E-02    0.6959799359E+00    0.4946766633E-01    0.4655750968E+00    0.4457054363E-04
    0.1900000000E+06    0.6243386614E-02    0.6959808013E+00    0.4705918218E-01    0.4791201106E+00    0.4484696457E-04
    0.2100000000E+06    0.5499264667E-02    0.6959814776E+00    0.4483791340E-01    0.4909308572E+00    0.4509715772E-04
    0.2300000000E+06    0.4879981690E-02    0.6959820162E+00    0.4279156055E-01    0.5013267417E+00    0.4532578240E-04
    0.2500000000E+06    0.4359248798E-02    0.6959824514E+00    0.4090568152E-01    0.5105517059E+00    0.4553634873E-04
    0.2700000000E+06    0.3917303019E-02    0.6959828076E+00    0.3916564606E-01    0.5187957122E+00    0.4573156818E-04
    0.2900000000E+06    0.3539072517E-02    0.6959831020E+00    0.3755754254E-01    0.5262091447E+00    0.4591357965E-04
    0.3100000000E+06    0.3212909780E-02    0.6959833472E+00    0.3606855899E-01    0.5329127578E+00    0.4608410064E-04
    0.3300000000E+06    0.2929703384E-02    0.6959835530E+00    0.3468709922E-01    0.5390047241E+00    0.4624453157E-04
    0.3500000000E+06    0.2682245701E-02    0.6959837265E+00    0.3340276786E-01    0.5445657366E+00    0.4639602955E-04
    0.3700000000E+06    0.2464776276E-02    0.6959838734E+00    0.3220629396E-01    0.5496627715E+00    0.4653956190E-04
    0.3900000000E+06    0.2272647559E-02    0.6959839981E+00    0.3108942974E-01    0.5543519098E+00    0.4667594564E-04
    0.4100000000E+06    0.2102077088E-02    0.6959841044E+00    0.3004484334E-01    0.5586804839E+00    0.4680587724E-04
    0.4300000000E+06    0.1949961573E-02    0.6959841949E+00    0.2906601509E-01    0.5626887311E+00    0.4692995529E-04
    0.4500000000E+06    0.1813735880E-02    0.6959842721E+00    0.2814714163E-01    0.5664110840E+00    0.4704869810E-04
    0.4700000000E+06    0.1691264967E-02    0.6959843378E+00    0.2728304955E-01    0.5698771864E+00    0.4716255751E-04
    0.4900000000E+06    0.1580760272E-02    0.6959843936E+00    0.2646911880E-01    0.5731127028E+00    0.4727192981E-04
    0.1000000000E+06    0.1247784880E-01    0.6959736867E+00    0.5927016180E-01    0.3965946978E+00    0.4327504201E-04
    0.3000000000E+06    0.3370103153E-02    0.6959832301E+00    0.3679891427E-01    0.5296430811E+00    0.4600018248E-04
    0.5000000000E+06    0.1529514707E-02    0.6959844183E+00    0.2607965475E-01    0.5746510856E+00    0.4732504414E-04
    0.7000000000E+06    0.8681971894E-03    0.6959846229E+00    0.2012214152E-01    0.5974606143E+00    0.4821847561E-04
    0.9000000000E+06    0.5582271160E-03    0.6959845653E+00    0.1635680963E-01    0.6112576429E+00    0.4889677151E-04
    0.1100000000E+07    0.3886479418E-03    0.6959844181E+00    0.1376790653E-01    0.6205031277E+00    0.4944522361E-04
    0.1300000000E+07    0.2859491678E-03    0.6959842389E+00    0.1188074859E-01    0.6271298704E+00    0.4990648680E-04
    0.1500000000E+07    0.2191049969E-03    0.6959840501E+00    0.1044502051E-01    0.6321119038E+00    0.5030503097E-04
    0.1700000000E+07    0.1731905115E-03    0.6959838614E+00    0.9316532674E-02    0.6359935200E+00    0.5065622566E-04
    0.1900000000E+07    0.1403064261E-03    0.6959836773E+00    0.8406471950E-02    0.6391027473E+00    0.5097036985E-04
    0.2100000000E+07    0.1159551058E-03    0.6959834994E+00    0.7657186751E-02    0.6416490549E+00    0.5125470890E-04
    0.2300000000E+07    0.9742345246E-04    0.6959833286E+00    0.7029640424E-02    0.6437724736E+00    0.5151453726E-04
    0.2500000000E+07    0.8299630656E-04    0.6959831650E+00    0.6496468262E-02    0.6455701638E+00    0.5175384364E-04
    0.2700000000E+07    0.7154645013E-04    0.6959830082E+00    0.6037923318E-02    0.6471116521E+00    0.5197570925E-04
    0.2900000000E+07    0.6230843079E-04    0.6959828581E+00    0.5639400825E-02    0.6484480016E+00    0.5218256471E-04
    0.3100000000E+07    0.5474772787E-04    0.6959827142E+00    0.5289868330E-02    0.6496175579E+00    0.5237636177E-04
    0.3300000000E+07    0.4848195613E-04    0.6959825761E+00    0.4980837421E-02    0.6506496752E+00    0.5255869187E-04
    0.3500000000E+07    0.4323173413E-04    0.6959824436E+00    0.4705671048E-02    0.6515672051E+00    0.5273086997E-04
    0.3700000000E+07    0.3878911006E-04    0.6959823161E+00    0.4459105329E-02    0.6523882022E+00    0.5289399537E-04
    0.3900000000E+07    0.3499672535E-04    0.6959821933E+00    0.4236912186E-02    0.6531271196E+00    0.5304899655E-04
    0.4100000000E+07    0.3173373755E-04    0.6959820750E+00    0.4035656732E-02    0.6537956640E+00    0.5319666500E-04
    0.4300000000E+07    0.2890610838E-04    0.6959819608E+00    0.3852519752E-02    0.6544034183E+00    0.5333768100E-04
    0.4500000000E+07    0.2643977614E-04    0.6959818506E+00    0.3685165786E-02    0.6549583022E+00    0.5347263358E-04
    0.4700000000E+07    0.2427577363E-04    0.6959817439E+00    0.3531643723E-02    0.6554669177E+00    0.5360203622E-04
    0.4900000000E+07    0.2236668302E-04    0.6959816406E+00    0.3390310920E-02    0.6559348123E+00    0.5372633930E-04
    0.1000000000E+07    0.4620177161E-03    0.6959844980E+00    0.1495242050E-01    0.6162959524E+00    0.4918396913E-04
    0.3000000000E+07    0.5834519594E-04    0.6959827854E+00    0.5459091584E-02    0.6490516173E+00    0.5228098874E-04
    0.5000000000E+07    0.2149541265E-04    0.6959815902E+00    0.3323771813E-02    0.6561549853E+00    0.5378670449E-04
    0.7000000000E+07    0.1106834691E-04    0.6959807184E+00    0.2384889313E-02    0.6592545608E+00    0.5480210450E-04
    0.9000000000E+07    0.6730091850E-05    0.6959800319E+00    0.1857742848E-02    0.6609896298E+00    0.5557300162E-04
    0.1100000000E+08    0.4521496420E-05    0.6959794646E+00    0.1520483105E-02    0.6620981076E+00    0.5619632953E-04
    0.1300000000E+08    0.3246911282E-05    0.6959789804E+00    0.1286297257E-02    0.6628672477E+00    0.5672056572E-04
    0.1500000000E+08    0.2445461093E-05    0.6959785575E+00    0.1114262952E-02    0.6634320550E+00    0.5717352048E-04
    0.1700000000E+08    0.1909012212E-05    0.6959781817E+00    0.9825746300E-03    0.6638643325E+00    0.5757266154E-04
    0.1900000000E+08    0.1532430920E-05    0.6959778432E+00    0.8785519672E-03    0.6642057830E+00    0.5792969387E-04
    0.2100000000E+08    0.1257972553E-05    0.6959775351E+00    0.7943204380E-03    0.6644822816E+00    0.5825285196E-04
    0.2300000000E+08    0.1051786104E-05    0.6959772523E+00    0.7247326098E-03    0.6647107320E+00    0.5854815306E-04
    0.2500000000E+08    0.8929642920E-06    0.6959769906E+00    0.6662821908E-03    0.6649026437E+00    0.5882013043E-04
    0.2700000000E+08    0.7680296237E-06    0.6959767472E+00    0.6164985742E-03    0.6650661239E+00    0.5907228594E-04
