  Pressure (Pa) 22mC5-500 (mol/kg) 24mC5-500 (mol/kg) 2mC6-500 (mol/kg) 3mC6-500 (mol/kg) C7-500 (mol/kg)
    0.1000000000E+01    0.1174530172E-04    0.9949158285E-01    0.6061362759E-05    0.7086239426E-06    0.4241293243E-02
    0.3000000000E+01    0.2597423060E-04    0.2320677033E+00    0.1283972421E-04    0.1839941249E-05    0.4346647575E-02
    0.5000000000E+01    0.3403287133E-04    0.3163880252E+00    0.1634231548E-04    0.2885989690E-05    0.4413873084E-02
    0.7000000000E+01    0.3905391915E-04    0.3747430886E+00    0.1838804181E-04    0.3889966436E-05    0.4461057093E-02
    0.9000000000E+01    0.4240982188E-04    0.4175264028E+00    0.1972113509E-04    0.4866626049E-05    0.4496176360E-02
    0.1100000000E+02    0.4478409845E-04    0.4502372719E+00    0.2068594194E-04    0.5823404902E-05    0.4523436837E-02
    0.1300000000E+02    0.4654876062E-04    0.4760581887E+00    0.2145537740E-04    0.6764752612E-05    0.4545279003E-02
    0.1500000000E+02    0.4792003264E-04    0.4969586543E+00    0.2212141457E-04    0.7693613633E-05    0.4563219754E-02
    0.1700000000E+02    0.4903011165E-04    0.5142228137E+00    0.2273499299E-04    0.8612071316E-05    0.4578253105E-02
    0.1900000000E+02    0.4996311958E-04    0.5287237167E+00    0.2332509275E-04    0.9521672165E-05    0.4591058464E-02
    0.2100000000E+02    0.5077433940E-04    0.5410756343E+00    0.2390843996E-04    0.1042360642E-04    0.4602116482E-02
    0.2300000000E+02    0.5150106981E-04    0.5517233254E+00    0.2449469795E-04    0.1131881636E-04    0.4611777112E-02
    0.2500000000E+02    0.5216902582E-04    0.5609967365E+00    0.2508935873E-04    0.1220806510E-04    0.4620301427E-02
    0.2700000000E+02    0.5279625491E-04    0.5691458036E+00    0.2569540754E-04    0.1309198231E-04    0.4627888308E-02
    0.2900000000E+02    0.5339560978E-04    0.5763633190E+00    0.2631430733E-04    0.1397109568E-04    0.4634692030E-02
    0.3100000000E+02    0.5397635260E-04    0.5828003799E+00    0.2694659396E-04    0.1484585337E-04    0.4640834187E-02
    0.3300000000E+02    0.5454522061E-04    0.5885770819E+00    0.2759224221E-04    0.1571664035E-04    0.4646411969E-02
    0.3500000000E+02    0.5510714866E-04    0.5937900823E+00    0.2825089388E-04    0.1658379061E-04    0.4651504040E-02
    0.3700000000E+02    0.5566576827E-04    0.5985180519E+00    0.2892200109E-04    0.1744759641E-04    0.4656174783E-02
    0.3900000000E+02    0.5622375773E-04    0.6028256729E+00    0.2960491676E-04    0.1830831550E-04    0.4660477430E-02
    0.4100000000E+02    0.5678309142E-04    0.6067666158E+00    0.3029895153E-04    0.1916617677E-04    0.4664456398E-02
    0.4300000000E+02    0.5734521956E-04    0.6103857870E+00    0.3100340934E-04    0.2002138469E-04    0.4668149057E-02
    0.4500000000E+02    0.5791119936E-04    0.6137210477E+00    0.3171760924E-04    0.2087412296E-04    0.4671587088E-02
    0.4700000000E+02    0.5848179159E-04    0.6168045434E+00    0.3244089820E-04    0.2172455744E-04    0.4674797538E-02
    0.4900000000E+02    0.5905753246E-04    0.6196637430E+00    0.3317265826E-04    0.2257283858E-04    0.4677803647E-02
    0.1000000000E+02    0.4369153212E-04    0.4349046674E+00    0.2023617241E-04    0.5347176058E-05    0.4510608015E-02
    0.3000000000E+02    0.5368783723E-04    0.5796712746E+00    0.2662876890E-04    0.1440899360E-04    0.4637839236E-02
    0.5000000000E+02    0.5934745334E-04    0.6210167426E+00    0.3354153228E-04    0.2299621495E-04    0.4679236459E-02
    0.7000000000E+02    0.6545190304E-04    0.6405984614E+00    0.4124399864E-04    0.3137844687E-04    0.4700857809E-02
    0.9000000000E+02    0.7208153118E-04    0.6520198324E+00    0.4935133327E-04    0.3964907660E-04    0.4714450658E-02
    0.1100000000E+03    0.7910876866E-04    0.6595020086E+00    0.5768665321E-04    0.4785556849E-04    0.4723873814E-02
    0.1300000000E+03    0.8643267185E-04    0.6647829874E+00    0.6616643001E-04    0.5602656427E-04    0.4730801816E-02
    0.1500000000E+03    0.9398515978E-04    0.6687094464E+00    0.7474848681E-04    0.6418120949E-04    0.4736091716E-02
    0.1700000000E+03    0.1017207419E-03    0.6717431930E+00    0.8341045410E-04    0.7233322093E-04    0.4740233350E-02
    0.1900000000E+03    0.1096085145E-03    0.6741575336E+00    0.9214015926E-04    0.8049293794E-04    0.4743529791E-02
    0.2100000000E+03    0.1176270521E-03    0.6761245453E+00    0.1009309944E-03    0.8866846589E-04    0.4746180117E-02
    0.2300000000E+03    0.1257612234E-03    0.6777579707E+00    0.1097795316E-03    0.9686636208E-04    0.4748321354E-02
    0.2500000000E+03    0.1340001804E-03    0.6791360059E+00    0.1186842271E-03    0.1050920712E-03    0.4750051428E-02
    0.2700000000E+03    0.1423360606E-03    0.6803141800E+00    0.1276446844E-03    0.1133502148E-03    0.4751442504E-02
    0.2900000000E+03    0.1507631284E-03    0.6813330130E+00    0.1366612209E-03    0.1216447901E-03    0.4752549146E-02
    0.3100000000E+03    0.1592771942E-03    0.6822227659E+00    0.1457346044E-03    0.1299793123E-03    0.4753413516E-02
    0.3300000000E+03    0.1678752118E-03    0.6830064941E+00    0.1548658890E-03    0.1383569171E-03    0.4754068802E-02
    0.3500000000E+03    0.1765549957E-03    0.6837020715E+00    0.1640563120E-03    0.1467804385E-03    0.4754541550E-02
    0.3700000000E+03    0.1853150176E-03    0.6843235686E+00    0.1733072266E-03    0.1552524665E-03    0.4754853296E-02
    0.3900000000E+03    0.1941542574E-03    0.6848822131E+00    0.1826200590E-03    0.1637753932E-03    0.4755021722E-02
    0.4100000000E+03    0.2030720944E-03    0.6853870731E+00    0.1919962800E-03    0.1723514477E-03    0.4755061510E-02
    0.4300000000E+03    0.2120682244E-03    0.6858455527E+00    0.2014373867E-03    0.1809827248E-03    0.4754984965E-02
    0.4500000000E+03    0.2211425975E-03    0.6862637569E+00    0.2109448903E-03    0.1896712078E-03    0.4754802490E-02
    0.4700000000E+03    0.2302953706E-03    0.6866467643E+00    0.2205203091E-03    0.1984187868E-03    0.4754522948E-02
    0.4900000000E+03    0.2395268700E-03    0.6869988345E+00    0.2301651635E-03    0.2072272744E-03    0.4754153943E-02
    0.1000000000E+03    0.7555264243E-04    0.6561139502E+00    0.5349707386E-04    0.4375825686E-04    0.4719550984E-02
    0.3000000000E+03    0.1550095000E-03    0.6817924422E+00    0.1411907462E-03    0.1258068540E-03    0.4753009362E-02
    0.5000000000E+03    0.2441722832E-03    0.6871644151E+00    0.2350141040E-03    0.2116549072E-03    0.4753937979E-02
    0.7000000000E+03    0.3413844005E-03    0.6894894013E+00    0.3360099385E-03    0.3038086667E-03    0.4746125358E-02
    0.9000000000E+03    0.4475173369E-03    0.6907859314E+00    0.4457034755E-03    0.4038639139E-03    0.4733380144E-02
    0.1100000000E+04    0.5639104160E-03    0.6916122539E+00    0.5657045352E-03    0.5133505964E-03    0.4716854732E-02
    0.1300000000E+04    0.6922095058E-03    0.6921845677E+00    0.6978171194E-03    0.6339444507E-03    0.4696902397E-02
    0.1500000000E+04    0.8343946394E-03    0.6926041812E+00    0.8441419943E-03    0.7675841923E-03    0.4673521572E-02
    0.1700000000E+04    0.9928571110E-03    0.6929248715E+00    0.1007182761E-02    0.9165759186E-03    0.4646497491E-02
    0.1900000000E+04    0.1170509208E-02    0.6931778301E+00    0.1189970712E-02    0.1083710720E-02    0.4615448652E-02
    0.2100000000E+04    0.1370930572E-02    0.6933823905E+00    0.1396222043E-02    0.1272410898E-02    0.4579833392E-02
    0.2300000000E+04    0.1598562477E-02    0.6935511732E+00    0.1630542464E-02    0.1486919634E-02    0.4538933914E-02
    0.2500000000E+04    0.1858967001E-02    0.6936927655E+00    0.1898698291E-02    0.1732552133E-02    0.4491822770E-02
    0.2700000000E+04    0.2159174657E-02    0.6938132132E+00    0.2207979274E-02    0.2016031940E-02    0.4437311691E-02
    0.2900000000E+04    0.2508152003E-02    0.6939168953E+00    0.2567686628E-02    0.2345943759E-02    0.4373879936E-02
    0.3100000000E+04    0.2917429479E-02    0.6940070615E+00    0.2989788887E-02    0.2733342881E-02    0.4299577721E-02
    0.3300000000E+04    0.3401935633E-02    0.6940861737E+00    0.3489794956E-02    0.3192568017E-02    0.4211900080E-02
    0.3500000000E+04    0.3981077051E-02    0.6941561312E+00    0.4087887536E-02    0.3742299581E-02    0.4107629501E-02
    0.3700000000E+04    0.4680057277E-02    0.6942184225E+00    0.4810314100E-02    0.4406864519E-02    0.3982656874E-02
    0.3900000000E+04    0.5531280305E-02    0.6942742305E+00    0.5690882129E-02    0.5217652340E-02    0.3831820794E-02
    0.4100000000E+04    0.6575299400E-02    0.6943245074E+00    0.6772009878E-02    0.6214145341E-02    0.3648877917E-02
    0.4300000000E+04    0.7859904315E-02    0.6943700279E+00    0.8103886874E-02    0.7443240444E-02    0.3426869593E-02
    0.4500000000E+04    0.9434317054E-02    0.6944114287E+00    0.9738609338E-02    0.8953975689E-02    0.3159412025E-02
    0.4700000000E+04    0.1133345841E-01    0.6944492382E+00    0.1171403758E-01    0.1078278711E-01    0.2843701746E-02
    0.4900000000E+04    0.1354797135E-01    0.6944838984E+00    0.1402277450E-01    0.1292493479E-01    0.2485698903E-02
    0.1000000000E+04    0.5043356617E-03    0.6912403246E+00    0.5043085938E-03    0.4573285391E-03    0.4725556766E-02
    0.3000000000E+04    0.2704411224E-02    0.6939634986E+00    0.2770064000E-02    0.2531649319E-02    0.4338229488E-02
    0.5000000000E+04    0.1474903257E-01    0.6945001662E+00    0.1527760542E-01    0.1409162788E-01    0.2296550125E-02
    0.7000000000E+04    0.2901003490E-01    0.6947259109E+00    0.3066410891E-01    0.2884117441E-01    0.7603196094E-03
    0.9000000000E+04    0.3405253791E-01    0.6948488422E+00    0.3675872191E-01    0.3527970069E-01    0.7574931783E-03
    0.1100000000E+05    0.3811809856E-01    0.6949254496E+00    0.4198211338E-01    0.4107239368E-01    0.7659711439E-03
    0.1300000000E+05    0.4148316083E-01    0.6949773422E+00    0.4657572091E-01    0.4640405765E-01    0.7731428216E-03
    0.1500000000E+05    0.4428760978E-01    0.6950145469E+00    0.5065159758E-01    0.5134934358E-01    0.7793351212E-03
    0.1700000000E+05    0.4663743376E-01    0.6950423404E+00    0.5429596182E-01    0.5596639146E-01    0.7847888011E-03
    0.1900000000E+05    0.4861449919E-01    0.6950637588E+00    0.5757653058E-01    0.6030148940E-01    0.7896651102E-03
    0.2100000000E+05    0.5028294359E-01    0.6950806701E+00    0.6054725920E-01    0.6439200865E-01    0.7940773259E-03
    0.2300000000E+05    0.5169365225E-01    0.6950942848E+00    0.6325169085E-01    0.6826849833E-01    0.7981081308E-03
    0.2500000000E+05    0.5288745462E-01    0.6951054204E+00    0.6572537113E-01    0.7195621042E-01    0.8018197594E-03
    0.2700000000E+05    0.5389744628E-01    0.6951146488E+00    0.6799761867E-01    0.7547622898E-01    0.8052602506E-03
    0.2900000000E+05    0.5475070176E-01    0.6951223811E+00    0.7009284393E-01    0.7884631904E-01    0.8084674763E-03
    0.3100000000E+05    0.5546955589E-01    0.6951289204E+00    0.7203154536E-01    0.8208157369E-01    0.8114718310E-03
    0.3300000000E+05    0.5607257465E-01    0.6951344946E+00    0.7383107140E-01    0.8519491350E-01    0.8142980868E-03
    0.3500000000E+05    0.5657529932E-01    0.6951392784E+00    0.7550621039E-01    0.8819747645E-01    0.8169667042E-03
    0.3700000000E+05    0.5699082302E-01    0.6951434078E+00    0.7706965199E-01    0.9109892555E-01    0.8194947816E-03
    0.3900000000E+05    0.5733024183E-01    0.6951469899E+00    0.7853235183E-01    0.9390769397E-01    0.8218967568E-03
    0.4100000000E+05    0.5760301089E-01    0.6951501106E+00    0.7990382221E-01    0.9663118200E-01    0.8241849337E-03
    0.4300000000E+05    0.5781722795E-01    0.6951528391E+00    0.8119236594E-01    0.9927591676E-01    0.8263698846E-03
    0.4500000000E+05    0.5797986097E-01    0.6951552320E+00    0.8240526575E-01    0.1018476826E+00    0.8284607622E-03
    0.4700000000E+05    0.5809693195E-01    0.6951573357E+00    0.8354893904E-01    0.1043516285E+00    0.8304655435E-03
    0.4900000000E+05    0.5817366664E-01    0.6951591890E+00    0.8462906502E-01    0.1067923566E+00    0.8323912238E-03
    0.1000000000E+05    0.3618338138E-01    0.6948911781E+00    0.3945750229E-01    0.3823923387E-01    0.7619100952E-03
    0.3000000000E+05    0.5512568995E-01    0.6951257842E+00    0.7108060965E-01    0.8047994736E-01    0.8099933500E-03
    0.5000000000E+05    0.5819835382E-01    0.6951600321E+00    0.8514689693E-01    0.1079903213E+00    0.8333263575E-03
    0.7000000000E+05    0.5741695388E-01    0.6951693794E+00    0.9313915100E-01    0.1294413509E+00    0.8490534316E-03
    0.9000000000E+05    0.5542570458E-01    0.6951715858E+00    0.9819545938E-01    0.1474865446E+00    0.8609906896E-03
    0.1100000000E+06    0.5305700980E-01    0.6951710693E+00    0.1015655571E+00    0.1632865563E+00    0.8706415025E-03
    0.1300000000E+06    0.5062256872E-01    0.6951693693E+00    0.1038608094E+00    0.1774586467E+00    0.8787573438E-03
    0.1500000000E+06    0.4824874924E-01    0.6951671295E+00    0.1054221544E+00    0.1903746639E+00    0.8857691816E-03
    0.1700000000E+06    0.4598676650E-01    0.6951646515E+00    0.1064577597E+00    0.2022788329E+00    0.8919476504E-03
    0.1900000000E+06    0.4385479692E-01    0.6951620869E+00    0.1071034147E+00    0.2133420240E+00    0.8974740723E-03
    0.2100000000E+06    0.4185584247E-01    0.6951595153E+00    0.1074522427E+00    0.2236896665E+00    0.9024759929E-03
    0.2300000000E+06    0.3998588404E-01    0.6951569794E+00    0.1075706460E+00    0.2334173543E+00    0.9070466061E-03
    0.2500000000E+06    0.3823779463E-01    0.6951545016E+00    0.1075074649E+00    0.2426001618E+00    0.9112561165E-03
    0.2700000000E+06    0.3660327600E-01    0.6951520935E+00    0.1072995366E+00    0.2512985043E+00    0.9151587529E-03
    0.2900000000E+06    0.3507382749E-01    0.6951497600E+00    0.1069752247E+00    0.2595619913E+00    0.9187972909E-03
    0.3100000000E+06    0.3364122341E-01    0.6951475024E+00    0.1065567469E+00    0.2674320516E+00    0.9222060779E-03
    0.3300000000E+06    0.3229773481E-01    0.6951453197E+00    0.1060617591E+00    0.2749437801E+00    0.9254131189E-03
    0.3500000000E+06    0.3103621671E-01    0.6951432099E+00    0.1055044648E+00    0.2821272707E+00    0.9284415529E-03
    0.3700000000E+06    0.2985012476E-01    0.6951411701E+00    0.1048964095E+00    0.2890086021E+00    0.9313107233E-03
    0.3900000000E+06    0.2873349569E-01    0.6951391972E+00    0.1042470622E+00    0.2956105803E+00    0.9340369678E-03
    0.4100000000E+06    0.2768091045E-01    0.6951372880E+00    0.1035642486E+00    0.3019533103E+00    0.9366342126E-03
    0.4300000000E+06    0.2668745026E-01    0.6951354393E+00    0.1028544792E+00    0.3080546407E+00    0.9391144271E-03
    0.4500000000E+06    0.2574865123E-01    0.6951336479E+00    0.1021232009E+00    0.3139305162E+00    0.9414879751E-03
    0.4700000000E+06    0.2486046025E-01    0.6951319107E+00    0.1013749929E+00    0.3195952606E+00    0.9437638912E-03
    0.4900000000E+06    0.2401919393E-01    0.6951302250E+00    0.1006137213E+00    0.3250618059E+00    0.9459500990E-03
    0.1000000000E+06    0.5426257271E-01    0.6951715395E+00    0.1000442033E+00    0.1556207470E+00    0.8660444819E-03
    0.3000000000E+06    0.3434591608E-01    0.6951486217E+00    0.1067765610E+00    0.2635438755E+00    0.9205285240E-03
    0.5000000000E+06    0.2361509819E-01    0.6951294006E+00    0.1002292305E+00    0.3277244614E+00    0.9470117789E-03
    0.7000000000E+06    0.1732665043E-01    0.6951150409E+00    0.9242675381E-01    0.3729276879E+00    0.9648696709E-03
    0.9000000000E+06    0.1329301444E-01    0.6951036400E+00    0.8510198681E-01    0.4070230170E+00    0.9784268031E-03
    0.1100000000E+07    0.1053746332E-01    0.6950941863E+00    0.7857426603E-01    0.4338298262E+00    0.9893883628E-03
    0.1300000000E+07    0.8565881966E-02    0.6950861056E+00    0.7283619418E-01    0.4555289290E+00    0.9986070802E-03
    0.1500000000E+07    0.7104071685E-02    0.6950790444E+00    0.6780037535E-01    0.4734849826E+00    0.1006572125E-02
    0.1700000000E+07    0.5989002376E-02    0.6950727701E+00    0.6336805846E-01    0.4886055823E+00    0.1013590736E-02
    0.1900000000E+07    0.5118418207E-02    0.6950671219E+00    0.5944886513E-01    0.5015218012E+00    0.1019868786E-02
    0.2100000000E+07    0.4425377655E-02    0.6950619836E+00    0.5596536397E-01    0.5126878069E+00    0.1025551105E-02
    0.2300000000E+07    0.3864489578E-02    0.6950572690E+00    0.5285281963E-01    0.5224396353E+00    0.1030743522E-02
    0.2500000000E+07    0.3404054961E-02    0.6950529120E+00    0.5005755561E-01    0.5310316858E+00    0.1035525767E-02
    0.2700000000E+07    0.3021373747E-02    0.6950488611E+00    0.4753510664E-01    0.5386603267E+00    0.1039959428E-02
    0.2900000000E+07    0.2699833718E-02    0.6950450749E+00    0.4524854225E-01    0.5454796805E+00    0.1044093089E-02
    0.3100000000E+07    0.2427045329E-02    0.6950415204E+00    0.4316705660E-01    0.5516124822E+00    0.1047965760E-02
    0.3300000000E+07    0.2193612706E-02    0.6950381700E+00    0.4126481992E-01    0.5571577287E+00    0.1051609252E-02
    0.3500000000E+07    0.1992303689E-02    0.6950350011E+00    0.3952005545E-01    0.5621961822E+00    0.1055049846E-02
    0.3700000000E+07    0.1817477058E-02    0.6950319944E+00    0.3791430133E-01    0.5667944020E+00    0.1058309515E-02
    0.3900000000E+07    0.1664679530E-02    0.6950291339E+00    0.3643182024E-01    0.5710077474E+00    0.1061406817E-02
    0.4100000000E+07    0.1530357238E-02    0.6950264056E+00    0.3505912616E-01    0.5748826461E+00    0.1064357571E-02
    0.4300000000E+07    0.1411645917E-02    0.6950237976E+00    0.3378460349E-01    0.5784583310E+00    0.1067175373E-02
    0.4500000000E+07    0.1306216135E-02    0.6950212993E+00    0.3259819901E-01    0.5817681856E+00    0.1069871997E-02
    0.4700000000E+07    0.1212157638E-02    0.6950189017E+00    0.3149117154E-01    0.5848407976E+00    0.1072457705E-02
    0.4900000000E+07    0.1127891895E-02    0.6950165968E+00    0.3045588738E-01    0.5877007919E+00    0.1074941499E-02
    0.1000000000E+07    0.1179345432E-01    0.6950987125E+00    0.8173563933E-01    0.4211758564E+00    0.9841668787E-03
    0.3000000000E+07    0.2557991721E-02    0.6950432705E+00    0.4418388375E-01    0.5486252297E+00    0.1046059914E-02
    0.5000000000E+07    0.1089011934E-02    0.6950154768E+00    0.2996302436E-01    0.5890578355E+00    0.1076147696E-02
    0.7000000000E+07    0.5992681262E-03    0.6949965859E+00    0.2261491617E-01    0.6089649938E+00    0.1096436544E-02
    0.9000000000E+07    0.3783009222E-03    0.6949821903E+00    0.1814137577E-01    0.6208086364E+00    0.1111839273E-02
    0.1100000000E+08    0.2602019123E-03    0.6949705247E+00    0.1513557646E-01    0.6286597307E+00    0.1124293107E-02
    0.1300000000E+08    0.1898025459E-03    0.6949606994E+00    0.1297857052E-01    0.6342440932E+00    0.1134766837E-02
    0.1500000000E+08    0.1445029826E-03    0.6949522011E+00    0.1135607902E-01    0.6384184733E+00    0.1143816219E-02
    0.1700000000E+08    0.1136561323E-03    0.6949447067E+00    0.1009174410E-01    0.6416563591E+00    0.1151790316E-02
    0.1900000000E+08    0.9171342101E-04    0.6949379987E+00    0.9079013498E-02    0.6442406890E+00    0.1158923029E-02
    0.2100000000E+08    0.7555325992E-04    0.6949319242E+00    0.8249739427E-02    0.6463509196E+00    0.1165378903E-02
    0.2300000000E+08    0.6331052841E-04    0.6949263711E+00    0.7558319087E-02    0.6481063573E+00    0.1171278177E-02
    0.2500000000E+08    0.5381531051E-04    0.6949212548E+00    0.6973090531E-02    0.6495894029E+00    0.1176711435E-02
    0.2700000000E+08    0.4630371206E-04    0.6949165101E+00    0.6471387494E-02    0.6508587919E+00    0.1181748650E-02
