  Pressure (Pa) 22mC5-500 (mol/kg) 24mC5-500 (mol/kg) 2mC6-500 (mol/kg) 3mC6-500 (mol/kg) C7-500 (mol/kg)
    0.1000000000E+01    0.1342238269E-04    0.3665898736E-01    0.2848650363E-04    0.3593716749E-05    0.4171130583E-02
    0.3000000000E+01    0.3539210718E-04    0.9947889205E-01    0.7335400970E-04    0.9048784110E-05    0.4211149894E-02
    0.5000000000E+01    0.5277389529E-04    0.1513516011E+00    0.1075962552E-03    0.1404009283E-04    0.4238449065E-02
    0.7000000000E+01    0.6680174558E-04    0.1949101568E+00    0.1343378765E-03    0.1881273745E-04    0.4260624952E-02
    0.9000000000E+01    0.7830233160E-04    0.2320057878E+00    0.1556035967E-03    0.2344852477E-04    0.4279266450E-02
    0.1100000000E+02    0.8785808475E-04    0.2639780400E+00    0.1727876085E-03    0.2798814324E-04    0.4295212621E-02
    0.1300000000E+02    0.9589143748E-04    0.2918201442E+00    0.1868798125E-03    0.3245570560E-04    0.4309020460E-02
    0.1500000000E+02    0.1027157515E-03    0.3162841438E+00    0.1985990947E-03    0.3686704715E-04    0.4321092081E-02
    0.1700000000E+02    0.1085678914E-03    0.3379499188E+00    0.2084772114E-03    0.4123330255E-04    0.4331730312E-02
    0.1900000000E+02    0.1136298188E-03    0.3572717879E+00    0.2169136802E-03    0.4556269430E-04    0.4341169390E-02
    0.2100000000E+02    0.1180433100E-03    0.3746107512E+00    0.2242127406E-03    0.4986152304E-04    0.4349594075E-02
    0.2300000000E+02    0.1219202224E-03    0.3902572812E+00    0.2306088289E-03    0.5413475853E-04    0.4357152391E-02
    0.2500000000E+02    0.1253497979E-03    0.4044477463E+00    0.2362844877E-03    0.5838641324E-04    0.4363964485E-02
    0.2700000000E+02    0.1284039527E-03    0.4173764479E+00    0.2413831753E-03    0.6261978963E-04    0.4370128981E-02
    0.2900000000E+02    0.1311411674E-03    0.4292045820E+00    0.2460185697E-03    0.6683764994E-04    0.4375727647E-02
    0.3100000000E+02    0.1336093896E-03    0.4400670018E+00    0.2502814188E-03    0.7104233653E-04    0.4380828873E-02
    0.3300000000E+02    0.1358482257E-03    0.4500773887E+00    0.2542446470E-03    0.7523585944E-04    0.4385490325E-02
    0.3500000000E+02    0.1378906174E-03    0.4593322509E+00    0.2579672044E-03    0.7941996149E-04    0.4389760980E-02
    0.3700000000E+02    0.1397641353E-03    0.4679140483E+00    0.2614969991E-03    0.8359616765E-04    0.4393682708E-02
    0.3900000000E+02    0.1414919893E-03    0.4758936595E+00    0.2648731506E-03    0.8776582318E-04    0.4397291528E-02
    0.4100000000E+02    0.1430938225E-03    0.4833323462E+00    0.2681277373E-03    0.9193012348E-04    0.4400618598E-02
    0.4300000000E+02    0.1445863423E-03    0.4902833311E+00    0.2712871629E-03    0.9609013776E-04    0.4403691014E-02
    0.4500000000E+02    0.1459838244E-03    0.4967930746E+00    0.2743732312E-03    0.1002468281E-03    0.4406532449E-02
    0.4700000000E+02    0.1472985189E-03    0.5029023161E+00    0.2774039989E-03    0.1044010648E-03    0.4409163687E-02
    0.4900000000E+02    0.1485409799E-03    0.5086469282E+00    0.2803944557E-03    0.1085536394E-03    0.4411603045E-02
    0.1000000000E+02    0.8329387138E-04    0.2485635950E+00    0.1646363439E-03    0.2572859202E-04    0.4287537076E-02
    0.3000000000E+02    0.1324062535E-03    0.4347489566E+00    0.2481916372E-03    0.6894150739E-04    0.4378336610E-02
    0.5000000000E+02    0.1491380242E-03    0.5113925539E+00    0.2818785496E-03    0.1106295317E-03    0.4412755909E-02
    0.7000000000E+02    0.1589520551E-03    0.5532054285E+00    0.3115460266E-03    0.1522076863E-03    0.4428835899E-02
    0.9000000000E+02    0.1670338645E-03    0.5795385942E+00    0.3434509384E-03    0.1941789746E-03    0.4436507077E-02
    0.1100000000E+03    0.1748868381E-03    0.5976471129E+00    0.3784470309E-03    0.2368178256E-03    0.4439535710E-02
    0.1300000000E+03    0.1830284836E-03    0.6108644387E+00    0.4164282247E-03    0.2803088047E-03    0.4439669261E-02
    0.1500000000E+03    0.1916524792E-03    0.6209368426E+00    0.4571528637E-03    0.3247936498E-03    0.4437829499E-02
    0.1700000000E+03    0.2008331089E-03    0.6288676363E+00    0.5004125907E-03    0.3703916182E-03    0.4434547563E-02
    0.1900000000E+03    0.2105982533E-03    0.6352743318E+00    0.5460588590E-03    0.4172097479E-03    0.4430149523E-02
    0.2100000000E+03    0.2209580835E-03    0.6405578291E+00    0.5939977395E-03    0.4653486419E-03    0.4424844959E-02
    0.2300000000E+03    0.2319170645E-03    0.6449897437E+00    0.6441795459E-03    0.5149060325E-03    0.4418773015E-02
    0.2500000000E+03    0.2434791549E-03    0.6487606380E+00    0.6965895425E-03    0.5659791561E-03    0.4412028006E-02
    0.2700000000E+03    0.2556500731E-03    0.6520081579E+00    0.7512408113E-03    0.6186664521E-03    0.4404674437E-02
    0.2900000000E+03    0.2684382591E-03    0.6548342097E+00    0.8081690718E-03    0.6730688642E-03    0.4396756216E-02
    0.3100000000E+03    0.2818552491E-03    0.6573158533E+00    0.8674290231E-03    0.7292909027E-03    0.4388302509E-02
    0.3300000000E+03    0.2959157941E-03    0.6595124400E+00    0.9290918183E-03    0.7874415644E-03    0.4379331578E-02
    0.3500000000E+03    0.3106378765E-03    0.6614704235E+00    0.9932433734E-03    0.8476351711E-03    0.4369853349E-02
    0.3700000000E+03    0.3260427007E-03    0.6632266831E+00    0.1059983295E-02    0.9099921687E-03    0.4359871181E-02
    0.3900000000E+03    0.3421546905E-03    0.6648108693E+00    0.1129424277E-02    0.9746399143E-03    0.4349383082E-02
    0.4100000000E+03    0.3590015111E-03    0.6662470928E+00    0.1201691852E-02    0.1041713475E-02    0.4338382559E-02
    0.4300000000E+03    0.3766141220E-03    0.6675551602E+00    0.1276924442E-02    0.1111356454E-02    0.4326859215E-02
    0.4500000000E+03    0.3950268649E-03    0.6687514939E+00    0.1355273630E-02    0.1183721857E-02    0.4314799155E-02
    0.4700000000E+03    0.4142775860E-03    0.6698498249E+00    0.1436904652E-02    0.1258973019E-02    0.4302185260E-02
    0.4900000000E+03    0.4344077949E-03    0.6708617229E+00    0.1521997058E-02    0.1337284589E-02    0.4288997356E-02
    0.1000000000E+03    0.1709449485E-03    0.5893596313E+00    0.3605619903E-03    0.2154020635E-03    0.4438465047E-02
    0.3000000000E+03    0.2750673075E-03    0.6561140232E+00    0.8375035014E-03    0.7009457332E-03    0.4392594936E-02
    0.5000000000E+03    0.4448167279E-03    0.6713383865E+00    0.1565901505E-02    0.1377645960E-02    0.4282181034E-02
    0.7000000000E+03    0.7130559861E-03    0.6780845707E+00    0.2684465231E-02    0.2400908660E-02    0.4108210241E-02
    0.9000000000E+03    0.1160803559E-02    0.6818922434E+00    0.4531834530E-02    0.4085779423E-02    0.3826079205E-02
    0.1100000000E+04    0.1971792337E-02    0.6843379435E+00    0.7868188847E-02    0.7131404520E-02    0.3336232986E-02
    0.1300000000E+04    0.3498062251E-02    0.6860415056E+00    0.1415821843E-01    0.1289303866E-01    0.2471950902E-02
    0.1500000000E+04    0.5776342816E-02    0.6872961835E+00    0.2361398556E-01    0.2161933776E-01    0.1326967363E-02
    0.1700000000E+04    0.7575370085E-02    0.6882587071E+00    0.3121945260E-01    0.2876242018E-01    0.6481853251E-03
    0.1900000000E+04    0.8562768616E-02    0.6890204493E+00    0.3555274170E-01    0.3297238521E-01    0.4731877163E-03
    0.2100000000E+04    0.9255996019E-02    0.6896382776E+00    0.3870907797E-01    0.3613796330E-01    0.4429472922E-03
    0.2300000000E+04    0.9858853457E-02    0.6901494372E+00    0.4152164174E-01    0.3901760627E-01    0.4396670391E-03
    0.2500000000E+04    0.1041640057E-01    0.6905793424E+00    0.4417374918E-01    0.4177756809E-01    0.4408969627E-03
    0.2700000000E+04    0.1093903137E-01    0.6909459285E+00    0.4670587962E-01    0.4445308381E-01    0.4427718151E-03
    0.2900000000E+04    0.1143044686E-01    0.6912622146E+00    0.4913094122E-01    0.4705407908E-01    0.4446422583E-03
    0.3100000000E+04    0.1189296410E-01    0.6915378798E+00    0.5145628332E-01    0.4958548184E-01    0.4464099350E-03
    0.3300000000E+04    0.1232851238E-01    0.6917802699E+00    0.5368783740E-01    0.5205105490E-01    0.4480701345E-03
    0.3500000000E+04    0.1273883092E-01    0.6919950604E+00    0.5583092811E-01    0.5445413927E-01    0.4496325960E-03
    0.3700000000E+04    0.1312551682E-01    0.6921867058E+00    0.5789045783E-01    0.5679781372E-01    0.4511079025E-03
    0.3900000000E+04    0.1349004392E-01    0.6923587510E+00    0.5987096947E-01    0.5908494142E-01    0.4525053847E-03
    0.4100000000E+04    0.1383377498E-01    0.6925140524E+00    0.6177668297E-01    0.6131819298E-01    0.4538330179E-03
    0.4300000000E+04    0.1415797173E-01    0.6926549371E+00    0.6361152421E-01    0.6350006351E-01    0.4550976185E-03
    0.4500000000E+04    0.1446380380E-01    0.6927833204E+00    0.6537915021E-01    0.6563288721E-01    0.4563050484E-03
    0.4700000000E+04    0.1475235666E-01    0.6929007926E+00    0.6708297168E-01    0.6771885041E-01    0.4574603830E-03
    0.4900000000E+04    0.1502463875E-01    0.6930086853E+00    0.6872617336E-01    0.6976000332E-01    0.4585680461E-03
    0.1000000000E+04    0.1502856255E-02    0.6832351879E+00    0.5939233049E-02    0.5369775661E-02    0.3616515521E-02
    0.3000000000E+04    0.1166519172E-01    0.6914046201E+00    0.5030568824E-01    0.4832823086E-01    0.4455399188E-03
    0.5000000000E+04    0.1515497394E-01    0.6930593974E+00    0.6952597976E-01    0.7076438203E-01    0.4591052320E-03
    0.7000000000E+04    0.1710332664E-01    0.6937693108E+00    0.8296830521E-01    0.8890964397E-01    0.4680796306E-03
    0.9000000000E+04    0.1817257841E-01    0.6941632449E+00    0.9278551263E-01    0.1041824913E+00    0.4748310680E-03
    0.1100000000E+05    0.1871253889E-01    0.6944134106E+00    0.1001812901E+00    0.1174101350E+00    0.4802611976E-03
    0.1300000000E+05    0.1892150379E-01    0.6945861573E+00    0.1058809864E+00    0.1291117821E+00    0.4848123009E-03
    0.1500000000E+05    0.1891809512E-01    0.6947124726E+00    0.1103477109E+00    0.1396323508E+00    0.4887350327E-03
    0.1700000000E+05    0.1877630390E-01    0.6948087658E+00    0.1138910448E+00    0.1492115686E+00    0.4921855123E-03
    0.1900000000E+05    0.1854382889E-01    0.6948845368E+00    0.1167258203E+00    0.1580223024E+00    0.4952677122E-03
    0.2100000000E+05    0.1825223350E-01    0.6949456651E+00    0.1190058108E+00    0.1661930768E+00    0.4980544339E-03
    0.2300000000E+05    0.1792283945E-01    0.6949959834E+00    0.1208439932E+00    0.1738219428E+00    0.5005986797E-03
    0.2500000000E+05    0.1757028240E-01    0.6950380968E+00    0.1223252372E+00    0.1809853674E+00    0.5029402603E-03
    0.2700000000E+05    0.1720472883E-01    0.6950738373E+00    0.1235145317E+00    0.1877441278E+00    0.5051098531E-03
    0.2900000000E+05    0.1683329768E-01    0.6951045307E+00    0.1244624776E+00    0.1941473359E+00    0.5071316073E-03
    0.3100000000E+05    0.1646099448E-01    0.6951311598E+00    0.1252090540E+00    0.2002352575E+00    0.5090248808E-03
    0.3300000000E+05    0.1609133819E-01    0.6951544686E+00    0.1257862575E+00    0.2060413315E+00    0.5108054336E-03
    0.3500000000E+05    0.1572678968E-01    0.6951750308E+00    0.1262199915E+00    0.2115936467E+00    0.5124862704E-03
    0.3700000000E+05    0.1536904934E-01    0.6951932953E+00    0.1265314430E+00    0.2169160394E+00    0.5140782508E-03
    0.3900000000E+05    0.1501926677E-01    0.6952096190E+00    0.1267381007E+00    0.2220289237E+00    0.5155905373E-03
    0.4100000000E+05    0.1467819039E-01    0.6952242884E+00    0.1268545218E+00    0.2269499284E+00    0.5170309337E-03
    0.4300000000E+05    0.1434627521E-01    0.6952375370E+00    0.1268929139E+00    0.2316943922E+00    0.5184061415E-03
    0.4500000000E+05    0.1402376146E-01    0.6952495563E+00    0.1268635851E+00    0.2362757522E+00    0.5197219593E-03
    0.4700000000E+05    0.1371073213E-01    0.6952605050E+00    0.1267752933E+00    0.2407058538E+00    0.5209834386E-03
    0.4900000000E+05    0.1340715563E-01    0.6952705159E+00    0.1266355223E+00    0.2449951995E+00    0.5221950073E-03
    0.1000000000E+05    0.1849387228E-01    0.6943009094E+00    0.9673280516E-01    0.1110143016E+00    0.4776773660E-03
    0.3000000000E+05    0.1664700610E-01    0.6951183021E+00    0.1248587753E+00    0.1972284771E+00    0.5080932461E-03
    0.5000000000E+05    0.1325887894E-01    0.6952752054E+00    0.1265483772E+00    0.2470900539E+00    0.5227833132E-03
    0.7000000000E+05    0.1073957017E-01    0.6953394673E+00    0.1232671547E+00    0.2834195193E+00    0.5326735203E-03
    0.9000000000E+05    0.8892617482E-02    0.6953734551E+00    0.1186648421E+00    0.3121969485E+00    0.5401765453E-03
    0.1100000000E+06    0.7503412149E-02    0.6953939668E+00    0.1137918113E+00    0.3360154080E+00    0.5462406635E-03
    0.1300000000E+06    0.6430106674E-02    0.6954073792E+00    0.1090158327E+00    0.3562786889E+00    0.5513393160E-03
    0.1500000000E+06    0.5581332529E-02    0.6954166281E+00    0.1044721289E+00    0.3738492443E+00    0.5557438221E-03
    0.1700000000E+06    0.4896811284E-02    0.6954232464E+00    0.1002047927E+00    0.3893020619E+00    0.5596244779E-03
    0.1900000000E+06    0.4335533762E-02    0.6954281086E+00    0.9621952773E-01    0.4030429763E+00    0.5630953387E-03
    0.2100000000E+06    0.3868772511E-02    0.6954317482E+00    0.9250558906E-01    0.4153707166E+00    0.5662366120E-03
    0.2300000000E+06    0.3475872324E-02    0.6954345078E+00    0.8904557428E-01    0.4265123650E+00    0.5691068906E-03
    0.2500000000E+06    0.3141638922E-02    0.6954366168E+00    0.8581997104E-01    0.4366449891E+00    0.5717503061E-03
    0.2700000000E+06    0.2854669596E-02    0.6954382341E+00    0.8280929193E-01    0.4459095352E+00    0.5742009427E-03
    0.2900000000E+06    0.2606255645E-02    0.6954394727E+00    0.7999504874E-01    0.4544201287E+00    0.5764856830E-03
    0.3100000000E+06    0.2389642102E-02    0.6954404153E+00    0.7736015314E-01    0.4622705160E+00    0.5786261105E-03
    0.3300000000E+06    0.2199516891E-02    0.6954411232E+00    0.7488903132E-01    0.4695386549E+00    0.5806398220E-03
    0.3500000000E+06    0.2031650992E-02    0.6954416430E+00    0.7256759770E-01    0.4762900669E+00    0.5825413557E-03
    0.3700000000E+06    0.1882640255E-02    0.6954420107E+00    0.7038316311E-01    0.4825803350E+00    0.5843428641E-03
    0.3900000000E+06    0.1749717060E-02    0.6954422541E+00    0.6832431615E-01    0.4884570008E+00    0.5860546110E-03
    0.4100000000E+06    0.1630610832E-02    0.6954423954E+00    0.6638079827E-01    0.4939610258E+00    0.5876853446E-03
    0.4300000000E+06    0.1523443336E-02    0.6954424521E+00    0.6454338255E-01    0.4991279351E+00    0.5892425838E-03
    0.4500000000E+06    0.1426649098E-02    0.6954424385E+00    0.6280376105E-01    0.5039887221E+00    0.5907328384E-03
    0.4700000000E+06    0.1338914216E-02    0.6954423662E+00    0.6115444259E-01    0.5085705726E+00    0.5921617832E-03
    0.4900000000E+06    0.1259128843E-02    0.6954422445E+00    0.5958866130E-01    0.5128974502E+00    0.5935343952E-03
    0.1000000000E+06    0.8151133061E-02    0.6953848756E+00    0.1162309505E+00    0.3246210636E+00    0.5433522833E-03
    0.3000000000E+06    0.2494334835E-02    0.6954399767E+00    0.7865619150E-01    0.4584226499E+00    0.5775727550E-03
    0.5000000000E+06    0.1221916849E-02    0.6954421677E+00    0.5883516091E-01    0.5149720011E+00    0.5942009684E-03
    0.7000000000E+06    0.7270544496E-03    0.6954393656E+00    0.4693816904E-01    0.5471411983E+00    0.6054127610E-03
    0.9000000000E+06    0.4826143656E-03    0.6954357048E+00    0.3902206723E-01    0.5680290412E+00    0.6139241733E-03
    0.1100000000E+07    0.3438659118E-03    0.6954320188E+00    0.3337848066E-01    0.5827139367E+00    0.6208059597E-03
    0.1300000000E+07    0.2575164882E-03    0.6954285170E+00    0.2915299991E-01    0.5936102648E+00    0.6265935400E-03
    0.1500000000E+07    0.2001213901E-03    0.6954252455E+00    0.2587151517E-01    0.6020194084E+00    0.6315940441E-03
    0.1700000000E+07    0.1600340111E-03    0.6954222009E+00    0.2324993777E-01    0.6087066352E+00    0.6360003687E-03
    0.1900000000E+07    0.1309300591E-03    0.6954193653E+00    0.2110770824E-01    0.6141519764E+00    0.6399417667E-03
    0.2100000000E+07    0.1091325212E-03    0.6954167178E+00    0.1932458935E-01    0.6186720080E+00    0.6435091643E-03
    0.2300000000E+07    0.9238438916E-04    0.6954142380E+00    0.1781742544E-01    0.6224840515E+00    0.6467690032E-03
    0.2500000000E+07    0.7923770104E-04    0.6954119077E+00    0.1652687574E-01    0.6257422815E+00    0.6497713376E-03
    0.2700000000E+07    0.6872878527E-04    0.6954097108E+00    0.1540946179E-01    0.6285591250E+00    0.6525548330E-03
    0.2900000000E+07    0.6019606939E-04    0.6954076335E+00    0.1443260151E-01    0.6310185035E+00    0.6551499896E-03
    0.3100000000E+07    0.5317314041E-04    0.6954056637E+00    0.1357139842E-01    0.6331843322E+00    0.6575812991E-03
    0.3300000000E+07    0.4732351091E-04    0.6954037910E+00    0.1280650277E-01    0.6351061485E+00    0.6598687308E-03
    0.3500000000E+07    0.4239948219E-04    0.6954020063E+00    0.1212264907E-01    0.6368229397E+00    0.6620287851E-03
    0.3700000000E+07    0.3821544102E-04    0.6954003018E+00    0.1150763307E-01    0.6383658103E+00    0.6640752557E-03
    0.3900000000E+07    0.3463007847E-04    0.6953986706E+00    0.1095158141E-01    0.6397598784E+00    0.6660197931E-03
    0.4100000000E+07    0.3153427898E-04    0.6953971065E+00    0.1044642083E-01    0.6410256495E+00    0.6678723286E-03
    0.4300000000E+07    0.2884270337E-04    0.6953956042E+00    0.9985486076E-02    0.6421800289E+00    0.6696413979E-03
    0.4500000000E+07    0.2648783188E-04    0.6953941591E+00    0.9563225889E-02    0.6432370785E+00    0.6713343920E-03
    0.4700000000E+07    0.2441567852E-04    0.6953927667E+00    0.9174979785E-02    0.6442085901E+00    0.6729577538E-03
    0.4900000000E+07    0.2258266146E-04    0.6953914234E+00    0.8816806371E-02    0.6451045260E+00    0.6745171341E-03
    0.1000000000E+07    0.4044212688E-03    0.6954338455E+00    0.3598195247E-01    0.5759592298E+00    0.6175278616E-03
    0.3000000000E+07    0.5651938682E-04    0.6954066358E+00    0.1398886244E-01    0.6321347303E+00    0.6563847852E-03
    0.5000000000E+07    0.2174447181E-04    0.6953907690E+00    0.8647928399E-02    0.6455268516E+00    0.6752744120E-03
    0.7000000000E+07    0.1161476043E-04    0.6953795916E+00    0.6247693399E-02    0.6515224083E+00    0.6880123066E-03
    0.9000000000E+07    0.7322675944E-05    0.6953709288E+00    0.4885640496E-02    0.6549196121E+00    0.6976826884E-03
    0.1100000000E+08    0.5105156919E-05    0.6953638380E+00    0.4008681025E-02    0.6571053636E+00    0.7055017331E-03
    0.1300000000E+08    0.3808166526E-05    0.6953578253E+00    0.3397166812E-02    0.6586289744E+00    0.7120776444E-03
    0.1500000000E+08    0.2982035432E-05    0.6953525992E+00    0.2946590913E-02    0.6597514079E+00    0.7177593264E-03
    0.1700000000E+08    0.2421941879E-05    0.6953479730E+00    0.2600906068E-02    0.6606124871E+00    0.7227659224E-03
    0.1900000000E+08    0.2023662596E-05    0.6953438198E+00    0.2327364406E-02    0.6612938579E+00    0.7272442764E-03
    0.2100000000E+08    0.1729572986E-05    0.6953400496E+00    0.2105554864E-02    0.6618463864E+00    0.7312976927E-03
    0.2300000000E+08    0.1505683252E-05    0.6953365959E+00    0.1922096299E-02    0.6623034094E+00    0.7350016585E-03
    0.2500000000E+08    0.1330876158E-05    0.6953334083E+00    0.1767852279E-02    0.6626876839E+00    0.7384130438E-03
    0.2700000000E+08    0.1191460559E-05    0.6953304476E+00    0.1636372442E-02    0.6630152737E+00    0.7415757792E-03
