  Pressure (Pa) 22mC5-500 (mol/kg) 24mC5-500 (mol/kg) 2mC6-500 (mol/kg) 3mC6-500 (mol/kg) C7-500 (mol/kg)
    0.1000000000E+01    0.1280391450E-04    0.6965266753E-01    0.1022873026E-04    0.9194476648E-05    0.4146397792E-02
    0.3000000000E+01    0.3064064598E-04    0.1740969549E+00    0.2365016683E-04    0.2272180329E-04    0.4176098762E-02
    0.5000000000E+01    0.4246765139E-04    0.2486755993E+00    0.3205389894E-04    0.3501872212E-04    0.4187514918E-02
    0.7000000000E+01    0.5076880493E-04    0.3045970442E+00    0.3769966125E-04    0.4674721166E-04    0.4194615474E-02
    0.9000000000E+01    0.5685508482E-04    0.3480845858E+00    0.4172571465E-04    0.5812547471E-04    0.4199534834E-02
    0.1100000000E+02    0.6148083139E-04    0.3828705996E+00    0.4475847624E-04    0.6926130260E-04    0.4203096282E-02
    0.1300000000E+02    0.6510711959E-04    0.4113294542E+00    0.4716345502E-04    0.8021827145E-04    0.4205728615E-02
    0.1500000000E+02    0.6802924408E-04    0.4350436551E+00    0.4916354661E-04    0.9103798370E-04    0.4207688872E-02
    0.1700000000E+02    0.7044354846E-04    0.4551085578E+00    0.5089946498E-04    0.1017496112E-03    0.4209144122E-02
    0.1900000000E+02    0.7248466716E-04    0.4723064284E+00    0.5246253088E-04    0.1123746500E-03    0.4210208933E-02
    0.2100000000E+02    0.7424732956E-04    0.4872108503E+00    0.5391333855E-04    0.1229295448E-03    0.4210964994E-02
    0.2300000000E+02    0.7579965977E-04    0.5002519620E+00    0.5529281258E-04    0.1334272514E-03    0.4211472337E-02
    0.2500000000E+02    0.7719157504E-04    0.5117586617E+00    0.5662897910E-04    0.1438782218E-03    0.4211776163E-02
    0.2700000000E+02    0.7846024901E-04    0.5219867386E+00    0.5794123186E-04    0.1542910551E-03    0.4211911205E-02
    0.2900000000E+02    0.7963375853E-04    0.5311381177E+00    0.5924308649E-04    0.1646729431E-03    0.4211904613E-02
    0.3100000000E+02    0.8073357361E-04    0.5393743297E+00    0.6054399685E-04    0.1750299866E-03    0.4211777929E-02
    0.3300000000E+02    0.8177629172E-04    0.5468261312E+00    0.6185057528E-04    0.1853674237E-03    0.4211548469E-02
    0.3500000000E+02    0.8277486753E-04    0.5536005002E+00    0.6316742579E-04    0.1956898008E-03    0.4211230313E-02
    0.3700000000E+02    0.8373949873E-04    0.5597858067E+00    0.6449772113E-04    0.2060011008E-03    0.4210835026E-02
    0.3900000000E+02    0.8467827342E-04    0.5654556899E+00    0.6584360749E-04    0.2163048428E-03    0.4210372196E-02
    0.4100000000E+02    0.8559764940E-04    0.5706720052E+00    0.6720649155E-04    0.2266041598E-03    0.4209849840E-02
    0.4300000000E+02    0.8650281318E-04    0.5754870906E+00    0.6858724591E-04    0.2369018603E-03    0.4209274709E-02
    0.4500000000E+02    0.8739795180E-04    0.5799455292E+00    0.6998635740E-04    0.2472004775E-03    0.4208652530E-02
    0.4700000000E+02    0.8828646074E-04    0.5840855347E+00    0.7140403495E-04    0.2575023098E-03    0.4207988189E-02
    0.4900000000E+02    0.8917110424E-04    0.5879400493E+00    0.7284028843E-04    0.2678094533E-03    0.4207285881E-02
    0.1000000000E+02    0.5931673733E-04    0.3663934390E+00    0.4333907710E-04    0.6371903870E-04    0.4201452983E-02
    0.3000000000E+02    0.8019174274E-04    0.5353618185E+00    0.5989319110E-04    0.1698542250E-03    0.4211855114E-02
    0.5000000000E+02    0.8961269899E-04    0.5897693204E+00    0.7356534437E-04    0.2729656233E-03    0.4206921641E-02
    0.7000000000E+02    0.9861225426E-04    0.6166305352E+00    0.8897435795E-04    0.3767634682E-03    0.4198305541E-02
    0.9000000000E+02    0.1083074274E-03    0.6326401039E+00    0.1058749451E-03    0.4826127224E-03    0.4188094566E-02
    0.1100000000E+03    0.1188346138E-03    0.6432691775E+00    0.1240084000E-03    0.5913058499E-03    0.4176931546E-02
    0.1300000000E+03    0.1301839015E-03    0.6508400927E+00    0.1432387365E-03    0.7034193346E-03    0.4165062911E-02
    0.1500000000E+03    0.1423317576E-03    0.6565067599E+00    0.1635083561E-03    0.8194345259E-03    0.4152590440E-02
    0.1700000000E+03    0.1552650773E-03    0.6609074038E+00    0.1848060416E-03    0.9397904594E-03    0.4139552631E-02
    0.1900000000E+03    0.1689840526E-03    0.6644236933E+00    0.2071494143E-03    0.1064911232E-02    0.4125956276E-02
    0.2100000000E+03    0.1835008922E-03    0.6672978857E+00    0.2305755453E-03    0.1195222251E-02    0.4111790304E-02
    0.2300000000E+03    0.1988381302E-03    0.6696911547E+00    0.2551359049E-03    0.1331161132E-02    0.4097032382E-02
    0.2500000000E+03    0.2150273033E-03    0.6717148953E+00    0.2808936759E-03    0.1473185852E-02    0.4081652227E-02
    0.2700000000E+03    0.2321080818E-03    0.6734485640E+00    0.3079224146E-03    0.1621781530E-02    0.4065613289E-02
    0.2900000000E+03    0.2501277856E-03    0.6749503605E+00    0.3363055244E-03    0.1777466534E-02    0.4048873569E-02
    0.3100000000E+03    0.2691412089E-03    0.6762638902E+00    0.3661362532E-03    0.1940798388E-02    0.4031385950E-02
    0.3300000000E+03    0.2892106882E-03    0.6774224695E+00    0.3975180568E-03    0.2112379755E-02    0.4013098217E-02
    0.3500000000E+03    0.3104063725E-03    0.6784519911E+00    0.4305652405E-03    0.2292864719E-02    0.3993952882E-02
    0.3700000000E+03    0.3328066666E-03    0.6793728831E+00    0.4654038333E-03    0.2482965538E-02    0.3973886859E-02
    0.3900000000E+03    0.3564988332E-03    0.6802014779E+00    0.5021726745E-03    0.2683460001E-02    0.3952831021E-02
    0.4100000000E+03    0.3815797451E-03    0.6809509901E+00    0.5410247055E-03    0.2895199555E-02    0.3930709656E-02
    0.4300000000E+03    0.4081567904E-03    0.6816322265E+00    0.5821284721E-03    0.3119118324E-02    0.3907439825E-02
    0.4500000000E+03    0.4363489328E-03    0.6822541105E+00    0.6256698499E-03    0.3356243161E-02    0.3882930625E-02
    0.4700000000E+03    0.4662879366E-03    0.6828240753E+00    0.6718540100E-03    0.3607704899E-02    0.3857082350E-02
    0.4900000000E+03    0.4981197690E-03    0.6833483626E+00    0.7209076453E-03    0.3874750944E-02    0.3829785556E-02
    0.1000000000E+03    0.1134667175E-03    0.6384421098E+00    0.1147984060E-03    0.5365646345E-03    0.4182611691E-02
    0.3000000000E+03    0.2595065653E-03    0.6756283743E+00    0.3510337160E-03    0.1858140068E-02    0.4040226390E-02
    0.5000000000E+03    0.5147953821E-03    0.6835950595E+00    0.7465878549E-03    0.4014543209E-02    0.3815556846E-02
    0.7000000000E+03    0.1000189729E-02    0.6870678863E+00    0.1492016272E-02    0.8074277855E-02    0.3416913627E-02
    0.9000000000E+03    0.2050869347E-02    0.6890127711E+00    0.3105948700E-02    0.1689097022E-01    0.2617229744E-02
    0.1100000000E+04    0.4125699073E-02    0.6902562675E+00    0.6313407553E-02    0.3453772386E-01    0.1225074439E-02
    0.1300000000E+04    0.6008012082E-02    0.6911198239E+00    0.9279204822E-02    0.5115799878E-01    0.3046569570E-03
    0.1500000000E+04    0.6963162343E-02    0.6917544890E+00    0.1085247536E-01    0.6033895861E-01    0.1331224898E-03
    0.1700000000E+04    0.7652999500E-02    0.6922406117E+00    0.1203465653E-01    0.6747887773E-01    0.1145601369E-03
    0.1900000000E+04    0.8267201835E-02    0.6926248726E+00    0.1311536092E-01    0.7415401714E-01    0.1132534073E-03
    0.2100000000E+04    0.8833514491E-02    0.6929362475E+00    0.1413586734E-01    0.8058417438E-01    0.1136994196E-03
    0.2300000000E+04    0.9358074402E-02    0.6931936738E+00    0.1510414835E-01    0.8680616510E-01    0.1142798180E-03
    0.2500000000E+04    0.9844251207E-02    0.6934100512E+00    0.1602400772E-01    0.9283429040E-01    0.1148314843E-03
    0.2700000000E+04    0.1029486813E-01    0.6935944708E+00    0.1689853199E-01    0.9867944902E-01    0.1153433867E-03
    0.2900000000E+04    0.1071248025E-01    0.6937535233E+00    0.1773051436E-01    0.1043514501E+00    0.1158195260E-03
    0.3100000000E+04    0.1109942673E-01    0.6938921041E+00    0.1852252439E-01    0.1098593502E+00    0.1162645204E-03
    0.3300000000E+04    0.1145785463E-01    0.6940139249E+00    0.1927693401E-01    0.1152115502E+00    0.1166822735E-03
    0.3500000000E+04    0.1178973750E-01    0.6941218515E+00    0.1999593641E-01    0.1204158572E+00    0.1170760089E-03
    0.3700000000E+04    0.1209689169E-01    0.6942181314E+00    0.2068156241E-01    0.1254795369E+00    0.1174484076E-03
    0.3900000000E+04    0.1238099087E-01    0.6943045524E+00    0.2133569499E-01    0.1304093603E+00    0.1178017222E-03
    0.4100000000E+04    0.1264357905E-01    0.6943825539E+00    0.2196008235E-01    0.1352116458E+00    0.1181378639E-03
    0.4300000000E+04    0.1288608220E-01    0.6944533085E+00    0.2255634959E-01    0.1398922963E+00    0.1184584679E-03
    0.4500000000E+04    0.1310981874E-01    0.6945177805E+00    0.2312600923E-01    0.1444568339E+00    0.1187649449E-03
    0.4700000000E+04    0.1331600894E-01    0.6945767705E+00    0.2367047066E-01    0.1489104300E+00    0.1190585202E-03
    0.4900000000E+04    0.1350578338E-01    0.6946309485E+00    0.2419104869E-01    0.1532579336E+00    0.1193402648E-03
    0.1000000000E+04    0.2970441070E-02    0.6896961297E+00    0.4523370080E-02    0.2466629712E-01    0.1968972053E-02
    0.3000000000E+04    0.1090964823E-01    0.6938251176E+00    0.1813136328E-01    0.1071253731E+00    0.1160456548E-03
    0.5000000000E+04    0.1359484537E-01    0.6946564132E+00    0.2444276836E-01    0.1553933339E+00    0.1194769995E-03
    0.7000000000E+04    0.1473181812E-01    0.6950129339E+00    0.2848206235E-01    0.1935011576E+00    0.1217695200E-03
    0.9000000000E+04    0.1505069880E-01    0.6952109163E+00    0.3113310770E-01    0.2248002409E+00    0.1235025071E-03
    0.1100000000E+05    0.1492312865E-01    0.6953367914E+00    0.3288459725E-01    0.2512423369E+00    0.1249002730E-03
    0.1300000000E+05    0.1455038915E-01    0.6954238341E+00    0.3402739485E-01    0.2740523023E+00    0.1260739390E-03
    0.1500000000E+05    0.1404641225E-01    0.6954875800E+00    0.3474471607E-01    0.2940451320E+00    0.1270868777E-03
    0.1700000000E+05    0.1347766813E-01    0.6955362557E+00    0.3515723658E-01    0.3117891527E+00    0.1279787334E-03
    0.1900000000E+05    0.1288365548E-01    0.6955746242E+00    0.3534733419E-01    0.3276961456E+00    0.1287759935E-03
    0.2100000000E+05    0.1228800306E-01    0.6956056339E+00    0.3537290056E-01    0.3420740641E+00    0.1294972505E-03
    0.2300000000E+05    0.1170474951E-01    0.6956312072E+00    0.3527560087E-01    0.3551593905E+00    0.1301560670E-03
    0.2500000000E+05    0.1114202260E-01    0.6956526514E+00    0.3508601888E-01    0.3671378250E+00    0.1307626461E-03
    0.2700000000E+05    0.1060425784E-01    0.6956708859E+00    0.3482697501E-01    0.3781579866E+00    0.1313248607E-03
    0.2900000000E+05    0.1009356801E-01    0.6956865766E+00    0.3451573102E-01    0.3883407704E+00    0.1318489149E-03
    0.3100000000E+05    0.9610604783E-02    0.6957002172E+00    0.3416549333E-01    0.3977859106E+00    0.1323397867E-03
    0.3300000000E+05    0.9155108732E-02    0.6957121815E+00    0.3378646136E-01    0.4065766954E+00    0.1328015323E-03
    0.3500000000E+05    0.8726264368E-02    0.6957227581E+00    0.3338657323E-01    0.4147834254E+00    0.1332375009E-03
    0.3700000000E+05    0.8322930901E-02    0.6957321727E+00    0.3297204560E-01    0.4224659994E+00    0.1336504911E-03
    0.3900000000E+05    0.7943792654E-02    0.6957406050E+00    0.3254777035E-01    0.4296758802E+00    0.1340428655E-03
    0.4100000000E+05    0.7587456902E-02    0.6957481993E+00    0.3211761034E-01    0.4364576111E+00    0.1344166373E-03
    0.4300000000E+05    0.7252516992E-02    0.6957550731E+00    0.3168462244E-01    0.4428500035E+00    0.1347735359E-03
    0.4500000000E+05    0.6937592374E-02    0.6957613230E+00    0.3125122766E-01    0.4488870774E+00    0.1351150587E-03
    0.4700000000E+05    0.6641353214E-02    0.6957670292E+00    0.3081934220E-01    0.4545988141E+00    0.1354425102E-03
    0.4900000000E+05    0.6362534708E-02    0.6957722585E+00    0.3039047928E-01    0.4600117663E+00    0.1357570346E-03
    0.1000000000E+05    0.1502741951E-01    0.6952801641E+00    0.3209984832E-01    0.2385395863E+00    0.1242347858E-03
    0.3000000000E+05    0.9848620335E-02    0.6956936274E+00    0.3434478838E-01    0.3931500005E+00    0.1320982264E-03
    0.5000000000E+05    0.6229282663E-02    0.6957747124E+00    0.3017756395E-01    0.4626136829E+00    0.1359097690E-03
    0.7000000000E+05    0.4230019181E-02    0.6958087171E+00    0.2625394442E-01    0.5035311974E+00    0.1384782582E-03
    0.9000000000E+05    0.3044795420E-02    0.6958271759E+00    0.2305439937E-01    0.5307005928E+00    0.1404276234E-03
    0.1100000000E+06    0.2291311744E-02    0.6958386386E+00    0.2048147608E-01    0.5501001474E+00    0.1420035345E-03
    0.1300000000E+06    0.1784566097E-02    0.6958463732E+00    0.1839329825E-01    0.5646598426E+00    0.1433287600E-03
    0.1500000000E+06    0.1428159110E-02    0.6958518950E+00    0.1667462200E-01    0.5759950407E+00    0.1444736963E-03
    0.1700000000E+06    0.1168285895E-02    0.6958560009E+00    0.1523983762E-01    0.5850721725E+00    0.1454825457E-03
    0.1900000000E+06    0.9731212255E-03    0.6958591491E+00    0.1402623564E-01    0.5925057413E+00    0.1463849210E-03
    0.2100000000E+06    0.8229066695E-03    0.6958616212E+00    0.1298757097E-01    0.5987054755E+00    0.1472016516E-03
    0.2300000000E+06    0.7048665342E-03    0.6958635996E+00    0.1208928662E-01    0.6039552005E+00    0.1479479561E-03
    0.2500000000E+06    0.6104505824E-03    0.6958652074E+00    0.1130517177E-01    0.6084578090E+00    0.1486352986E-03
    0.2700000000E+06    0.5337651245E-03    0.6958665306E+00    0.1061504938E-01    0.6123622172E+00    0.1492725344E-03
    0.2900000000E+06    0.4706425928E-03    0.6958676310E+00    0.1000316770E-01    0.6157802096E+00    0.1498666481E-03
    0.3100000000E+06    0.4180695926E-03    0.6958685541E+00    0.9457068475E-02    0.6187973407E+00    0.1504232483E-03
    0.3300000000E+06    0.3738241063E-03    0.6958693340E+00    0.8966779436E-02    0.6214802064E+00    0.1509469078E-03
    0.3500000000E+06    0.3362389204E-03    0.6958699969E+00    0.8524230073E-02    0.6238814219E+00    0.1514414047E-03
    0.3700000000E+06    0.3040435308E-03    0.6958705632E+00    0.8122822858E-02    0.6260431092E+00    0.1519098976E-03
    0.3900000000E+06    0.2762561594E-03    0.6958710489E+00    0.7757114386E-02    0.6279993891E+00    0.1523550539E-03
    0.4100000000E+06    0.2521085349E-03    0.6958714667E+00    0.7422575251E-02    0.6297781956E+00    0.1527791476E-03
    0.4300000000E+06    0.2309925599E-03    0.6958718271E+00    0.7115407060E-02    0.6314026173E+00    0.1531841330E-03
    0.4500000000E+06    0.2124218851E-03    0.6958721384E+00    0.6832401445E-02    0.6328919049E+00    0.1535717022E-03
    0.4700000000E+06    0.1960038142E-03    0.6958724076E+00    0.6570830331E-02    0.6342622363E+00    0.1539433305E-03
    0.4900000000E+06    0.1814184862E-03    0.6958726404E+00    0.6328359681E-02    0.6355273069E+00    0.1543003116E-03
    0.1000000000E+06    0.2628552514E-02    0.6958335158E+00    0.2169888751E-01    0.5411455302E+00    0.1412528795E-03
    0.3000000000E+06    0.4431915799E-03    0.6958681124E+00    0.9722569074E-02    0.6173343434E+00    0.1501493305E-03
    0.5000000000E+06    0.1747291349E-03    0.6958727447E+00    0.6213648267E-02    0.6361240852E+00    0.1544736713E-03
    0.7000000000E+06    0.9283377447E-04    0.6958737526E+00    0.4556283238E-02    0.6446285659E+00    0.1573896916E-03
    0.9000000000E+06    0.5752011312E-04    0.6958737602E+00    0.3593143894E-02    0.6494758837E+00    0.1596034935E-03
    0.1100000000E+07    0.3915511334E-04    0.6958734078E+00    0.2964245675E-02    0.6526066389E+00    0.1613934906E-03
    0.1300000000E+07    0.2840378735E-04    0.6958729130E+00    0.2521603623E-02    0.6547950274E+00    0.1628989129E-03
    0.1500000000E+07    0.2157264375E-04    0.6958723639E+00    0.2193284980E-02    0.6564106273E+00    0.1641996304E-03
    0.1700000000E+07    0.1696344146E-04    0.6958718000E+00    0.1940141728E-02    0.6576521543E+00    0.1653458084E-03
    0.1900000000E+07    0.1370694562E-04    0.6958712401E+00    0.1739053121E-02    0.6586359589E+00    0.1663710617E-03
    0.2100000000E+07    0.1132084566E-04    0.6958706932E+00    0.1575489594E-02    0.6594346872E+00    0.1672990384E-03
    0.2300000000E+07    0.9520098405E-05    0.6958701633E+00    0.1439863712E-02    0.6600960362E+00    0.1681470185E-03
    0.2500000000E+07    0.8127479534E-05    0.6958696523E+00    0.1325594714E-02    0.6606526158E+00    0.1689280206E-03
    0.2700000000E+07    0.7028107180E-05    0.6958691604E+00    0.1228016217E-02    0.6611274754E+00    0.1696521010E-03
    0.2900000000E+07    0.6144864602E-05    0.6958686873E+00    0.1143727677E-02    0.6615373676E+00    0.1703271928E-03
    0.3100000000E+07    0.5424425798E-05    0.6958682322E+00    0.1070192669E-02    0.6618947609E+00    0.1709596661E-03
    0.3300000000E+07    0.4828961615E-05    0.6958677944E+00    0.1005480962E-02    0.6622091259E+00    0.1715547148E-03
    0.3500000000E+07    0.4331033026E-05    0.6958673728E+00    0.9480977377E-03    0.6624877858E+00    0.1721166307E-03
    0.3700000000E+07    0.3910345062E-05    0.6958669664E+00    0.8968674490E-03    0.6627364915E+00    0.1726490016E-03
    0.3900000000E+07    0.3551625136E-05    0.6958665745E+00    0.8508529486E-03    0.6629598225E+00    0.1731548578E-03
    0.4100000000E+07    0.3243201722E-05    0.6958661961E+00    0.8092980093E-03    0.6631614705E+00    0.1736367825E-03
    0.4300000000E+07    0.2976031127E-05    0.6958658303E+00    0.7715857022E-03    0.6633444444E+00    0.1740969960E-03
    0.4500000000E+07    0.2743017886E-05    0.6958654764E+00    0.7372077541E-03    0.6635112212E+00    0.1745374206E-03
    0.4700000000E+07    0.2538531737E-05    0.6958651338E+00    0.7057416510E-03    0.6636638587E+00    0.1749597322E-03
    0.4900000000E+07    0.2358058777E-05    0.6958648017E+00    0.6768332936E-03    0.6638040802E+00    0.1753654007E-03
    0.1000000000E+07    0.4701152882E-04    0.6958736108E+00    0.3248788327E-02    0.6511933622E+00    0.1605408302E-03
    0.3000000000E+07    0.5766950928E-05    0.6958684576E+00    0.1105748500E-02    0.6617219761E+00    0.1706484082E-03
    0.5000000000E+07    0.2275657551E-05    0.6958646394E+00    0.6632429831E-03    0.6638699986E+00    0.1755624050E-03
    0.7000000000E+07    0.1284334287E-05    0.6958618213E+00    0.4728111838E-03    0.6647937052E+00    0.1788761893E-03
    0.9000000000E+07    0.8637328798E-06    0.6958595894E+00    0.3669682114E-03    0.6653074096E+00    0.1813920138E-03
    0.1100000000E+08    0.6437245671E-06    0.6958577381E+00    0.2996527242E-03    0.6656344187E+00    0.1834262346E-03
    0.1300000000E+08    0.5126740439E-06    0.6958561538E+00    0.2530930694E-03    0.6658608203E+00    0.1851370633E-03
    0.1500000000E+08    0.4273580941E-06    0.6958547671E+00    0.2189850490E-03    0.6660268367E+00    0.1866152616E-03
    0.1700000000E+08    0.3681053568E-06    0.6958535328E+00    0.1929303171E-03    0.6661537755E+00    0.1879178370E-03
    0.1900000000E+08    0.3248802474E-06    0.6958524196E+00    0.1723824095E-03    0.6662539770E+00    0.1890829892E-03
    0.2100000000E+08    0.2921068420E-06    0.6958514050E+00    0.1557652924E-03    0.6663350819E+00    0.1901375923E-03
    0.2300000000E+08    0.2664744314E-06    0.6958504724E+00    0.1420514890E-03    0.6664020733E+00    0.1911012837E-03
    0.2500000000E+08    0.2459098829E-06    0.6958496091E+00    0.1305426256E-03    0.6664583401E+00    0.1919888579E-03
    0.2700000000E+08    0.2290571362E-06    0.6958488049E+00    0.1207474962E-03    0.6665062666E+00    0.1928117436E-03
