  Pressure (Pa) 22mC5-500 (mol/kg) 24mC5-500 (mol/kg) 2mC6-500 (mol/kg) 3mC6-500 (mol/kg) C7-500 (mol/kg)
    0.1000000000E+01    0.9535267724E-05    0.2142803445E+00    0.9933461647E-05    0.2041233425E-05    0.4145666944E-02
    0.3000000000E+01    0.1637721469E-04    0.3978498316E+00    0.1636414633E-04    0.5035999198E-05    0.4169371709E-02
    0.5000000000E+01    0.1907600263E-04    0.4801123246E+00    0.1914021230E-04    0.7749410386E-05    0.4175054103E-02
    0.7000000000E+01    0.2064779842E-04    0.5267953038E+00    0.2123817421E-04    0.1032935005E-04    0.4177503769E-02
    0.9000000000E+01    0.2182156674E-04    0.5568777316E+00    0.2321774480E-04    0.1282470511E-04    0.4178730810E-02
    0.1100000000E+02    0.2283791572E-04    0.5778778229E+00    0.2521112185E-04    0.1525968000E-04    0.4179356537E-02
    0.1300000000E+02    0.2379092910E-04    0.5933693231E+00    0.2724798977E-04    0.1764857666E-04    0.4179641139E-02
    0.1500000000E+02    0.2472126998E-04    0.6052684202E+00    0.2933016478E-04    0.2000076715E-04    0.4179713691E-02
    0.1700000000E+02    0.2564751154E-04    0.6146948972E+00    0.3145209859E-04    0.2232282983E-04    0.4179645712E-02
    0.1900000000E+02    0.2657827744E-04    0.6223469421E+00    0.3360700528E-04    0.2461961503E-04    0.4179480072E-02
    0.2100000000E+02    0.2751744282E-04    0.6286824919E+00    0.3578866998E-04    0.2689483393E-04    0.4179244032E-02
    0.2300000000E+02    0.2846653313E-04    0.6340143874E+00    0.3799187566E-04    0.2915140954E-04    0.4178955744E-02
    0.2500000000E+02    0.2942589314E-04    0.6385636223E+00    0.4021238864E-04    0.3139169833E-04    0.4178627754E-02
    0.2700000000E+02    0.3039527978E-04    0.6424907457E+00    0.4244681982E-04    0.3361763665E-04    0.4178268999E-02
    0.2900000000E+02    0.3137417132E-04    0.6459152044E+00    0.4469246900E-04    0.3583084138E-04    0.4177886009E-02
    0.3100000000E+02    0.3236193085E-04    0.6489277059E+00    0.4694718601E-04    0.3803268109E-04    0.4177483662E-02
    0.3300000000E+02    0.3335789290E-04    0.6515983709E+00    0.4920925620E-04    0.4022432781E-04    0.4177065667E-02
    0.3500000000E+02    0.3436140841E-04    0.6539822605E+00    0.5147730927E-04    0.4240679553E-04    0.4176634890E-02
    0.3700000000E+02    0.3537186687E-04    0.6561232127E+00    0.5375024754E-04    0.4458096939E-04    0.4176193578E-02
    0.3900000000E+02    0.3638870586E-04    0.6580565640E+00    0.5602718990E-04    0.4674762818E-04    0.4175743514E-02
    0.4100000000E+02    0.3741141373E-04    0.6598111141E+00    0.5830742801E-04    0.4890746200E-04    0.4175286128E-02
    0.4300000000E+02    0.3843952860E-04    0.6614105713E+00    0.6059039198E-04    0.5106108623E-04    0.4174822578E-02
    0.4500000000E+02    0.3947263543E-04    0.6628746298E+00    0.6287562338E-04    0.5320905276E-04    0.4174353811E-02
    0.4700000000E+02    0.4051036234E-04    0.6642197847E+00    0.6516275391E-04    0.5535185914E-04    0.4173880606E-02
    0.4900000000E+02    0.4155237659E-04    0.6654599560E+00    0.6745148846E-04    0.5748995606E-04    0.4173403608E-02
    0.1000000000E+02    0.2234168186E-04    0.5682350020E+00    0.2420976782E-04    0.1404869356E-04    0.4179098078E-02
    0.3000000000E+02    0.3186698418E-04    0.6474681596E+00    0.4581881022E-04    0.3693310451E-04    0.4177687001E-02
    0.5000000000E+02    0.4207489722E-04    0.6660444402E+00    0.6859638166E-04    0.5855736803E-04    0.4173163860E-02
    0.7000000000E+02    0.5269329561E-04    0.6743365573E+00    0.9154289276E-04    0.7974125086E-04    0.4168262638E-02
    0.9000000000E+02    0.6354381284E-04    0.6790333156E+00    0.1145640275E-03    0.1007636586E-03    0.4163271512E-02
    0.1100000000E+03    0.7456518659E-04    0.6820564704E+00    0.1376845411E-03    0.1217664116E-03    0.4158251377E-02
    0.1300000000E+03    0.8573638624E-04    0.6841652926E+00    0.1609447403E-03    0.1428361979E-03    0.4153215631E-02
    0.1500000000E+03    0.9705196254E-04    0.6857200995E+00    0.1843830048E-03    0.1640323616E-03    0.4148164433E-02
    0.1700000000E+03    0.1085131366E-03    0.6869138654E+00    0.2080331427E-03    0.1853988867E-03    0.4143093851E-02
    0.1900000000E+03    0.1201241856E-03    0.6878592650E+00    0.2319247210E-03    0.2069703869E-03    0.4137998769E-02
    0.2100000000E+03    0.1318908495E-03    0.6886265054E+00    0.2560839007E-03    0.2287754202E-03    0.4132873893E-02
    0.2300000000E+03    0.1438195864E-03    0.6892616108E+00    0.2805342220E-03    0.2508384666E-03    0.4127714104E-02
    0.2500000000E+03    0.1559172144E-03    0.6897960097E+00    0.3052972413E-03    0.2731811792E-03    0.4122514558E-02
    0.2700000000E+03    0.1681907381E-03    0.6902518955E+00    0.3303930261E-03    0.2958232133E-03    0.4117270699E-02
    0.2900000000E+03    0.1806472677E-03    0.6906453865E+00    0.3558405376E-03    0.3187827989E-03    0.4111978229E-02
    0.3100000000E+03    0.1932939860E-03    0.6909884717E+00    0.3816579272E-03    0.3420771486E-03    0.4106633075E-02
    0.3300000000E+03    0.2061381403E-03    0.6912902534E+00    0.4078627693E-03    0.3657227574E-03    0.4101231350E-02
    0.3500000000E+03    0.2191870472E-03    0.6915577667E+00    0.4344722467E-03    0.3897356291E-03    0.4095769314E-02
    0.3700000000E+03    0.2324481055E-03    0.6917965349E+00    0.4615033004E-03    0.4141314516E-03    0.4090243350E-02
    0.3900000000E+03    0.2459288108E-03    0.6920109546E+00    0.4889727524E-03    0.4389257355E-03    0.4084649931E-02
    0.4100000000E+03    0.2596367733E-03    0.6922045696E+00    0.5168974089E-03    0.4641339261E-03    0.4078985594E-02
    0.4300000000E+03    0.2735797354E-03    0.6923802676E+00    0.5452941476E-03    0.4897714969E-03    0.4073246927E-02
    0.4500000000E+03    0.2877655894E-03    0.6925404256E+00    0.5741799933E-03    0.5158540278E-03    0.4067430542E-02
    0.4700000000E+03    0.3022023959E-03    0.6926870179E+00    0.6035721850E-03    0.5423972729E-03    0.4061533063E-02
    0.4900000000E+03    0.3168984007E-03    0.6928216979E+00    0.6334882352E-03    0.5694172206E-03    0.4055551110E-02
    0.1000000000E+03    0.6903499042E-04    0.6806927162E+00    0.1261093739E-03    0.1112612252E-03    0.4160763733E-02
    0.3000000000E+03    0.1869464019E-03    0.6908226045E+00    0.3687018881E-03    0.3303870834E-03    0.4109312485E-02
    0.5000000000E+03    0.3243462344E-03    0.6928850155E+00    0.6486482682E-03    0.5831110313E-03    0.4052527396E-02
    0.7000000000E+03    0.4891304188E-03    0.6937726648E+00    0.9839950076E-03    0.8862467458E-03    0.3986759309E-02
    0.9000000000E+03    0.6915632332E-03    0.6942667604E+00    0.1396075885E-02    0.1259240709E-02    0.3908185025E-02
    0.1100000000E+04    0.9461926583E-03    0.6945815277E+00    0.1914803383E-02    0.1729367489E-02    0.3811770587E-02
    0.1300000000E+04    0.1274644824E-02    0.6947995910E+00    0.2584585377E-02    0.2337172073E-02    0.3690312418E-02
    0.1500000000E+04    0.1710094858E-02    0.6949595748E+00    0.3473596952E-02    0.3144993664E-02    0.3533091296E-02
    0.1700000000E+04    0.2304421408E-02    0.6950819514E+00    0.4688626743E-02    0.4250663788E-02    0.3323898544E-02
    0.1900000000E+04    0.3138292116E-02    0.6951785835E+00    0.6396164519E-02    0.5807116171E-02    0.3038673433E-02
    0.2100000000E+04    0.4328406740E-02    0.6952568193E+00    0.8838203713E-02    0.8037664195E-02    0.2645333940E-02
    0.2300000000E+04    0.6001605577E-02    0.6953214536E+00    0.1228101264E-01    0.1119091767E-01    0.2116404514E-02
    0.2500000000E+04    0.8160110042E-02    0.6953757484E+00    0.1674047019E-01    0.1529158483E-01    0.1475976402E-02
    0.2700000000E+04    0.1046547258E-01    0.6954219996E+00    0.2153447475E-01    0.1972784332E-01    0.8572632919E-03
    0.2900000000E+04    0.1239469511E-01    0.6954618706E+00    0.2559065901E-01    0.2352107537E-01    0.4221093231E-03
    0.3100000000E+04    0.1376898612E-01    0.6954965955E+00    0.2853089666E-01    0.2631596486E-01    0.1942276641E-03
    0.3300000000E+04    0.1475080768E-01    0.6955271096E+00    0.3067874417E-01    0.2839936199E-01    0.9533102435E-04
    0.3500000000E+04    0.1552631160E-01    0.6955541344E+00    0.3241217612E-01    0.3011299852E-01    0.5609446366E-04
    0.3700000000E+04    0.1620076602E-01    0.6955782356E+00    0.3394612125E-01    0.3165228854E-01    0.4107618366E-04
    0.3900000000E+04    0.1682182366E-01    0.6955998629E+00    0.3537805167E-01    0.3310604255E-01    0.3541286901E-04
    0.4100000000E+04    0.1740960804E-01    0.6956193781E+00    0.3674901964E-01    0.3451159298E-01    0.3330739112E-04
    0.4300000000E+04    0.1797264653E-01    0.6956370761E+00    0.3807622400E-01    0.3588442676E-01    0.3255168533E-04
    0.4500000000E+04    0.1851478005E-01    0.6956531990E+00    0.3936720104E-01    0.3723115887E-01    0.3230883501E-04
    0.4700000000E+04    0.1903796956E-01    0.6956679479E+00    0.4062561101E-01    0.3855484322E-01    0.3226090700E-04
    0.4900000000E+04    0.1954341166E-01    0.6956814911E+00    0.4185354626E-01    0.3985709831E-01    0.3228654403E-04
    0.1000000000E+04    0.8112094644E-03    0.6944398503E+00    0.1639759979E-02    0.1480019282E-02    0.3862594067E-02
    0.3000000000E+04    0.1314464270E-01    0.6954798120E+00    0.2718756665E-01    0.2503238697E-01    0.2864549289E-03
    0.5000000000E+04    0.1978975735E-01    0.6956878557E+00    0.4245654954E-01    0.4050052349E-01    0.3231099645E-04
    0.7000000000E+04    0.2394997960E-01    0.6957768993E+00    0.5317845297E-01    0.5241974546E-01    0.3290219528E-04
    0.9000000000E+04    0.2696919752E-01    0.6958262851E+00    0.6184886081E-01    0.6285106514E-01    0.3336613623E-04
    0.1100000000E+05    0.2918224853E-01    0.6958576546E+00    0.6899876183E-01    0.7214115074E-01    0.3374107297E-04
    0.1300000000E+05    0.3081034485E-01    0.6958793296E+00    0.7498915208E-01    0.8053121074E-01    0.3405629922E-04
    0.1500000000E+05    0.3200469958E-01    0.6958951924E+00    0.8007421336E-01    0.8819494178E-01    0.3432860011E-04
    0.1700000000E+05    0.3287163356E-01    0.6959072975E+00    0.8443819754E-01    0.9526102037E-01    0.3456850923E-04
    0.1900000000E+05    0.3348770742E-01    0.6959168337E+00    0.8821800926E-01    0.1018270982E+00    0.3478308057E-04
    0.2100000000E+05    0.3390918782E-01    0.6959245367E+00    0.9151756165E-01    0.1079688375E+00    0.3497727430E-04
    0.2300000000E+05    0.3417816151E-01    0.6959308859E+00    0.9441720116E-01    0.1137459319E+00    0.3515471363E-04
    0.2500000000E+05    0.3432659488E-01    0.6959362073E+00    0.9698007052E-01    0.1192062300E+00    0.3531812739E-04
    0.2700000000E+05    0.3437909556E-01    0.6959407299E+00    0.9925651133E-01    0.1243886282E+00    0.3546962307E-04
    0.2900000000E+05    0.3435483158E-01    0.6959446198E+00    0.1012871768E+00    0.1293251440E+00    0.3561086278E-04
    0.3100000000E+05    0.3426889054E-01    0.6959479998E+00    0.1031052753E+00    0.1340424296E+00    0.3574318099E-04
    0.3300000000E+05    0.3413325880E-01    0.6959509631E+00    0.1047382161E+00    0.1385628968E+00    0.3586766562E-04
    0.3500000000E+05    0.3395753764E-01    0.6959535815E+00    0.1062088348E+00    0.1429055650E+00    0.3598521550E-04
    0.3700000000E+05    0.3374947445E-01    0.6959559112E+00    0.1075363193E+00    0.1470867100E+00    0.3609658194E-04
    0.3900000000E+05    0.3351536154E-01    0.6959579969E+00    0.1087369187E+00    0.1511203658E+00    0.3620239945E-04
    0.4100000000E+05    0.3326033911E-01    0.6959598745E+00    0.1098244914E+00    0.1550187185E+00    0.3630320889E-04
    0.4300000000E+05    0.3298862781E-01    0.6959615733E+00    0.1108109348E+00    0.1587924176E+00    0.3639947507E-04
    0.4500000000E+05    0.3270370892E-01    0.6959631172E+00    0.1117065247E+00    0.1624508253E+00    0.3649160044E-04
    0.4700000000E+05    0.3240846526E-01    0.6959645262E+00    0.1125201863E+00    0.1660022168E+00    0.3657993580E-04
    0.4900000000E+05    0.3210529219E-01    0.6959658169E+00    0.1132597116E+00    0.1694539443E+00    0.3666478883E-04
    0.1000000000E+05    0.2816063654E-01    0.6958435457E+00    0.6558823891E-01    0.6762175957E-01    0.3356249121E-04
    0.3000000000E+05    0.3431875832E-01    0.6959463671E+00    0.1022209639E+00    0.1317097015E+00    0.3567806406E-04
    0.5000000000E+05    0.3195136949E-01    0.6959664224E+00    0.1136038425E+00    0.1711445126E+00    0.3670599553E-04
    0.7000000000E+05    0.2879524036E-01    0.6959747966E+00    0.1178820217E+00    0.2010025076E+00    0.3739909859E-04
    0.9000000000E+05    0.2586508692E-01    0.6959793236E+00    0.1191737100E+00    0.2254721168E+00    0.3792527408E-04
    0.1100000000E+06    0.2330826467E-01    0.6959821232E+00    0.1189671467E+00    0.2463645053E+00    0.3835071202E-04
    0.1300000000E+06    0.2110565739E-01    0.6959840043E+00    0.1179371562E+00    0.2646539176E+00    0.3870850975E-04
    0.1500000000E+06    0.1920711577E-01    0.6959853414E+00    0.1164336599E+00    0.2809373537E+00    0.3901765269E-04
    0.1700000000E+06    0.1756276162E-01    0.6959863311E+00    0.1146546062E+00    0.2956134759E+00    0.3929006490E-04
    0.1900000000E+06    0.1612986467E-01    0.6959870864E+00    0.1127188257E+00    0.3089650974E+00    0.3953373628E-04
    0.2100000000E+06    0.1487337989E-01    0.6959876765E+00    0.1107006671E+00    0.3212019985E+00    0.3975428754E-04
    0.2300000000E+06    0.1376491924E-01    0.6959881462E+00    0.1086479934E+00    0.3324851840E+00    0.3995582587E-04
    0.2500000000E+06    0.1278150205E-01    0.6959885258E+00    0.1065921876E+00    0.3429415855E+00    0.4014144548E-04
    0.2700000000E+06    0.1190444624E-01    0.6959888363E+00    0.1045540216E+00    0.3526734594E+00    0.4031353655E-04
    0.2900000000E+06    0.1111846898E-01    0.6959890928E+00    0.1025472477E+00    0.3617646608E+00    0.4047398453E-04
    0.3100000000E+06    0.1041098028E-01    0.6959893064E+00    0.1005808758E+00    0.3702849833E+00    0.4062430342E-04
    0.3300000000E+06    0.9771534295E-02    0.6959894856E+00    0.9866065854E-01    0.3782932521E+00    0.4076572772E-04
    0.3500000000E+06    0.9191403458E-02    0.6959896366E+00    0.9679008410E-01    0.3858395867E+00    0.4089927742E-04
    0.3700000000E+06    0.8663247009E-02    0.6959897644E+00    0.9497105286E-01    0.3929670905E+00    0.4102580524E-04
    0.3900000000E+06    0.8180851488E-02    0.6959898729E+00    0.9320434680E-01    0.3997131384E+00    0.4114603140E-04
    0.4100000000E+06    0.7738926260E-02    0.6959899653E+00    0.9148995955E-01    0.4061103737E+00    0.4126056985E-04
    0.4300000000E+06    0.7332941257E-02    0.6959900439E+00    0.8982733125E-01    0.4121874915E+00    0.4136994826E-04
    0.4500000000E+06    0.6958997311E-02    0.6959901109E+00    0.8821551729E-01    0.4179698622E+00    0.4147462352E-04
    0.4700000000E+06    0.6613721813E-02    0.6959901679E+00    0.8665331039E-01    0.4234800340E+00    0.4157499393E-04
    0.4900000000E+06    0.6294184178E-02    0.6959902163E+00    0.8513932951E-01    0.4287381413E+00    0.4167140885E-04
    0.1000000000E+06    0.2453976902E-01    0.6959808735E+00    0.1192046760E+00    0.2362925034E+00    0.3814805648E-04
    0.3000000000E+06    0.1075561116E-01    0.6959892044E+00    0.1015585891E+00    0.3660922781E+00    0.4055032727E-04
    0.5000000000E+06    0.6143254887E-02    0.6959902376E+00    0.8439996107E-01    0.4312783866E+00    0.4171823071E-04
    0.7000000000E+06    0.3999831044E-02    0.6959904134E+00    0.7176828626E-01    0.4723932421E+00    0.4250581765E-04
    0.9000000000E+06    0.2818861554E-02    0.6959903610E+00    0.6230897342E-01    0.5010383068E+00    0.4310375662E-04
    0.1100000000E+07    0.2096098119E-02    0.6959902310E+00    0.5500648081E-01    0.5222400372E+00    0.4358723453E-04
    0.1300000000E+07    0.1620649468E-02    0.6959900734E+00    0.4921278168E-01    0.5386025538E+00    0.4399385283E-04
    0.1500000000E+07    0.1290859655E-02    0.6959899078E+00    0.4450958413E-01    0.5516282104E+00    0.4434518241E-04
    0.1700000000E+07    0.1052588698E-02    0.6959897424E+00    0.4061804830E-01    0.5622503231E+00    0.4465477197E-04
    0.1900000000E+07    0.8747727296E-03    0.6959895812E+00    0.3734609973E-01    0.5710814217E+00    0.4493170037E-04
    0.2100000000E+07    0.7385230177E-03    0.6959894256E+00    0.3455745809E-01    0.5785410524E+00    0.4518235460E-04
    0.2300000000E+07    0.6318054809E-03    0.6959892762E+00    0.3215288906E-01    0.5849266317E+00    0.4541140189E-04
    0.2500000000E+07    0.5466530132E-03    0.6959891331E+00    0.3005848045E-01    0.5904550664E+00    0.4562235841E-04
    0.2700000000E+07    0.4776183809E-03    0.6959889962E+00    0.2821808090E-01    0.5952883683E+00    0.4581794034E-04
    0.2900000000E+07    0.4208736499E-03    0.6959888651E+00    0.2658828389E-01    0.5995500407E+00    0.4600029034E-04
    0.3100000000E+07    0.3736644066E-03    0.6959887394E+00    0.2513501539E-01    0.6033359078E+00    0.4617112894E-04
    0.3300000000E+07    0.3339673773E-03    0.6959886190E+00    0.2383115919E-01    0.6067214746E+00    0.4633185905E-04
    0.3500000000E+07    0.3002691192E-03    0.6959885033E+00    0.2265487066E-01    0.6097670518E+00    0.4648363985E-04
    0.3700000000E+07    0.2714191655E-03    0.6959883921E+00    0.2158835729E-01    0.6125214008E+00    0.4662744039E-04
    0.3900000000E+07    0.2465302921E-03    0.6959882850E+00    0.2061698225E-01    0.6150243763E+00    0.4676407917E-04
    0.4100000000E+07    0.2249093722E-03    0.6959881819E+00    0.1972859548E-01    0.6173088729E+00    0.4689425392E-04
    0.4300000000E+07    0.2060085412E-03    0.6959880824E+00    0.1891302783E-01    0.6194022828E+00    0.4701856431E-04
    0.4500000000E+07    0.1893901247E-03    0.6959879863E+00    0.1816170364E-01    0.6213276012E+00    0.4713752960E-04
    0.4700000000E+07    0.1747010679E-03    0.6959878933E+00    0.1746734080E-01    0.6231042748E+00    0.4725160244E-04
    0.4900000000E+07    0.1616540308E-03    0.6959878034E+00    0.1682371597E-01    0.6247488619E+00    0.4736117985E-04
    0.1000000000E+07    0.2417130540E-02    0.6959903015E+00    0.5843541327E-01    0.5123714875E+00    0.4335693040E-04
    0.3000000000E+07    0.3962176389E-03    0.6959888016E+00    0.2584141893E-01    0.6014973234E+00    0.4608705442E-04
    0.5000000000E+07    0.1556708872E-03    0.6959877595E+00    0.1651922858E-01    0.6255261370E+00    0.4741439383E-04
    0.7000000000E+07    0.8245409122E-04    0.6959870010E+00    0.1211965720E-01    0.6367054631E+00    0.4830950388E-04
    0.9000000000E+07    0.5090348002E-04    0.6959864047E+00    0.9561760797E-02    0.6431632999E+00    0.4898907654E-04
    0.1100000000E+08    0.3450551050E-04    0.6959859126E+00    0.7890661987E-02    0.6473670204E+00    0.4953856199E-04
    0.1300000000E+08    0.2491300888E-04    0.6959854930E+00    0.6713956115E-02    0.6503203268E+00    0.5000069475E-04
    0.1500000000E+08    0.1882376627E-04    0.6959851270E+00    0.5840847701E-02    0.6525082762E+00    0.5039999051E-04
    0.1700000000E+08    0.1471954658E-04    0.6959848020E+00    0.5167457302E-02    0.6541938904E+00    0.5075184766E-04
    0.1900000000E+08    0.1182332153E-04    0.6959845096E+00    0.4632408916E-02    0.6555321244E+00    0.5106658452E-04
    0.2100000000E+08    0.9704006523E-05    0.6959842437E+00    0.4197118260E-02    0.6566201816E+00    0.5135146007E-04
    0.2300000000E+08    0.8106885045E-05    0.6959839996E+00    0.3836116865E-02    0.6575221171E+00    0.5161177873E-04
    0.2500000000E+08    0.6873629463E-05    0.6959837741E+00    0.3531918274E-02    0.6582818528E+00    0.5185153671E-04
    0.2700000000E+08    0.5901639206E-05    0.6959835644E+00    0.3272119796E-02    0.6589305081E+00    0.5207382103E-04
