  Pressure (Pa) 22mC5-500 (mol/kg) 24mC5-500 (mol/kg) 2mC6-500 (mol/kg) 3mC6-500 (mol/kg) C7-500 (mol/kg)
    0.1000000000E+01    0.1135214825E-04    0.1266317118E+00    0.8890057464E-05    0.5389903786E-05    0.4168773389E-02
    0.3000000000E+01    0.2346703325E-04    0.2785209859E+00    0.1754673598E-04    0.1356866296E-04    0.4196488375E-02
    0.5000000000E+01    0.2962539624E-04    0.3664243870E+00    0.2161799606E-04    0.2104916911E-04    0.4208833919E-02
    0.7000000000E+01    0.3325922002E-04    0.4237408626E+00    0.2400643771E-04    0.2819937326E-04    0.4216295835E-02
    0.9000000000E+01    0.3565327022E-04    0.4640695711E+00    0.2569772814E-04    0.3514213412E-04    0.4221264813E-02
    0.1100000000E+02    0.3737974582E-04    0.4939884054E+00    0.2708615373E-04    0.4193857219E-04    0.4224752874E-02
    0.1300000000E+02    0.3872411730E-04    0.5170673630E+00    0.2834597667E-04    0.4862491447E-04    0.4227281278E-02
    0.1500000000E+02    0.3984072966E-04    0.5354114665E+00    0.2955910165E-04    0.5522495470E-04    0.4229149640E-02
    0.1700000000E+02    0.4081815809E-04    0.5503423075E+00    0.3076527645E-04    0.6175542474E-04    0.4230543473E-02
    0.1900000000E+02    0.4170959716E-04    0.5627314898E+00    0.3198383019E-04    0.6822868080E-04    0.4231584158E-02
    0.2100000000E+02    0.4254813647E-04    0.5731771285E+00    0.3322379027E-04    0.7465419088E-04    0.4232354606E-02
    0.2300000000E+02    0.4335492822E-04    0.5821033165E+00    0.3448885630E-04    0.8103942267E-04    0.4232913453E-02
    0.2500000000E+02    0.4414377864E-04    0.5898191239E+00    0.3577994972E-04    0.8739040474E-04    0.4233303377E-02
    0.2700000000E+02    0.4492383823E-04    0.5965551180E+00    0.3709656152E-04    0.9371209809E-04    0.4233556201E-02
    0.2900000000E+02    0.4570123384E-04    0.6024867998E+00    0.3843747969E-04    0.1000086513E-03    0.4233696151E-02
    0.3100000000E+02    0.4648008844E-04    0.6077501172E+00    0.3980118606E-04    0.1062835815E-03    0.4233742002E-02
    0.3300000000E+02    0.4726317452E-04    0.6124520137E+00    0.4118607254E-04    0.1125399057E-03    0.4233708534E-02
    0.3500000000E+02    0.4805234199E-04    0.6166777718E+00    0.4259055679E-04    0.1187802388E-03    0.4233607544E-02
    0.3700000000E+02    0.4884880364E-04    0.6204962332E+00    0.4401314134E-04    0.1250068681E-03    0.4233448564E-02
    0.3900000000E+02    0.4965332879E-04    0.6239635781E+00    0.4545244070E-04    0.1312218100E-03    0.4233239382E-02
    0.4100000000E+02    0.5046637639E-04    0.6271261085E+00    0.4690719061E-04    0.1374268554E-03    0.4232986421E-02
    0.4300000000E+02    0.5128818769E-04    0.6300223279E+00    0.4837624729E-04    0.1436236052E-03    0.4232695030E-02
    0.4500000000E+02    0.5211885139E-04    0.6326845167E+00    0.4985858158E-04    0.1498134987E-03    0.4232369696E-02
    0.4700000000E+02    0.5295834986E-04    0.6351399408E+00    0.5135327049E-04    0.1559978371E-03    0.4232014213E-02
    0.4900000000E+02    0.5380659207E-04    0.6374117888E+00    0.5285948788E-04    0.1621778027E-03    0.4231631811E-02
    0.1000000000E+02    0.3657787847E-04    0.4800609184E+00    0.2641582454E-04    0.3855599474E-04    0.4223154259E-02
    0.3000000000E+02    0.4609027970E-04    0.6051947388E+00    0.3911658446E-04    0.1031486203E-03    0.4233729835E-02
    0.5000000000E+02    0.5423394956E-04    0.6384851874E+00    0.5361668574E-04    0.1652664864E-03    0.4231431396E-02
    0.7000000000E+02    0.6319520330E-04    0.6539020238E+00    0.6922426644E-04    0.2270303383E-03    0.4226510116E-02
    0.9000000000E+02    0.7281724961E-04    0.6627934975E+00    0.8549822164E-04    0.2891869248E-03    0.4220547376E-02
    0.1100000000E+03    0.8296536781E-04    0.6685789342E+00    0.1022894049E-03    0.3521371269E-03    0.4214016939E-02
    0.1300000000E+03    0.9356418091E-04    0.6726438818E+00    0.1195490432E-03    0.4161448631E-03    0.4207105471E-02
    0.1500000000E+03    0.1045738844E-03    0.6756564661E+00    0.1372675957E-03    0.4814079483E-03    0.4199897715E-02
    0.1700000000E+03    0.1159751020E-03    0.6779785161E+00    0.1554529135E-03    0.5480887128E-03    0.4192434746E-02
    0.1900000000E+03    0.1277606909E-03    0.6798230410E+00    0.1741214772E-03    0.6163293922E-03    0.4184736343E-02
    0.2100000000E+03    0.1399312646E-03    0.6813236083E+00    0.1932945682E-03    0.6862607426E-03    0.4176810841E-02
    0.2300000000E+03    0.1524926634E-03    0.6825682202E+00    0.2129965006E-03    0.7580072874E-03    0.4168659910E-02
    0.2500000000E+03    0.1654544777E-03    0.6836172172E+00    0.2332537889E-03    0.8316907472E-03    0.4160281048E-02
    0.2700000000E+03    0.1788291643E-03    0.6845133548E+00    0.2540947686E-03    0.9074324304E-03    0.4151668959E-02
    0.2900000000E+03    0.1926315112E-03    0.6852877745E+00    0.2755494492E-03    0.9853550008E-03    0.4142816346E-02
    0.3100000000E+03    0.2068783143E-03    0.6859636966E+00    0.2976494931E-03    0.1065583863E-02    0.4133714371E-02
    0.3300000000E+03    0.2215881894E-03    0.6865587882E+00    0.3204282676E-03    0.1148248304E-02    0.4124352934E-02
    0.3500000000E+03    0.2367814740E-03    0.6870867295E+00    0.3439209403E-03    0.1233482490E-02    0.4114720836E-02
    0.3700000000E+03    0.2524801894E-03    0.6875582786E+00    0.3681646053E-03    0.1321426371E-02    0.4104805869E-02
    0.3900000000E+03    0.2687080474E-03    0.6879820118E+00    0.3931984305E-03    0.1412226529E-02    0.4094594854E-02
    0.4100000000E+03    0.2854904904E-03    0.6883648506E+00    0.4190638244E-03    0.1506037017E-02    0.4084073655E-02
    0.4300000000E+03    0.3028547578E-03    0.6887124419E+00    0.4458046188E-03    0.1603020190E-02    0.4073227162E-02
    0.4500000000E+03    0.3208299741E-03    0.6890294386E+00    0.4734672682E-03    0.1703347559E-02    0.4062039263E-02
    0.4700000000E+03    0.3394472580E-03    0.6893197094E+00    0.5021010664E-03    0.1807200673E-02    0.4050492791E-02
    0.4900000000E+03    0.3587398480E-03    0.6895864970E+00    0.5317583811E-03    0.1914772052E-02    0.4038569474E-02
    0.1000000000E+03    0.7783133833E-04    0.6659630140E+00    0.9383354171E-04    0.3205442493E-03    0.4217337927E-02
    0.3000000000E+03    0.1996982334E-03    0.6856368348E+00    0.2865167562E-03    0.1025173168E-02    0.4138297133E-02
    0.5000000000E+03    0.3686503848E-03    0.6897119573E+00    0.5469881248E-03    0.1970015493E-02    0.4032460468E-02
    0.7000000000E+03    0.6126728429E-03    0.6914730869E+00    0.9214582379E-03    0.3329242164E-02    0.3884878316E-02
    0.9000000000E+03    0.9886234309E-03    0.6924552087E+00    0.1498134827E-02    0.5425929598E-02    0.3665283914E-02
    0.1100000000E+04    0.1614524363E-02    0.6930815166E+00    0.2459437657E-02    0.8928739391E-02    0.3313616091E-02
    0.1300000000E+04    0.2733973785E-02    0.6935156763E+00    0.4183262363E-02    0.1522888959E-01    0.2715078063E-02
    0.1500000000E+04    0.4676284172E-02    0.6938343253E+00    0.7188320878E-02    0.2626435382E-01    0.1752382490E-02
    0.1700000000E+04    0.7035334815E-02    0.6940781305E+00    0.1087369577E-01    0.3992672509E-01    0.7421817853E-03
    0.1900000000E+04    0.8623150073E-02    0.6942706756E+00    0.1341021167E-01    0.4953093900E-01    0.2667378964E-03
    0.2100000000E+04    0.9543921078E-02    0.6944265786E+00    0.1493733506E-01    0.5551267547E-01    0.1479304653E-03
    0.2300000000E+04    0.1023884464E-01    0.6945553824E+00    0.1612786069E-01    0.6030850660E-01    0.1246125158E-03
    0.2500000000E+04    0.1085674545E-01    0.6946635815E+00    0.1721019216E-01    0.6475120723E-01    0.1205799117E-03
    0.2700000000E+04    0.1143261682E-01    0.6947557488E+00    0.1823766277E-01    0.6903424456E-01    0.1202159427E-03
    0.2900000000E+04    0.1197522221E-01    0.6948351978E+00    0.1922303222E-01    0.7320204037E-01    0.1205287482E-03
    0.3100000000E+04    0.1248777816E-01    0.6949043876E+00    0.2017048018E-01    0.7726745868E-01    0.1209489899E-03
    0.3300000000E+04    0.1297227025E-01    0.6949651821E+00    0.2108232178E-01    0.8123661244E-01    0.1213692835E-03
    0.3500000000E+04    0.1343034174E-01    0.6950190196E+00    0.2196039467E-01    0.8511400628E-01    0.1217709242E-03
    0.3700000000E+04    0.1386348242E-01    0.6950670277E+00    0.2280635158E-01    0.8890361637E-01    0.1221521885E-03
    0.3900000000E+04    0.1427307413E-01    0.6951101027E+00    0.2362172756E-01    0.9260912992E-01    0.1225144226E-03
    0.4100000000E+04    0.1466040608E-01    0.6951489664E+00    0.2440796007E-01    0.9623400856E-01    0.1228593441E-03
    0.4300000000E+04    0.1502668355E-01    0.6951842063E+00    0.2516639869E-01    0.9978151363E-01    0.1231885456E-03
    0.4500000000E+04    0.1537303458E-01    0.6952163056E+00    0.2589831207E-01    0.1032547224E+00    0.1235034287E-03
    0.4700000000E+04    0.1570051589E-01    0.6952456651E+00    0.2660489400E-01    0.1066565414E+00    0.1238052184E-03
    0.4900000000E+04    0.1601011816E-01    0.6952726205E+00    0.2728726885E-01    0.1099897183E+00    0.1240949887E-03
    0.1000000000E+04    0.1258972500E-02    0.6927995553E+00    0.1913136641E-02    0.6937061513E-02    0.3511571231E-02
    0.3000000000E+04    0.1223511987E-01    0.6948709470E+00    0.1970133367E-01    0.7524710165E-01    0.1207359634E-03
    0.5000000000E+04    0.1615850742E-01    0.6952852867E+00    0.2761971220E-01    0.1116313839E+00    0.1242356667E-03
    0.7000000000E+04    0.1838520721E-01    0.6954623551E+00    0.3322530023E-01    0.1414238159E+00    0.1265983899E-03
    0.9000000000E+04    0.1959386744E-01    0.6955603831E+00    0.3730945939E-01    0.1665993179E+00    0.1283885692E-03
    0.1100000000E+05    0.2016799774E-01    0.6956225275E+00    0.4034332909E-01    0.1883776478E+00    0.1298343936E-03
    0.1300000000E+05    0.2033632019E-01    0.6956653787E+00    0.4262444330E-01    0.2075573843E+00    0.1310494678E-03
    0.1500000000E+05    0.2024106298E-01    0.6956966729E+00    0.4434973812E-01    0.2246863927E+00    0.1320987823E-03
    0.1700000000E+05    0.1997362021E-01    0.6957205019E+00    0.4565465185E-01    0.2401552809E+00    0.1330230806E-03
    0.1900000000E+05    0.1959425911E-01    0.6957392324E+00    0.4663533102E-01    0.2542516535E+00    0.1338496270E-03
    0.2100000000E+05    0.1914353248E-01    0.6957543279E+00    0.4736187127E-01    0.2671931411E+00    0.1345975821E-03
    0.2300000000E+05    0.1864915109E-01    0.6957667418E+00    0.4788654365E-01    0.2791483315E+00    0.1352809359E-03
    0.2500000000E+05    0.1813026149E-01    0.6957771217E+00    0.4824908861E-01    0.2902504978E+00    0.1359102211E-03
    0.2700000000E+05    0.1760018504E-01    0.6957859227E+00    0.4848022818E-01    0.3006068767E+00    0.1364935699E-03
    0.2900000000E+05    0.1706821502E-01    0.6957934741E+00    0.4860405891E-01    0.3103051040E+00    0.1370373943E-03
    0.3100000000E+05    0.1654082081E-01    0.6958000197E+00    0.4863972104E-01    0.3194177840E+00    0.1375468413E-03
    0.3300000000E+05    0.1602246970E-01    0.6958057442E+00    0.4860258715E-01    0.3280058012E+00    0.1380261061E-03
    0.3500000000E+05    0.1551619677E-01    0.6958107896E+00    0.4850512470E-01    0.3361207658E+00    0.1384786542E-03
    0.3700000000E+05    0.1502400560E-01    0.6958152675E+00    0.4835753232E-01    0.3438068498E+00    0.1389073822E-03
    0.3900000000E+05    0.1454715352E-01    0.6958192660E+00    0.4816821635E-01    0.3511021864E+00    0.1393147358E-03
    0.4100000000E+05    0.1408635671E-01    0.6958228563E+00    0.4794415267E-01    0.3580399522E+00    0.1397027997E-03
    0.4300000000E+05    0.1364193904E-01    0.6958260960E+00    0.4769116478E-01    0.3646492141E+00    0.1400733651E-03
    0.4500000000E+05    0.1321394097E-01    0.6958290326E+00    0.4741414003E-01    0.3709556004E+00    0.1404279829E-03
    0.4700000000E+05    0.1280219961E-01    0.6958317054E+00    0.4711719936E-01    0.3769818374E+00    0.1407680049E-03
    0.4900000000E+05    0.1240640792E-01    0.6958341472E+00    0.4680383198E-01    0.3827481844E+00    0.1410946165E-03
    0.1000000000E+05    0.1994334590E-01    0.6955945926E+00    0.3893609801E-01    0.1778558554E+00    0.1291458380E-03
    0.3000000000E+05    0.1680362748E-01    0.6957968599E+00    0.4863187337E-01    0.3149305896E+00    0.1372961334E-03
    0.5000000000E+05    0.1221436892E-01    0.6958352902E+00    0.4664193285E-01    0.3855396439E+00    0.1412532250E-03
    0.7000000000E+05    0.9089141032E-02    0.6958508907E+00    0.4306430521E-01    0.4312835690E+00    0.1439208693E-03
    0.9000000000E+05    0.6982992758E-02    0.6958590661E+00    0.3949255890E-01    0.4638519667E+00    0.1459458600E-03
    0.1100000000E+06    0.5517892615E-02    0.6958639509E+00    0.3626555270E-01    0.4883679157E+00    0.1475830796E-03
    0.1300000000E+06    0.4463794162E-02    0.6958671098E+00    0.3342892944E-01    0.5075417287E+00    0.1489599535E-03
    0.1500000000E+06    0.3682340670E-02    0.6958692610E+00    0.3095145308E-01    0.5229698181E+00    0.1501495671E-03
    0.1700000000E+06    0.3087916702E-02    0.6958707784E+00    0.2878509820E-01    0.5356623073E+00    0.1511978192E-03
    0.1900000000E+06    0.2625701891E-02    0.6958718747E+00    0.2688290510E-01    0.5462926711E+00    0.1521354631E-03
    0.2100000000E+06    0.2259432558E-02    0.6958726792E+00    0.2520384249E-01    0.5553284632E+00    0.1529841321E-03
    0.2300000000E+06    0.1964405657E-02    0.6958732748E+00    0.2371347168E-01    0.5631049962E+00    0.1537596338E-03
    0.2500000000E+06    0.1723349189E-02    0.6958737168E+00    0.2238331117E-01    0.5698692791E+00    0.1544738764E-03
    0.2700000000E+06    0.1523905237E-02    0.6958740434E+00    0.2118989720E-01    0.5758074298E+00    0.1551360587E-03
    0.2900000000E+06    0.1357049297E-02    0.6958742816E+00    0.2011387466E-01    0.5810624239E+00    0.1557534367E-03
    0.3100000000E+06    0.1216070150E-02    0.6958744512E+00    0.1913921633E-01    0.5857459531E+00    0.1563318370E-03
    0.3300000000E+06    0.1095895042E-02    0.6958745668E+00    0.1825258317E-01    0.5899465625E+00    0.1568760101E-03
    0.3500000000E+06    0.9926332149E-03    0.6958746394E+00    0.1744281083E-01    0.5937353664E+00    0.1573898816E-03
    0.3700000000E+06    0.9032608627E-03    0.6958746775E+00    0.1670050077E-01    0.5971701454E+00    0.1578767327E-03
    0.3900000000E+06    0.8253996666E-03    0.6958746877E+00    0.1601769518E-01    0.6002983379E+00    0.1583393350E-03
    0.4100000000E+06    0.7571585161E-03    0.6958746752E+00    0.1538761817E-01    0.6031592582E+00    0.1587800512E-03
    0.4300000000E+06    0.6970186526E-03    0.6958746441E+00    0.1480446895E-01    0.6057857673E+00    0.1592009117E-03
    0.4500000000E+06    0.6437491599E-03    0.6958745976E+00    0.1426325568E-01    0.6082055461E+00    0.1596036749E-03
    0.4700000000E+06    0.5963439844E-03    0.6958745385E+00    0.1375966154E-01    0.6104420790E+00    0.1599898733E-03
    0.4900000000E+06    0.5539744446E-03    0.6958744690E+00    0.1328993593E-01    0.6125154205E+00    0.1603608512E-03
    0.1000000000E+06    0.6187448406E-02    0.6958617921E+00    0.3783004952E-01    0.4769116184E+00    0.1468032050E-03
    0.3000000000E+06    0.1283674385E-02    0.6958743740E+00    0.1961476508E-01    0.5834696215E+00    0.1560471902E-03
    0.5000000000E+06    0.5344584859E-03    0.6958744308E+00    0.1306673440E-01    0.6134963752E+00    0.1605410086E-03
    0.7000000000E+06    0.2906833381E-03    0.6958734197E+00    0.9771051170E-02    0.6276808533E+00    0.1635713997E-03
    0.9000000000E+06    0.1822162805E-03    0.6958722771E+00    0.7793976992E-02    0.6359418755E+00    0.1658720600E-03
    0.1100000000E+07    0.1247596753E-03    0.6958711759E+00    0.6477972176E-02    0.6413475369E+00    0.1677323011E-03
    0.1300000000E+07    0.9072041112E-04    0.6958701518E+00    0.5539696040E-02    0.6451592742E+00    0.1692968073E-03
    0.1500000000E+07    0.6891583865E-04    0.6958692071E+00    0.4837274763E-02    0.6479910148E+00    0.1706485788E-03
    0.1700000000E+07    0.5411865614E-04    0.6958683352E+00    0.4291892372E-02    0.6501773581E+00    0.1718397480E-03
    0.1900000000E+07    0.4362084983E-04    0.6958675279E+00    0.3856289950E-02    0.6519161943E+00    0.1729052477E-03
    0.2100000000E+07    0.3590599350E-04    0.6958667776E+00    0.3500421120E-02    0.6533320424E+00    0.1738696535E-03
    0.2300000000E+07    0.3007143227E-04    0.6958660772E+00    0.3204275440E-02    0.6545071640E+00    0.1747509234E-03
    0.2500000000E+07    0.2555271247E-04    0.6958654208E+00    0.2954014137E-02    0.6554980838E+00    0.1755625866E-03
    0.2700000000E+07    0.2198222576E-04    0.6958648034E+00    0.2739762748E-02    0.6563449219E+00    0.1763150941E-03
    0.2900000000E+07    0.1911225602E-04    0.6958642206E+00    0.2554287424E-02    0.6570769414E+00    0.1770166902E-03
    0.3100000000E+07    0.1677095885E-04    0.6958636689E+00    0.2392168159E-02    0.6577159872E+00    0.1776739949E-03
    0.3300000000E+07    0.1483610130E-04    0.6958631451E+00    0.2249264199E-02    0.6582786958E+00    0.1782924061E-03
    0.3500000000E+07    0.1321882228E-04    0.6958626464E+00    0.2122357907E-02    0.6587779599E+00    0.1788763839E-03
    0.3700000000E+07    0.1185327115E-04    0.6958621707E+00    0.2008911270E-02    0.6592239253E+00    0.1794296569E-03
    0.3900000000E+07    0.1068981323E-04    0.6958617157E+00    0.1906895589E-02    0.6596246848E+00    0.1799553744E-03
    0.4100000000E+07    0.9690465244E-05    0.6958612799E+00    0.1814669906E-02    0.6599867730E+00    0.1804562210E-03
    0.4300000000E+07    0.8825761990E-05    0.6958608615E+00    0.1730892657E-02    0.6603155232E+00    0.1809345040E-03
    0.4500000000E+07    0.8072563492E-05    0.6958604593E+00    0.1654456416E-02    0.6606153319E+00    0.1813922213E-03
    0.4700000000E+07    0.7412493435E-05    0.6958600720E+00    0.1584438985E-02    0.6608898555E+00    0.1818311145E-03
    0.4900000000E+07    0.6830809424E-05    0.6958596985E+00    0.1520066250E-02    0.6611421596E+00    0.1822527112E-03
    0.1000000000E+07    0.1494386524E-03    0.6958717177E+00    0.7075865139E-02    0.6389004431E+00    0.1668461788E-03
    0.3000000000E+07    0.1788409916E-04    0.6958639411E+00    0.2470592216E-02    0.6574069442E+00    0.1773505168E-03
    0.5000000000E+07    0.6565540135E-05    0.6958595167E+00    0.1489788058E-02    0.6612608046E+00    0.1824574507E-03
    0.7000000000E+07    0.3400737085E-05    0.6958564150E+00    0.1064476805E-02    0.6629257497E+00    0.1859013518E-03
    0.9000000000E+07    0.2088853710E-05    0.6958540157E+00    0.8272413971E-03    0.6638535021E+00    0.1885159642E-03
    0.1100000000E+08    0.1421303367E-05    0.6958520534E+00    0.6760455052E-03    0.6644446807E+00    0.1906300638E-03
    0.1300000000E+08    0.1035588979E-05    0.6958503901E+00    0.5713248362E-03    0.6648542093E+00    0.1924080739E-03
    0.1500000000E+08    0.7924956895E-06    0.6958489445E+00    0.4945351218E-03    0.6651546052E+00    0.1939443194E-03
    0.1700000000E+08    0.6292815109E-06    0.6958476648E+00    0.4358335663E-03    0.6653843315E+00    0.1952980461E-03
    0.1900000000E+08    0.5142871003E-06    0.6958465158E+00    0.3895127754E-03    0.6655656831E+00    0.1965089537E-03
    0.2100000000E+08    0.4301303538E-06    0.6958454726E+00    0.3520362015E-03    0.6657124725E+00    0.1976049713E-03
    0.2300000000E+08    0.3666207165E-06    0.6958445167E+00    0.3210960766E-03    0.6658337130E+00    0.1986065075E-03
    0.2500000000E+08    0.3174614664E-06    0.6958436343E+00    0.2951226245E-03    0.6659355354E+00    0.1995289377E-03
    0.2700000000E+08    0.2785906147E-06    0.6958428145E+00    0.2730110376E-03    0.6660222555E+00    0.2003841392E-03
