  Pressure (Pa) 22mC5-500 (mol/kg) 24mC5-500 (mol/kg) 2mC6-500 (mol/kg) 3mC6-500 (mol/kg) C7-500 (mol/kg)
    0.1000000000E+01    0.1280297469E-04    0.6965015264E-01    0.3068295676E-04    0.3063635636E-05    0.4146903524E-02
    0.3000000000E+01    0.3063486641E-04    0.1740822271E+00    0.7093031864E-04    0.7565892274E-05    0.4177154384E-02
    0.5000000000E+01    0.4245513124E-04    0.2486473384E+00    0.9611653799E-04    0.1165311399E-04    0.4189028743E-02
    0.7000000000E+01    0.5074835451E-04    0.3045570360E+00    0.1130227568E-03    0.1554641066E-04    0.4196547973E-02
    0.9000000000E+01    0.5682563927E-04    0.3480351350E+00    0.1250640874E-03    0.1931874721E-04    0.4201862493E-02
    0.1100000000E+02    0.6144130022E-04    0.3828138130E+00    0.1341197312E-03    0.2300619765E-04    0.4205803155E-02
    0.1300000000E+02    0.6505635614E-04    0.4112670817E+00    0.1412860998E-03    0.2663005132E-04    0.4208803070E-02
    0.1500000000E+02    0.6796604816E-04    0.4349770983E+00    0.1472317782E-03    0.3020424461E-04    0.4211122032E-02
    0.1700000000E+02    0.7036667661E-04    0.4550389232E+00    0.1523788331E-03    0.3373855134E-04    0.4212928998E-02
    0.1900000000E+02    0.7239284271E-04    0.4722345846E+00    0.1570011751E-03    0.3724017311E-04    0.4214339903E-02
    0.2100000000E+02    0.7413925089E-04    0.4871374784E+00    0.1612805520E-03    0.4071461765E-04    0.4215437471E-02
    0.2300000000E+02    0.7567400646E-04    0.5001775965E+00    0.1653397135E-03    0.4416622183E-04    0.4216282538E-02
    0.2500000000E+02    0.7704701224E-04    0.5116837222E+00    0.1692627205E-03    0.4759848173E-04    0.4216920946E-02
    0.2700000000E+02    0.7829543058E-04    0.5219115550E+00    0.1731077403E-03    0.5101427066E-04    0.4217387953E-02
    0.2900000000E+02    0.7944732914E-04    0.5310629497E+00    0.1769153070E-03    0.5441598873E-04    0.4217711144E-02
    0.3100000000E+02    0.8052417014E-04    0.5392993813E+00    0.1807137695E-03    0.5780566871E-04    0.4217912429E-02
    0.3300000000E+02    0.8154254418E-04    0.5467515626E+00    0.1845229510E-03    0.6118505288E-04    0.4218009435E-02
    0.3500000000E+02    0.8251539956E-04    0.5535264366E+00    0.1883566483E-03    0.6455565020E-04    0.4218016512E-02
    0.3700000000E+02    0.8345292790E-04    0.5597123455E+00    0.1922243628E-03    0.6791877958E-04    0.4217945461E-02
    0.3900000000E+02    0.8436321131E-04    0.5653829064E+00    0.1961325140E-03    0.7127560327E-04    0.4217806078E-02
    0.4100000000E+02    0.8525270159E-04    0.5705999567E+00    0.2000853010E-03    0.7462715298E-04    0.4217606562E-02
    0.4300000000E+02    0.8612657909E-04    0.5754158199E+00    0.2040853184E-03    0.7797435057E-04    0.4217353828E-02
    0.4500000000E+02    0.8698902453E-04    0.5798750678E+00    0.2081340017E-03    0.8131802474E-04    0.4217053750E-02
    0.4700000000E+02    0.8784342683E-04    0.5840159045E+00    0.2122319507E-03    0.8465892443E-04    0.4216711348E-02
    0.4900000000E+02    0.8869254344E-04    0.5878712648E+00    0.2163791658E-03    0.8799772996E-04    0.4216330938E-02
    0.1000000000E+02    0.5928238866E-04    0.3663400784E+00    0.1298835878E-03    0.2117152485E-04    0.4203971923E-02
    0.3000000000E+02    0.7999399715E-04    0.5352867378E+00    0.1788142713E-03    0.5611221853E-04    0.4217825836E-02
    0.5000000000E+02    0.8911583994E-04    0.5897009622E+00    0.2184711284E-03    0.8966654353E-04    0.4216127666E-02
    0.7000000000E+02    0.9767296254E-04    0.6165704874E+00    0.2626863077E-03    0.1230593585E-03    0.4210751360E-02
    0.9000000000E+02    0.1067736444E-03    0.6325871221E+00    0.3106843515E-03    0.1567209287E-03    0.4203862380E-02
    0.1100000000E+03    0.1165430751E-03    0.6432219306E+00    0.3616373357E-03    0.1908835589E-03    0.4196147848E-02
    0.1300000000E+03    0.1269580021E-03    0.6507975073E+00    0.4150757234E-03    0.2257018625E-03    0.4187886287E-02
    0.1500000000E+03    0.1379795626E-03    0.6564680097E+00    0.4707561072E-03    0.2612933850E-03    0.4179206415E-02
    0.1700000000E+03    0.1495773253E-03    0.6608718532E+00    0.5285651332E-03    0.2977561217E-03    0.4170171563E-02
    0.1900000000E+03    0.1617320612E-03    0.6643908481E+00    0.5884663953E-03    0.3351773242E-03    0.4160812815E-02
    0.2100000000E+03    0.1744343045E-03    0.6672673559E+00    0.6504715147E-03    0.3736384445E-03    0.4151143795E-02
    0.2300000000E+03    0.1876824535E-03    0.6696626281E+00    0.7146240195E-03    0.4132181675E-03    0.4141167897E-02
    0.2500000000E+03    0.2014811969E-03    0.6716881185E+00    0.7809901182E-03    0.4539944179E-03    0.4130882089E-02
    0.2700000000E+03    0.2158403507E-03    0.6734233287E+00    0.8496533195E-03    0.4960457838E-03    0.4120279014E-02
    0.2900000000E+03    0.2307740346E-03    0.6749264936E+00    0.9207112809E-03    0.5394525967E-03    0.4109348192E-02
    0.3100000000E+03    0.2463001073E-03    0.6762412462E+00    0.9942740041E-03    0.5842978019E-03    0.4098076735E-02
    0.3300000000E+03    0.2624397919E-03    0.6774009251E+00    0.1070462873E-02    0.6306677044E-03    0.4086449763E-02
    0.3500000000E+03    0.2792174400E-03    0.6784314408E+00    0.1149410244E-02    0.6786526391E-03    0.4074450644E-02
    0.3700000000E+03    0.2966604025E-03    0.6793532360E+00    0.1231259420E-02    0.7283476035E-03    0.4062061125E-02
    0.3900000000E+03    0.3147989791E-03    0.6801826551E+00    0.1316164891E-02    0.7798528733E-03    0.4049261385E-02
    0.4100000000E+03    0.3336664324E-03    0.6809329227E+00    0.1404292792E-02    0.8332746229E-03    0.4036030043E-02
    0.4300000000E+03    0.3532990534E-03    0.6816148540E+00    0.1495821527E-02    0.8887255599E-03    0.4022344116E-02
    0.4500000000E+03    0.3737362719E-03    0.6822373793E+00    0.1590942545E-02    0.9463255894E-03    0.4008178963E-02
    0.4700000000E+03    0.3950208059E-03    0.6828079380E+00    0.1689861244E-02    0.1006202515E-02    0.3993508196E-02
    0.4900000000E+03    0.4171988469E-03    0.6833327769E+00    0.1792798017E-02    0.1068492784E-02    0.3978303572E-02
    0.1000000000E+03    0.1115752512E-03    0.6383921470E+00    0.3358276353E-03    0.1737287756E-03    0.4200085758E-02
    0.3000000000E+03    0.2384617714E-03    0.6756051355E+00    0.9571722206E-03    0.5616900930E-03    0.4103755930E-02
    0.5000000000E+03    0.4286383709E-03    0.6835797352E+00    0.1845846438E-02    0.1100588123E-02    0.3970491702E-02
    0.7000000000E+03    0.7192623414E-03    0.6870563707E+00    0.3187831537E-02    0.1912171338E-02    0.3777373345E-02
    0.9000000000E+03    0.1195112610E-02    0.6890035081E+00    0.5378399674E-02    0.3238176528E-02    0.3475670228E-02
    0.1100000000E+04    0.2038849204E-02    0.6902484986E+00    0.9264758236E-02    0.5596216102E-02    0.2967874029E-02
    0.1300000000E+04    0.3573800679E-02    0.6911131211E+00    0.1635797386E-01    0.9917066836E-02    0.2107771265E-02
    0.1500000000E+04    0.5789195873E-02    0.6917485868E+00    0.2667163510E-01    0.1624678659E-01    0.1012135022E-02
    0.1700000000E+04    0.7571542677E-02    0.6922353335E+00    0.3511342962E-01    0.2151393318E-01    0.3486742223E-03
    0.1900000000E+04    0.8592180167E-02    0.6926200953E+00    0.4011219750E-01    0.2473028063E-01    0.1605723042E-03
    0.2100000000E+04    0.9310415745E-02    0.6929318813E+00    0.4375220809E-01    0.2714368576E-01    0.1227331721E-03
    0.2300000000E+04    0.9931117262E-02    0.6931896514E+00    0.4697270245E-01    0.2932237293E-01    0.1160119227E-03
    0.2500000000E+04    0.1050442395E-01    0.6934063209E+00    0.5000283833E-01    0.3140469119E-01    0.1151692826E-03
    0.2700000000E+04    0.1104253779E-01    0.6935909915E+00    0.5289652468E-01    0.3342218681E-01    0.1154103403E-03
    0.2900000000E+04    0.1154962925E-01    0.6937502626E+00    0.5567053559E-01    0.3538373458E-01    0.1158327721E-03
    0.3100000000E+04    0.1202810266E-01    0.6938890352E+00    0.5833362077E-01    0.3729337775E-01    0.1162668956E-03
    0.3300000000E+04    0.1247987861E-01    0.6940110260E+00    0.6089248283E-01    0.3915400421E-01    0.1166824137E-03
    0.3500000000E+04    0.1290666631E-01    0.6941191041E+00    0.6335303681E-01    0.4096811711E-01    0.1170756926E-03
    0.3700000000E+04    0.1331002995E-01    0.6942155200E+00    0.6572070375E-01    0.4273800790E-01    0.1174480082E-03
    0.3900000000E+04    0.1369141181E-01    0.6943020638E+00    0.6800050163E-01    0.4446580402E-01    0.1178013187E-03
    0.4100000000E+04    0.1405214538E-01    0.6943801769E+00    0.7019709086E-01    0.4615348921E-01    0.1181374724E-03
    0.4300000000E+04    0.1439346548E-01    0.6944510332E+00    0.7231480741E-01    0.4780291691E-01    0.1184580910E-03
    0.4500000000E+04    0.1471651707E-01    0.6945155983E+00    0.7435769093E-01    0.4941582124E-01    0.1187645823E-03
    0.4700000000E+04    0.1502236306E-01    0.6945746739E+00    0.7632950974E-01    0.5099382667E-01    0.1190581708E-03
    0.4900000000E+04    0.1531199126E-01    0.6946289310E+00    0.7823378316E-01    0.5253845678E-01    0.1193399279E-03
    0.1000000000E+04    0.1553600231E-02    0.6896876822E+00    0.7028792852E-02    0.4238706120E-02    0.3256347302E-02
    0.3000000000E+04    0.1179231680E-01    0.6938219558E+00    0.5701550007E-01    0.3634485084E-01    0.1160514161E-03
    0.5000000000E+04    0.1545101343E-01    0.6946544329E+00    0.7916162707E-01    0.5329870657E-01    0.1194766684E-03
    0.7000000000E+04    0.1757213813E-01    0.6950114852E+00    0.9486766520E-01    0.6705649923E-01    0.1217692732E-03
    0.9000000000E+04    0.1880615313E-01    0.6952097727E+00    0.1065158196E+00    0.7867326643E-01    0.1235023094E-03
    0.1100000000E+05    0.1949855809E-01    0.6953358470E+00    0.1154414049E+00    0.8876518489E-01    0.1249001078E-03
    0.1300000000E+05    0.1984656529E-01    0.6954230306E+00    0.1224512033E+00    0.9771951272E-01    0.1260737971E-03
    0.1500000000E+05    0.1996908662E-01    0.6954868819E+00    0.1280616418E+00    0.1057937839E+00    0.1270867533E-03
    0.1700000000E+05    0.1994096062E-01    0.6955356395E+00    0.1326188086E+00    0.1131671304E+00    0.1279786227E-03
    0.1900000000E+05    0.1981092242E-01    0.6955740736E+00    0.1363634588E+00    0.1199687885E+00    0.1287758939E-03
    0.2100000000E+05    0.1961159284E-01    0.6956051372E+00    0.1394683389E+00    0.1262948672E+00    0.1294971601E-03
    0.2300000000E+05    0.1936529807E-01    0.6956307557E+00    0.1420606726E+00    0.1322186880E+00    0.1301559843E-03
    0.2500000000E+05    0.1908759588E-01    0.6956522383E+00    0.1442362662E+00    0.1377974203E+00    0.1307625701E-03
    0.2700000000E+05    0.1878948450E-01    0.6956705060E+00    0.1460686664E+00    0.1430764853E+00    0.1313247903E-03
    0.2900000000E+05    0.1847882624E-01    0.6956862256E+00    0.1476152852E+00    0.1480925652E+00    0.1318488496E-03
    0.3100000000E+05    0.1816128805E-01    0.6956998916E+00    0.1489216033E+00    0.1528757141E+00    0.1323397259E-03
    0.3300000000E+05    0.1784097627E-01    0.6957118787E+00    0.1500241219E+00    0.1574508695E+00    0.1328014754E-03
    0.3500000000E+05    0.1752087329E-01    0.6957224755E+00    0.1509524771E+00    0.1618389594E+00    0.1332374476E-03
    0.3700000000E+05    0.1720314294E-01    0.6957319084E+00    0.1517309826E+00    0.1660577252E+00    0.1336504410E-03
    0.3900000000E+05    0.1688934719E-01    0.6957403573E+00    0.1523797727E+00    0.1701223444E+00    0.1340428184E-03
    0.4100000000E+05    0.1658060203E-01    0.6957479667E+00    0.1529156628E+00    0.1740459086E+00    0.1344165928E-03
    0.4300000000E+05    0.1627769081E-01    0.6957548544E+00    0.1533528047E+00    0.1778397946E+00    0.1347734939E-03
    0.4500000000E+05    0.1598114759E-01    0.6957611171E+00    0.1537031926E+00    0.1815139565E+00    0.1351150190E-03
    0.4700000000E+05    0.1569131895E-01    0.6957668351E+00    0.1539770574E+00    0.1850771583E+00    0.1354424726E-03
    0.4900000000E+05    0.1540841017E-01    0.6957720753E+00    0.1541831775E+00    0.1885371601E+00    0.1357569989E-03
    0.1000000000E+05    0.1920532342E-01    0.6952791295E+00    0.1112597249E+00    0.8388175141E-01    0.1242346059E-03
    0.3000000000E+05    0.1832062981E-01    0.6956932896E+00    0.1482960181E+00    0.1505115921E+00    0.1320981633E-03
    0.5000000000E+05    0.1526958502E-01    0.6957745344E+00    0.1542632414E+00    0.1902306492E+00    0.1359097343E-03
    0.7000000000E+05    0.1284823564E-01    0.6958086150E+00    0.1536924308E+00    0.2200234505E+00    0.1384782374E-03
    0.9000000000E+05    0.1099542077E-01    0.6958271201E+00    0.1509539118E+00    0.2442826864E+00    0.1404276112E-03
    0.1100000000E+06    0.9552100246E-02    0.6958386149E+00    0.1474002751E+00    0.2648896851E+00    0.1420035284E-03
    0.1300000000E+06    0.8402247795E-02    0.6958463738E+00    0.1435626103E+00    0.2828540055E+00    0.1433287586E-03
    0.1500000000E+06    0.7467453363E-02    0.6958519149E+00    0.1396772275E+00    0.2987927460E+00    0.1444736987E-03
    0.1700000000E+06    0.6694242363E-02    0.6958560368E+00    0.1358560921E+00    0.3131165896E+00    0.1454825512E-03
    0.1900000000E+06    0.6045248253E-02    0.6958591985E+00    0.1321529596E+00    0.3261157051E+00    0.1463849293E-03
    0.2100000000E+06    0.5493678993E-02    0.6958616825E+00    0.1285923826E+00    0.3380044056E+00    0.1472016623E-03
    0.2300000000E+06    0.5019860254E-02    0.6958636714E+00    0.1251835964E+00    0.3489464689E+00    0.1479479689E-03
    0.2500000000E+06    0.4609033175E-02    0.6958652886E+00    0.1219276085E+00    0.3590704787E+00    0.1486353134E-03
    0.2700000000E+06    0.4249915833E-02    0.6958666204E+00    0.1188209954E+00    0.3684796188E+00    0.1492725509E-03
    0.2900000000E+06    0.3933739685E-02    0.6958677287E+00    0.1158580084E+00    0.3772581984E+00    0.1498666663E-03
    0.3100000000E+06    0.3653588725E-02    0.6958686590E+00    0.1130317706E+00    0.3854761553E+00    0.1504232680E-03
    0.3300000000E+06    0.3403936384E-02    0.6958694457E+00    0.1103349651E+00    0.3931922570E+00    0.1509469290E-03
    0.3500000000E+06    0.3180314559E-02    0.6958701150E+00    0.1077602328E+00    0.4004564335E+00    0.1514414273E-03
    0.3700000000E+06    0.2979072864E-02    0.6958706873E+00    0.1053003977E+00    0.4073115162E+00    0.1519099214E-03
    0.3900000000E+06    0.2797200664E-02    0.6958711787E+00    0.1029485914E+00    0.4137945579E+00    0.1523550789E-03
    0.4100000000E+06    0.2632193603E-02    0.6958716020E+00    0.1006983152E+00    0.4199378516E+00    0.1527791738E-03
    0.4300000000E+06    0.2481952156E-02    0.6958719675E+00    0.9854346512E-01    0.4257697293E+00    0.1531841603E-03
    0.4500000000E+06    0.2344703604E-02    0.6958722838E+00    0.9647833498E-01    0.4313151956E+00    0.1535717306E-03
    0.4700000000E+06    0.2218941341E-02    0.6958725577E+00    0.9449760637E-01    0.4365964369E+00    0.1539433599E-03
    0.4900000000E+06    0.2103377188E-02    0.6958727950E+00    0.9259633106E-01    0.4416332346E+00    0.1543003420E-03
    0.1000000000E+06    0.1023087348E-01    0.6958334773E+00    0.1492355754E+00    0.2549670636E+00    0.1412528706E-03
    0.3000000000E+06    0.3789534630E-02    0.6958682137E+00    0.1144282486E+00    0.3814333507E+00    0.1501493495E-03
    0.5000000000E+06    0.2049067106E-02    0.6958729015E+00    0.9167403808E-01    0.4440655759E+00    0.1544737022E-03
    0.7000000000E+06    0.1296939285E-02    0.6958739472E+00    0.7644528772E-01    0.4833471729E+00    0.1573897309E-03
    0.9000000000E+06    0.8982106451E-03    0.6958739847E+00    0.6555681466E-01    0.5106209930E+00    0.1596035396E-03
    0.1100000000E+07    0.6600311145E-03    0.6958736576E+00    0.5738195833E-01    0.5307585661E+00    0.1613935426E-03
    0.1300000000E+07    0.5059557216E-03    0.6958731850E+00    0.5101667507E-01    0.5462708463E+00    0.1628989701E-03
    0.1500000000E+07    0.4003908232E-03    0.6958726559E+00    0.4591901932E-01    0.5586012819E+00    0.1641996922E-03
    0.1700000000E+07    0.3248376512E-03    0.6958721104E+00    0.4174419886E-01    0.5686441597E+00    0.1653458746E-03
    0.1900000000E+07    0.2688740341E-03    0.6958715675E+00    0.3826226810E-01    0.5769851138E+00    0.1663711321E-03
    0.2100000000E+07    0.2262518120E-03    0.6958710365E+00    0.3531391613E-01    0.5840245416E+00    0.1672991126E-03
    0.2300000000E+07    0.1930351477E-03    0.6958705217E+00    0.3278524296E-01    0.5900458480E+00    0.1681470964E-03
    0.2500000000E+07    0.1666424367E-03    0.6958700249E+00    0.3059263700E-01    0.5952554462E+00    0.1689281019E-03
    0.2700000000E+07    0.1453222337E-03    0.6958695466E+00    0.2867332504E-01    0.5998073311E+00    0.1696521857E-03
    0.2900000000E+07    0.1278518117E-03    0.6958690865E+00    0.2697925598E-01    0.6038187739E+00    0.1703272807E-03
    0.3100000000E+07    0.1133563039E-03    0.6958686439E+00    0.2547302118E-01    0.6073806803E+00    0.1709597570E-03
    0.3300000000E+07    0.1011962136E-03    0.6958682180E+00    0.2412506119E-01    0.6105646207E+00    0.1715548087E-03
    0.3500000000E+07    0.9089523715E-04    0.6958678079E+00    0.2291170890E-01    0.6134277209E+00    0.1721167275E-03
    0.3700000000E+07    0.8209267693E-04    0.6958674128E+00    0.2181379064E-01    0.6160161361E+00    0.1726491012E-03
    0.3900000000E+07    0.7451130625E-04    0.6958670317E+00    0.2081560790E-01    0.6183675673E+00    0.1731549602E-03
    0.4100000000E+07    0.6793520144E-04    0.6958666638E+00    0.1990418407E-01    0.6205131145E+00    0.1736368876E-03
    0.4300000000E+07    0.6219415563E-04    0.6958663082E+00    0.1906869900E-01    0.6224786617E+00    0.1740971036E-03
    0.4500000000E+07    0.5715253034E-04    0.6958659643E+00    0.1830005897E-01    0.6242859277E+00    0.1745375307E-03
    0.4700000000E+07    0.5270115648E-04    0.6958656313E+00    0.1759056557E-01    0.6259532718E+00    0.1749598448E-03
    0.4900000000E+07    0.4875136686E-04    0.6958653086E+00    0.1693365804E-01    0.6274963196E+00    0.1753655157E-03
    0.1000000000E+07    0.7652529620E-03    0.6958738483E+00    0.6119800975E-01    0.5213905718E+00    0.1605408792E-03
    0.3000000000E+07    0.1202766835E-03    0.6958688630E+00    0.2620466453E-01    0.6056510585E+00    0.1706484977E-03
    0.5000000000E+07    0.4694134369E-04    0.6958651510E+00    0.1662313404E-01    0.6282254907E+00    0.1755625211E-03
    0.7000000000E+07    0.2486126937E-04    0.6958624164E+00    0.1215369915E-01    0.6387046557E+00    0.1788763270E-03
    0.9000000000E+07    0.1538882218E-04    0.6958602551E+00    0.9569713948E-02    0.6447506650E+00    0.1813921700E-03
    0.1100000000E+08    0.1047542535E-04    0.6958584661E+00    0.7887165870E-02    0.6486832142E+00    0.1834264073E-03
    0.1300000000E+08    0.7603250889E-05    0.6958569379E+00    0.6705003374E-02    0.6514444690E+00    0.1851372511E-03
    0.1500000000E+08    0.5779936587E-05    0.6958556026E+00    0.5829221370E-02    0.6534892753E+00    0.1866154634E-03
    0.1700000000E+08    0.4550313357E-05    0.6958544160E+00    0.5154562617E-02    0.6550640870E+00    0.1879180517E-03
    0.1900000000E+08    0.3681792632E-05    0.6958533475E+00    0.4618996288E-02    0.6563140145E+00    0.1890832162E-03
    0.2100000000E+08    0.3045471988E-05    0.6958523750E+00    0.4183602815E-02    0.6573300439E+00    0.1901378309E-03
    0.2300000000E+08    0.2565237740E-05    0.6958514823E+00    0.3822732207E-02    0.6581721103E+00    0.1911015334E-03
    0.2500000000E+08    0.2193797966E-05    0.6958506569E+00    0.3518795497E-02    0.6588812977E+00    0.1919891182E-03
    0.2700000000E+08    0.1900512253E-05    0.6958498890E+00    0.3259330269E-02    0.6594867070E+00    0.1928120141E-03
