  Pressure (Pa) 22mC5-500 (mol/kg) 24mC5-500 (mol/kg) 2mC6-500 (mol/kg) 3mC6-500 (mol/kg) C7-500 (mol/kg)
    0.1000000000E+01    0.1128113870E-04    0.1266309426E+00    0.5857603960E-05    0.5030821774E-05    0.4181878719E-02
    0.3000000000E+01    0.2331262840E-04    0.2785168434E+00    0.1154760215E-04    0.1278837959E-04    0.4216665209E-02
    0.5000000000E+01    0.2939996196E-04    0.3664166295E+00    0.1419268847E-04    0.1991001573E-04    0.4234484288E-02
    0.7000000000E+01    0.3296819978E-04    0.4237298440E+00    0.1572116377E-04    0.2672840657E-04    0.4245797644E-02
    0.9000000000E+01    0.3529991139E-04    0.4640557102E+00    0.1678799728E-04    0.3335532915E-04    0.4253623201E-02
    0.1100000000E+02    0.3696623108E-04    0.4939720797E+00    0.1765501141E-04    0.3984658094E-04    0.4259330096E-02
    0.1300000000E+02    0.3825201032E-04    0.5170488918E+00    0.1843778099E-04    0.4623531344E-04    0.4263645688E-02
    0.1500000000E+02    0.3931119419E-04    0.5353911160E+00    0.1919052255E-04    0.5254334069E-04    0.4266995410E-02
    0.1700000000E+02    0.4023208077E-04    0.5503202989E+00    0.1993946729E-04    0.5878602531E-04    0.4269645695E-02
    0.1900000000E+02    0.4106766274E-04    0.5627080083E+00    0.2069730676E-04    0.6497472628E-04    0.4271772307E-02
    0.2100000000E+02    0.4185087683E-04    0.5731523296E+00    0.2146991213E-04    0.7111815653E-04    0.4273496079E-02
    0.2300000000E+02    0.4260275602E-04    0.5820773322E+00    0.2225963510E-04    0.7722319412E-04    0.4274902919E-02
    0.2500000000E+02    0.4333701120E-04    0.5897920670E+00    0.2306699830E-04    0.8329539573E-04    0.4276055643E-02
    0.2700000000E+02    0.4406271509E-04    0.5965270853E+00    0.2389158759E-04    0.8933933683E-04    0.4277001280E-02
    0.2900000000E+02    0.4478593003E-04    0.6024578753E+00    0.2473253290E-04    0.9535884556E-04    0.4277775768E-02
    0.3100000000E+02    0.4551072461E-04    0.6077203742E+00    0.2558876980E-04    0.1013571686E-03    0.4278407056E-02
    0.3300000000E+02    0.4623982497E-04    0.6124215163E+00    0.2645918160E-04    0.1073370921E-03    0.4278917219E-02
    0.3500000000E+02    0.4697504099E-04    0.6166465767E+00    0.2734267486E-04    0.1133010313E-03    0.4279323935E-02
    0.3700000000E+02    0.4771755061E-04    0.6204643905E+00    0.2823821766E-04    0.1192510991E-03    0.4279641533E-02
    0.3900000000E+02    0.4846809248E-04    0.6239311325E+00    0.2914485677E-04    0.1251891583E-03    0.4279881754E-02
    0.4100000000E+02    0.4922709838E-04    0.6270931000E+00    0.3006172311E-04    0.1311168636E-03    0.4280054316E-02
    0.4300000000E+02    0.4999478529E-04    0.6299887924E+00    0.3098803072E-04    0.1370356938E-03    0.4280167332E-02
    0.4500000000E+02    0.5077122009E-04    0.6326504866E+00    0.3192307237E-04    0.1429469784E-03    0.4280227632E-02
    0.4700000000E+02    0.5155636539E-04    0.6351054453E+00    0.3286621363E-04    0.1488519191E-03    0.4280241007E-02
    0.4900000000E+02    0.5235011222E-04    0.6373768546E+00    0.3381688634E-04    0.1547516072E-03    0.4280212401E-02
    0.1000000000E+02    0.3619421436E-04    0.4800457815E+00    0.1723720957E-04    0.3661549153E-04    0.4256686426E-02
    0.3000000000E+02    0.4514793387E-04    0.6051653965E+00    0.2515880959E-04    0.9836047156E-04    0.4278107815E-02
    0.5000000000E+02    0.5275016350E-04    0.6384500430E+00    0.3429488595E-04    0.1576997960E-03    0.4280183707E-02
    0.7000000000E+02    0.6115444914E-04    0.6538636264E+00    0.4415258309E-04    0.2165904079E-03    0.4278178918E-02
    0.9000000000E+02    0.7019231884E-04    0.6627529662E+00    0.5442645527E-04    0.2757194713E-03    0.4274544987E-02
    0.1100000000E+03    0.7972218997E-04    0.6685368674E+00    0.6501031862E-04    0.3354521977E-03    0.4270046030E-02
    0.1300000000E+03    0.8966354873E-04    0.6726006406E+00    0.7586655687E-04    0.3960253628E-03    0.4264998425E-02
    0.1500000000E+03    0.9997216815E-04    0.6756122873E+00    0.8698438682E-04    0.4576131086E-03    0.4259555918E-02
    0.1700000000E+03    0.1106245350E-03    0.6779335646E+00    0.9836488383E-04    0.5203554045E-03    0.4253800976E-02
    0.1900000000E+03    0.1216094379E-03    0.6797774366E+00    0.1100149301E-03    0.5843723409E-03    0.4247780567E-02
    0.2100000000E+03    0.1329233649E-03    0.6812774417E+00    0.1219445392E-03    0.6497721029E-03    0.4241522244E-02
    0.2300000000E+03    0.1445678914E-03    0.6825215618E+00    0.1341655976E-03    0.7166557935E-03    0.4235042124E-02
    0.2500000000E+03    0.1565481437E-03    0.6835701230E+00    0.1466912498E-03    0.7851205491E-03    0.4228349171E-02
    0.2700000000E+03    0.1688718669E-03    0.6844658702E+00    0.1595355975E-03    0.8552616734E-03    0.4221447628E-02
    0.2900000000E+03    0.1815488470E-03    0.6852399370E+00    0.1727135590E-03    0.9271741763E-03    0.4214338472E-02
    0.3100000000E+03    0.1945905480E-03    0.6859155376E+00    0.1862408151E-03    0.1000953942E-02    0.4207020314E-02
    0.3300000000E+03    0.2080098849E-03    0.6865103341E+00    0.2001338037E-03    0.1076698659E-02    0.4199489970E-02
    0.3500000000E+03    0.2218210852E-03    0.6870380032E+00    0.2144097436E-03    0.1154508591E-02    0.4191742839E-02
    0.3700000000E+03    0.2360396101E-03    0.6875092997E+00    0.2290866753E-03    0.1234487253E-02    0.4183773151E-02
    0.3900000000E+03    0.2506821169E-03    0.6879327977E+00    0.2441835154E-03    0.1316742018E-02    0.4175574125E-02
    0.4100000000E+03    0.2657664517E-03    0.6883154162E+00    0.2597201185E-03    0.1401384684E-02    0.4167138082E-02
    0.4300000000E+03    0.2813116653E-03    0.6886628006E+00    0.2757173473E-03    0.1488532028E-02    0.4158456509E-02
    0.4500000000E+03    0.2973380465E-03    0.6889796023E+00    0.2921971492E-03    0.1578306342E-02    0.4149520104E-02
    0.4700000000E+03    0.3138671700E-03    0.6892696888E+00    0.3091826386E-03    0.1670835981E-02    0.4140318789E-02
    0.4900000000E+03    0.3309219573E-03    0.6895363017E+00    0.3266981859E-03    0.1766255926E-02    0.4130841715E-02
    0.1000000000E+03    0.7490188808E-04    0.6659216588E+00    0.5968290126E-04    0.3054936172E-03    0.4272378281E-02
    0.3000000000E+03    0.1880233322E-03    0.6855888329E+00    0.1794325158E-03    0.9638245979E-03    0.4210705680E-02
    0.5000000000E+03    0.3396540239E-03    0.6896616780E+00    0.3356627139E-03    0.1815093898E-02    0.4125996166E-02
    0.7000000000E+03    0.5488641206E-03    0.6914214630E+00    0.5500772689E-03    0.2983810888E-02    0.4011242302E-02
    0.9000000000E+03    0.8525501719E-03    0.6924026352E+00    0.8610280365E-03    0.4681097043E-02    0.3848656248E-02
    0.1100000000E+04    0.1321772368E-02    0.6930282096E+00    0.1341820211E-02    0.7310177790E-02    0.3604540185E-02
    0.1300000000E+04    0.2099423926E-02    0.6934617718E+00    0.2140048759E-02    0.1168498257E-01    0.3214029455E-02
    0.1500000000E+04    0.3454013803E-02    0.6937799163E+00    0.3534588152E-02    0.1935207156E-01    0.2565928350E-02
    0.1700000000E+04    0.5629012619E-02    0.6940232848E+00    0.5785373404E-02    0.3179090981E-01    0.1602953100E-02
    0.1900000000E+04    0.7981536938E-02    0.6942154446E+00    0.8245898504E-02    0.4552974630E-01    0.7097159451E-03
    0.2100000000E+04    0.9496082621E-02    0.6943710029E+00    0.9867659865E-02    0.5478787597E-01    0.3124937185E-03
    0.2300000000E+04    0.1040064396E-01    0.6944994946E+00    0.1087253749E-01    0.6071722571E-01    0.2079301979E-03
    0.2500000000E+04    0.1109254518E-01    0.6946074085E+00    0.1166560888E-01    0.6552450869E-01    0.1855005123E-03
    0.2700000000E+04    0.1170866238E-01    0.6946993133E+00    0.1238722823E-01    0.6997899463E-01    0.1813321640E-03
    0.2900000000E+04    0.1228387857E-01    0.6947785188E+00    0.1307297763E-01    0.7427499999E-01    0.1810057571E-03
    0.3100000000E+04    0.1282741964E-01    0.6948474817E+00    0.1373193433E-01    0.7846055219E-01    0.1814602256E-03
    0.3300000000E+04    0.1334256485E-01    0.6949080636E+00    0.1436702414E-01    0.8254964941E-01    0.1820513321E-03
    0.3500000000E+04    0.1383117964E-01    0.6949617012E+00    0.1497972899E-01    0.8654837361E-01    0.1826448404E-03
    0.3700000000E+04    0.1429474013E-01    0.6950095204E+00    0.1557115516E-01    0.9046084142E-01    0.1832146221E-03
    0.3900000000E+04    0.1473456871E-01    0.6950524166E+00    0.1614227827E-01    0.9429056856E-01    0.1837574186E-03
    0.4100000000E+04    0.1515189210E-01    0.6950911105E+00    0.1669400231E-01    0.9804079229E-01    0.1842746091E-03
    0.4300000000E+04    0.1554785898E-01    0.6951261886E+00    0.1722717604E-01    0.1017145553E+00    0.1847683070E-03
    0.4500000000E+04    0.1592354805E-01    0.6951581333E+00    0.1774259948E-01    0.1053147337E+00    0.1852405503E-03
    0.4700000000E+04    0.1627997359E-01    0.6951873450E+00    0.1824102792E-01    0.1088440518E+00    0.1856931613E-03
    0.4900000000E+04    0.1661809012E-01    0.6952141587E+00    0.1872317509E-01    0.1123050931E+00    0.1861277471E-03
    0.1000000000E+04    0.1059860739E-02    0.6927465943E+00    0.1073377177E-02    0.5841630916E-02    0.3739867212E-02
    0.3000000000E+04    0.1255934684E-01    0.6948141526E+00    0.1340556382E-01    0.7638038571E-01    0.1811970544E-03
    0.5000000000E+04    0.1678056548E-01    0.6952267562E+00    0.1895835557E-01    0.1140107808E+00    0.1863387303E-03
    0.7000000000E+04    0.1926135766E-01    0.6954026764E+00    0.2295313156E-01    0.1450740105E+00    0.1898822442E-03
    0.9000000000E+04    0.2066822577E-01    0.6954998409E+00    0.2590103261E-01    0.1714573787E+00    0.1925670741E-03
    0.1100000000E+05    0.2138923742E-01    0.6955612910E+00    0.2811412200E-01    0.1943522851E+00    0.1947354520E-03
    0.1300000000E+05    0.2166171151E-01    0.6956035603E+00    0.2979350093E-01    0.2145524120E+00    0.1965577589E-03
    0.1500000000E+05    0.2163642896E-01    0.6956343530E+00    0.3107446189E-01    0.2326096538E+00    0.1981314656E-03
    0.1700000000E+05    0.2141214423E-01    0.6956577410E+00    0.3205130726E-01    0.2489217190E+00    0.1995176779E-03
    0.1900000000E+05    0.2105512400E-01    0.6956760777E+00    0.3279174348E-01    0.2637839853E+00    0.2007572859E-03
    0.2100000000E+05    0.2061069806E-01    0.6956908171E+00    0.3334561364E-01    0.2774215672E+00    0.2018790260E-03
    0.2300000000E+05    0.2011034177E-01    0.6957029060E+00    0.3375040218E-01    0.2900099009E+00    0.2029038798E-03
    0.2500000000E+05    0.1957615588E-01    0.6957129867E+00    0.3403482136E-01    0.3016883891E+00    0.2038476441E-03
    0.2700000000E+05    0.1902377704E-01    0.6957215106E+00    0.3422121617E-01    0.3125697034E+00    0.2047225149E-03
    0.2900000000E+05    0.1846431309E-01    0.6957288037E+00    0.3432721818E-01    0.3227462857E+00    0.2055381090E-03
    0.3100000000E+05    0.1790565604E-01    0.6957351075E+00    0.3436690875E-01    0.3322949924E+00    0.2063021453E-03
    0.3300000000E+05    0.1735338885E-01    0.6957406045E+00    0.3435165359E-01    0.3412804790E+00    0.2070209159E-03
    0.3500000000E+05    0.1681142132E-01    0.6957454353E+00    0.3429071235E-01    0.3497577102E+00    0.2076996182E-03
    0.3700000000E+05    0.1628244211E-01    0.6957497099E+00    0.3419169118E-01    0.3577738527E+00    0.2083425962E-03
    0.3900000000E+05    0.1576824399E-01    0.6957535153E+00    0.3406088354E-01    0.3653697227E+00    0.2089535180E-03
    0.4100000000E+05    0.1526996015E-01    0.6957569216E+00    0.3390353038E-01    0.3725809091E+00    0.2095355100E-03
    0.4300000000E+05    0.1478823760E-01    0.6957599857E+00    0.3372402107E-01    0.3794386546E+00    0.2100912588E-03
    0.4500000000E+05    0.1432336528E-01    0.6957627543E+00    0.3352605038E-01    0.3859705557E+00    0.2106230902E-03
    0.4700000000E+05    0.1387536942E-01    0.6957652660E+00    0.3331274228E-01    0.3922011251E+00    0.2111330316E-03
    0.4900000000E+05    0.1344408478E-01    0.6957675531E+00    0.3308674855E-01    0.3981522463E+00    0.2116228608E-03
    0.1000000000E+05    0.2109704806E-01    0.6955336864E+00    0.2708492286E-01    0.1832842386E+00    0.1937027898E-03
    0.3000000000E+05    0.1818448917E-01    0.6957320667E+00    0.3435458644E-01    0.3275948295E+00    0.2059261496E-03
    0.5000000000E+05    0.1323461866E-01    0.6957686210E+00    0.3296971393E-01    0.4010292267E+00    0.2118607306E-03
    0.7000000000E+05    0.9813298841E-02    0.6957829588E+00    0.3036263044E-01    0.4477549697E+00    0.2158614682E-03
    0.9000000000E+05    0.7503649622E-02    0.6957901765E+00    0.2775068941E-01    0.4804425268E+00    0.2188983921E-03
    0.1100000000E+06    0.5900840196E-02    0.6957942873E+00    0.2539609825E-01    0.5046594291E+00    0.2213537612E-03
    0.1300000000E+06    0.4752083041E-02    0.6957967955E+00    0.2333438343E-01    0.5233347253E+00    0.2234186808E-03
    0.1500000000E+06    0.3904070567E-02    0.6957983846E+00    0.2154148208E-01    0.5381773577E+00    0.2252027604E-03
    0.1700000000E+06    0.3261748231E-02    0.6957994068E+00    0.1998047042E-01    0.5502567218E+00    0.2267748361E-03
    0.1900000000E+06    0.2764306580E-02    0.6958000601E+00    0.1861541367E-01    0.5602776693E+00    0.2281810295E-03
    0.2100000000E+06    0.2371612299E-02    0.6958004638E+00    0.1741508060E-01    0.5687240568E+00    0.2294537851E-03
    0.2300000000E+06    0.2056407151E-02    0.6958006931E+00    0.1635340008E-01    0.5759391777E+00    0.2306168097E-03
    0.2500000000E+06    0.1799694389E-02    0.6958007978E+00    0.1540892514E-01    0.5821733754E+00    0.2316879628E-03
    0.2700000000E+06    0.1587927227E-02    0.6958008117E+00    0.1456407695E-01    0.5876135074E+00    0.2326810399E-03
    0.2900000000E+06    0.1411245512E-02    0.6958007584E+00    0.1380442462E-01    0.5924018630E+00    0.2336069231E-03
    0.3100000000E+06    0.1262339983E-02    0.6958006548E+00    0.1311807258E-01    0.5966486957E+00    0.2344743507E-03
    0.3300000000E+06    0.1135702770E-02    0.6958005135E+00    0.1249516253E-01    0.6004407522E+00    0.2352904472E-03
    0.3500000000E+06    0.1027121712E-02    0.6958003435E+00    0.1192747615E-01    0.6038472151E+00    0.2360610997E-03
    0.3700000000E+06    0.9333322765E-03    0.6958001517E+00    0.1140812075E-01    0.6069239305E+00    0.2367912294E-03
    0.3900000000E+06    0.8517735306E-03    0.6957999435E+00    0.1093128052E-01    0.6097164709E+00    0.2374849928E-03
    0.4100000000E+06    0.7804142005E-03    0.6957997229E+00    0.1049201963E-01    0.6122623917E+00    0.2381459332E-03
    0.4300000000E+06    0.7176267760E-03    0.6957994931E+00    0.1008612541E-01    0.6145929184E+00    0.2387770959E-03
    0.4500000000E+06    0.6620951134E-03    0.6957992565E+00    0.9709983119E-02    0.6167342249E+00    0.2393811176E-03
    0.4700000000E+06    0.6127457445E-03    0.6957990151E+00    0.9360475211E-02    0.6187084148E+00    0.2399602970E-03
    0.4900000000E+06    0.5686962029E-03    0.6957987704E+00    0.9034899920E-02    0.6205342819E+00    0.2405166501E-03
    0.1000000000E+06    0.6632649418E-02    0.6957924972E+00    0.2653662941E-01    0.4933878477E+00    0.2201841692E-03
    0.3000000000E+06    0.1333700324E-02    0.6958007120E+00    0.1345274485E-01    0.5945870769E+00    0.2340474657E-03
    0.5000000000E+06    0.5484254537E-03    0.6957986472E+00    0.8880339849E-02    0.6213967121E+00    0.2407868308E-03
    0.7000000000E+06    0.2963754259E-03    0.6957962056E+00    0.6609166143E-02    0.6337631022E+00    0.2453314769E-03
    0.9000000000E+06    0.1850644699E-03    0.6957939770E+00    0.5256698417E-02    0.6408744101E+00    0.2487817415E-03
    0.1100000000E+07    0.1263807496E-03    0.6957919978E+00    0.4360670475E-02    0.6454912023E+00    0.2515715090E-03
    0.1300000000E+07    0.9172830901E-04    0.6957902354E+00    0.3723902015E-02    0.6487292654E+00    0.2539177633E-03
    0.1500000000E+07    0.6958418178E-04    0.6957886526E+00    0.3248334946E-02    0.6511255163E+00    0.2559449805E-03
    0.1700000000E+07    0.5458410530E-04    0.6957872186E+00    0.2879763024E-02    0.6529702183E+00    0.2577313435E-03
    0.1900000000E+07    0.4395774381E-04    0.6957859085E+00    0.2585804988E-02    0.6544339956E+00    0.2593292414E-03
    0.2100000000E+07    0.3615754922E-04    0.6957847030E+00    0.2345933743E-02    0.6556237007E+00    0.2607755298E-03
    0.2300000000E+07    0.3026414846E-04    0.6957835867E+00    0.2146510850E-02    0.6566096557E+00    0.2620971405E-03
    0.2500000000E+07    0.2570356219E-04    0.6957825473E+00    0.1978122622E-02    0.6574400298E+00    0.2633143630E-03
    0.2700000000E+07    0.2210248438E-04    0.6957815747E+00    0.1834063013E-02    0.6581489242E+00    0.2644428707E-03
    0.2900000000E+07    0.1920964902E-04    0.6957806609E+00    0.1709426110E-02    0.6587611566E+00    0.2654950274E-03
    0.3100000000E+07    0.1685092190E-04    0.6957797990E+00    0.1600540517E-02    0.6592952186E+00    0.2664807612E-03
    0.3300000000E+07    0.1490254811E-04    0.6957789833E+00    0.1504604288E-02    0.6597651698E+00    0.2674081672E-03
    0.3500000000E+07    0.1327462825E-04    0.6957782091E+00    0.1419442116E-02    0.6601818905E+00    0.2682839342E-03
    0.3700000000E+07    0.1190058689E-04    0.6957774722E+00    0.1343339543E-02    0.6605539319E+00    0.2691136539E-03
    0.3900000000E+07    0.1073027302E-04    0.6957767692E+00    0.1274927144E-02    0.6608881073E+00    0.2699020492E-03
    0.4100000000E+07    0.9725328833E-05    0.6957760970E+00    0.1213097944E-02    0.6611899125E+00    0.2706531462E-03
    0.4300000000E+07    0.8856012934E-05    0.6957754530E+00    0.1156947465E-02    0.6614638293E+00    0.2713704051E-03
    0.4500000000E+07    0.8098978706E-05    0.6957748348E+00    0.1105729477E-02    0.6617135490E+00    0.2720568223E-03
    0.4700000000E+07    0.7435693127E-05    0.6957742403E+00    0.1058822863E-02    0.6619421393E+00    0.2727150094E-03
    0.4900000000E+07    0.6851293517E-05    0.6957736679E+00    0.1015706471E-02    0.6621521706E+00    0.2733472576E-03
    0.1000000000E+07    0.1515595503E-03    0.6957929579E+00    0.4767337612E-02    0.6434048108E+00    0.2502426094E-03
    0.3000000000E+07    0.1797220680E-04    0.6957802238E+00    0.1653206592E-02    0.6590369934E+00    0.2659956540E-03
    0.5000000000E+07    0.6584823869E-05    0.6957733894E+00    0.9954292353E-03    0.6622509181E+00    0.2736542953E-03
    0.7000000000E+07    0.3407768332E-05    0.6957686627E+00    0.7107939564E-03    0.6636354168E+00    0.2788189321E-03
    0.9000000000E+07    0.2092150112E-05    0.6957650296E+00    0.5521846147E-03    0.6644059681E+00    0.2827399133E-03
    0.1100000000E+08    0.1423098382E-05    0.6957620697E+00    0.4511581469E-03    0.6648966714E+00    0.2859102951E-03
    0.1300000000E+08    0.1036668302E-05    0.6957595674E+00    0.3812126102E-03    0.6652364782E+00    0.2885766580E-03
    0.1500000000E+08    0.7931918965E-06    0.6957573969E+00    0.3299368974E-03    0.6654856804E+00    0.2908804580E-03
    0.1700000000E+08    0.6297546238E-06    0.6957554784E+00    0.2907474239E-03    0.6656762331E+00    0.2929105434E-03
    0.1900000000E+08    0.5146217270E-06    0.6957537581E+00    0.2598283198E-03    0.6658266494E+00    0.2947264505E-03
    0.2100000000E+08    0.4303745898E-06    0.6957521977E+00    0.2348158928E-03    0.6659483949E+00    0.2963700632E-03
    0.2300000000E+08    0.3668035179E-06    0.6957507693E+00    0.2141681247E-03    0.6660489490E+00    0.2978719876E-03
    0.2500000000E+08    0.3176010996E-06    0.6957494516E+00    0.1968363366E-03    0.6661333986E+00    0.2992552812E-03
    0.2700000000E+08    0.2786990579E-06    0.6957482282E+00    0.1820825997E-03    0.6662053236E+00    0.3005377560E-03
