  Pressure (Pa) 22mC5-500 (mol/kg) 24mC5-500 (mol/kg) 2mC6-500 (mol/kg) 3mC6-500 (mol/kg) C7-500 (mol/kg)
    0.1000000000E+01    0.1115784706E-04    0.1266258548E+00    0.2868873834E-05    0.2204487446E-05    0.4220519549E-02
    0.3000000000E+01    0.2303613795E-04    0.2784916687E+00    0.5639624674E-05    0.5699382846E-05    0.4292248568E-02
    0.5000000000E+01    0.2899049817E-04    0.3663722599E+00    0.6897719675E-05    0.8926423379E-05    0.4333560063E-02
    0.7000000000E+01    0.3243448722E-04    0.4236696170E+00    0.7601652174E-05    0.1202245236E-04    0.4360883694E-02
    0.9000000000E+01    0.3464688782E-04    0.4639825628E+00    0.8077067821E-05    0.1503403772E-04    0.4380416391E-02
    0.1100000000E+02    0.3619696336E-04    0.4938883024E+00    0.8453979876E-05    0.1798459713E-04    0.4395136309E-02
    0.1300000000E+02    0.3736847048E-04    0.5169562430E+00    0.8789654639E-05    0.2088811889E-04    0.4406663637E-02
    0.1500000000E+02    0.3831464697E-04    0.5352909569E+00    0.9110865584E-05    0.2375384660E-04    0.4415958472E-02
    0.1700000000E+02    0.3912330251E-04    0.5502136979E+00    0.9430497892E-05    0.2658831281E-04    0.4423627230E-02
    0.1900000000E+02    0.3984707550E-04    0.5625958173E+00    0.9754730569E-05    0.2939636172E-04    0.4430072459E-02
    0.2100000000E+02    0.4051863596E-04    0.5730352380E+00    0.1008637370E-04    0.3218171816E-04    0.4435572275E-02
    0.2300000000E+02    0.4115880978E-04    0.5819559051E+00    0.1042650573E-04    0.3494732862E-04    0.4440325238E-02
    0.2500000000E+02    0.4178114313E-04    0.5896667733E+00    0.1077531046E-04    0.3769557759E-04    0.4444477070E-02
    0.2700000000E+02    0.4239457494E-04    0.5963983189E+00    0.1113251775E-04    0.4042843123E-04    0.4448137242E-02
    0.2900000000E+02    0.4300505689E-04    0.6023259698E+00    0.1149764038E-04    0.4314753641E-04    0.4451389669E-02
    0.3100000000E+02    0.4361656467E-04    0.6075856149E+00    0.1187010225E-04    0.4585429103E-04    0.4454299810E-02
    0.3300000000E+02    0.4423174536E-04    0.6122841493E+00    0.1224930758E-04    0.4854989530E-04    0.4456919519E-02
    0.3500000000E+02    0.4485234075E-04    0.6165068157E+00    0.1263467737E-04    0.5123539010E-04    0.4459290439E-02
    0.3700000000E+02    0.4547946949E-04    0.6203224222E+00    0.1302566750E-04    0.5391168598E-04    0.4461446416E-02
    0.3900000000E+02    0.4611381815E-04    0.6237871214E+00    0.1342177655E-04    0.5657958572E-04    0.4463415264E-02
    0.4100000000E+02    0.4675577230E-04    0.6269471914E+00    0.1382254794E-04    0.5923980195E-04    0.4465220066E-02
    0.4300000000E+02    0.4740550761E-04    0.6298411157E+00    0.1422756896E-04    0.6189297126E-04    0.4466880146E-02
    0.4500000000E+02    0.4806305380E-04    0.6325011573E+00    0.1463646818E-04    0.6453966545E-04    0.4468411818E-02
    0.4700000000E+02    0.4872833977E-04    0.6349545671E+00    0.1504891223E-04    0.6718040075E-04    0.4469828952E-02
    0.4900000000E+02    0.4940122581E-04    0.6372245209E+00    0.1546460222E-04    0.6981564542E-04    0.4471143427E-02
    0.1000000000E+02    0.3548276578E-04    0.4799670695E+00    0.8273239061E-05    0.1651592502E-04    0.4388255885E-02
    0.3000000000E+02    0.4331049178E-04    0.6050320311E+00    0.1168299123E-04    0.4450237839E-04    0.4452884011E-02
    0.5000000000E+02    0.4974046223E-04    0.6382970138E+00    0.1567357964E-04    0.7113134352E-04    0.4471765421E-02
    0.7000000000E+02    0.5687002236E-04    0.6536999374E+00    0.1997186047E-04    0.9724344847E-04    0.4480688003E-02
    0.9000000000E+02    0.6451016749E-04    0.6625823547E+00    0.2441513315E-04    0.1231296572E-03    0.4485607505E-02
    0.1100000000E+03    0.7250643426E-04    0.6683612795E+00    0.2894393369E-04    0.1489385804E-03    0.4488445749E-02
    0.1300000000E+03    0.8076797972E-04    0.6724212354E+00    0.3353428173E-04    0.1747607897E-03    0.4490030954E-02
    0.1500000000E+03    0.8924118740E-04    0.6754298194E+00    0.3817604744E-04    0.2006577352E-03    0.4490785690E-02
    0.1700000000E+03    0.9789342977E-04    0.6777485579E+00    0.4286514684E-04    0.2266743207E-03    0.4490951056E-02
    0.1900000000E+03    0.1067043299E-03    0.6795902725E+00    0.4760035896E-04    0.2528452301E-03    0.4490676013E-02
    0.2100000000E+03    0.1156609740E-03    0.6810884083E+00    0.5238189888E-04    0.2791984467E-03    0.4490058249E-02
    0.2300000000E+03    0.1247551816E-03    0.6823308833E+00    0.5721073065E-04    0.3057573603E-03    0.4489164851E-02
    0.2500000000E+03    0.1339818841E-03    0.6833779782E+00    0.6208821829E-04    0.3325421042E-03    0.4488043610E-02
    0.2700000000E+03    0.1433381247E-03    0.6842724047E+00    0.6701594160E-04    0.3595704417E-03    0.4486729597E-02
    0.2900000000E+03    0.1528224218E-03    0.6850452712E+00    0.7199559642E-04    0.3868583779E-03    0.4485249183E-02
    0.3100000000E+03    0.1624343519E-03    0.6857197726E+00    0.7702894009E-04    0.4144205943E-03    0.4483622597E-02
    0.3300000000E+03    0.1721742690E-03    0.6863135560E+00    0.8211776173E-04    0.4422707663E-03    0.4481865623E-02
    0.3500000000E+03    0.1820431129E-03    0.6868402859E+00    0.8726386662E-04    0.4704218015E-03    0.4479990746E-02
    0.3700000000E+03    0.1920422742E-03    0.6873107074E+00    0.9246906864E-04    0.4988860210E-03    0.4478007959E-02
    0.3900000000E+03    0.2021734997E-03    0.6877333864E+00    0.9773518740E-04    0.5276753008E-03    0.4475925335E-02
    0.4100000000E+03    0.2124388234E-03    0.6881152357E+00    0.1030640481E-03    0.5568011846E-03    0.4473749444E-02
    0.4300000000E+03    0.2228405175E-03    0.6884618948E+00    0.1084574830E-03    0.5862749735E-03    0.4471485667E-02
    0.4500000000E+03    0.2333810551E-03    0.6887780107E+00    0.1139173336E-03    0.6161078005E-03    0.4469138425E-02
    0.4700000000E+03    0.2440630844E-03    0.6890674467E+00    0.1194454535E-03    0.6463106917E-03    0.4466711361E-02
    0.4900000000E+03    0.2548894085E-03    0.6893334411E+00    0.1250437117E-03    0.6768946180E-03    0.4464207476E-02
    0.1000000000E+03    0.6847059882E-04    0.6657483780E+00    0.2667081306E-04    0.1360372188E-03    0.4487221197E-02
    0.3000000000E+03    0.1576124262E-03    0.6853936059E+00    0.7450544584E-04    0.4006043259E-03    0.4484453086E-02
    0.5000000000E+03    0.2603575959E-03    0.6894585191E+00    0.1278697316E-03    0.6923328937E-03    0.4462927516E-02
    0.7000000000E+03    0.3780907273E-03    0.6912134716E+00    0.1885506168E-03    0.1023834421E-02    0.4433687543E-02
    0.9000000000E+03    0.5144507070E-03    0.6921911632E+00    0.2586441629E-03    0.1406957121E-02    0.4397703111E-02
    0.1100000000E+04    0.6743555068E-03    0.6928140128E+00    0.3407629999E-03    0.1856159260E-02    0.4354348060E-02
    0.1300000000E+04    0.8644064092E-03    0.6932453329E+00    0.4383467686E-03    0.2390413076E-02    0.4302195355E-02
    0.1500000000E+04    0.1093632100E-02    0.6935615705E+00    0.5560736697E-03    0.3035518108E-02    0.4239053277E-02
    0.1700000000E+04    0.1374645192E-02    0.6938032785E+00    0.7004692900E-03    0.3827483603E-02    0.4161758755E-02
    0.1900000000E+04    0.1725440696E-02    0.6939939668E+00    0.8808444658E-03    0.4817734590E-02    0.4065778261E-02
    0.2100000000E+04    0.2172204064E-02    0.6941482030E+00    0.1110758462E-02    0.6081245943E-02    0.3944568692E-02
    0.2300000000E+04    0.2753625029E-02    0.6942754940E+00    0.1410271737E-02    0.7729100886E-02    0.3788622668E-02
    0.2500000000E+04    0.3527076892E-02    0.6943823076E+00    0.1809189514E-02    0.9926665935E-02    0.3584202224E-02
    0.2700000000E+04    0.4575531628E-02    0.6944731966E+00    0.2350744115E-02    0.1291450601E-01    0.3312241776E-02
    0.2900000000E+04    0.6007675444E-02    0.6945514586E+00    0.3091876658E-02    0.1701114204E-01    0.2949658266E-02
    0.3100000000E+04    0.7925171434E-02    0.6946195403E+00    0.4086683898E-02    0.2252365542E-01    0.2479802974E-02
    0.3300000000E+04    0.1030943286E-01    0.6946792956E+00    0.5328134940E-02    0.2942721855E-01    0.1922239032E-02
    0.3500000000E+04    0.1286351709E-01    0.6947321544E+00    0.6665449798E-02    0.3690409548E-01    0.1366405309E-02
    0.3700000000E+04    0.1510444778E-01    0.6947792375E+00    0.7849471586E-02    0.4358146955E-01    0.9334158593E-03
    0.3900000000E+04    0.1677257409E-01    0.6948214355E+00    0.8743684354E-02    0.4869335922E-01    0.6705522861E-03
    0.4100000000E+04    0.1795237288E-01    0.6948594654E+00    0.9389118174E-02    0.5245222722E-01    0.5378244284E-03
    0.4300000000E+04    0.1883471454E-01    0.6948939104E+00    0.9883028732E-02    0.5538757863E-01    0.4776809004E-03
    0.4500000000E+04    0.1955954516E-01    0.6949252502E+00    0.1029728379E-01    0.5789376789E-01    0.4520425459E-03
    0.4700000000E+04    0.2020227182E-01    0.6949538826E+00    0.1067075241E-01    0.6018489351E-01    0.4416522442E-03
    0.4900000000E+04    0.2079895464E-01    0.6949801404E+00    0.1102204814E-01    0.6236365672E-01    0.4377931549E-03
    0.1000000000E+04    0.5910939726E-03    0.6925336867E+00    0.2980089405E-03    0.1622241694E-02    0.4377019302E-02
    0.3000000000E+04    0.6902053391E-02    0.6945866445E+00    0.3555519547E-02    0.1957833686E-01    0.2728266520E-02
    0.5000000000E+04    0.2108563002E-01    0.6949924683E+00    0.1119226797E-01    0.6342681802E-01    0.4370297520E-03
    0.7000000000E+04    0.2592327633E-01    0.6951638714E+00    0.1420664238E-01    0.8301080422E-01    0.4429159731E-03
    0.9000000000E+04    0.2953289897E-01    0.6952576259E+00    0.1668651973E-01    0.1003594409E+00    0.4491758625E-03
    0.1100000000E+05    0.3224282300E-01    0.6953163279E+00    0.1875885789E-01    0.1159597256E+00    0.4542320809E-03
    0.1300000000E+05    0.3427447837E-01    0.6953562912E+00    0.2051010856E-01    0.1301413813E+00    0.4584813026E-03
    0.1500000000E+05    0.3578660532E-01    0.6953850944E+00    0.2200376861E-01    0.1431509481E+00    0.4621508218E-03
    0.1700000000E+05    0.3689545989E-01    0.6954067313E+00    0.2328752911E-01    0.1551768119E+00    0.4653831310E-03
    0.1900000000E+05    0.3768777048E-01    0.6954235029E+00    0.2439791391E-01    0.1663656692E+00    0.4682735817E-03
    0.2100000000E+05    0.3822928679E-01    0.6954368268E+00    0.2536337761E-01    0.1768336724E+00    0.4708891837E-03
    0.2300000000E+05    0.3857056247E-01    0.6954476229E+00    0.2620642747E-01    0.1866741622E+00    0.4732788637E-03
    0.2500000000E+05    0.3875095359E-01    0.6954565136E+00    0.2694510923E-01    0.1959631484E+00    0.4754794575E-03
    0.2700000000E+05    0.3880143807E-01    0.6954639345E+00    0.2759406863E-01    0.2047632716E+00    0.4775194049E-03
    0.2900000000E+05    0.3874663878E-01    0.6954701997E+00    0.2816532309E-01    0.2131267164E+00    0.4794211302E-03
    0.3100000000E+05    0.3860629833E-01    0.6954755408E+00    0.2866883202E-01    0.2210973872E+00    0.4812026334E-03
    0.3300000000E+05    0.3839636969E-01    0.6954801323E+00    0.2911292429E-01    0.2287125566E+00    0.4828785861E-03
    0.3500000000E+05    0.3812983312E-01    0.6954841082E+00    0.2950462301E-01    0.2360041302E+00    0.4844611082E-03
    0.3700000000E+05    0.3781731541E-01    0.6954875729E+00    0.2984989529E-01    0.2429996285E+00    0.4859603289E-03
    0.3900000000E+05    0.3746756446E-01    0.6954906090E+00    0.3015384642E-01    0.2497229578E+00    0.4873848017E-03
    0.4100000000E+05    0.3708781656E-01    0.6954932825E+00    0.3042087243E-01    0.2561950211E+00    0.4887418168E-03
    0.4300000000E+05    0.3668408322E-01    0.6954956469E+00    0.3065478111E-01    0.2624342067E+00    0.4900376387E-03
    0.4500000000E+05    0.3626137722E-01    0.6954977460E+00    0.3085888885E-01    0.2684567827E+00    0.4912776910E-03
    0.4700000000E+05    0.3582389200E-01    0.6954996158E+00    0.3103609869E-01    0.2742772178E+00    0.4924667008E-03
    0.4900000000E+05    0.3537514517E-01    0.6955012863E+00    0.3118896389E-01    0.2799084438E+00    0.4936088141E-03
    0.1000000000E+05    0.3098471029E-01    0.6952900315E+00    0.1776758290E-01    0.1083551977E+00    0.4518241262E-03
    0.3000000000E+05    0.3868608601E-01    0.6954729737E+00    0.2842499121E-01    0.2171586800E+00    0.4803259249E-03
    0.5000000000E+05    0.3514749200E-01    0.6955020549E+00    0.3125698250E-01    0.2826567786E+00    0.4941634440E-03
    0.7000000000E+05    0.3051137203E-01    0.6955113589E+00    0.3176912457E-01    0.3299796561E+00    0.5034917088E-03
    0.9000000000E+05    0.2629198177E-01    0.6955147571E+00    0.3134105880E-01    0.3666958178E+00    0.5105726257E-03
    0.1100000000E+06    0.2271364064E-01    0.6955157808E+00    0.3049141236E-01    0.3962824968E+00    0.5162975310E-03
    0.1300000000E+06    0.1973311826E-01    0.6955156932E+00    0.2945568320E-01    0.4207120655E+00    0.5211120328E-03
    0.1500000000E+06    0.1725587553E-01    0.6955150400E+00    0.2835170315E-01    0.4412433633E+00    0.5252717095E-03
    0.1700000000E+06    0.1518936841E-01    0.6955140865E+00    0.2724126771E-01    0.4587393399E+00    0.5289370667E-03
    0.1900000000E+06    0.1345524567E-01    0.6955129729E+00    0.2615715638E-01    0.4738198615E+00    0.5322156464E-03
    0.2100000000E+06    0.1199021689E-01    0.6955117774E+00    0.2511631554E-01    0.4869450634E+00    0.5351830985E-03
    0.2300000000E+06    0.1074397705E-01    0.6955105456E+00    0.2412677446E-01    0.4984650315E+00    0.5378946998E-03
    0.2500000000E+06    0.9676691522E-02    0.6955093046E+00    0.2319146183E-01    0.5086513585E+00    0.5403920923E-03
    0.2700000000E+06    0.8756756369E-02    0.6955080710E+00    0.2231038800E-01    0.5177181444E+00    0.5427074425E-03
    0.2900000000E+06    0.7958981433E-02    0.6955068547E+00    0.2148192385E-01    0.5258364768E+00    0.5448661239E-03
    0.3100000000E+06    0.7263169360E-02    0.6955056617E+00    0.2070356208E-01    0.5331446957E+00    0.5468885106E-03
    0.3300000000E+06    0.6653020484E-02    0.6955044954E+00    0.1997237378E-01    0.5397558348E+00    0.5487912150E-03
    0.3500000000E+06    0.6115292617E-02    0.6955033575E+00    0.1928528191E-01    0.5457631169E+00    0.5505879631E-03
    0.3700000000E+06    0.5639155995E-02    0.6955022489E+00    0.1863922311E-01    0.5512440786E+00    0.5522902294E-03
    0.3900000000E+06    0.5215696341E-02    0.6955011694E+00    0.1803124083E-01    0.5562637075E+00    0.5539077054E-03
    0.4100000000E+06    0.4837530158E-02    0.6955001189E+00    0.1745853575E-01    0.5608768590E+00    0.5554486526E-03
    0.4300000000E+06    0.4498505182E-02    0.6954990965E+00    0.1691849004E-01    0.5651301384E+00    0.5569201713E-03
    0.4500000000E+06    0.4193465728E-02    0.6954981015E+00    0.1640867537E-01    0.5690633804E+00    0.5583284096E-03
    0.4700000000E+06    0.3918067719E-02    0.6954971329E+00    0.1592685130E-01    0.5727108241E+00    0.5596787268E-03
    0.4900000000E+06    0.3668631957E-02    0.6954961897E+00    0.1547095790E-01    0.5761020523E+00    0.5609758238E-03
    0.1000000000E+06    0.2442299581E-01    0.6955154611E+00    0.3095032303E-01    0.3822347037E+00    0.5135705322E-03
    0.3000000000E+06    0.7599429189E-02    0.6955062551E+00    0.2108665723E-01    0.5295842650E+00    0.5458932393E-03
    0.5000000000E+06    0.3552652659E-02    0.6954957273E+00    0.1525213832E-01    0.5777097467E+00    0.5616057295E-03
    0.7000000000E+06    0.2038391086E-02    0.6954875808E+00    0.1185683682E-01    0.6011572320E+00    0.5722011406E-03
    0.9000000000E+06    0.1317268212E-02    0.6954810223E+00    0.9672511343E-02    0.6149459067E+00    0.5802449966E-03
    0.1100000000E+07    0.9196447814E-03    0.6954755428E+00    0.8157524162E-02    0.6240002075E+00    0.5867489184E-03
    0.1300000000E+07    0.6777650034E-03    0.6954708370E+00    0.7047748596E-02    0.6303925914E+00    0.5922188088E-03
    0.1500000000E+07    0.5198943709E-03    0.6954667117E+00    0.6200869728E-02    0.6351428875E+00    0.5969448840E-03
    0.1700000000E+07    0.4112550288E-03    0.6954630374E+00    0.5533876056E-02    0.6388100889E+00    0.6011094262E-03
    0.1900000000E+07    0.3333471282E-03    0.6954597237E+00    0.4995228004E-02    0.6417258099E+00    0.6048345790E-03
    0.2100000000E+07    0.2756009064E-03    0.6954567049E+00    0.4551288654E-02    0.6440990583E+00    0.6082062700E-03
    0.2300000000E+07    0.2316245903E-03    0.6954539319E+00    0.4179194759E-02    0.6460680303E+00    0.6112872889E-03
    0.2500000000E+07    0.1973700252E-03    0.6954513667E+00    0.3862874042E-02    0.6477277218E+00    0.6141249398E-03
    0.2700000000E+07    0.1701730039E-03    0.6954489798E+00    0.3590703690E-02    0.6491455670E+00    0.6167557638E-03
    0.2900000000E+07    0.1482223857E-03    0.6954467474E+00    0.3354073302E-02    0.6503707480E+00    0.6192085863E-03
    0.3100000000E+07    0.1302523405E-03    0.6954446503E+00    0.3146470065E-02    0.6514399732E+00    0.6215065535E-03
    0.3300000000E+07    0.1153566830E-03    0.6954426726E+00    0.2962877717E-02    0.6523811923E+00    0.6236685385E-03
    0.3500000000E+07    0.1028729473E-03    0.6954408012E+00    0.2799370691E-02    0.6532160596E+00    0.6257101357E-03
    0.3700000000E+07    0.9230780447E-04    0.6954390249E+00    0.2652833378E-02    0.6539616108E+00    0.6276443813E-03
    0.3900000000E+07    0.8328779909E-04    0.6954373343E+00    0.2520761755E-02    0.6546314308E+00    0.6294822865E-03
    0.4100000000E+07    0.7552604074E-04    0.6954357213E+00    0.2401120528E-02    0.6552364849E+00    0.6312332374E-03
    0.4300000000E+07    0.6879920926E-04    0.6954341789E+00    0.2292238492E-02    0.6557857207E+00    0.6329053012E-03
    0.4500000000E+07    0.6293138019E-04    0.6954327010E+00    0.2192730694E-02    0.6562865117E+00    0.6345054632E-03
    0.4700000000E+07    0.5778245355E-04    0.6954312824E+00    0.2101439735E-02    0.6567449884E+00    0.6360398127E-03
    0.4900000000E+07    0.5323974795E-04    0.6954299183E+00    0.2017390925E-02    0.6571662896E+00    0.6375136906E-03
    0.1000000000E+07    0.1091950737E-02    0.6954781702E+00    0.8851847650E-02    0.6198992416E+00    0.5836507972E-03
    0.3000000000E+07    0.1388032450E-03    0.6954456830E+00    0.3246986381E-02    0.6509229365E+00    0.6203756603E-03
    0.5000000000E+07    0.5116645403E-04    0.6954292554E+00    0.1977819005E-02    0.6573643825E+00    0.6382294466E-03
    0.7000000000E+07    0.2634936946E-04    0.6954180638E+00    0.1419329840E-02    0.6601426877E+00    0.6502689636E-03
    0.9000000000E+07    0.1602156434E-04    0.6954095254E+00    0.1105676297E-02    0.6616895977E+00    0.6594092006E-03
    0.1100000000E+08    0.1076318018E-04    0.6954026011E+00    0.9049807612E-03    0.6626748739E+00    0.6667996210E-03
    0.1300000000E+08    0.7728422720E-05    0.6953967659E+00    0.7656122670E-03    0.6633572221E+00    0.6730150714E-03
    0.1500000000E+08    0.5820158078E-05    0.6953917168E+00    0.6632267390E-03    0.6638576492E+00    0.6783853218E-03
    0.1700000000E+08    0.4542865679E-05    0.6953872626E+00    0.5848505321E-03    0.6642403043E+00    0.6831174986E-03
    0.1900000000E+08    0.3646229867E-05    0.6953832747E+00    0.5229385425E-03    0.6645423577E+00    0.6873503939E-03
    0.2100000000E+08    0.2992759431E-05    0.6953796626E+00    0.4728049354E-03    0.6647868319E+00    0.6911816474E-03
    0.2300000000E+08    0.2501852373E-05    0.6953763598E+00    0.4313865237E-03    0.6649887466E+00    0.6946826078E-03
    0.2500000000E+08    0.2123725925E-05    0.6953733162E+00    0.3965966740E-03    0.6651583174E+00    0.6979070268E-03
    0.2700000000E+08    0.1826288223E-05    0.6953704931E+00    0.3669650600E-03    0.6653027339E+00    0.7008964267E-03
