  Pressure (Pa) 22mC5-500 (mol/kg) 24mC5-500 (mol/kg) 2mC6-500 (mol/kg) 3mC6-500 (mol/kg) C7-500 (mol/kg)
    0.1000000000E+01    0.1321111965E-04    0.3665704466E-01    0.1383244721E-04    0.1441629413E-05    0.4239106906E-02
    0.3000000000E+01    0.3491993030E-04    0.9946431978E-01    0.3576172657E-04    0.3736973883E-05    0.4370218025E-02
    0.5000000000E+01    0.5207304589E-04    0.1513172858E+00    0.5244338183E-04    0.5859277119E-05    0.4477623523E-02
    0.7000000000E+01    0.6588578062E-04    0.1948523324E+00    0.6540229705E-04    0.7897029076E-05    0.4568111565E-02
    0.9000000000E+01    0.7717927753E-04    0.2319226318E+00    0.7563943119E-04    0.9880381261E-05    0.4645524049E-02
    0.1100000000E+02    0.8653337821E-04    0.2638688821E+00    0.8384644709E-04    0.1182450615E-04    0.4712568943E-02
    0.1300000000E+02    0.9436900916E-04    0.2916850045E+00    0.9051511777E-04    0.1373847091E-04    0.4771241697E-02
    0.1500000000E+02    0.1009985349E-03    0.3161234551E+00    0.9600278920E-04    0.1562826917E-04    0.4823051128E-02
    0.1700000000E+02    0.1066581017E-03    0.3377643563E+00    0.1005738432E-03    0.1749813772E-04    0.4869160987E-02
    0.1900000000E+02    0.1115291238E-03    0.3570621628E+00    0.1044269119E-03    0.1935121894E-04    0.4910483957E-02
    0.2100000000E+02    0.1157529440E-03    0.3743779433E+00    0.1077132341E-03    0.2118992949E-04    0.4947746239E-02
    0.2300000000E+02    0.1194410661E-03    0.3900021964E+00    0.1105493196E-03    0.2301618128E-04    0.4981533063E-02
    0.2500000000E+02    0.1226824375E-03    0.4041712897E+00    0.1130258575E-03    0.2483152175E-04    0.5012321447E-02
    0.2700000000E+02    0.1255487256E-03    0.4170795069E+00    0.1152140903E-03    0.2663722699E-04    0.5040504193E-02
    0.2900000000E+02    0.1280981974E-03    0.4288880160E+00    0.1171704447E-03    0.2843436598E-04    0.5066407754E-02
    0.3100000000E+02    0.1303786153E-03    0.4397316362E+00    0.1189399410E-03    0.3022384621E-04    0.5090305730E-02
    0.3300000000E+02    0.1324294241E-03    0.4497240121E+00    0.1205587349E-03    0.3200644693E-04    0.5112429187E-02
    0.3500000000E+02    0.1342834227E-03    0.4589616135E+00    0.1220560338E-03    0.3378284399E-04    0.5132974649E-02
    0.3700000000E+02    0.1359680550E-03    0.4675268623E+00    0.1234555562E-03    0.3555362873E-04    0.5152110343E-02
    0.3900000000E+02    0.1375064177E-03    0.4754905996E+00    0.1247766524E-03    0.3731932256E-04    0.5169981138E-02
    0.4100000000E+02    0.1389180525E-03    0.4829140511E+00    0.1260351752E-03    0.3908038843E-04    0.5186712482E-02
    0.4300000000E+02    0.1402195746E-03    0.4898504047E+00    0.1272441586E-03    0.4083723994E-04    0.5202413566E-02
    0.4500000000E+02    0.1414251765E-03    0.4963460882E+00    0.1284143530E-03    0.4259024867E-04    0.5217179884E-02
    0.4700000000E+02    0.1425470323E-03    0.5024418097E+00    0.1295546492E-03    0.4433975018E-04    0.5231095330E-02
    0.4900000000E+02    0.1435956262E-03    0.5081734128E+00    0.1306724164E-03    0.4608604889E-04    0.5244233916E-02
    0.1000000000E+02    0.8206942164E-04    0.2484674705E+00    0.7996220022E-04    0.1085668561E-04    0.4680204221E-02
    0.3000000000E+02    0.1292693996E-03    0.4344228899E+00    0.1180761077E-03    0.2933001206E-04    0.5078592105E-02
    0.5000000000E+02    0.1440953313E-03    0.5109127169E+00    0.1312248065E-03    0.4695808483E-04    0.5250532667E-02
    0.7000000000E+02    0.1518953335E-03    0.5526201606E+00    0.1421170565E-03    0.6428687730E-04    0.5348260570E-02
    0.9000000000E+02    0.1578090751E-03    0.5788766122E+00    0.1537989985E-03    0.8150588012E-04    0.5412026560E-02
    0.1100000000E+03    0.1633127060E-03    0.5969266022E+00    0.1666480996E-03    0.9871234718E-04    0.5457222639E-02
    0.1300000000E+03    0.1689032917E-03    0.6100976185E+00    0.1805731409E-03    0.1159659866E-03    0.5491057596E-02
    0.1500000000E+03    0.1747567795E-03    0.6201323257E+00    0.1954192401E-03    0.1333077093E-03    0.5517378965E-02
    0.1700000000E+03    0.1809307004E-03    0.6280317304E+00    0.2110493696E-03    0.1507677781E-03    0.5538437995E-02
    0.1900000000E+03    0.1874363075E-03    0.6344118029E+00    0.2273561900E-03    0.1683699059E-03    0.5555645184E-02
    0.2100000000E+03    0.1942667882E-03    0.6396723716E+00    0.2442586520E-03    0.1861335349E-03    0.5569932332E-02
    0.2300000000E+03    0.2014089642E-03    0.6440842841E+00    0.2616962875E-03    0.2040752013E-03    0.5581941567E-02
    0.2500000000E+03    0.2088482725E-03    0.6478375371E+00    0.2796241809E-03    0.2222094015E-03    0.5592130919E-02
    0.2700000000E+03    0.2165708578E-03    0.6510693504E+00    0.2980090840E-03    0.2405491670E-03    0.5600836595E-02
    0.2900000000E+03    0.2245643823E-03    0.6538813026E+00    0.3168265400E-03    0.2591064617E-03    0.5608311418E-02
    0.3100000000E+03    0.2328182572E-03    0.6563501979E+00    0.3360587772E-03    0.2778924651E-03    0.5614749474E-02
    0.3300000000E+03    0.2413236201E-03    0.6585351843E+00    0.3556931674E-03    0.2969177794E-03    0.5620302430E-02
    0.3500000000E+03    0.2500732066E-03    0.6604825522E+00    0.3757210903E-03    0.3161925863E-03    0.5625090653E-02
    0.3700000000E+03    0.2590611895E-03    0.6622290476E+00    0.3961370920E-03    0.3357267664E-03    0.5629210973E-02
    0.3900000000E+03    0.2682830141E-03    0.6638042119E+00    0.4169382538E-03    0.3555299940E-03    0.5632742215E-02
    0.4100000000E+03    0.2777352476E-03    0.6652320646E+00    0.4381237164E-03    0.3756118124E-03    0.5635749230E-02
    0.4300000000E+03    0.2874154440E-03    0.6665323362E+00    0.4596943183E-03    0.3959816954E-03    0.5638285868E-02
    0.4500000000E+03    0.2973220280E-03    0.6677213847E+00    0.4816523173E-03    0.4166490991E-03    0.5640397218E-02
    0.4700000000E+03    0.3074541955E-03    0.6688128861E+00    0.5040011769E-03    0.4376235048E-03    0.5642121308E-02
    0.4900000000E+03    0.3178118297E-03    0.6698183632E+00    0.5267453995E-03    0.4589144565E-03    0.5643490421E-02
    0.1000000000E+03    0.1605695185E-03    0.5886665579E+00    0.1600798903E-03    0.9010636736E-04    0.5436383717E-02
    0.3000000000E+03    0.2286593691E-03    0.6551545869E+00    0.3263917058E-03    0.2684702007E-03    0.5611649719E-02
    0.5000000000E+03    0.3230753305E-03    0.6702919568E+00    0.5382674308E-03    0.4696816448E-03    0.5644050636E-02
    0.7000000000E+03    0.4405963882E-03    0.6769907715E+00    0.7912132728E-03    0.7041046509E-03    0.5641551594E-02
    0.9000000000E+03    0.5841844499E-03    0.6807670706E+00    0.1094267059E-02    0.9827430572E-03    0.5619402235E-02
    0.1100000000E+04    0.7603416267E-03    0.6831897160E+00    0.1462235275E-02    0.1320053953E-02    0.5580864513E-02
    0.1300000000E+04    0.9791821586E-03    0.6848752173E+00    0.1916729669E-02    0.1736253478E-02    0.5525197174E-02
    0.1500000000E+04    0.1255834086E-02    0.6861151239E+00    0.2489430848E-02    0.2260651625E-02    0.5449097918E-02
    0.1700000000E+04    0.1613105066E-02    0.6870651889E+00    0.3227777801E-02    0.2937017090E-02    0.5346569095E-02
    0.1900000000E+04    0.2086001303E-02    0.6878161781E+00    0.4204449669E-02    0.3832405029E-02    0.5207953531E-02
    0.2100000000E+04    0.2728998810E-02    0.6884245589E+00    0.5532602689E-02    0.5051347608E-02    0.5018210111E-02
    0.2300000000E+04    0.3626230710E-02    0.6889272997E+00    0.7387361618E-02    0.6756008957E-02    0.4754709373E-02
    0.2500000000E+04    0.4898799972E-02    0.6893496163E+00    0.1002191167E-01    0.9181865948E-02    0.4386810713E-02
    0.2700000000E+04    0.6679383621E-02    0.6897092968E+00    0.1371690559E-01    0.1259287867E-01    0.3886570383E-02
    0.2900000000E+04    0.8977831230E-02    0.6900192487E+00    0.1850446734E-01    0.1702922781E-01    0.3270815494E-02
    0.3100000000E+04    0.1145119740E-01    0.6902890643E+00    0.2368858833E-01    0.2186228162E-01    0.2659584290E-02
    0.3300000000E+04    0.1353030457E-01    0.6905260208E+00    0.2809366820E-01    0.2601147965E-01    0.2215258036E-02
    0.3500000000E+04    0.1498797015E-01    0.6907357386E+00    0.3123779473E-01    0.2902252959E-01    0.1976947463E-02
    0.3700000000E+04    0.1599084778E-01    0.6909226270E+00    0.3345435964E-01    0.3119226520E-01    0.1873762853E-02
    0.3900000000E+04    0.1675216477E-01    0.6910901941E+00    0.3517958919E-01    0.3291800318E-01    0.1835111217E-02
    0.4100000000E+04    0.1739689858E-01    0.6912412651E+00    0.3667072011E-01    0.3443546369E-01    0.1823120893E-02
    0.4300000000E+04    0.1798251677E-01    0.6913781410E+00    0.3804634487E-01    0.3585362142E-01    0.1821476161E-02
    0.4500000000E+04    0.1853340442E-01    0.6915027148E+00    0.3935673991E-01    0.3721865646E-01    0.1823700956E-02
    0.4700000000E+04    0.1905983157E-01    0.6916165578E+00    0.4062292088E-01    0.3854974903E-01    0.1827299145E-02
    0.4900000000E+04    0.1956631726E-01    0.6917209852E+00    0.4185394838E-01    0.3985501615E-01    0.1831319745E-02
    0.1000000000E+04    0.6676554653E-03    0.6820977108E+00    0.1268974197E-02    0.1142967798E-02    0.5602162807E-02
    0.3000000000E+04    0.1022954768E-01    0.6901586735E+00    0.2112274591E-01    0.1946544772E-01    0.2953297963E-02
    0.5000000000E+04    0.1981281517E-01    0.6917700216E+00    0.4245769774E-01    0.4049919196E-01    0.1833365361E-02
    0.7000000000E+04    0.2397029946E-01    0.6924523534E+00    0.5318034438E-01    0.5241976292E-01    0.1868970439E-02
    0.9000000000E+04    0.2698729092E-01    0.6928259663E+00    0.6185036672E-01    0.6285108485E-01    0.1895877944E-02
    0.1100000000E+05    0.2919873682E-01    0.6930599951E+00    0.6900001667E-01    0.7214117220E-01    0.1917518623E-02
    0.1300000000E+05    0.3082560416E-01    0.6932193336E+00    0.7499022999E-01    0.8053123379E-01    0.1935655520E-02
    0.1500000000E+05    0.3201897814E-01    0.6933341636E+00    0.8007515961E-01    0.8819496627E-01    0.1951287801E-02
    0.1700000000E+05    0.3288510545E-01    0.6934204018E+00    0.8443904183E-01    0.9526104620E-01    0.1965037783E-02
    0.1900000000E+05    0.3350050033E-01    0.6934872241E+00    0.8821877216E-01    0.1018271253E+00    0.1977319907E-02
    0.2100000000E+05    0.3392139878E-01    0.6935402855E+00    0.9151825804E-01    0.1079688657E+00    0.1988424361E-02
    0.2300000000E+05    0.3418986627E-01    0.6935832569E+00    0.9441784211E-01    0.1137459613E+00    0.1998562411E-02
    0.2500000000E+05    0.3433785397E-01    0.6936186223E+00    0.9698066454E-01    0.1192062605E+00    0.2007892736E-02
    0.2700000000E+05    0.3438995825E-01    0.6936481212E+00    0.9925706507E-01    0.1243886598E+00    0.2016537613E-02
    0.2900000000E+05    0.3436533862E-01    0.6936730070E+00    0.1012876955E+00    0.1293251765E+00    0.2024593295E-02
    0.3100000000E+05    0.3427907610E-01    0.6936942046E+00    0.1031057634E+00    0.1340424630E+00    0.2032136937E-02
    0.3300000000E+05    0.3414315185E-01    0.6937124112E+00    0.1047386772E+00    0.1385629312E+00    0.2039231354E-02
    0.3500000000E+05    0.3396716305E-01    0.6937281616E+00    0.1062092717E+00    0.1429056003E+00    0.2045928379E-02
    0.3700000000E+05    0.3375885370E-01    0.6937418729E+00    0.1075367347E+00    0.1470867461E+00    0.2052271293E-02
    0.3900000000E+05    0.3352451336E-01    0.6937538746E+00    0.1087373146E+00    0.1511204027E+00    0.2058296614E-02
    0.4100000000E+05    0.3326927996E-01    0.6937644307E+00    0.1098248696E+00    0.1550187562E+00    0.2064035444E-02
    0.4300000000E+05    0.3299737225E-01    0.6937737545E+00    0.1108112969E+00    0.1587924562E+00    0.2069514493E-02
    0.4500000000E+05    0.3271226989E-01    0.6937820208E+00    0.1117068721E+00    0.1624508646E+00    0.2074756870E-02
    0.4700000000E+05    0.3241685432E-01    0.6937893735E+00    0.1125205202E+00    0.1660022569E+00    0.2079782707E-02
    0.4900000000E+05    0.3211351973E-01    0.6937959324E+00    0.1132600330E+00    0.1694539851E+00    0.2084609652E-02
    0.1000000000E+05    0.2817786900E-01    0.6929551518E+00    0.6558960734E-01    0.6762178018E-01    0.1907221383E-02
    0.3000000000E+05    0.3432910069E-01    0.6936840188E+00    0.1022214669E+00    0.1317097345E+00    0.2028424904E-02
    0.5000000000E+05    0.3195951984E-01    0.6937989463E+00    0.1136041580E+00    0.1711445538E+00    0.2086953473E-02
    0.7000000000E+05    0.2880220628E-01    0.6938350893E+00    0.1178822538E+00    0.2010025552E+00    0.2126354697E-02
    0.9000000000E+05    0.2587128159E-01    0.6938477974E+00    0.1191738944E+00    0.2254721699E+00    0.2156243759E-02
    0.1100000000E+06    0.2331390516E-01    0.6938511353E+00    0.1189673002E+00    0.2463645632E+00    0.2180399552E-02
    0.1300000000E+06    0.2111087447E-01    0.6938501223E+00    0.1179372880E+00    0.2646539799E+00    0.2200708651E-02
    0.1500000000E+06    0.1921199549E-01    0.6938469187E+00    0.1164337756E+00    0.2809374201E+00    0.2218252175E-02
    0.1700000000E+06    0.1756736417E-01    0.6938425713E+00    0.1146547094E+00    0.2956135460E+00    0.2233708670E-02
    0.1900000000E+06    0.1613423414E-01    0.6938376299E+00    0.1127189189E+00    0.3089651711E+00    0.2247532583E-02
    0.2100000000E+06    0.1487754972E-01    0.6938323999E+00    0.1107007521E+00    0.3212020754E+00    0.2260043484E-02
    0.2300000000E+06    0.1376891552E-01    0.6938270574E+00    0.1086480716E+00    0.3324852640E+00    0.2271474819E-02
    0.2500000000E+06    0.1278534561E-01    0.6938217065E+00    0.1065922601E+00    0.3429416685E+00    0.2282002416E-02
    0.2700000000E+06    0.1190815402E-01    0.6938164093E+00    0.1045540892E+00    0.3526735453E+00    0.2291762067E-02
    0.2900000000E+06    0.1112205498E-01    0.6938112027E+00    0.1025473110E+00    0.3617647495E+00    0.2300860872E-02
    0.3100000000E+06    0.1041445624E-01    0.6938061081E+00    0.1005809354E+00    0.3702850745E+00    0.2309384819E-02
    0.3300000000E+06    0.9774910154E-02    0.6938011370E+00    0.9866071480E-01    0.3782933459E+00    0.2317404011E-02
    0.3500000000E+06    0.9194687745E-02    0.6937962950E+00    0.9679013741E-01    0.3858396830E+00    0.2324976364E-02
    0.3700000000E+06    0.8666447093E-02    0.6937915834E+00    0.9497110353E-01    0.3929671891E+00    0.2332150292E-02
    0.3900000000E+06    0.8183973795E-02    0.6937870011E+00    0.9320439509E-01    0.3997132393E+00    0.2338966683E-02
    0.4100000000E+06    0.7741976430E-02    0.6937825454E+00    0.9149000568E-01    0.4061104768E+00    0.2345460385E-02
    0.4300000000E+06    0.7335924276E-02    0.6937782128E+00    0.8982737541E-01    0.4121875968E+00    0.2351661352E-02
    0.4500000000E+06    0.6961917611E-02    0.6937739990E+00    0.8821555965E-01    0.4179699697E+00    0.2357595516E-02
    0.4700000000E+06    0.6616583356E-02    0.6937698996E+00    0.8665335110E-01    0.4234801436E+00    0.2363285482E-02
    0.4900000000E+06    0.6296990521E-02    0.6937659099E+00    0.8513936870E-01    0.4287382529E+00    0.2368751076E-02
    0.1000000000E+06    0.2454566627E-01    0.6938502215E+00    0.1192048435E+00    0.2362925590E+00    0.2168894124E-02
    0.3000000000E+06    0.1075914080E-01    0.6938086405E+00    0.1015586505E+00    0.3660923680E+00    0.2305189998E-02
    0.5000000000E+06    0.6146034855E-02    0.6937639547E+00    0.8439999955E-01    0.4312784992E+00    0.2371405278E-02
    0.7000000000E+06    0.4002206427E-02    0.6937295671E+00    0.7176831454E-01    0.4723933726E+00    0.2416047066E-02
    0.9000000000E+06    0.2820973644E-02    0.6937019375E+00    0.6230899590E-01    0.5010384526E+00    0.2449934250E-02
    0.1100000000E+07    0.2098021084E-02    0.6936788769E+00    0.5500649952E-01    0.5222401965E+00    0.2477331663E-02
    0.1300000000E+07    0.1622427970E-02    0.6936590843E+00    0.4921279774E-01    0.5386027252E+00    0.2500371765E-02
    0.1500000000E+07    0.1292523070E-02    0.6936417395E+00    0.4450959822E-01    0.5516283930E+00    0.2520277733E-02
    0.1700000000E+07    0.1054157571E-02    0.6936262955E+00    0.4061806087E-01    0.5622505160E+00    0.2537817767E-02
    0.1900000000E+07    0.8762621072E-03    0.6936123701E+00    0.3734611109E-01    0.5710816243E+00    0.2553506591E-02
    0.2100000000E+07    0.7399443116E-03    0.6935996861E+00    0.3455746845E-01    0.5785412641E+00    0.2567706292E-02
    0.2300000000E+07    0.6331675930E-03    0.6935880358E+00    0.3215289859E-01    0.5849268521E+00    0.2580681447E-02
    0.2500000000E+07    0.5479630480E-03    0.6935772601E+00    0.3005848929E-01    0.5904552950E+00    0.2592631369E-02
    0.2700000000E+07    0.4788821168E-03    0.6935672339E+00    0.2821808913E-01    0.5952886048E+00    0.2603710022E-02
    0.2900000000E+07    0.4220958630E-03    0.6935578575E+00    0.2658829160E-01    0.5995502848E+00    0.2614038852E-02
    0.3100000000E+07    0.3748490987E-03    0.6935490500E+00    0.2513502264E-01    0.6033361592E+00    0.2623715378E-02
    0.3300000000E+07    0.3351179417E-03    0.6935407445E+00    0.2383116604E-01    0.6067217330E+00    0.2632819112E-02
    0.3500000000E+07    0.3013884629E-03    0.6935328856E+00    0.2265487715E-01    0.6097673170E+00    0.2641415752E-02
    0.3700000000E+07    0.2725098021E-03    0.6935254265E+00    0.2158836346E-01    0.6125216726E+00    0.2649560219E-02
    0.3900000000E+07    0.2475944125E-03    0.6935183276E+00    0.2061698813E-01    0.6150246544E+00    0.2657298897E-02
    0.4100000000E+07    0.2259489001E-03    0.6935115548E+00    0.1972860110E-01    0.6173091572E+00    0.2664671329E-02
    0.4300000000E+07    0.2070251766E-03    0.6935050787E+00    0.1891303321E-01    0.6194025732E+00    0.2671711499E-02
    0.4500000000E+07    0.1903853790E-03    0.6934988738E+00    0.1816170880E-01    0.6213278974E+00    0.2678448831E-02
    0.4700000000E+07    0.1756762917E-03    0.6934929176E+00    0.1746734576E-01    0.6231045769E+00    0.2684908977E-02
    0.4900000000E+07    0.1626104374E-03    0.6934871905E+00    0.1682372074E-01    0.6247491695E+00    0.2691114435E-02
    0.1000000000E+07    0.2419141122E-02    0.6936899321E+00    0.5843543369E-01    0.5123716401E+00    0.2464281247E-02
    0.3000000000E+07    0.3974206326E-03    0.6935533871E+00    0.2584142641E-01    0.6014975712E+00    0.2618953317E-02
    0.5000000000E+07    0.1566183024E-03    0.6934844074E+00    0.1651923326E-01    0.6255264474E+00    0.2694127949E-02
    0.7000000000E+07    0.8326359330E-04    0.6934374277E+00    0.1211966065E-01    0.6367058232E+00    0.2744814566E-02
    0.9000000000E+07    0.5162323802E-04    0.6934015919E+00    0.9561763535E-02    0.6431637022E+00    0.2783291660E-02
    0.1100000000E+08    0.3516080751E-04    0.6933725351E+00    0.7890664266E-02    0.6473674599E+00    0.2814400474E-02
    0.1300000000E+08    0.2551906909E-04    0.6933480520E+00    0.6713958072E-02    0.6503207999E+00    0.2840561933E-02
    0.1500000000E+08    0.1939060190E-04    0.6933268698E+00    0.5840849418E-02    0.6525087802E+00    0.2863164758E-02
    0.1700000000E+08    0.1525416122E-04    0.6933081854E+00    0.5167458832E-02    0.6541944230E+00    0.2883081153E-02
    0.1900000000E+08    0.1233084327E-04    0.6932914589E+00    0.4632410299E-02    0.6555326838E+00    0.2900895543E-02
    0.2100000000E+08    0.1018832491E-04    0.6932763099E+00    0.4197119522E-02    0.6566207663E+00    0.2917019057E-02
    0.2300000000E+08    0.8571034094E-05    0.6932624594E+00    0.3836118026E-02    0.6575227258E+00    0.2931752108E-02
    0.2500000000E+08    0.7320030535E-05    0.6932496972E+00    0.3531919350E-02    0.6582824843E+00    0.2945321012E-02
    0.2700000000E+08    0.6332261740E-05    0.6932378607E+00    0.3272120799E-02    0.6589311614E+00    0.2957900589E-02
