  Pressure (Pa) 22mC5-500 (mol/kg) 24mC5-500 (mol/kg) 2mC6-500 (mol/kg) 3mC6-500 (mol/kg) C7-500 (mol/kg)
    0.1000000000E+01    0.1362208851E-04    0.1266299003E+00    0.1481594269E-04    0.2694331880E-05    0.4169026203E-02
    0.3000000000E+01    0.2815767962E-04    0.2785131035E+00    0.2923967802E-04    0.6780075125E-05    0.4197031545E-02
    0.5000000000E+01    0.3554449499E-04    0.3664119697E+00    0.3601889007E-04    0.1051404382E-04    0.4209622161E-02
    0.7000000000E+01    0.3990099506E-04    0.4237255966E+00    0.3999138896E-04    0.1408045322E-04    0.4217309099E-02
    0.9000000000E+01    0.4276887598E-04    0.4640525972E+00    0.4279996534E-04    0.1754085924E-04    0.4222490890E-02
    0.1100000000E+02    0.4483476200E-04    0.4939704508E+00    0.4510177972E-04    0.2092590339E-04    0.4226183307E-02
    0.1300000000E+02    0.4644121422E-04    0.5170488907E+00    0.4718729225E-04    0.2425375624E-04    0.4228909776E-02
    0.1500000000E+02    0.4777344918E-04    0.5353927743E+00    0.4919303519E-04    0.2753635678E-04    0.4230971305E-02
    0.1700000000E+02    0.4893776235E-04    0.5503235883E+00    0.5118527764E-04    0.3078210309E-04    0.4232554375E-02
    0.1900000000E+02    0.4999799322E-04    0.5627128697E+00    0.5319625491E-04    0.3399719819E-04    0.4233781071E-02
    0.2100000000E+02    0.5099385527E-04    0.5731586896E+00    0.5524102975E-04    0.3718639571E-04    0.4234734840E-02
    0.2300000000E+02    0.5195073658E-04    0.5820851115E+00    0.5732578250E-04    0.4035344494E-04    0.4235474734E-02
    0.2500000000E+02    0.5288520937E-04    0.5898011859E+00    0.5945206064E-04    0.4350137235E-04    0.4236043766E-02
    0.2700000000E+02    0.5380825829E-04    0.5965374666E+00    0.6161902534E-04    0.4663266796E-04    0.4236474034E-02
    0.2900000000E+02    0.5472723890E-04    0.6024694455E+00    0.6382466416E-04    0.4974941339E-04    0.4236789989E-02
    0.3100000000E+02    0.5564710146E-04    0.6077330642E+00    0.6606645270E-04    0.5285337264E-04    0.4237010598E-02
    0.3300000000E+02    0.5657117501E-04    0.6124352617E+00    0.6834171519E-04    0.5594605813E-04    0.4237150804E-02
    0.3500000000E+02    0.5750168096E-04    0.6166613177E+00    0.7064781746E-04    0.5902877988E-04    0.4237222545E-02
    0.3700000000E+02    0.5844007568E-04    0.6204800716E+00    0.7298226567E-04    0.6210268280E-04    0.4237235475E-02
    0.3900000000E+02    0.5938728292E-04    0.6239477024E+00    0.7534275162E-04    0.6516877547E-04    0.4237197487E-02
    0.4100000000E+02    0.6034385357E-04    0.6271105113E+00    0.7772716823E-04    0.6822795273E-04    0.4237115102E-02
    0.4300000000E+02    0.6131007690E-04    0.6300070013E+00    0.8013360844E-04    0.7128101357E-04    0.4236993752E-02
    0.4500000000E+02    0.6228605880E-04    0.6326694524E+00    0.8256035546E-04    0.7432867552E-04    0.4236838000E-02
    0.4700000000E+02    0.6327177723E-04    0.6351251305E+00    0.8500586884E-04    0.7737158636E-04    0.4236651707E-02
    0.4900000000E+02    0.6426712183E-04    0.6373972242E+00    0.8746876891E-04    0.8041033372E-04    0.4236438165E-02
    0.1000000000E+02    0.4387557712E-04    0.4800433826E+00    0.4399092558E-04    0.1924147318E-04    0.4224483412E-02
    0.3000000000E+02    0.5518682092E-04    0.6051775349E+00    0.6494120626E-04    0.5130289151E-04    0.4236911197E-02
    0.5000000000E+02    0.6476835247E-04    0.6384707426E+00    0.8870634793E-04    0.8192831527E-04    0.4236322074E-02
    0.7000000000E+02    0.7524393470E-04    0.6538895931E+00    0.1141336243E-03    0.1121779898E-03    0.4233081264E-02
    0.9000000000E+02    0.8642293780E-04    0.6627825255E+00    0.1404823606E-03    0.1424190074E-03    0.4228808423E-02
    0.1100000000E+03    0.9813986903E-04    0.6685690603E+00    0.1674956907E-03    0.1728426120E-03    0.4223997373E-02
    0.1300000000E+03    0.1102995551E-03    0.6726348651E+00    0.1950821829E-03    0.2035695948E-03    0.4218847853E-02
    0.1500000000E+03    0.1228487954E-03    0.6756481387E+00    0.2232142966E-03    0.2346860881E-03    0.4213454403E-02
    0.1700000000E+03    0.1357582625E-03    0.6779707564E+00    0.2518921291E-03    0.2662590231E-03    0.4207866192E-02
    0.1900000000E+03    0.1490126941E-03    0.6798157580E+00    0.2811288593E-03    0.2983438713E-03    0.4202110175E-02
    0.2100000000E+03    0.1626055199E-03    0.6813167321E+00    0.3109443606E-03    0.3309889425E-03    0.4196201372E-02
    0.2300000000E+03    0.1765358086E-03    0.6825616959E+00    0.3413622168E-03    0.3642379636E-03    0.4190147913E-02
    0.2500000000E+03    0.1908064685E-03    0.6836110009E+00    0.3724082722E-03    0.3981317246E-03    0.4183953703E-02
    0.2700000000E+03    0.2054231498E-03    0.6845074105E+00    0.4041099189E-03    0.4327091840E-03    0.4177619926E-02
    0.2900000000E+03    0.2203935569E-03    0.6852820728E+00    0.4364957559E-03    0.4680082469E-03    0.4171145920E-02
    0.3100000000E+03    0.2357270103E-03    0.6859582126E+00    0.4695954431E-03    0.5040663347E-03    0.4164529719E-02
    0.3300000000E+03    0.2514341620E-03    0.6865535009E+00    0.5034396625E-03    0.5409208192E-03    0.4157768394E-02
    0.3500000000E+03    0.2675268122E-03    0.6870816210E+00    0.5380601375E-03    0.5786093659E-03    0.4150858267E-02
    0.3700000000E+03    0.2840177920E-03    0.6875533334E+00    0.5734896876E-03    0.6171702147E-03    0.4143795059E-02
    0.3900000000E+03    0.3009208917E-03    0.6879772167E+00    0.6097623037E-03    0.6566424191E-03    0.4136573979E-02
    0.4100000000E+03    0.3182508206E-03    0.6883601938E+00    0.6469132365E-03    0.6970660545E-03    0.4129189791E-02
    0.4300000000E+03    0.3360231898E-03    0.6887079130E+00    0.6849790936E-03    0.7384824075E-03    0.4121636844E-02
    0.4500000000E+03    0.3542545127E-03    0.6890250285E+00    0.7239979444E-03    0.7809341512E-03    0.4113909106E-02
    0.4700000000E+03    0.3729622177E-03    0.6893154100E+00    0.7640094308E-03    0.8244655123E-03    0.4106000169E-02
    0.4900000000E+03    0.3921646724E-03    0.6895823010E+00    0.8050548830E-03    0.8691224336E-03    0.4097903255E-02
    0.1000000000E+03    0.9222138567E-04    0.6659526273E+00    0.1539138509E-03    0.1575993566E-03    0.4226454060E-02
    0.3000000000E+03    0.2280142658E-03    0.6856312447E+00    0.4529544746E-03    0.4859400802E-03    0.4167855758E-02
    0.5000000000E+03    0.4019574354E-03    0.6897078106E+00    0.8259787537E-03    0.8918878452E-03    0.4093782088E-02
    0.7000000000E+03    0.6291856412E-03    0.6914696777E+00    0.1310615992E-02    0.1419398421E-02    0.3999497252E-02
    0.9000000000E+03    0.9368927353E-03    0.6924522602E+00    0.1966091098E-02    0.2133700196E-02    0.3875058359E-02
    0.1100000000E+04    0.1371745589E-02    0.6930788885E+00    0.2892684734E-02    0.3144943887E-02    0.3703798880E-02
    0.1300000000E+04    0.2017057432E-02    0.6935132868E+00    0.4269263598E-02    0.4649875102E-02    0.3456937953E-02
    0.1500000000E+04    0.3023706458E-02    0.6938321218E+00    0.6420518759E-02    0.7006675705E-02    0.3084875080E-02
    0.1700000000E+04    0.4638666834E-02    0.6940760770E+00    0.9881096319E-02    0.1080862344E-01    0.2514176116E-02
    0.1900000000E+04    0.7070093754E-02    0.6942687462E+00    0.1511382097E-01    0.1658237839E-01    0.1710406464E-02
    0.2100000000E+04    0.9878457241E-02    0.6944247540E+00    0.2120543579E-01    0.2335543598E-01    0.8843850628E-03
    0.2300000000E+04    0.1203481322E-01    0.6945536479E+00    0.2595636331E-01    0.2871702085E-01    0.3855082301E-03
    0.2500000000E+04    0.1337932564E-01    0.6946619253E+00    0.2899967332E-01    0.3223805460E-01    0.1975223816E-03
    0.2700000000E+04    0.1432037150E-01    0.6947541616E+00    0.3119536904E-01    0.3484751016E-01    0.1416461058E-03
    0.2900000000E+04    0.1510445354E-01    0.6948336719E+00    0.3306810187E-01    0.3711820663E-01    0.1264466487E-03
    0.3100000000E+04    0.1581899001E-01    0.6949029166E+00    0.3480440010E-01    0.3925439066E-01    0.1225937071E-03
    0.3300000000E+04    0.1649151393E-01    0.6949637607E+00    0.3646262269E-01    0.4131962539E-01    0.1218313413E-03
    0.3500000000E+04    0.1713115327E-01    0.6950176433E+00    0.3806157010E-01    0.4333386242E-01    0.1219022561E-03
    0.3700000000E+04    0.1774161073E-01    0.6950656925E+00    0.3960837192E-01    0.4530416621E-01    0.1221898988E-03
    0.3900000000E+04    0.1832495803E-01    0.6951088052E+00    0.4110667730E-01    0.4723378033E-01    0.1225252883E-03
    0.4100000000E+04    0.1888273287E-01    0.6951477038E+00    0.4255903113E-01    0.4912476717E-01    0.1228624125E-03
    0.4300000000E+04    0.1941625979E-01    0.6951829760E+00    0.4396756898E-01    0.5097878065E-01    0.1231893211E-03
    0.4500000000E+04    0.1992674750E-01    0.6952151052E+00    0.4533422578E-01    0.5279729678E-01    0.1235035230E-03
    0.4700000000E+04    0.2041532120E-01    0.6952444927E+00    0.4666080286E-01    0.5458168552E-01    0.1238051096E-03
    0.4900000000E+04    0.2088303576E-01    0.6952714742E+00    0.4794899305E-01    0.5633323585E-01    0.1240948204E-03
    0.1000000000E+04    0.1134363763E-02    0.6927967799E+00    0.2386780854E-02    0.2592624671E-02    0.3796708691E-02
    0.3000000000E+04    0.1546799103E-01    0.6948694492E+00    0.3394814795E-01    0.3819747701E-01    0.1238520556E-03
    0.5000000000E+04    0.2110938307E-01    0.6952841529E+00    0.4857919548E-01    0.5719708004E-01    0.1242354876E-03
    0.7000000000E+04    0.2475323410E-01    0.6954614090E+00    0.5951196392E-01    0.7301437024E-01    0.1265982239E-03
    0.9000000000E+04    0.2714402166E-01    0.6955595559E+00    0.6797189374E-01    0.8660703434E-01    0.1283884220E-03
    0.1100000000E+05    0.2870879956E-01    0.6956217843E+00    0.7468599057E-01    0.9855595219E-01    0.1298342599E-03
    0.1300000000E+05    0.2971047306E-01    0.6956646987E+00    0.8012033546E-01    0.1092447391E+00    0.1310493442E-03
    0.1500000000E+05    0.3031815735E-01    0.6956960426E+00    0.8458770200E-01    0.1189382863E+00    0.1320986669E-03
    0.1700000000E+05    0.3064456956E-01    0.6957199122E+00    0.8830596882E-01    0.1278262976E+00    0.1330229718E-03
    0.1900000000E+05    0.3076706342E-01    0.6957386766E+00    0.9143170240E-01    0.1360488228E+00    0.1338495239E-03
    0.2100000000E+05    0.3074003077E-01    0.6957538010E+00    0.9408040598E-01    0.1437119486E+00    0.1345974838E-03
    0.2300000000E+05    0.3060250748E-01    0.6957662400E+00    0.9633922775E-01    0.1508978260E+00    0.1352808417E-03
    0.2500000000E+05    0.3038299745E-01    0.6957766418E+00    0.9827521430E-01    0.1576712982E+00    0.1359101306E-03
    0.2700000000E+05    0.3010262202E-01    0.6957854623E+00    0.9994083163E-01    0.1640844090E+00    0.1364934827E-03
    0.2900000000E+05    0.2977722848E-01    0.6957930311E+00    0.1013777551E+00    0.1701795495E+00    0.1370373101E-03
    0.3100000000E+05    0.2941883329E-01    0.6957995924E+00    0.1026195310E+00    0.1759917027E+00    0.1375467597E-03
    0.3300000000E+05    0.2903662935E-01    0.6958053311E+00    0.1036934836E+00    0.1815500775E+00    0.1380260269E-03
    0.3500000000E+05    0.2863770130E-01    0.6958103896E+00    0.1046221066E+00    0.1868793186E+00    0.1384785773E-03
    0.3700000000E+05    0.2822754151E-01    0.6958148794E+00    0.1054240956E+00    0.1920004180E+00    0.1389073073E-03
    0.3900000000E+05    0.2781042734E-01    0.6958188889E+00    0.1061151240E+00    0.1969314099E+00    0.1393146629E-03
    0.4100000000E+05    0.2738970072E-01    0.6958224894E+00    0.1067084359E+00    0.2016879096E+00    0.1397027285E-03
    0.4300000000E+05    0.2696797744E-01    0.6958257387E+00    0.1072153030E+00    0.2062835340E+00    0.1400732956E-03
    0.4500000000E+05    0.2654730562E-01    0.6958286842E+00    0.1076453818E+00    0.2107302359E+00    0.1404279149E-03
    0.4700000000E+05    0.2612928681E-01    0.6958313653E+00    0.1080069948E+00    0.2150385701E+00    0.1407679384E-03
    0.4900000000E+05    0.2571516923E-01    0.6958338148E+00    0.1083073553E+00    0.2192179088E+00    0.1410945513E-03
    0.1000000000E+05    0.2801042828E-01    0.6955938106E+00    0.7151351446E-01    0.9275951394E-01    0.1291456980E-03
    0.3000000000E+05    0.2960152490E-01    0.6957964249E+00    0.1020212013E+00    0.1731190545E+00    0.1372960506E-03
    0.5000000000E+05    0.2550988504E-01    0.6958349616E+00    0.1084365616E+00    0.2212618541E+00    0.1412531605E-03
    0.7000000000E+05    0.2174751923E-01    0.6958506194E+00    0.1089737684E+00    0.2570004672E+00    0.1439208149E-03
    0.9000000000E+05    0.1868823567E-01    0.6958588325E+00    0.1073479348E+00    0.2856971178E+00    0.1459458125E-03
    0.1100000000E+06    0.1622656890E-01    0.6958637446E+00    0.1048135846E+00    0.3097024440E+00    0.1475830371E-03
    0.1300000000E+06    0.1422860867E-01    0.6958669246E+00    0.1019003030E+00    0.3303021237E+00    0.1489599148E-03
    0.1500000000E+06    0.1258693201E-01    0.6958690929E+00    0.9885998114E-01    0.3482943285E+00    0.1501495316E-03
    0.1700000000E+06    0.1122131839E-01    0.6958706245E+00    0.9582041484E-01    0.3642165817E+00    0.1511977864E-03
    0.1900000000E+06    0.1007239280E-01    0.6958717328E+00    0.9284815923E-01    0.3784518586E+00    0.1521354326E-03
    0.2100000000E+06    0.9095858977E-02    0.6958725479E+00    0.8997746668E-01    0.3912845018E+00    0.1529841037E-03
    0.2300000000E+06    0.8258242779E-02    0.6958731527E+00    0.8722477525E-01    0.4029323584E+00    0.1537596072E-03
    0.2500000000E+06    0.7533894873E-02    0.6958736030E+00    0.8459642465E-01    0.4135665103E+00    0.1544738514E-03
    0.2700000000E+06    0.6902894398E-02    0.6958739370E+00    0.8209295960E-01    0.4233240261E+00    0.1551360352E-03
    0.2900000000E+06    0.6349572520E-02    0.6958741820E+00    0.7971161429E-01    0.4323165519E+00    0.1557534145E-03
    0.3100000000E+06    0.5861460139E-02    0.6958743578E+00    0.7744778314E-01    0.4406362984E+00    0.1563318160E-03
    0.3300000000E+06    0.5428527715E-02    0.6958744791E+00    0.7529590626E-01    0.4483603326E+00    0.1568759904E-03
    0.3500000000E+06    0.5042628566E-02    0.6958745570E+00    0.7325000714E-01    0.4555537291E+00    0.1573898629E-03
    0.3700000000E+06    0.4697085779E-02    0.6958746000E+00    0.7130401920E-01    0.4622719315E+00    0.1578767150E-03
    0.3900000000E+06    0.4386381819E-02    0.6958746148E+00    0.6945198167E-01    0.4685625538E+00    0.1583393183E-03
    0.4100000000E+06    0.4105922578E-02    0.6958746066E+00    0.6768815386E-01    0.4744667757E+00    0.1587800353E-03
    0.4300000000E+06    0.3851856040E-02    0.6958745796E+00    0.6600707794E-01    0.4800204387E+00    0.1592008967E-03
    0.4500000000E+06    0.3620931500E-02    0.6958745370E+00    0.6440360917E-01    0.4852549171E+00    0.1596036606E-03
    0.4700000000E+06    0.3410389240E-02    0.6958744815E+00    0.6287292570E-01    0.4901978181E+00    0.1599898598E-03
    0.4900000000E+06    0.3217873304E-02    0.6958744155E+00    0.6141052571E-01    0.4948735503E+00    0.1603608385E-03
    0.1000000000E+06    0.1739154601E-01    0.6958615732E+00    0.1061518033E+00    0.2981903446E+00    0.1468031602E-03
    0.3000000000E+06    0.6098041819E-02    0.6958742775E+00    0.7856534216E-01    0.4365553924E+00    0.1560471687E-03
    0.5000000000E+06    0.3127731970E-02    0.6958743790E+00    0.6070361023E-01    0.4971180972E+00    0.1605409962E-03
    0.7000000000E+06    0.1905546569E-02    0.6958733951E+00    0.4928139873E-01    0.5321550991E+00    0.1635713930E-03
    0.9000000000E+06    0.1283047432E-02    0.6958722721E+00    0.4142429030E-01    0.5551461280E+00    0.1658720576E-03
    0.1100000000E+07    0.9227447178E-03    0.6958711864E+00    0.3570457470E-01    0.5714285261E+00    0.1677323023E-03
    0.1300000000E+07    0.6954549923E-03    0.6958701752E+00    0.3135979368E-01    0.5835758514E+00    0.1692968113E-03
    0.1500000000E+07    0.5428706194E-03    0.6958692416E+00    0.2794961894E-01    0.5929896914E+00    0.1706485854E-03
    0.1700000000E+07    0.4354882214E-03    0.6958683794E+00    0.2520290600E-01    0.6005008142E+00    0.1718397568E-03
    0.1900000000E+07    0.3570626638E-03    0.6958675810E+00    0.2294384610E-01    0.6066336442E+00    0.1729052586E-03
    0.2100000000E+07    0.2980453298E-03    0.6958668386E+00    0.2105355844E-01    0.6117358240E+00    0.1738696663E-03
    0.2300000000E+07    0.2525234318E-03    0.6958661455E+00    0.1944882020E-01    0.6160470289E+00    0.1747509380E-03
    0.2500000000E+07    0.2166761653E-03    0.6958654959E+00    0.1806965209E-01    0.6197379115E+00    0.1755626029E-03
    0.2700000000E+07    0.1879452161E-03    0.6958648849E+00    0.1687174502E-01    0.6229333029E+00    0.1763151119E-03
    0.2900000000E+07    0.1645652289E-03    0.6958643081E+00    0.1582166303E-01    0.6257266360E+00    0.1770167095E-03
    0.3100000000E+07    0.1452861171E-03    0.6958637621E+00    0.1489370473E-01    0.6281892388E+00    0.1776740156E-03
    0.3300000000E+07    0.1292025686E-03    0.6958632436E+00    0.1406779156E-01    0.6303765089E+00    0.1782924281E-03
    0.3500000000E+07    0.1156459240E-03    0.6958627501E+00    0.1332801147E-01    0.6323321275E+00    0.1788764072E-03
    0.3700000000E+07    0.1041136459E-03    0.6958622792E+00    0.1266159250E-01    0.6340910017E+00    0.1794296814E-03
    0.3900000000E+07    0.9422214951E-04    0.6958618290E+00    0.1205816542E-01    0.6356813627E+00    0.1799554001E-03
    0.4100000000E+07    0.8567455014E-04    0.6958613976E+00    0.1150922457E-01    0.6371262887E+00    0.1804562478E-03
    0.4300000000E+07    0.7823817142E-04    0.6958609836E+00    0.1100772760E-01    0.6384448295E+00    0.1809345319E-03
    0.4500000000E+07    0.7172857705E-04    0.6958605856E+00    0.1054779403E-01    0.6396528488E+00    0.1813922502E-03
    0.4700000000E+07    0.6599805067E-04    0.6958602024E+00    0.1012447537E-01    0.6407636631E+00    0.1818311445E-03
    0.4900000000E+07    0.6092716180E-04    0.6958598328E+00    0.9733577637E-02    0.6417885335E+00    0.1822527423E-03
    0.1000000000E+07    0.1080689852E-02    0.6958717209E+00    0.3835512932E-01    0.5639265603E+00    0.1668461783E-03
    0.3000000000E+07    0.1544762299E-03    0.6958640315E+00    0.1534378551E-01    0.6269954999E+00    0.1773505367E-03
    0.5000000000E+07    0.5860791980E-04    0.6958596529E+00    0.9549147620E-02    0.6422717925E+00    0.1824574823E-03
    0.7000000000E+07    0.3057553515E-04    0.6958565849E+00    0.6919389729E-02    0.6491433125E+00    0.1859013921E-03
    0.9000000000E+07    0.1872879294E-04    0.6958542131E+00    0.5420048085E-02    0.6530460574E+00    0.1885160119E-03
    0.1100000000E+08    0.1264181386E-04    0.6958522745E+00    0.4451998944E-02    0.6555606716E+00    0.1906301179E-03
    0.1300000000E+08    0.9107538667E-05    0.6958506321E+00    0.3775716986E-02    0.6573152169E+00    0.1924081337E-03
    0.1500000000E+08    0.6875570164E-05    0.6958492055E+00    0.3276761608E-02    0.6586086821E+00    0.1939443845E-03
    0.1700000000E+08    0.5376769660E-05    0.6958479433E+00    0.2893581462E-02    0.6596014948E+00    0.1952981161E-03
    0.1900000000E+08    0.4321990342E-05    0.6958468105E+00    0.2590136763E-02    0.6603874326E+00    0.1965090283E-03
    0.2100000000E+08    0.3551716236E-05    0.6958457825E+00    0.2343928306E-02    0.6610249687E+00    0.1976050502E-03
    0.2300000000E+08    0.2972108935E-05    0.6958448410E+00    0.2140187090E-02    0.6615524509E+00    0.1986065905E-03
    0.2500000000E+08    0.2525046791E-05    0.6958439722E+00    0.1968818575E-02    0.6619960709E+00    0.1995290246E-03
    0.2700000000E+08    0.2172974671E-05    0.6958431653E+00    0.1822689822E-02    0.6623743261E+00    0.2003842299E-03
