  Pressure (Pa) 22mC5-500 (mol/kg) 24mC5-500 (mol/kg) 2mC6-500 (mol/kg) 3mC6-500 (mol/kg) C7-500 (mol/kg)
    0.1000000000E+01    0.1280987753E-04    0.1513995321E+00    0.8242652067E-05    0.1600192029E-05    0.4191509402E-02
    0.3000000000E+01    0.2495724825E-04    0.3164738571E+00    0.1525609141E-04    0.4090894516E-05    0.4230253320E-02
    0.5000000000E+01    0.3049702455E-04    0.4047333912E+00    0.1820661354E-04    0.6380127343E-05    0.4249723700E-02
    0.7000000000E+01    0.3357764777E-04    0.4596757494E+00    0.1991318064E-04    0.8571635741E-05    0.4261826698E-02
    0.9000000000E+01    0.3556079472E-04    0.4971713743E+00    0.2118767279E-04    0.1070046747E-04    0.4270124111E-02
    0.1100000000E+02    0.3699963321E-04    0.5243920427E+00    0.2231385349E-04    0.1278417653E-04    0.4276175728E-02
    0.1300000000E+02    0.3815079858E-04    0.5450524025E+00    0.2340165934E-04    0.1483321895E-04    0.4280783610E-02
    0.1500000000E+02    0.3914461006E-04    0.5612690676E+00    0.2449547644E-04    0.1685448900E-04    0.4284404907E-02
    0.1700000000E+02    0.4005163347E-04    0.5743365170E+00    0.2561274134E-04    0.1885285020E-04    0.4287320182E-02
    0.1900000000E+02    0.4091189367E-04    0.5850909346E+00    0.2675923513E-04    0.2083190361E-04    0.4289711590E-02
    0.2100000000E+02    0.4174885475E-04    0.5940965375E+00    0.2793560966E-04    0.2279441455E-04    0.4291702779E-02
    0.2300000000E+02    0.4257657695E-04    0.6017478328E+00    0.2914031705E-04    0.2474256796E-04    0.4293380761E-02
    0.2500000000E+02    0.4340358309E-04    0.6083289643E+00    0.3037096504E-04    0.2667813026E-04    0.4294808636E-02
    0.2700000000E+02    0.4423504070E-04    0.6140497829E+00    0.3162494934E-04    0.2860255661E-04    0.4296033330E-02
    0.2900000000E+02    0.4507403882E-04    0.6190686379E+00    0.3289974250E-04    0.3051706487E-04    0.4297090504E-02
    0.3100000000E+02    0.4592235759E-04    0.6235072635E+00    0.3419301623E-04    0.3242268799E-04    0.4298007768E-02
    0.3300000000E+02    0.4678094391E-04    0.6274607834E+00    0.3550268266E-04    0.3432031227E-04    0.4298806851E-02
    0.3500000000E+02    0.4765021143E-04    0.6310046057E+00    0.3682689667E-04    0.3621070581E-04    0.4299505103E-02
    0.3700000000E+02    0.4853023301E-04    0.6341992786E+00    0.3816404070E-04    0.3809454021E-04    0.4300116553E-02
    0.3900000000E+02    0.4942086581E-04    0.6370939795E+00    0.3951270253E-04    0.3997240722E-04    0.4300652677E-02
    0.4100000000E+02    0.5032183349E-04    0.6397290642E+00    0.4087165143E-04    0.4184483195E-04    0.4301122959E-02
    0.4300000000E+02    0.5123278043E-04    0.6421379604E+00    0.4223981523E-04    0.4371228320E-04    0.4301535310E-02
    0.4500000000E+02    0.5215330782E-04    0.6443485929E+00    0.4361625938E-04    0.4557518194E-04    0.4301896383E-02
    0.4700000000E+02    0.5308299745E-04    0.6463844717E+00    0.4500016833E-04    0.4743390807E-04    0.4302211819E-02
    0.4900000000E+02    0.5402142744E-04    0.6482655306E+00    0.4639082932E-04    0.4928880607E-04    0.4302486435E-02
    0.1000000000E+02    0.3632803697E-04    0.5117826846E+00    0.2176016099E-04    0.1174719884E-04    0.4273369425E-02
    0.3000000000E+02    0.4549695859E-04    0.6213540033E+00    0.3354420557E-04    0.3147092862E-04    0.4297565149E-02
    0.5000000000E+02    0.5449378981E-04    0.6491534185E+00    0.4708849371E-04    0.5021491864E-04    0.4302609751E-02
    0.7000000000E+02    0.6430819596E-04    0.6618444262E+00    0.6128047029E-04    0.6859970732E-04    0.4303686723E-02
    0.9000000000E+02    0.7463902470E-04    0.6691119096E+00    0.7576125587E-04    0.8683916257E-04    0.4303191968E-02
    0.1100000000E+03    0.8532154056E-04    0.6738203819E+00    0.9042305392E-04    0.1050424657E-03    0.4301883179E-02
    0.1300000000E+03    0.9627055488E-04    0.6771190865E+00    0.1052319460E-03    0.1232762870E-03    0.4300082183E-02
    0.1500000000E+03    0.1074401116E-03    0.6795587077E+00    0.1201797183E-03    0.1415860422E-03    0.4297950964E-02
    0.1700000000E+03    0.1188046037E-03    0.6814361611E+00    0.1352681018E-03    0.1600051127E-03    0.4295580633E-02
    0.1900000000E+03    0.1303496623E-03    0.6829256714E+00    0.1505028774E-03    0.1785594770E-03    0.4293026593E-02
    0.2100000000E+03    0.1420674811E-03    0.6841362113E+00    0.1658914656E-03    0.1972702817E-03    0.4290324523E-02
    0.2300000000E+03    0.1539542732E-03    0.6851394346E+00    0.1814418869E-03    0.2161553796E-03    0.4287498409E-02
    0.2500000000E+03    0.1660088183E-03    0.6859843916E+00    0.1971623054E-03    0.2352303050E-03    0.4284564913E-02
    0.2700000000E+03    0.1782315958E-03    0.6867057904E+00    0.2130608346E-03    0.2545089201E-03    0.4281535905E-02
    0.2900000000E+03    0.1906242504E-03    0.6873288819E+00    0.2291454642E-03    0.2740038606E-03    0.4278419988E-02
    0.3100000000E+03    0.2031892522E-03    0.6878724756E+00    0.2454240454E-03    0.2937268533E-03    0.4275223481E-02
    0.3300000000E+03    0.2159296760E-03    0.6883508702E+00    0.2619043024E-03    0.3136889481E-03    0.4271951049E-02
    0.3500000000E+03    0.2288490542E-03    0.6887751295E+00    0.2785938554E-03    0.3339006923E-03    0.4268606138E-02
    0.3700000000E+03    0.2419512789E-03    0.6891539481E+00    0.2955002482E-03    0.3543722639E-03    0.4265191274E-02
    0.3900000000E+03    0.2552405343E-03    0.6894942533E+00    0.3126309767E-03    0.3751135764E-03    0.4261708275E-02
    0.4100000000E+03    0.2687212513E-03    0.6898016326E+00    0.3299935160E-03    0.3961343620E-03    0.4258158403E-02
    0.4300000000E+03    0.2823980761E-03    0.6900806426E+00    0.3475953464E-03    0.4174442393E-03    0.4254542476E-02
    0.4500000000E+03    0.2962758494E-03    0.6903350362E+00    0.3654439770E-03    0.4390527695E-03    0.4250860957E-02
    0.4700000000E+03    0.3103595928E-03    0.6905679323E+00    0.3835469681E-03    0.4609695030E-03    0.4247114011E-02
    0.4900000000E+03    0.3246545000E-03    0.6907819444E+00    0.4019119513E-03    0.4832040197E-03    0.4243301556E-02
    0.1000000000E+03    0.7994289322E-04    0.6716933951E+00    0.8307255862E-04    0.9594050847E-04    0.4302613748E-02
    0.3000000000E+03    0.1968850279E-03    0.6876096340E+00    0.2372600253E-03    0.2838361462E-03    0.4276831484E-02
    0.5000000000E+03    0.3318828090E-03    0.6908825721E+00    0.4111950991E-03    0.4944434571E-03    0.4241370681E-02
    0.7000000000E+03    0.4889497660E-03    0.6922940948E+00    0.6125853479E-03    0.7383607315E-03    0.4199153759E-02
    0.9000000000E+03    0.6745379995E-03    0.6930803196E+00    0.8502175980E-03    0.1026429123E-02    0.4149191184E-02
    0.1100000000E+04    0.8973899185E-03    0.6935812690E+00    0.1135505170E-02    0.1372610079E-02    0.4089530156E-02
    0.1300000000E+04    0.1169642630E-02    0.6939282825E+00    0.1484145755E-02    0.1796094916E-02    0.4017300501E-02
    0.1500000000E+04    0.1508602882E-02    0.6941828113E+00    0.1918475569E-02    0.2324209722E-02    0.3928383855E-02
    0.1700000000E+04    0.1939565451E-02    0.6943774445E+00    0.2471141172E-02    0.2996935983E-02    0.3816814840E-02
    0.1900000000E+04    0.2500302995E-02    0.6945310725E+00    0.3190939240E-02    0.3874112505E-02    0.3673833587E-02
    0.2100000000E+04    0.3248005903E-02    0.6946553995E+00    0.4151868269E-02    0.5046637989E-02    0.3486494920E-02
    0.2300000000E+04    0.4268764103E-02    0.6947580638E+00    0.5465589572E-02    0.6652008045E-02    0.3235999226E-02
    0.2500000000E+04    0.5685052673E-02    0.6948442622E+00    0.7291607728E-02    0.8887413836E-02    0.2897191031E-02
    0.2700000000E+04    0.7638979359E-02    0.6949176528E+00    0.9816716169E-02    0.1198583514E-01    0.2444933927E-02
    0.2900000000E+04    0.1019098201E-01    0.6949808856E+00    0.1312567145E-01    0.1605926545E-01    0.1880648175E-02
    0.3100000000E+04    0.1310239243E-01    0.6950359269E+00    0.1691978816E-01    0.2075295058E-01    0.1279798142E-02
    0.3300000000E+04    0.1579769703E-01    0.6950842666E+00    0.2046141449E-01    0.2516919228E-01    0.7831915103E-03
    0.3500000000E+04    0.1784720296E-01    0.6951270544E+00    0.2319117699E-01    0.2861690091E-01    0.4730567545E-03
    0.3700000000E+04    0.1928515118E-01    0.6951651911E+00    0.2514465958E-01    0.3112949121E-01    0.3172248495E-03
    0.3900000000E+04    0.2034351322E-01    0.6951993930E+00    0.2661590757E-01    0.3306098421E-01    0.2482085741E-03
    0.4100000000E+04    0.2120393677E-01    0.6952302367E+00    0.2783736892E-01    0.3469391017E-01    0.2194954181E-03
    0.4300000000E+04    0.2196347299E-01    0.6952581912E+00    0.2893373835E-01    0.3618045498E-01    0.2079721922E-03
    0.4500000000E+04    0.2266722788E-01    0.6952836424E+00    0.2996304433E-01    0.3759155200E-01    0.2035401508E-03
    0.4700000000E+04    0.2333527382E-01    0.6953069104E+00    0.3095104356E-01    0.3895862702E-01    0.2019988547E-03
    0.4900000000E+04    0.2397660886E-01    0.6953282630E+00    0.3190916925E-01    0.4029551198E-01    0.2016299391E-03
    0.1000000000E+04    0.7806438913E-03    0.6933557908E+00    0.9860466090E-03    0.1191206915E-02    0.4120728209E-02
    0.3000000000E+04    0.1163332511E-01    0.6950093277E+00    0.1500228706E-01    0.1837719511E-01    0.1576437754E-02
    0.5000000000E+04    0.2428868279E-01    0.6953382930E+00    0.3237880204E-01    0.4095473911E-01    0.2016460957E-03
    0.7000000000E+04    0.2959369433E-01    0.6954781972E+00    0.4075284762E-01    0.5317273369E-01    0.2050788425E-03
    0.9000000000E+04    0.3351922866E-01    0.6955552756E+00    0.4759179782E-01    0.6391613584E-01    0.2079749084E-03
    0.1100000000E+05    0.3645800280E-01    0.6956038988E+00    0.5328413485E-01    0.7352396282E-01    0.2103145597E-03
    0.1300000000E+05    0.3867144676E-01    0.6956372585E+00    0.5809478049E-01    0.8223162342E-01    0.2122811288E-03
    0.1500000000E+05    0.4034034406E-01    0.6956614962E+00    0.6221189148E-01    0.9020978226E-01    0.2139796127E-03
    0.1700000000E+05    0.4159316002E-01    0.6956798557E+00    0.6577288335E-01    0.9758556745E-01    0.2154758626E-03
    0.1900000000E+05    0.4252331936E-01    0.6956942101E+00    0.6888053284E-01    0.1044558946E+00    0.2168139573E-03
    0.2100000000E+05    0.4320012832E-01    0.6957057158E+00    0.7161330747E-01    0.1108961396E+00    0.2180248813E-03
    0.2300000000E+05    0.4367589546E-01    0.6957151252E+00    0.7403220069E-01    0.1169659580E+00    0.2191312617E-03
    0.2500000000E+05    0.4399070008E-01    0.6957229483E+00    0.7618537854E-01    0.1227132947E+00    0.2201501364E-03
    0.2700000000E+05    0.4417566147E-01    0.6957295432E+00    0.7811141432E-01    0.1281772116E+00    0.2210946615E-03
    0.2900000000E+05    0.4425522737E-01    0.6957351683E+00    0.7984158826E-01    0.1333899236E+00    0.2219752115E-03
    0.3100000000E+05    0.4424880589E-01    0.6957400150E+00    0.8140155319E-01    0.1383782905E+00    0.2228001147E-03
    0.3300000000E+05    0.4417194866E-01    0.6957442278E+00    0.8281256162E-01    0.1431649299E+00    0.2235761600E-03
    0.3500000000E+05    0.4403722158E-01    0.6957479177E+00    0.8409238346E-01    0.1477690586E+00    0.2243089556E-03
    0.3700000000E+05    0.4385485449E-01    0.6957511717E+00    0.8525600194E-01    0.1522071383E+00    0.2250031892E-03
    0.3900000000E+05    0.4363323169E-01    0.6957540585E+00    0.8631614796E-01    0.1564933761E+00    0.2256628193E-03
    0.4100000000E+05    0.4337926677E-01    0.6957566334E+00    0.8728371513E-01    0.1606401181E+00    0.2262912199E-03
    0.4300000000E+05    0.4309869175E-01    0.6957589412E+00    0.8816808567E-01    0.1646581614E+00    0.2268912905E-03
    0.4500000000E+05    0.4279628241E-01    0.6957610187E+00    0.8897738859E-01    0.1685570037E+00    0.2274655414E-03
    0.4700000000E+05    0.4247603535E-01    0.6957628962E+00    0.8971870635E-01    0.1723450453E+00    0.2280161607E-03
    0.4900000000E+05    0.4214130837E-01    0.6957645992E+00    0.9039824143E-01    0.1760297533E+00    0.2285450673E-03
    0.1000000000E+05    0.3509329282E-01    0.6955820717E+00    0.5056253625E-01    0.6884544231E-01    0.2092002730E-03
    0.3000000000E+05    0.4426171416E-01    0.6957376790E+00    0.8064142746E-01    0.1359106481E+00    0.2223941634E-03
    0.5000000000E+05    0.4196941757E-01    0.6957653920E+00    0.9071657197E-01    0.1778354693E+00    0.2288019151E-03
    0.7000000000E+05    0.3826329111E-01    0.6957758258E+00    0.9487384477E-01    0.2098257438E+00    0.2331219538E-03
    0.9000000000E+05    0.3463653031E-01    0.6957808113E+00    0.9643342656E-01    0.2361453522E+00    0.2364013644E-03
    0.1100000000E+06    0.3137789496E-01    0.6957834615E+00    0.9663468985E-01    0.2586499812E+00    0.2390528344E-03
    0.1300000000E+06    0.2851506190E-01    0.6957849307E+00    0.9605771932E-01    0.2783463853E+00    0.2412826975E-03
    0.1500000000E+06    0.2601207297E-01    0.6957857373E+00    0.9501282793E-01    0.2958579246E+00    0.2432093029E-03
    0.1700000000E+06    0.2382082798E-01    0.6957861454E+00    0.9368097608E-01    0.3116055631E+00    0.2449069777E-03
    0.1900000000E+06    0.2189555260E-01    0.6957863016E+00    0.9217406927E-01    0.3258913000E+00    0.2464255239E-03
    0.2100000000E+06    0.2019644646E-01    0.6957862927E+00    0.9056420582E-01    0.3389415350E+00    0.2477999755E-03
    0.2300000000E+06    0.1868998530E-01    0.6957861729E+00    0.8889919173E-01    0.3509317159E+00    0.2490559317E-03
    0.2500000000E+06    0.1734823884E-01    0.6957859773E+00    0.8721135121E-01    0.3620013509E+00    0.2502126780E-03
    0.2700000000E+06    0.1614798704E-01    0.6957857293E+00    0.8552280386E-01    0.3722636659E+00    0.2512851112E-03
    0.2900000000E+06    0.1506988861E-01    0.6957854451E+00    0.8384876280E-01    0.3818120979E+00    0.2522849827E-03
    0.3100000000E+06    0.1409777098E-01    0.6957851360E+00    0.8219966825E-01    0.3907248248E+00    0.2532217285E-03
    0.3300000000E+06    0.1321804708E-01    0.6957848100E+00    0.8058260750E-01    0.3990680203E+00    0.2541030422E-03
    0.3500000000E+06    0.1241924399E-01    0.6957844729E+00    0.7900228233E-01    0.4068982554E+00    0.2549352811E-03
    0.3700000000E+06    0.1169162413E-01    0.6957841290E+00    0.7746168128E-01    0.4142643081E+00    0.2557237594E-03
    0.3900000000E+06    0.1102688096E-01    0.6957837814E+00    0.7596255451E-01    0.4212085530E+00    0.2564729657E-03
    0.4100000000E+06    0.1041789409E-01    0.6957834324E+00    0.7450575400E-01    0.4277680464E+00    0.2571867264E-03
    0.4300000000E+06    0.9858531313E-02    0.6957830839E+00    0.7309147998E-01    0.4339753856E+00    0.2578683300E-03
    0.4500000000E+06    0.9343487907E-02    0.6957827370E+00    0.7171946128E-01    0.4398593968E+00    0.2585206239E-03
    0.4700000000E+06    0.8868155553E-02    0.6957823927E+00    0.7038908839E-01    0.4454456944E+00    0.2591460904E-03
    0.4900000000E+06    0.8428514826E-02    0.6957820518E+00    0.6909951205E-01    0.4507571373E+00    0.2597469067E-03
    0.1000000000E+06    0.3295687411E-01    0.6957823336E+00    0.9665865715E-01    0.2477993639E+00    0.2377898269E-03
    0.3000000000E+06    0.1457148596E-01    0.6957852931E+00    0.8302058876E-01    0.3863435388E+00    0.2527607300E-03
    0.5000000000E+06    0.8220961649E-02    0.6957818827E+00    0.6846971018E-01    0.4533162725E+00    0.2600386799E-03
    0.7000000000E+06    0.5285714045E-02    0.6957787437E+00    0.5773151413E-01    0.4940761394E+00    0.2649465365E-03
    0.9000000000E+06    0.3685490899E-02    0.6957760610E+00    0.4975221774E-01    0.5216832855E+00    0.2686725535E-03
    0.1100000000E+07    0.2716438170E-02    0.6957737503E+00    0.4364875982E-01    0.5416675471E+00    0.2716852870E-03
    0.1300000000E+07    0.2084993824E-02    0.6957717289E+00    0.3884843339E-01    0.5568185939E+00    0.2742190614E-03
    0.1500000000E+07    0.1650609007E-02    0.6957699347E+00    0.3498194478E-01    0.5687063278E+00    0.2764083006E-03
    0.1700000000E+07    0.1339013193E-02    0.6957683224E+00    0.3180462488E-01    0.5782847972E+00    0.2783374358E-03
    0.1900000000E+07    0.1107922277E-02    0.6957668585E+00    0.2914922399E-01    0.5861682206E+00    0.2800630431E-03
    0.2100000000E+07    0.9318128190E-03    0.6957655179E+00    0.2689800656E-01    0.5927703114E+00    0.2816249238E-03
    0.2300000000E+07    0.7945334167E-03    0.6957642812E+00    0.2496588952E-01    0.5983800854E+00    0.2830521620E-03
    0.2500000000E+07    0.6854570503E-03    0.6957631333E+00    0.2328994924E-01    0.6032056248E+00    0.2843666689E-03
    0.2700000000E+07    0.5973586830E-03    0.6957620620E+00    0.2182269500E-01    0.6074005908E+00    0.2855853706E-03
    0.2900000000E+07    0.5251870403E-03    0.6957610576E+00    0.2052763607E-01    0.6110809405E+00    0.2867216190E-03
    0.3100000000E+07    0.4653243978E-03    0.6957601122E+00    0.1937628535E-01    0.6143358325E+00    0.2877861357E-03
    0.3300000000E+07    0.4151246516E-03    0.6957592189E+00    0.1834608758E-01    0.6172349502E+00    0.2887876627E-03
    0.3500000000E+07    0.3726161904E-03    0.6957583723E+00    0.1741895696E-01    0.6198335469E+00    0.2897334235E-03
    0.3700000000E+07    0.3363056295E-03    0.6957575676E+00    0.1658022564E-01    0.6221759983E+00    0.2906294567E-03
    0.3900000000E+07    0.3050450858E-03    0.6957568008E+00    0.1581787491E-01    0.6242983546E+00    0.2914808628E-03
    0.4100000000E+07    0.2779405244E-03    0.6957560683E+00    0.1512196445E-01    0.6262302059E+00    0.2922919895E-03
    0.4300000000E+07    0.2542872652E-03    0.6957553672E+00    0.1448420268E-01    0.6279960670E+00    0.2930665737E-03
    0.4500000000E+07    0.2335238275E-03    0.6957546948E+00    0.1389761927E-01    0.6296164214E+00    0.2938078510E-03
    0.4700000000E+07    0.2151983847E-03    0.6957540489E+00    0.1335631255E-01    0.6311085167E+00    0.2945186422E-03
    0.4900000000E+07    0.1989440411E-03    0.6957534272E+00    0.1285525267E-01    0.6324869796E+00    0.2952014211E-03
    0.1000000000E+07    0.3145667681E-02    0.6957748648E+00    0.4650776577E-01    0.5324144550E+00    0.2702501779E-03
    0.3000000000E+07    0.4939011544E-03    0.6957605780E+00    0.1993552638E-01    0.6127568250E+00    0.2872622572E-03
    0.5000000000E+07    0.1914974592E-03    0.6957531250E+00    0.1261844301E-01    0.6331375733E+00    0.2955329981E-03
    0.7000000000E+07    0.1007976476E-03    0.6957480084E+00    0.9213569434E-02    0.6424307023E+00    0.3011104036E-03
    0.9000000000E+07    0.6200656486E-04    0.6957440906E+00    0.7248582391E-02    0.6477443751E+00    0.3053447562E-03
    0.1100000000E+08    0.4193777322E-04    0.6957409067E+00    0.5970692756E-02    0.6511819145E+00    0.3087685193E-03
    0.1300000000E+08    0.3023405268E-04    0.6957382198E+00    0.5073658499E-02    0.6535869062E+00    0.3116479807E-03
    0.1500000000E+08    0.2282099798E-04    0.6957358925E+00    0.4409562060E-02    0.6553633247E+00    0.3141359024E-03
    0.1700000000E+08    0.1783274488E-04    0.6957338378E+00    0.3898247112E-02    0.6567288249E+00    0.3163282336E-03
    0.1900000000E+08    0.1431715730E-04    0.6957319971E+00    0.3492520729E-02    0.6578110254E+00    0.3182892691E-03
    0.2100000000E+08    0.1174720504E-04    0.6957303291E+00    0.3162796073E-02    0.6586896873E+00    0.3200642401E-03
    0.2300000000E+08    0.9812044525E-05    0.6957288032E+00    0.2889586468E-02    0.6594172176E+00    0.3216861987E-03
    0.2500000000E+08    0.8318746130E-05    0.6957273966E+00    0.2659536549E-02    0.6600294655E+00    0.3231800456E-03
    0.2700000000E+08    0.7142439724E-05    0.6957260916E+00    0.2463187909E-02    0.6605517804E+00    0.3245650160E-03
