  Pressure (Pa) 22mC5-500 (mol/kg) 24mC5-500 (mol/kg) 2mC6-500 (mol/kg) 3mC6-500 (mol/kg) C7-500 (mol/kg)
    0.1000000000E+01    0.1362178645E-04    0.1266285595E+00    0.2074164494E-04    0.8980011143E-06    0.4169159060E-02
    0.3000000000E+01    0.2815605475E-04    0.2785073657E+00    0.4093169234E-04    0.2259272883E-05    0.4197316776E-02
    0.5000000000E+01    0.3554110074E-04    0.3664030738E+00    0.5041790330E-04    0.3502818642E-05    0.4210035895E-02
    0.7000000000E+01    0.3989541394E-04    0.4237148233E+00    0.5597328302E-04    0.4690086354E-05    0.4217840743E-02
    0.9000000000E+01    0.4276065916E-04    0.4640407875E+00    0.5989771495E-04    0.5841617529E-05    0.4223133966E-02
    0.1100000000E+02    0.4482344210E-04    0.4939581255E+00    0.6311122101E-04    0.6967640864E-05    0.4226933300E-02
    0.1300000000E+02    0.4642631667E-04    0.5170363703E+00    0.6602045681E-04    0.8074223784E-05    0.4229763304E-02
    0.1500000000E+02    0.4775449835E-04    0.5353802569E+00    0.6881658428E-04    0.9165353886E-05    0.4231925718E-02
    0.1700000000E+02    0.4891428445E-04    0.5503111962E+00    0.7159239772E-04    0.1024383667E-04    0.4233607531E-02
    0.1900000000E+02    0.4996951754E-04    0.5627006776E+00    0.7439304295E-04    0.1131174469E-04    0.4234931198E-02
    0.2100000000E+02    0.5095991455E-04    0.5731467420E+00    0.7723962245E-04    0.1237066643E-04    0.4235980446E-02
    0.2300000000E+02    0.5191086695E-04    0.5820734334E+00    0.8014080137E-04    0.1342185484E-04    0.4236814549E-02
    0.2500000000E+02    0.5283895010E-04    0.5897897896E+00    0.8309875701E-04    0.1446632136E-04    0.4237476695E-02
    0.2700000000E+02    0.5375515148E-04    0.5965263561E+00    0.8611232416E-04    0.1550489814E-04    0.4237999127E-02
    0.2900000000E+02    0.5466682911E-04    0.6024586194E+00    0.8917869308E-04    0.1653828081E-04    0.4238406414E-02
    0.3100000000E+02    0.5557893537E-04    0.6077225175E+00    0.9229433600E-04    0.1756705879E-04    0.4238717626E-02
    0.3300000000E+02    0.5649480111E-04    0.6124249873E+00    0.9545551209E-04    0.1859173739E-04    0.4238947790E-02
    0.3500000000E+02    0.5741664924E-04    0.6166513071E+00    0.9865853780E-04    0.1961275418E-04    0.4239108919E-02
    0.3700000000E+02    0.5834593738E-04    0.6204703157E+00    0.1018999251E-03    0.2063049150E-04    0.4239210731E-02
    0.3900000000E+02    0.5928359024E-04    0.6239381917E+00    0.1051764452E-03    0.2164528608E-04    0.4239261177E-02
    0.4100000000E+02    0.6023015947E-04    0.6271012362E+00    0.1084851502E-03    0.2265743655E-04    0.4239266827E-02
    0.4300000000E+02    0.6118593493E-04    0.6299979522E+00    0.1118233714E-03    0.2366720946E-04    0.4239233155E-02
    0.4500000000E+02    0.6215102287E-04    0.6326606201E+00    0.1151887061E-03    0.2467484408E-04    0.4239164767E-02
    0.4700000000E+02    0.6312540146E-04    0.6351165059E+00    0.1185789981E-03    0.2568055631E-04    0.4239065558E-02
    0.4900000000E+02    0.6410896039E-04    0.6373887988E+00    0.1219923157E-03    0.2668454191E-04    0.4238938853E-02
    0.1000000000E+02    0.4386586783E-04    0.4800312649E+00    0.6156072412E-04    0.6407374148E-05    0.4225180427E-02
    0.3000000000E+02    0.5512258952E-04    0.6051668493E+00    0.9073058809E-04    0.1705321205E-04    0.4238573009E-02
    0.5000000000E+02    0.6460413100E-04    0.6384624136E+00    0.1237070615E-03    0.2718594354E-04    0.4238866096E-02
    0.7000000000E+02    0.7493502012E-04    0.6538828289E+00    0.1588785528E-03    0.3715943562E-04    0.4236484891E-02
    0.9000000000E+02    0.8592399232E-04    0.6627768340E+00    0.1952060136E-03    0.4709544699E-04    0.4233068904E-02
    0.1100000000E+03    0.9740424602E-04    0.6685641441E+00    0.2323258031E-03    0.5705664883E-04    0.4229122070E-02
    0.1300000000E+03    0.1092788883E-03    0.6726305342E+00    0.2701047091E-03    0.6708193215E-04    0.4224850459E-02
    0.1500000000E+03    0.1214926960E-03    0.6756442651E+00    0.3084980875E-03    0.7719841163E-04    0.4220353134E-02
    0.1700000000E+03    0.1340140667E-03    0.6779672501E+00    0.3474992476E-03    0.8742661221E-04    0.4215682807E-02
    0.1900000000E+03    0.1468252352E-03    0.6798125534E+00    0.3871191411E-03    0.9778306582E-04    0.4210869417E-02
    0.2100000000E+03    0.1599169104E-03    0.6813137796E+00    0.4273774493E-03    0.1082817512E-03    0.4205930627E-02
    0.2300000000E+03    0.1732852268E-03    0.6825589576E+00    0.4682984126E-03    0.1189349549E-03    0.4200877012E-02
    0.2500000000E+03    0.1869299422E-03    0.6836084466E+00    0.5099087941E-03    0.1297538177E-03    0.4195714804E-02
    0.2700000000E+03    0.2008533347E-03    0.6845050163E+00    0.5522368645E-03    0.1407486988E-03    0.4190447452E-02
    0.2900000000E+03    0.2150595079E-03    0.6852798189E+00    0.5953119004E-03    0.1519294284E-03    0.4185076543E-02
    0.3100000000E+03    0.2295539414E-03    0.6859560830E+00    0.6391639499E-03    0.1633054895E-03    0.4179602374E-02
    0.3300000000E+03    0.2443431956E-03    0.6865514821E+00    0.6838237412E-03    0.1748861533E-03    0.4174024312E-02
    0.3500000000E+03    0.2594347141E-03    0.6870797016E+00    0.7293226695E-03    0.1866805825E-03    0.4168341034E-02
    0.3700000000E+03    0.2748366913E-03    0.6875515037E+00    0.7756928277E-03    0.1986979132E-03    0.4162550685E-02
    0.3900000000E+03    0.2905579840E-03    0.6879754684E+00    0.8229670611E-03    0.2109473211E-03    0.4156650987E-02
    0.4100000000E+03    0.3066080531E-03    0.6883585196E+00    0.8711790360E-03    0.2234380770E-03    0.4150639313E-02
    0.4300000000E+03    0.3229969261E-03    0.6887063067E+00    0.9203633163E-03    0.2361795934E-03    0.4144512740E-02
    0.4500000000E+03    0.3397351759E-03    0.6890234846E+00    0.9705554444E-03    0.2491814665E-03    0.4138268082E-02
    0.4700000000E+03    0.3568339104E-03    0.6893139236E+00    0.1021792026E-02    0.2624535132E-03    0.4131901919E-02
    0.4900000000E+03    0.3743047710E-03    0.6895808678E+00    0.1074110815E-02    0.2760058049E-03    0.4125410609E-02
    0.1000000000E+03    0.9161003178E-04    0.6659473524E+00    0.2136782290E-03    0.5207010250E-04    0.4231145276E-02
    0.3000000000E+03    0.2222703047E-03    0.6856290549E+00    0.6171388934E-03    0.1575924595E-03    0.4182352387E-02
    0.5000000000E+03    0.3831835334E-03    0.6897064025E+00    0.1100688172E-02    0.2828902677E-03    0.4122116827E-02
    0.7000000000E+03    0.5836272079E-03    0.6914686317E+00    0.1699497123E-02    0.4380501443E-03    0.4048604781E-02
    0.9000000000E+03    0.8397320385E-03    0.6924514244E+00    0.2463368633E-02    0.6361715483E-03    0.3956656689E-02
    0.1100000000E+04    0.1176664767E-02    0.6930781907E+00    0.3468231562E-02    0.8971148353E-03    0.3838278671E-02
    0.1300000000E+04    0.1634894605E-02    0.6935126867E+00    0.4835726203E-02    0.1252709061E-02    0.3680904349E-02
    0.1500000000E+04    0.2281431880E-02    0.6938315948E+00    0.6767363393E-02    0.1755768252E-02    0.3464338554E-02
    0.1700000000E+04    0.3227945162E-02    0.6940756068E+00    0.9599722173E-02    0.2494737165E-02    0.3156356326E-02
    0.1900000000E+04    0.4648193184E-02    0.6942683214E+00    0.1385900638E-01    0.3608540267E-02    0.2710614752E-02
    0.2100000000E+04    0.6733948467E-02    0.6944243665E+00    0.2013405806E-01    0.5254706051E-02    0.2087476702E-02
    0.2300000000E+04    0.9418685408E-02    0.6945532914E+00    0.2825226399E-01    0.7395022219E-02    0.1343783987E-02
    0.2500000000E+04    0.1203857243E-01    0.6946615952E+00    0.3624558641E-01    0.9520704308E-02    0.7079317068E-03
    0.2700000000E+04    0.1394655609E-01    0.6947538542E+00    0.4216157955E-01    0.1111816745E-01    0.3487778876E-03
    0.2900000000E+04    0.1520916138E-01    0.6948333842E+00    0.4617322952E-01    0.1222593363E-01    0.2003547691E-03
    0.3100000000E+04    0.1613591501E-01    0.6949026462E+00    0.4919566181E-01    0.1308001928E-01    0.1478293031E-03
    0.3300000000E+04    0.1691375970E-01    0.6949635056E+00    0.5178614054E-01    0.1382533963E-01    0.1303717006E-03
    0.3500000000E+04    0.1762035305E-01    0.6950174018E+00    0.5417675755E-01    0.1452242065E-01    0.1248035138E-03
    0.3700000000E+04    0.1828481300E-01    0.6950654632E+00    0.5645426326E-01    0.1519383111E-01    0.1231836891E-03
    0.3900000000E+04    0.1891819301E-01    0.6951085871E+00    0.5865109991E-01    0.1584789850E-01    0.1228690998E-03
    0.4100000000E+04    0.1952513530E-01    0.6951474957E+00    0.6078039574E-01    0.1648787365E-01    0.1229826193E-03
    0.4300000000E+04    0.2010800521E-01    0.6951827770E+00    0.6284843373E-01    0.1711520988E-01    0.1232317992E-03
    0.4500000000E+04    0.2066833129E-01    0.6952149146E+00    0.6485900987E-01    0.1773071344E-01    0.1235186884E-03
    0.4700000000E+04    0.2120730799E-01    0.6952443098E+00    0.6681495773E-01    0.1833494679E-01    0.1238105723E-03
    0.4900000000E+04    0.2172597378E-01    0.6952712984E+00    0.6871868793E-01    0.1892837137E-01    0.1240967983E-03
    0.1000000000E+04    0.9960256372E-03    0.6927960195E+00    0.2929453997E-02    0.7571631551E-03    0.3901421210E-02
    0.3000000000E+04    0.1569939469E-01    0.6948691705E+00    0.4776306415E-01    0.1267298975E-01    0.1671479494E-03
    0.5000000000E+04    0.2197798892E-01    0.6952839805E+00    0.6965166016E-01    0.1922116036E-01    0.1242366771E-03
    0.7000000000E+04    0.2615252224E-01    0.6954612845E+00    0.8603300505E-01    0.2459677984E-01    0.1265982019E-03
    0.9000000000E+04    0.2908332338E-01    0.6955594590E+00    0.9902643008E-01    0.2923922924E-01    0.1283884045E-03
    0.1100000000E+05    0.3117693337E-01    0.6956217054E+00    0.1096092244E+00    0.3333871634E-01    0.1298342455E-03
    0.1300000000E+05    0.3268656730E-01    0.6956646327E+00    0.1184117104E+00    0.3702140705E-01    0.1310493321E-03
    0.1500000000E+05    0.3377712582E-01    0.6956959863E+00    0.1258592696E+00    0.4037476829E-01    0.1320986564E-03
    0.1700000000E+05    0.3455995309E-01    0.6957198635E+00    0.1322497741E+00    0.4346165980E-01    0.1330229627E-03
    0.1900000000E+05    0.3511251581E-01    0.6957386340E+00    0.1377983089E+00    0.4632862753E-01    0.1338495158E-03
    0.2100000000E+05    0.3549008342E-01    0.6957537635E+00    0.1426642580E+00    0.4901101788E-01    0.1345974766E-03
    0.2300000000E+05    0.3573294104E-01    0.6957662067E+00    0.1469683783E+00    0.5153625743E-01    0.1352808353E-03
    0.2500000000E+05    0.3587099645E-01    0.6957766122E+00    0.1508039333E+00    0.5392602790E-01    0.1359101249E-03
    0.2700000000E+05    0.3592680958E-01    0.6957854358E+00    0.1542441706E+00    0.5619775052E-01    0.1364934775E-03
    0.2900000000E+05    0.3591763571E-01    0.6957930073E+00    0.1573474735E+00    0.5836562507E-01    0.1370373054E-03
    0.3100000000E+05    0.3585683457E-01    0.6957995711E+00    0.1601609917E+00    0.6044137327E-01    0.1375467555E-03
    0.3300000000E+05    0.3575486141E-01    0.6958053120E+00    0.1627232516E+00    0.6243478140E-01    0.1380260231E-03
    0.3500000000E+05    0.3561997641E-01    0.6958103726E+00    0.1650660662E+00    0.6435410322E-01    0.1384785739E-03
    0.3700000000E+05    0.3545876063E-01    0.6958148642E+00    0.1672159558E+00    0.6620636400E-01    0.1389073042E-03
    0.3900000000E+05    0.3527649649E-01    0.6958188754E+00    0.1691952206E+00    0.6799759316E-01    0.1393146601E-03
    0.4100000000E+05    0.3507745212E-01    0.6958224774E+00    0.1710227597E+00    0.6973300464E-01    0.1397027260E-03
    0.4300000000E+05    0.3486509629E-01    0.6958257281E+00    0.1727147061E+00    0.7141713834E-01    0.1400732933E-03
    0.4500000000E+05    0.3464226258E-01    0.6958286749E+00    0.1742849222E+00    0.7305397236E-01    0.1404279129E-03
    0.4700000000E+05    0.3441127615E-01    0.6958313572E+00    0.1757453926E+00    0.7464701277E-01    0.1407679366E-03
    0.4900000000E+05    0.3417405233E-01    0.6958338079E+00    0.1771065369E+00    0.7619936624E-01    0.1410945498E-03
    0.1000000000E+05    0.3021632190E-01    0.6955937235E+00    0.1045737227E+00    0.3134782804E-01    0.1291456822E-03
    0.3000000000E+05    0.3589297646E-01    0.6957964025E+00    0.1587878709E+00    0.5941436325E-01    0.1372960461E-03
    0.5000000000E+05    0.3405360730E-01    0.6958349552E+00    0.1777527529E+00    0.7696116179E-01    0.1412531590E-03
    0.7000000000E+05    0.3158230584E-01    0.6958506212E+00    0.1871678392E+00    0.9059794471E-01    0.1439208150E-03
    0.9000000000E+05    0.2927555050E-01    0.6958588396E+00    0.1924840165E+00    0.1020797157E+00    0.1459458137E-03
    0.1100000000E+06    0.2724028222E-01    0.6958637557E+00    0.1956361133E+00    0.1121519810E+00    0.1475830391E-03
    0.1300000000E+06    0.2546064482E-01    0.6958669389E+00    0.1975016037E+00    0.1212097652E+00    0.1489599175E-03
    0.1500000000E+06    0.2389983087E-01    0.6958691098E+00    0.1985412477E+00    0.1294915308E+00    0.1501495348E-03
    0.1700000000E+06    0.2252216679E-01    0.6958706436E+00    0.1990219147E+00    0.1371541829E+00    0.1511977901E-03
    0.1900000000E+06    0.2129751703E-01    0.6958717540E+00    0.1991094296E+00    0.1443074751E+00    0.1521354367E-03
    0.2100000000E+06    0.2020136972E-01    0.6958725708E+00    0.1989124202E+00    0.1510317656E+00    0.1529841082E-03
    0.2300000000E+06    0.1921395825E-01    0.6958731773E+00    0.1985050316E+00    0.1573880081E+00    0.1537596120E-03
    0.2500000000E+06    0.1831930874E-01    0.6958736291E+00    0.1979395604E+00    0.1634237605E+00    0.1544738566E-03
    0.2700000000E+06    0.1750442966E-01    0.6958739645E+00    0.1972538928E+00    0.1691769925E+00    0.1551360406E-03
    0.2900000000E+06    0.1675867030E-01    0.6958742108E+00    0.1964760897E+00    0.1746786043E+00    0.1557534203E-03
    0.3100000000E+06    0.1607322519E-01    0.6958743879E+00    0.1956273243E+00    0.1799541529E+00    0.1563318221E-03
    0.3300000000E+06    0.1544075368E-01    0.6958745104E+00    0.1947238256E+00    0.1850250700E+00    0.1568759967E-03
    0.3500000000E+06    0.1485508732E-01    0.6958745894E+00    0.1937782010E+00    0.1899095446E+00    0.1573898694E-03
    0.3700000000E+06    0.1431100365E-01    0.6958746335E+00    0.1928003573E+00    0.1946231759E+00    0.1578767218E-03
    0.3900000000E+06    0.1380404994E-01    0.6958746494E+00    0.1917981566E+00    0.1991794659E+00    0.1583393253E-03
    0.4100000000E+06    0.1333040477E-01    0.6958746422E+00    0.1907778913E+00    0.2035901976E+00    0.1587800426E-03
    0.4300000000E+06    0.1288676855E-01    0.6958746161E+00    0.1897446343E+00    0.2078657293E+00    0.1592009042E-03
    0.4500000000E+06    0.1247027601E-01    0.6958745744E+00    0.1887025007E+00    0.2120152272E+00    0.1596036683E-03
    0.4700000000E+06    0.1207842591E-01    0.6958745198E+00    0.1876548461E+00    0.2160468506E+00    0.1599898677E-03
    0.4900000000E+06    0.1170902401E-01    0.6958744546E+00    0.1866044186E+00    0.2199679024E+00    0.1603608466E-03
    0.1000000000E+06    0.2822396954E-01    0.6958615824E+00    0.1942617650E+00    0.1072623218E+00    0.1468031618E-03
    0.3000000000E+06    0.1640889778E-01    0.6958743070E+00    0.1960594650E+00    0.1773432120E+00    0.1560471746E-03
    0.5000000000E+06    0.1153212775E-01    0.6958744186E+00    0.1860788872E+00    0.2218890424E+00    0.1605410044E-03
    0.7000000000E+06    0.8805511409E-02    0.6958734421E+00    0.1757964466E+00    0.2558069985E+00    0.1635714030E-03
    0.9000000000E+06    0.7050385914E-02    0.6958723253E+00    0.1663266435E+00    0.2834081223E+00    0.1658720690E-03
    0.1100000000E+07    0.5824588416E-02    0.6958712449E+00    0.1577735514E+00    0.3066942436E+00    0.1677323149E-03
    0.1300000000E+07    0.4921245906E-02    0.6958702385E+00    0.1500618572E+00    0.3267993747E+00    0.1692968252E-03
    0.1500000000E+07    0.4229548065E-02    0.6958693091E+00    0.1430880688E+00    0.3444433470E+00    0.1706486003E-03
    0.1700000000E+07    0.3684415758E-02    0.6958684510E+00    0.1367546665E+00    0.3601182547E+00    0.1718397727E-03
    0.1900000000E+07    0.3244979456E-02    0.6958676563E+00    0.1309771784E+00    0.3741785200E+00    0.1729052755E-03
    0.2100000000E+07    0.2884228276E-02    0.6958669174E+00    0.1256842150E+00    0.3868894698E+00    0.1738696840E-03
    0.2300000000E+07    0.2583576485E-02    0.6958662276E+00    0.1208157752E+00    0.3984557363E+00    0.1747509566E-03
    0.2500000000E+07    0.2329811041E-02    0.6958655812E+00    0.1163213407E+00    0.4090389151E+00    0.1755626222E-03
    0.2700000000E+07    0.2113281114E-02    0.6958649732E+00    0.1121581780E+00    0.4187690917E+00    0.1763151321E-03
    0.2900000000E+07    0.1926775410E-02    0.6958643993E+00    0.1082899302E+00    0.4277526686E+00    0.1770167304E-03
    0.3100000000E+07    0.1764799647E-02    0.6958638560E+00    0.1046854776E+00    0.4360778549E+00    0.1776740372E-03
    0.3300000000E+07    0.1623096693E-02    0.6958633402E+00    0.1013180235E+00    0.4438186231E+00    0.1782924504E-03
    0.3500000000E+07    0.1498319096E-02    0.6958628493E+00    0.9816436197E-01    0.4510376285E+00    0.1788764301E-03
    0.3700000000E+07    0.1387800304E-02    0.6958623809E+00    0.9520428759E-01    0.4577884061E+00    0.1794297050E-03
    0.3900000000E+07    0.1289391496E-02    0.6958619331E+00    0.9242011826E-01    0.4641170518E+00    0.1799554243E-03
    0.4100000000E+07    0.1201343052E-02    0.6958615041E+00    0.8979630677E-01    0.4700635309E+00    0.1804562727E-03
    0.4300000000E+07    0.1122217046E-02    0.6958610924E+00    0.8731912256E-01    0.4756627074E+00    0.1809345573E-03
    0.4500000000E+07    0.1050821687E-02    0.6958606966E+00    0.8497638935E-01    0.4809451660E+00    0.1813922763E-03
    0.4700000000E+07    0.9861615479E-03    0.6958603155E+00    0.8275726755E-01    0.4859378732E+00    0.1818311711E-03
    0.4900000000E+07    0.9273993328E-03    0.6958599481E+00    0.8065207269E-01    0.4906647164E+00    0.1822527694E-03
    0.1000000000E+07    0.6387439231E-02    0.6958717769E+00    0.1619387769E+00    0.2955066839E+00    0.1668461903E-03
    0.3000000000E+07    0.1843011930E-02    0.6958641240E+00    0.1064564962E+00    0.4319926420E+00    0.1773505580E-03
    0.5000000000E+07    0.9000040831E-03    0.6958597692E+00    0.7963944929E-01    0.4929351721E+00    0.1824575097E-03
    0.7000000000E+07    0.5361139359E-03    0.6958567200E+00    0.6367107535E-01    0.5284898981E+00    0.1859014246E-03
    0.9000000000E+07    0.3563417756E-03    0.6958543641E+00    0.5304152883E-01    0.5519327248E+00    0.1885160487E-03
    0.1100000000E+08    0.2541343414E-03    0.6958524395E+00    0.4544858395E-01    0.5685862521E+00    0.1906301586E-03
    0.1300000000E+08    0.1904132651E-03    0.6958508098E+00    0.3975143483E-01    0.5810368731E+00    0.1924081779E-03
    0.1500000000E+08    0.1479911064E-03    0.6958493948E+00    0.3531832063E-01    0.5907006358E+00    0.1939444320E-03
    0.1700000000E+08    0.1183212068E-03    0.6958481434E+00    0.3177051652E-01    0.5984201050E+00    0.1952981666E-03
    0.1900000000E+08    0.9675619784E-04    0.6958470207E+00    0.2886699152E-01    0.6047286957E+00    0.1965090817E-03
    0.2100000000E+08    0.8059013789E-04    0.6958460022E+00    0.2644697711E-01    0.6099808110E+00    0.1976051063E-03
    0.2300000000E+08    0.6815976626E-04    0.6958450697E+00    0.2439909948E-01    0.6144212292E+00    0.1986066493E-03
    0.2500000000E+08    0.5839665887E-04    0.6958442095E+00    0.2264375214E-01    0.6182244932E+00    0.1995290859E-03
    0.2700000000E+08    0.5058890672E-04    0.6958434109E+00    0.2112251936E-01    0.6215184358E+00    0.2003842936E-03
