  Pressure (Pa) 22mC5-500 (mol/kg) 24mC5-500 (mol/kg) 2mC6-500 (mol/kg) 3mC6-500 (mol/kg) C7-500 (mol/kg)
    0.1000000000E+01    0.1495539768E-04    0.6964674260E-01    0.1297512561E-04    0.7348266585E-06    0.4226058850E-02
    0.3000000000E+01    0.3587227976E-04    0.1740600442E+00    0.3008409376E-04    0.1899764482E-05    0.4322840920E-02
    0.5000000000E+01    0.4964405688E-04    0.2486004773E+00    0.4061176453E-04    0.2975376056E-05    0.4391294814E-02
    0.7000000000E+01    0.5921352287E-04    0.3044845753E+00    0.4750835750E-04    0.4007272812E-05    0.4442979764E-02
    0.9000000000E+01    0.6614187631E-04    0.3479379764E+00    0.5227169798E-04    0.5010977765E-05    0.4483524811E-02
    0.1100000000E+02    0.7132838299E-04    0.3826934987E+00    0.5572726114E-04    0.5994297809E-05    0.4516253174E-02
    0.1300000000E+02    0.7532278368E-04    0.4111253186E+00    0.5835664441E-04    0.6961896704E-05    0.4543273413E-02
    0.1500000000E+02    0.7847708606E-04    0.4348155623E+00    0.6045328671E-04    0.7916856510E-05    0.4565992142E-02
    0.1700000000E+02    0.8102524871E-04    0.4548591810E+00    0.6220218500E-04    0.8861355451E-05    0.4585385159E-02
    0.1900000000E+02    0.8312761305E-04    0.4720380687E+00    0.6372318143E-04    0.9797008836E-05    0.4602151343E-02
    0.2100000000E+02    0.8489692319E-04    0.4869254844E+00    0.6509561244E-04    0.1072505875E-04    0.4616804770E-02
    0.2300000000E+02    0.8641419770E-04    0.4999512902E+00    0.6637290744E-04    0.1164648774E-04    0.4629732259E-02
    0.2500000000E+02    0.8773875137E-04    0.5114441517E+00    0.6759152577E-04    0.1256209094E-04    0.4641230618E-02
    0.2700000000E+02    0.8891471360E-04    0.5216596623E+00    0.6877658441E-04    0.1347252402E-04    0.4651531502E-02
    0.2900000000E+02    0.8997537852E-04    0.5307995825E+00    0.6994548888E-04    0.1437833613E-04    0.4660818447E-02
    0.3100000000E+02    0.9094617446E-04    0.5390253044E+00    0.7111032575E-04    0.1527999342E-04    0.4669238806E-02
    0.3300000000E+02    0.9184673166E-04    0.5464674672E+00    0.7227946850E-04    0.1617789610E-04    0.4676912298E-02
    0.3500000000E+02    0.9269234796E-04    0.5532329489E+00    0.7345867276E-04    0.1707239126E-04    0.4683937232E-02
    0.3700000000E+02    0.9349504422E-04    0.5594100345E+00    0.7465183397E-04    0.1796378249E-04    0.4690395113E-02
    0.3900000000E+02    0.9426433538E-04    0.5650722901E+00    0.7586151801E-04    0.1885233748E-04    0.4696354113E-02
    0.4100000000E+02    0.9500780111E-04    0.5702815081E+00    0.7708933687E-04    0.1973829382E-04    0.4701871704E-02
    0.4300000000E+02    0.9573151299E-04    0.5750899720E+00    0.7833621713E-04    0.2062186374E-04    0.4706996695E-02
    0.4500000000E+02    0.9644035794E-04    0.5795422176E+00    0.7960259330E-04    0.2150323790E-04    0.4711770818E-02
    0.4700000000E+02    0.9713828531E-04    0.5836764172E+00    0.8088854816E-04    0.2238258837E-04    0.4716229971E-02
    0.4900000000E+02    0.9782849755E-04    0.5875254767E+00    0.8219391497E-04    0.2326007126E-04    0.4720405216E-02
    0.1000000000E+02    0.6891257443E-04    0.3662311322E+00    0.5412713281E-04    0.5504845619E-05    0.4500713472E-02
    0.3000000000E+02    0.9047066689E-04    0.5350179250E+00    0.7052782022E-04    0.1482965773E-04    0.4665128901E-02
    0.5000000000E+02    0.9817154416E-04    0.5893521418E+00    0.8285377642E-04    0.2369815728E-04    0.4722394956E-02
    0.7000000000E+02    0.1050499685E-03    0.6161736346E+00    0.9694524836E-04    0.3239062575E-04    0.4752300958E-02
    0.9000000000E+02    0.1123673212E-03    0.6321578761E+00    0.1123492463E-03    0.4100401830E-04    0.4770815990E-02
    0.1100000000E+03    0.1202341624E-03    0.6427691283E+00    0.1286339651E-03    0.4958780000E-04    0.4783378241E-02
    0.1300000000E+03    0.1285930714E-03    0.6503266534E+00    0.1455424067E-03    0.5817206823E-04    0.4792380878E-02
    0.1500000000E+03    0.1373720373E-03    0.6559827805E+00    0.1629243380E-03    0.6677719855E-04    0.4799054551E-02
    0.1700000000E+03    0.1465108182E-03    0.6603748355E+00    0.1806897334E-03    0.7541803978E-04    0.4804102665E-02
    0.1900000000E+03    0.1559630370E-03    0.6638839375E+00    0.1987832576E-03    0.8410602463E-04    0.4807959319E-02
    0.2100000000E+03    0.1656937603E-03    0.6667519870E+00    0.2171703201E-03    0.9285034367E-04    0.4810908498E-02
    0.2300000000E+03    0.1756767785E-03    0.6691399161E+00    0.2358292074E-03    0.1016586484E-03    0.4813144681E-02
    0.2500000000E+03    0.1858924042E-03    0.6711589492E+00    0.2547464768E-03    0.1105374971E-03    0.4814806059E-02
    0.2700000000E+03    0.1963258284E-03    0.6728884194E+00    0.2739141631E-03    0.1194926507E-03    0.4815993845E-02
    0.2900000000E+03    0.2069659230E-03    0.6743864340E+00    0.2933280291E-03    0.1285292765E-03    0.4816784064E-02
    0.3100000000E+03    0.2178043685E-03    0.6756965283E+00    0.3129864400E-03    0.1376520929E-03    0.4817235060E-02
    0.3300000000E+03    0.2288350162E-03    0.6768519640E+00    0.3328896205E-03    0.1468654757E-03    0.4817392426E-02
    0.3500000000E+03    0.2400534176E-03    0.6778785908E+00    0.3530391544E-03    0.1561735369E-03    0.4817292359E-02
    0.3700000000E+03    0.2514564732E-03    0.6787968020E+00    0.3734376408E-03    0.1655801847E-03    0.4816963985E-02
    0.3900000000E+03    0.2630421679E-03    0.6796229020E+00    0.3940884547E-03    0.1750891714E-03    0.4816431020E-02
    0.4100000000E+03    0.2748093693E-03    0.6803700824E+00    0.4149955777E-03    0.1847041295E-03    0.4815712976E-02
    0.4300000000E+03    0.2867576735E-03    0.6810491306E+00    0.4361634767E-03    0.1944286023E-03    0.4814826046E-02
    0.4500000000E+03    0.2988872844E-03    0.6816689540E+00    0.4575970176E-03    0.2042660680E-03    0.4813783781E-02
    0.4700000000E+03    0.3111989203E-03    0.6822369722E+00    0.4793014014E-03    0.2142199597E-03    0.4812597588E-02
    0.4900000000E+03    0.3236937401E-03    0.6827594153E+00    0.5012821190E-03    0.2242936827E-03    0.4811277135E-02
    0.1000000000E+03    0.1162346235E-03    0.6379502756E+00    0.1204008205E-03    0.4529742903E-04    0.4777652281E-02
    0.3000000000E+03    0.2123607809E-03    0.6750626905E+00    0.3031266892E-03    0.1330796304E-03    0.4817048862E-02
    0.5000000000E+03    0.3300103119E-03    0.6830052254E+00    0.5123778897E-03    0.2293765409E-03    0.4810569180E-02
    0.7000000000E+03    0.4665073086E-03    0.6864638675E+00    0.7503364337E-03    0.3381645536E-03    0.4790818258E-02
    0.9000000000E+03    0.6247815102E-03    0.6883987149E+00    0.1023944183E-02    0.4630551850E-03    0.4762207938E-02
    0.1100000000E+04    0.8097193228E-03    0.6896344302E+00    0.1342337048E-02    0.6083635879E-03    0.4725381351E-02
    0.1300000000E+04    0.1028099126E-02    0.6904916214E+00    0.1717522195E-02    0.7796504148E-03    0.4679643197E-02
    0.1500000000E+04    0.1289172840E-02    0.6911208927E+00    0.2165609775E-02    0.9843395675E-03    0.4623414458E-02
    0.1700000000E+04    0.1605689191E-02    0.6916023299E+00    0.2708665747E-02    0.1232588700E-02    0.4554219176E-02
    0.1900000000E+04    0.1995490198E-02    0.6919824450E+00    0.3377512160E-02    0.1538589408E-02    0.4468448269E-02
    0.2100000000E+04    0.2483956985E-02    0.6922900992E+00    0.4215987129E-02    0.1922542566E-02    0.4360925618E-02
    0.2300000000E+04    0.3107691355E-02    0.6925441484E+00    0.5287357273E-02    0.2413636993E-02    0.4224244784E-02
    0.2500000000E+04    0.3919767928E-02    0.6927574327E+00    0.6683499097E-02    0.3054331812E-02    0.4047869878E-02
    0.2700000000E+04    0.4996074036E-02    0.6929389976E+00    0.8536092615E-02    0.3905627689E-02    0.3817217232E-02
    0.2900000000E+04    0.6438713366E-02    0.6930953987E+00    0.1102302808E-01    0.5050258890E-02    0.3513761000E-02
    0.3100000000E+04    0.8361601528E-02    0.6932315035E+00    0.1434454954E-01    0.6582151082E-02    0.3119475386E-02
    0.3300000000E+04    0.1082335120E-01    0.6933510013E+00    0.1860873962E-01    0.8554240180E-02    0.2632425886E-02
    0.3500000000E+04    0.1368431055E-01    0.6934567394E+00    0.2358462616E-01    0.1086462225E-01    0.2095330423E-02
    0.3700000000E+04    0.1652452224E-01    0.6935509502E+00    0.2855552191E-01    0.1318669044E-01    0.1603962757E-02
    0.3900000000E+04    0.1888852840E-01    0.6936354085E+00    0.3273426549E-01    0.1515723472E-01    0.1246211118E-02
    0.4100000000E+04    0.2063452358E-01    0.6937115434E+00    0.3586727870E-01    0.1665546971E-01    0.1034492135E-02
    0.4300000000E+04    0.2190063486E-01    0.6937805178E+00    0.3818450172E-01    0.1778360624E-01    0.9261506078E-03
    0.4500000000E+04    0.2287565544E-01    0.6938432883E+00    0.4000724408E-01    0.1868771689E-01    0.8754039564E-03
    0.4700000000E+04    0.2369083373E-01    0.6939006486E+00    0.4156028337E-01    0.1947063122E-01    0.8530472629E-03
    0.4900000000E+04    0.2441849680E-01    0.6939532627E+00    0.4296787963E-01    0.2018937844E-01    0.8439034165E-03
    0.1000000000E+04    0.7135428985E-03    0.6890779669E+00    0.1176871282E-02    0.5328451947E-03    0.4744842566E-02
    0.3000000000E+04    0.7333814487E-02    0.6931657346E+00    0.1256822977E-01    0.5762464806E-02    0.3328763920E-02
    0.5000000000E+04    0.2476172190E-01    0.6939779684E+00    0.4363814076E-01    0.2053434200E-01    0.8418451177E-03
    0.7000000000E+04    0.3043526436E-01    0.6943217638E+00    0.5523274834E-01    0.2673037457E-01    0.8515916593E-03
    0.9000000000E+04    0.3471949064E-01    0.6945101214E+00    0.6476007370E-01    0.3216703192E-01    0.8636969199E-03
    0.1100000000E+05    0.3802535419E-01    0.6946282277E+00    0.7278186559E-01    0.3703931856E-01    0.8734630058E-03
    0.1300000000E+05    0.4060522564E-01    0.6947087424E+00    0.7964177127E-01    0.4146360625E-01    0.8816631371E-03
    0.1500000000E+05    0.4263459102E-01    0.6947668505E+00    0.8558463511E-01    0.4552447727E-01    0.8887401681E-03
    0.1700000000E+05    0.4423886216E-01    0.6948105593E+00    0.9078982177E-01    0.4928509885E-01    0.8949711334E-03
    0.1900000000E+05    0.4550977132E-01    0.6948444853E+00    0.9539186451E-01    0.5279374116E-01    0.9005411243E-03
    0.2100000000E+05    0.4651577106E-01    0.6948714740E+00    0.9949374587E-01    0.5608802845E-01    0.9055800609E-03
    0.2300000000E+05    0.4730883773E-01    0.6948933729E+00    0.1031757083E+00    0.5919779738E-01    0.9101827135E-03
    0.2500000000E+05    0.4792904317E-01    0.6949114327E+00    0.1065012591E+00    0.6214707055E-01    0.9144203782E-03
    0.2700000000E+05    0.4840769977E-01    0.6949265293E+00    0.1095213605E+00    0.6495545096E-01    0.9183480655E-03
    0.2900000000E+05    0.4876956960E-01    0.6949392940E+00    0.1122774156E+00    0.6763912788E-01    0.9220091279E-03
    0.3100000000E+05    0.4903444508E-01    0.6949501930E+00    0.1148034363E+00    0.7021161577E-01    0.9254383481E-03
    0.3300000000E+05    0.4921829900E-01    0.6949595779E+00    0.1171276436E+00    0.7268430606E-01    0.9286640671E-03
    0.3500000000E+05    0.4933413371E-01    0.6949677183E+00    0.1192736667E+00    0.7506688536E-01    0.9317096880E-03
    0.3700000000E+05    0.4939261689E-01    0.6949748246E+00    0.1212614546E+00    0.7736765676E-01    0.9345947644E-03
    0.3900000000E+05    0.4940256328E-01    0.6949810633E+00    0.1231079769E+00    0.7959378957E-01    0.9373358044E-03
    0.4100000000E+05    0.4937130397E-01    0.6949865677E+00    0.1248277693E+00    0.8175151582E-01    0.9399468740E-03
    0.4300000000E+05    0.4930497235E-01    0.6949914455E+00    0.1264333626E+00    0.8384628626E-01    0.9424400579E-03
    0.4500000000E+05    0.4920872769E-01    0.6949957851E+00    0.1279356231E+00    0.8588289558E-01    0.9448258167E-03
    0.4700000000E+05    0.4908693150E-01    0.6949996593E+00    0.1293440256E+00    0.8786558360E-01    0.9471132664E-03
    0.4900000000E+05    0.4894328772E-01    0.6950031288E+00    0.1306668735E+00    0.8979811793E-01    0.9493104003E-03
    0.1000000000E+05    0.3647672787E-01    0.6945752999E+00    0.6893485526E-01    0.3466554474E-01    0.8688133258E-03
    0.3000000000E+05    0.4891305498E-01    0.6949449525E+00    0.1135672964E+00    0.6893851418E-01    0.9237508160E-03
    0.5000000000E+05    0.4886427878E-01    0.6950047279E+00    0.1312985339E+00    0.9074664266E-01    0.9503773343E-03
    0.7000000000E+05    0.4669949918E-01    0.6950243504E+00    0.1408271379E+00    0.1077390933E+00    0.9683192507E-03
    0.9000000000E+05    0.4415502605E-01    0.6950318837E+00    0.1466077468E+00    0.1220568913E+00    0.9819358464E-03
    0.1100000000E+06    0.4166288477E-01    0.6950345086E+00    0.1503132421E+00    0.1346172317E+00    0.9929435032E-03
    0.1300000000E+06    0.3934041789E-01    0.6950348078E+00    0.1527336992E+00    0.1459065556E+00    0.1002199922E-02
    0.1500000000E+06    0.3721118040E-01    0.6950339037E+00    0.1542983908E+00    0.1562185562E+00    0.1010196903E-02
    0.1700000000E+06    0.3526837843E-01    0.6950323459E+00    0.1552637085E+00    0.1657466582E+00    0.1017243246E-02
    0.1900000000E+06    0.3349588776E-01    0.6950304271E+00    0.1557935750E+00    0.1746264175E+00    0.1023545823E-02
    0.2100000000E+06    0.3187574723E-01    0.6950283123E+00    0.1559982964E+00    0.1829573559E+00    0.1029250143E-02
    0.2300000000E+06    0.3039084729E-01    0.6950260987E+00    0.1559551098E+00    0.1908152186E+00    0.1034462520E-02
    0.2500000000E+06    0.2902579684E-01    0.6950238453E+00    0.1557198380E+00    0.1982593307E+00    0.1039263039E-02
    0.2700000000E+06    0.2776708177E-01    0.6950215883E+00    0.1553338798E+00    0.2053372518E+00    0.1043713557E-02
    0.2900000000E+06    0.2660295589E-01    0.6950193505E+00    0.1548285980E+00    0.2120878533E+00    0.1047862867E-02
    0.3100000000E+06    0.2552324400E-01    0.6950171459E+00    0.1542281804E+00    0.2185434256E+00    0.1051750147E-02
    0.3300000000E+06    0.2451913075E-01    0.6950149831E+00    0.1535515646E+00    0.2247311664E+00    0.1055407339E-02
    0.3500000000E+06    0.2358296368E-01    0.6950128670E+00    0.1528137712E+00    0.2306742585E+00    0.1058860836E-02
    0.3700000000E+06    0.2270808009E-01    0.6950108003E+00    0.1520268463E+00    0.2363926695E+00    0.1062132699E-02
    0.3900000000E+06    0.2188865881E-01    0.6950087840E+00    0.1512005441E+00    0.2419037546E+00    0.1065241562E-02
    0.4100000000E+06    0.2111959501E-01    0.6950068181E+00    0.1503428291E+00    0.2472227210E+00    0.1068203309E-02
    0.4300000000E+06    0.2039639524E-01    0.6950049022E+00    0.1494602516E+00    0.2523629899E+00    0.1071031592E-02
    0.4500000000E+06    0.1971508940E-01    0.6950030350E+00    0.1485582330E+00    0.2573364825E+00    0.1073738229E-02
    0.4700000000E+06    0.1907215703E-01    0.6950012152E+00    0.1476412849E+00    0.2621538495E+00    0.1076333525E-02
    0.4900000000E+06    0.1846446546E-01    0.6949994412E+00    0.1467131797E+00    0.2668246566E+00    0.1078826518E-02
    0.1000000000E+06    0.4289158391E-01    0.6950335961E+00    0.1486585468E+00    0.1285201520E+00    0.9877002516E-03
    0.3000000000E+06    0.2605312862E-01    0.6950182434E+00    0.1545389924E+00    0.2153507131E+00    0.1049837118E-02
    0.5000000000E+06    0.1817294903E-01    0.6949985710E+00    0.1462459534E+00    0.2691078307E+00    0.1080037178E-02
    0.7000000000E+06    0.1365018133E-01    0.6949831857E+00    0.1368620276E+00    0.3087959443E+00    0.1100400762E-02
    0.9000000000E+06    0.1073172636E-01    0.6949707473E+00    0.1280416249E+00    0.3401348111E+00    0.1115859903E-02
    0.1100000000E+07    0.8707190231E-02    0.6949603317E+00    0.1200679705E+00    0.3658372704E+00    0.1128359202E-02
    0.1300000000E+07    0.7231330536E-02    0.6949513741E+00    0.1129277672E+00    0.3874536054E+00    0.1138871091E-02
    0.1500000000E+07    0.6115495448E-02    0.6949435134E+00    0.1065371019E+00    0.4059683043E+00    0.1147953396E-02
    0.1700000000E+07    0.5247800377E-02    0.6949365072E+00    0.1008018930E+00    0.4220508884E+00    0.1155956475E-02
    0.1900000000E+07    0.4557736105E-02    0.6949301852E+00    0.9563511633E-01    0.4361792223E+00    0.1163115092E-02
    0.2100000000E+07    0.3998730807E-02    0.6949244233E+00    0.9096095898E-01    0.4487069043E+00    0.1169594398E-02
    0.2300000000E+07    0.3538846505E-02    0.6949191286E+00    0.8671480669E-01    0.4599030283E+00    0.1175515074E-02
    0.2500000000E+07    0.3155496162E-02    0.6949142294E+00    0.8284198841E-01    0.4699770487E+00    0.1180968036E-02
    0.2700000000E+07    0.2832289252E-02    0.6949096695E+00    0.7929628200E-01    0.4790950562E+00    0.1186023513E-02
    0.2900000000E+07    0.2557068512E-02    0.6949054039E+00    0.7603851860E-01    0.4873908285E+00    0.1190736905E-02
    0.3100000000E+07    0.2320644739E-02    0.6949013962E+00    0.7303538055E-01    0.4949735666E+00    0.1195152697E-02
    0.3300000000E+07    0.2115956858E-02    0.6948976161E+00    0.7025840050E-01    0.5019334484E+00    0.1199307160E-02
    0.3500000000E+07    0.1937499784E-02    0.6948940387E+00    0.6768314014E-01    0.5083457029E+00    0.1203230266E-02
    0.3700000000E+07    0.1780925869E-02    0.6948906427E+00    0.6528851989E-01    0.5142736566E+00    0.1206947067E-02
    0.3900000000E+07    0.1642761707E-02    0.6948874103E+00    0.6305627214E-01    0.5197710474E+00    0.1210478726E-02
    0.4100000000E+07    0.1520203346E-02    0.6948843259E+00    0.6097049449E-01    0.5248838077E+00    0.1213843281E-02
    0.4300000000E+07    0.1410965829E-02    0.6948813764E+00    0.5901728343E-01    0.5296514579E+00    0.1217056236E-02
    0.4500000000E+07    0.1313171084E-02    0.6948785500E+00    0.5718443280E-01    0.5341082046E+00    0.1220131016E-02
    0.4700000000E+07    0.1225263293E-02    0.6948758367E+00    0.5546118434E-01    0.5382838188E+00    0.1223079322E-02
    0.4900000000E+07    0.1145944263E-02    0.6948732276E+00    0.5383802055E-01    0.5422043418E+00    0.1225911420E-02
    0.1000000000E+07    0.9634425113E-02    0.6949653281E+00    0.1239468485E+00    0.3535760488E+00    0.1122405236E-02
    0.3000000000E+07    0.2434490466E-02    0.6949033698E+00    0.7450700386E-01    0.4912652985E+00    0.1192979567E-02
    0.5000000000E+07    0.1109157773E-02    0.6948719595E+00    0.5306129229E-01    0.5440762056E+00    0.1227286761E-02
    0.7000000000E+07    0.6336633516E-03    0.6948505486E+00    0.4115948846E-01    0.5724436894E+00    0.1250420603E-02
    0.9000000000E+07    0.4096169238E-03    0.6948342099E+00    0.3359704980E-01    0.5901928864E+00    0.1267983046E-02
    0.1100000000E+08    0.2863910283E-03    0.6948209589E+00    0.2836938741E-01    0.6023525516E+00    0.1282183034E-02
    0.1300000000E+08    0.2114245505E-03    0.6948097919E+00    0.2454127275E-01    0.6112046365E+00    0.1294125233E-02
    0.1500000000E+08    0.1624464341E-03    0.6948001295E+00    0.2161786091E-01    0.6179367818E+00    0.1304443345E-02
    0.1700000000E+08    0.1286983948E-03    0.6947916057E+00    0.1931285046E-01    0.6232286095E+00    0.1313535387E-02
    0.1900000000E+08    0.1044643450E-03    0.6947839747E+00    0.1744913092E-01    0.6274972593E+00    0.1321668062E-02
    0.2100000000E+08    0.8647847191E-04    0.6947770629E+00    0.1591127822E-01    0.6310129899E+00    0.1329028990E-02
    0.2300000000E+08    0.7276476364E-04    0.6947707434E+00    0.1462086053E-01    0.6339586073E+00    0.1335755273E-02
    0.2500000000E+08    0.6207069578E-04    0.6947649202E+00    0.1352272462E-01    0.6364621921E+00    0.1341950197E-02
    0.2700000000E+08    0.5357116135E-04    0.6947595193E+00    0.1257696013E-01    0.6386161504E+00    0.1347693547E-02
