  Pressure (Pa) 22mC5-500 (mol/kg) 24mC5-500 (mol/kg) 2mC6-500 (mol/kg) 3mC6-500 (mol/kg) C7-500 (mol/kg)
    0.1000000000E+01    0.1338926537E-04    0.1266253841E+00    0.2868821175E-05    0.1469516268E-05    0.4220601334E-02
    0.3000000000E+01    0.2764245882E-04    0.2784895248E+00    0.5639293388E-05    0.3798586420E-05    0.4292432271E-02
    0.5000000000E+01    0.3478655869E-04    0.3663687402E+00    0.6896944801E-05    0.5948440747E-05    0.4333831319E-02
    0.7000000000E+01    0.3891787582E-04    0.4236651268E+00    0.7600282164E-05    0.8010364340E-05    0.4361235982E-02
    0.9000000000E+01    0.4157095270E-04    0.4639774015E+00    0.8074954640E-05    0.1001543338E-04    0.4380845654E-02
    0.1100000000E+02    0.4342890661E-04    0.4938826764E+00    0.8450978075E-05    0.1197928028E-04    0.4395639671E-02
    0.1300000000E+02    0.4483224779E-04    0.5169502948E+00    0.8785621221E-05    0.1391124562E-04    0.4407238910E-02
    0.1500000000E+02    0.4596486470E-04    0.5352847859E+00    0.9105659842E-05    0.1581750344E-04    0.4416603912E-02
    0.1700000000E+02    0.4693213225E-04    0.5502073751E+00    0.9423981199E-05    0.1770241806E-04    0.4424341405E-02
    0.1900000000E+02    0.4779721990E-04    0.5625893937E+00    0.9746766150E-05    0.1956922657E-04    0.4430854164E-02
    0.2100000000E+02    0.4859933479E-04    0.5730287510E+00    0.1007682642E-04    0.2142041855E-04    0.4436420478E-02
    0.2300000000E+02    0.4936347096E-04    0.5819493826E+00    0.1041524190E-04    0.2325796372E-04    0.4441239044E-02
    0.2500000000E+02    0.5010588647E-04    0.5896602361E+00    0.1076219763E-04    0.2508345637E-04    0.4445455694E-02
    0.2700000000E+02    0.5083731048E-04    0.5963917826E+00    0.1111742464E-04    0.2689821127E-04    0.4449179990E-02
    0.2900000000E+02    0.5156488719E-04    0.6023194463E+00    0.1148043667E-04    0.2870332981E-04    0.4452495921E-02
    0.3100000000E+02    0.5229338943E-04    0.6075791132E+00    0.1185065849E-04    0.3049974696E-04    0.4455469009E-02
    0.3300000000E+02    0.5302599543E-04    0.6122776763E+00    0.1222749511E-04    0.3228826556E-04    0.4458151165E-02
    0.3500000000E+02    0.5376479697E-04    0.6165003766E+00    0.1261036820E-04    0.3406958185E-04    0.4460584076E-02
    0.3700000000E+02    0.5451113786E-04    0.6203160210E+00    0.1299873426E-04    0.3584430497E-04    0.4462801631E-02
    0.3900000000E+02    0.5526584325E-04    0.6237807610E+00    0.1339209241E-04    0.3761297192E-04    0.4464831679E-02
    0.4100000000E+02    0.5602937698E-04    0.6269408740E+00    0.1378998655E-04    0.3937605944E-04    0.4466697335E-02
    0.4300000000E+02    0.5680195090E-04    0.6298348427E+00    0.1419200440E-04    0.4113399333E-04    0.4468417952E-02
    0.4500000000E+02    0.5758360158E-04    0.6324949298E+00    0.1459777492E-04    0.4288715608E-04    0.4470009868E-02
    0.4700000000E+02    0.5837424453E-04    0.6349483859E+00    0.1500696505E-04    0.4463589295E-04    0.4471486977E-02
    0.4900000000E+02    0.5917371281E-04    0.6372183862E+00    0.1541927622E-04    0.4638051708E-04    0.4472861179E-02
    0.1000000000E+02    0.4257297938E-04    0.4799616547E+00    0.8270699595E-05    0.1100182812E-04    0.4388722506E-02
    0.3000000000E+02    0.5192879357E-04    0.6050255175E+00    0.1166468362E-04    0.2960257312E-04    0.4454021802E-02
    0.5000000000E+02    0.5957668871E-04    0.6382909025E+00    0.1562651746E-04    0.4725137699E-04    0.4473512948E-02
    0.7000000000E+02    0.6803464902E-04    0.6536942752E+00    0.1988356356E-04    0.6451040704E-04    0.4483021762E-02
    0.9000000000E+02    0.7707618352E-04    0.6625770784E+00    0.2427324147E-04    0.8157400740E-04    0.4488516660E-02
    0.1100000000E+03    0.8651585591E-04    0.6683563259E+00    0.2873604184E-04    0.9854104315E-04    0.4491925785E-02
    0.1300000000E+03    0.9624435090E-04    0.6724165535E+00    0.3324784620E-04    0.1154713612E-03    0.4494081142E-02
    0.1500000000E+03    0.1061968781E-03    0.6754253693E+00    0.3779832565E-04    0.1324051782E-03    0.4495407840E-02
    0.1700000000E+03    0.1163337268E-03    0.6777443080E+00    0.4238315256E-04    0.1493715215E-03    0.4496148816E-02
    0.1900000000E+03    0.1266298023E-03    0.6795861976E+00    0.4700082698E-04    0.1663924791E-03    0.4496454447E-02
    0.2100000000E+03    0.1370688955E-03    0.6810844879E+00    0.5165125543E-04    0.1834855654E-03    0.4496423558E-02
    0.2300000000E+03    0.1476404153E-03    0.6823271006E+00    0.5633506745E-04    0.2006651394E-03    0.4496124191E-02
    0.2500000000E+03    0.1583374489E-03    0.6833743194E+00    0.6105326890E-04    0.2179433034E-03    0.4495604960E-02
    0.2700000000E+03    0.1691555657E-03    0.6842688578E+00    0.6580705936E-04    0.2353305003E-03    0.4494901668E-02
    0.2900000000E+03    0.1800920555E-03    0.6850418263E+00    0.7059773340E-04    0.2528359239E-03    0.4494041346E-02
    0.3100000000E+03    0.1911454298E-03    0.6857164211E+00    0.7542662663E-04    0.2704678117E-03    0.4493044839E-02
    0.3300000000E+03    0.2023150860E-03    0.6863102904E+00    0.8029508630E-04    0.2882336571E-03    0.4491928506E-02
    0.3500000000E+03    0.2136010770E-03    0.6868370996E+00    0.8520445587E-04    0.3061403687E-03    0.4490705381E-02
    0.3700000000E+03    0.2250039504E-03    0.6873075947E+00    0.9015606734E-04    0.3241943908E-03    0.4489385986E-02
    0.3900000000E+03    0.2365246334E-03    0.6877303424E+00    0.9515123821E-04    0.3424017977E-03    0.4487978909E-02
    0.4100000000E+03    0.2481643505E-03    0.6881122557E+00    0.1001912711E-03    0.3607683667E-03    0.4486491227E-02
    0.4300000000E+03    0.2599245626E-03    0.6884589749E+00    0.1052774548E-03    0.3792996374E-03    0.4484928819E-02
    0.4500000000E+03    0.2718069226E-03    0.6887751471E+00    0.1104110662E-03    0.3980009592E-03    0.4483296604E-02
    0.4700000000E+03    0.2838132422E-03    0.6890646362E+00    0.1155933723E-03    0.4168775304E-03    0.4481598722E-02
    0.4900000000E+03    0.2959454667E-03    0.6893306807E+00    0.1208256330E-03    0.4359344303E-03    0.4479838674E-02
    0.1000000000E+03    0.8175444316E-04    0.6657432701E+00    0.2649747891E-04    0.9006524947E-04    0.4490416081E-02
    0.3000000000E+03    0.1856041874E-03    0.6853902087E+00    0.7300731846E-04    0.2616355761E-03    0.4493559004E-02
    0.5000000000E+03    0.3020594331E-03    0.6894557828E+00    0.1234608886E-03    0.4455320651E-03    0.4478936283E-02
    0.7000000000E+03    0.4315057448E-03    0.6912111106E+00    0.1790969606E-03    0.6481497930E-03    0.4458144822E-02
    0.9000000000E+03    0.5764478774E-03    0.6921890525E+00    0.2412121549E-03    0.8744540086E-03    0.4432723404E-02
    0.1100000000E+04    0.7401038986E-03    0.6928120845E+00    0.3112664290E-03    0.1129852095E-02    0.4402783813E-02
    0.1300000000E+04    0.9264954766E-03    0.6932435452E+00    0.3910231311E-03    0.1420834434E-02    0.4367914734E-02
    0.1500000000E+04    0.1140712599E-02    0.6935598956E+00    0.4826892741E-03    0.1755515589E-02    0.4327363241E-02
    0.1700000000E+04    0.1389297317E-02    0.6938016967E+00    0.5890902635E-03    0.2144285569E-02    0.4280047324E-02
    0.1900000000E+04    0.1680785220E-02    0.6939924637E+00    0.7139076951E-03    0.2600690311E-02    0.4224496683E-02
    0.2100000000E+04    0.2026476591E-02    0.6941467674E+00    0.8620148380E-03    0.3142672996E-02    0.4158738998E-02
    0.2300000000E+04    0.2441544151E-02    0.6942741173E+00    0.1039957579E-02    0.3794355146E-02    0.4080125481E-02
    0.2500000000E+04    0.2946626636E-02    0.6943809828E+00    0.1256646720E-02    0.4588604494E-02    0.3985078951E-02
    0.2700000000E+04    0.3570093709E-02    0.6944719181E+00    0.1524343934E-02    0.5570700648E-02    0.3868744417E-02
    0.2900000000E+04    0.4351137883E-02    0.6945502216E+00    0.1860012734E-02    0.6803376504E-02    0.3724536769E-02
    0.3100000000E+04    0.5343557681E-02    0.6946183410E+00    0.2286983888E-02    0.8373077660E-02    0.3543649663E-02
    0.3300000000E+04    0.6618989487E-02    0.6946781305E+00    0.2836413584E-02    0.1039556843E-01    0.3314813171E-02
    0.3500000000E+04    0.8265127120E-02    0.6947310207E+00    0.3546630938E-02    0.1301394378E-01    0.3025176677E-02
    0.3700000000E+04    0.1036731604E-01    0.6947781326E+00    0.4455376322E-02    0.1637066258E-01    0.2664373007E-02
    0.3900000000E+04    0.1295372486E-01    0.6948203573E+00    0.5576318945E-02    0.2052160221E-01    0.2234791213E-02
    0.4100000000E+04    0.1590106702E-01    0.6948584120E+00    0.6858252508E-02    0.2528517006E-01    0.1767014865E-02
    0.4300000000E+04    0.1888455438E-01    0.6948928801E+00    0.8162658679E-02    0.3015655435E-01    0.1323892209E-02
    0.4500000000E+04    0.2151653420E-01    0.6949242415E+00    0.9322348381E-02    0.3451969095E-01    0.9706201441E-03
    0.4700000000E+04    0.2359260305E-01    0.6949528941E+00    0.1024760185E-01    0.3803839016E-01    0.7326146460E-03
    0.4900000000E+04    0.2515211272E-01    0.6949791710E+00    0.1095351202E-01    0.4076158298E-01    0.5920602609E-03
    0.1000000000E+04    0.6557066924E-03    0.6925316736E+00    0.2751453532E-03    0.9981421738E-03    0.4418335232E-02
    0.3000000000E+04    0.4816888404E-02    0.6945854268E+00    0.2060332102E-02    0.7539593063E-02    0.3639326212E-02
    0.5000000000E+04    0.2578447029E-01    0.6949915079E+00    0.1124376263E-01    0.4189539940E-01    0.5479102680E-03
    0.7000000000E+04    0.3304391068E-01    0.6951630507E+00    0.1479479413E-01    0.5654923032E-01    0.4430391782E-03
    0.9000000000E+04    0.3819929579E-01    0.6952568965E+00    0.1754019040E-01    0.6867831349E-01    0.4491756031E-03
    0.1100000000E+05    0.4228327557E-01    0.6953156642E+00    0.1988982030E-01    0.7967686043E-01    0.4542316640E-03
    0.1300000000E+05    0.4554060418E-01    0.6953556777E+00    0.2192387420E-01    0.8975351366E-01    0.4584809133E-03
    0.1500000000E+05    0.4814923888E-01    0.6953845211E+00    0.2370170184E-01    0.9906474712E-01    0.4621504550E-03
    0.1700000000E+05    0.5024176760E-01    0.6954061909E+00    0.2526839421E-01    0.1077312407E+00    0.4653827829E-03
    0.1900000000E+05    0.5191875757E-01    0.6954229904E+00    0.2665884032E-01    0.1158477261E+00    0.4682732494E-03
    0.2100000000E+05    0.5325769480E-01    0.6954363381E+00    0.2790047277E-01    0.1234897304E+00    0.4708888651E-03
    0.2300000000E+05    0.5431911561E-01    0.6954471549E+00    0.2901517139E-01    0.1307183048E+00    0.4732785571E-03
    0.2500000000E+05    0.5515090200E-01    0.6954560639E+00    0.3002061129E-01    0.1375834107E+00    0.4754791615E-03
    0.2700000000E+05    0.5579134784E-01    0.6954635011E+00    0.3093123570E-01    0.1441263900E+00    0.4775191183E-03
    0.2900000000E+05    0.5627138479E-01    0.6954697809E+00    0.3175897010E-01    0.1503817958E+00    0.4794208522E-03
    0.3100000000E+05    0.5661622319E-01    0.6954751351E+00    0.3251375440E-01    0.1563787720E+00    0.4812023630E-03
    0.3300000000E+05    0.5684657823E-01    0.6954797387E+00    0.3320394524E-01    0.1621421045E+00    0.4828783229E-03
    0.3500000000E+05    0.5697959816E-01    0.6954837256E+00    0.3383662380E-01    0.1676930349E+00    0.4844608515E-03
    0.3700000000E+05    0.5702957472E-01    0.6954872004E+00    0.3441783422E-01    0.1730498947E+00    0.4859600782E-03
    0.3900000000E+05    0.5700849289E-01    0.6954902458E+00    0.3495277018E-01    0.1782286074E+00    0.4873845566E-03
    0.4100000000E+05    0.5692646043E-01    0.6954929281E+00    0.3544592227E-01    0.1832430878E+00    0.4887415769E-03
    0.4300000000E+05    0.5679204637E-01    0.6954953006E+00    0.3590119566E-01    0.1881055632E+00    0.4900374036E-03
    0.4500000000E+05    0.5661255022E-01    0.6954974072E+00    0.3632200462E-01    0.1928268348E+00    0.4912774604E-03
    0.4700000000E+05    0.5639421754E-01    0.6954992841E+00    0.3671134919E-01    0.1974164896E+00    0.4924664746E-03
    0.4900000000E+05    0.5614241387E-01    0.6955009613E+00    0.3707187782E-01    0.2018830764E+00    0.4936085918E-03
    0.1000000000E+05    0.4035800615E-01    0.6952893373E+00    0.1875886794E-01    0.7430436087E-01    0.4518237009E-03
    0.3000000000E+05    0.5645931586E-01    0.6954725617E+00    0.3214492561E-01    0.1534109469E+00    0.4803256508E-03
    0.5000000000E+05    0.5600543187E-01    0.6955017330E+00    0.3724208049E-01    0.2040726431E+00    0.4941632236E-03
    0.7000000000E+05    0.5234818020E-01    0.6955110862E+00    0.3958429642E-01    0.2429021262E+00    0.5034915185E-03
    0.9000000000E+05    0.4809066617E-01    0.6955145166E+00    0.4062896026E-01    0.2748158608E+00    0.5105724554E-03
    0.1100000000E+06    0.4394575515E-01    0.6955155636E+00    0.4095499690E-01    0.3019812823E+00    0.5162973755E-03
    0.1300000000E+06    0.4012399681E-01    0.6955154940E+00    0.4084769889E-01    0.3255871681E+00    0.5211118887E-03
    0.1500000000E+06    0.3667307023E-01    0.6955148552E+00    0.4046712369E-01    0.3463814955E+00    0.5252715747E-03
    0.1700000000E+06    0.3358312226E-01    0.6955139136E+00    0.3991085026E-01    0.3648798542E+00    0.5289369396E-03
    0.1900000000E+06    0.3082444212E-01    0.6955128101E+00    0.3924174189E-01    0.3814605446E+00    0.5322155259E-03
    0.2100000000E+06    0.2836206588E-01    0.6955116233E+00    0.3850183522E-01    0.3964135389E+00    0.5351829837E-03
    0.2300000000E+06    0.2616159142E-01    0.6955103991E+00    0.3771995595E-01    0.4099681803E+00    0.5378945900E-03
    0.2500000000E+06    0.2419139110E-01    0.6955091649E+00    0.3691619702E-01    0.4223100886E+00    0.5403919870E-03
    0.2700000000E+06    0.2242328660E-01    0.6955079373E+00    0.3610469787E-01    0.4335921365E+00    0.5427073413E-03
    0.2900000000E+06    0.2083256360E-01    0.6955067264E+00    0.3529544346E-01    0.4439419436E+00    0.5448660263E-03
    0.3100000000E+06    0.1939771631E-01    0.6955055383E+00    0.3449546789E-01    0.4534672082E+00    0.5468884164E-03
    0.3300000000E+06    0.1810009906E-01    0.6955043765E+00    0.3370968128E-01    0.4622596285E+00    0.5487911239E-03
    0.3500000000E+06    0.1692356517E-01    0.6955032428E+00    0.3294144973E-01    0.4703978656E+00    0.5505878748E-03
    0.3700000000E+06    0.1585412816E-01    0.6955021380E+00    0.3219300913E-01    0.4779498316E+00    0.5522901437E-03
    0.3900000000E+06    0.1487965829E-01    0.6955010622E+00    0.3146576457E-01    0.4849744899E+00    0.5539076223E-03
    0.4100000000E+06    0.1398961761E-01    0.6955000149E+00    0.3076050925E-01    0.4915232905E+00    0.5554485718E-03
    0.4300000000E+06    0.1317483169E-01    0.6954989957E+00    0.3007758621E-01    0.4976413310E+00    0.5569200926E-03
    0.4500000000E+06    0.1242729465E-01    0.6954980036E+00    0.2941700849E-01    0.5033683040E+00    0.5583283330E-03
    0.4700000000E+06    0.1174000316E-01    0.6954970378E+00    0.2877854902E-01    0.5087392772E+00    0.5596786522E-03
    0.4900000000E+06    0.1110681553E-01    0.6954960972E+00    0.2816180817E-01    0.5137853419E+00    0.5609757510E-03
    0.1000000000E+06    0.4598506434E-01    0.6955152331E+00    0.4085988773E-01    0.2889037049E+00    0.5135703697E-03
    0.3000000000E+06    0.2009688359E-01    0.6955061292E+00    0.3489394692E-01    0.4488015762E+00    0.5458931435E-03
    0.5000000000E+06    0.1080879716E-01    0.6954956360E+00    0.2786142294E-01    0.5161952972E+00    0.5616056576E-03
    0.7000000000E+06    0.6675471601E-02    0.6954875093E+00    0.2283839990E-01    0.5526574957E+00    0.5722010828E-03
    0.9000000000E+06    0.4511072672E-02    0.6954809642E+00    0.1924730005E-01    0.5752478193E+00    0.5802449486E-03
    0.1100000000E+07    0.3244684143E-02    0.6954754949E+00    0.1659135219E-01    0.5905287436E+00    0.5867488780E-03
    0.1300000000E+07    0.2442564000E-02    0.6954707973E+00    0.1456010902E-01    0.6015190077E+00    0.5922187745E-03
    0.1500000000E+07    0.1903520752E-02    0.6954666787E+00    0.1296149097E-01    0.6097877455E+00    0.5969448550E-03
    0.1700000000E+07    0.1524303002E-02    0.6954630101E+00    0.1167296525E-01    0.6162268376E+00    0.6011094016E-03
    0.1900000000E+07    0.1247630785E-02    0.6954597015E+00    0.1061350688E-01    0.6213789888E+00    0.6048345584E-03
    0.2100000000E+07    0.1039704638E-02    0.6954566872E+00    0.9727699937E-02    0.6255926452E+00    0.6082062529E-03
    0.2300000000E+07    0.8795564607E-03    0.6954539182E+00    0.8976489024E-02    0.6291014366E+00    0.6112872751E-03
    0.2500000000E+07    0.7536283363E-03    0.6954513566E+00    0.8331615988E-02    0.6320677021E+00    0.6141249289E-03
    0.2700000000E+07    0.6528431601E-03    0.6954489731E+00    0.7772159580E-02    0.6346076676E+00    0.6167557557E-03
    0.2900000000E+07    0.5709407097E-03    0.6954467438E+00    0.7282315229E-02    0.6368066856E+00    0.6192085806E-03
    0.3100000000E+07    0.5034915603E-03    0.6954446495E+00    0.6849929810E-02    0.6387288200E+00    0.6215065503E-03
    0.3300000000E+07    0.4472910003E-03    0.6954426746E+00    0.6465509898E-02    0.6404230771E+00    0.6236685376E-03
    0.3500000000E+07    0.3999745110E-03    0.6954408057E+00    0.6121535083E-02    0.6419275739E+00    0.6257101368E-03
    0.3700000000E+07    0.3597669327E-03    0.6954390318E+00    0.5811972714E-02    0.6432723967E+00    0.6276443845E-03
    0.3900000000E+07    0.3253147647E-03    0.6954373435E+00    0.5531928626E-02    0.6444816059E+00    0.6294822916E-03
    0.4100000000E+07    0.2955715602E-03    0.6954357326E+00    0.5277391525E-02    0.6455746699E+00    0.6312332443E-03
    0.4300000000E+07    0.2697180543E-03    0.6954341923E+00    0.5045043090E-02    0.6465675088E+00    0.6329053099E-03
    0.4500000000E+07    0.2471055016E-03    0.6954327164E+00    0.4832114927E-02    0.6474732659E+00    0.6345054736E-03
    0.4700000000E+07    0.2272148308E-03    0.6954312997E+00    0.4636279470E-02    0.6483028872E+00    0.6360398247E-03
    0.4900000000E+07    0.2096267652E-03    0.6954299373E+00    0.4455565803E-02    0.6490655613E+00    0.6375137041E-03
    0.1000000000E+07    0.3800793543E-02    0.6954781175E+00    0.1782536510E-01    0.5835649457E+00    0.5836507532E-03
    0.3000000000E+07    0.5356331499E-03    0.6954456808E+00    0.7059586597E-02    0.6377990041E+00    0.6203756559E-03
    0.5000000000E+07    0.2015869014E-03    0.6954292753E+00    0.4370344797E-02    0.6494242690E+00    0.6382294609E-03
    0.7000000000E+07    0.1046620857E-03    0.6954180987E+00    0.3158253427E-02    0.6544615420E+00    0.6502689911E-03
    0.9000000000E+07    0.6388207280E-04    0.6954095718E+00    0.2469907825E-02    0.6572704722E+00    0.6594092385E-03
    0.1100000000E+08    0.4299058152E-04    0.6954026571E+00    0.2026597698E-02    0.6590607321E+00    0.6667996678E-03
    0.1300000000E+08    0.3088671184E-04    0.6953968302E+00    0.1717440209E-02    0.6603009474E+00    0.6730151260E-03
    0.1500000000E+08    0.2325603721E-04    0.6953917885E+00    0.1489637676E-02    0.6612106389E+00    0.6783853834E-03
    0.1700000000E+08    0.1813933371E-04    0.6953873410E+00    0.1314863924E-02    0.6619062814E+00    0.6831175666E-03
    0.1900000000E+08    0.1454301819E-04    0.6953833592E+00    0.1176564925E-02    0.6624554005E+00    0.6873504678E-03
    0.2100000000E+08    0.1191974441E-04    0.6953797528E+00    0.1064421747E-02    0.6628998348E+00    0.6911817269E-03
    0.2300000000E+08    0.9947911594E-05    0.6953764553E+00    0.9716690534E-03    0.6632668859E+00    0.6946826926E-03
    0.2500000000E+08    0.8428530442E-05    0.6953734167E+00    0.8936874183E-03    0.6635751257E+00    0.6979071165E-03
    0.2700000000E+08    0.7233139233E-05    0.6953705984E+00    0.8272154481E-03    0.6638376262E+00    0.7008965211E-03
