  Pressure (Pa) 22mC5-500 (mol/kg) 24mC5-500 (mol/kg) 2mC6-500 (mol/kg) 3mC6-500 (mol/kg) C7-500 (mol/kg)
    0.1000000000E+01    0.1362239060E-04    0.1266312412E+00    0.8889854871E-05    0.4491100819E-05    0.4168893322E-02
    0.3000000000E+01    0.2815930517E-04    0.2785188416E+00    0.1754546058E-04    0.1130388836E-04    0.4196746161E-02
    0.5000000000E+01    0.3554789179E-04    0.3664208663E+00    0.2161499841E-04    0.1753272887E-04    0.4209208065E-02
    0.7000000000E+01    0.3990658247E-04    0.4237363707E+00    0.2400112474E-04    0.2348443558E-04    0.4216776812E-02
    0.9000000000E+01    0.4277710519E-04    0.4640644076E+00    0.2568952465E-04    0.2926148929E-04    0.4221846826E-02
    0.1100000000E+02    0.4484610324E-04    0.4939827769E+00    0.2707449629E-04    0.3491488679E-04    0.4225431920E-02
    0.1300000000E+02    0.4645614541E-04    0.5170614119E+00    0.2833031147E-04    0.4047486132E-04    0.4228054387E-02
    0.1500000000E+02    0.4779244977E-04    0.5354052925E+00    0.2953888295E-04    0.4596127337E-04    0.4230014506E-02
    0.1700000000E+02    0.4896131040E-04    0.5503359813E+00    0.3073996526E-04    0.5138809067E-04    0.4231498253E-02
    0.1900000000E+02    0.5002656416E-04    0.5627250626E+00    0.3195289310E-04    0.5676562896E-04    0.4232627342E-02
    0.2100000000E+02    0.5102792152E-04    0.5731706379E+00    0.3318669843E-04    0.6210179298E-04    0.4233484939E-02
    0.2300000000E+02    0.5199076761E-04    0.5820967902E+00    0.3444508459E-04    0.6740281725E-04    0.4234129879E-02
    0.2500000000E+02    0.5293167195E-04    0.5898125828E+00    0.3572897597E-04    0.7267373448E-04    0.4234604998E-02
    0.2700000000E+02    0.5386161681E-04    0.5965485777E+00    0.3703786592E-04    0.7791868566E-04    0.4234942249E-02
    0.2900000000E+02    0.5478795573E-04    0.6024802722E+00    0.3837054422E-04    0.8314113304E-04    0.4235165966E-02
    0.3100000000E+02    0.5571563724E-04    0.6077436114E+00    0.3972549405E-04    0.8834401113E-04    0.4235295014E-02
    0.3300000000E+02    0.5664798905E-04    0.6124455366E+00    0.4110110824E-04    0.9352983656E-04    0.4235344250E-02
    0.3500000000E+02    0.5758723149E-04    0.6166713286E+00    0.4249580502E-04    0.9870078980E-04    0.4235325539E-02
    0.3700000000E+02    0.5853482013E-04    0.6204898278E+00    0.4390808719E-04    0.1038587772E-03    0.4235248470E-02
    0.3900000000E+02    0.5949167817E-04    0.6239572135E+00    0.4533656925E-04    0.1090054787E-03    0.4235120881E-02
    0.4100000000E+02    0.6045835617E-04    0.6271197868E+00    0.4677998667E-04    0.1141423857E-03    0.4234949241E-02
    0.4300000000E+02    0.6143514329E-04    0.6300160507E+00    0.4823719520E-04    0.1192708303E-03    0.4234738939E-02
    0.4500000000E+02    0.6242214548E-04    0.6326782851E+00    0.4970716499E-04    0.1243920097E-03    0.4234494497E-02
    0.4700000000E+02    0.6341934093E-04    0.6351337554E+00    0.5118897218E-04    0.1295070053E-03    0.4234219743E-02
    0.4900000000E+02    0.6442661967E-04    0.6374056499E+00    0.5268178962E-04    0.1346167989E-03    0.4233917934E-02
    0.1000000000E+02    0.4388530289E-04    0.4800555012E+00    0.2640596386E-04    0.3210143467E-04    0.4223785213E-02
    0.3000000000E+02    0.5525138973E-04    0.6051882211E+00    0.3904533524E-04    0.8574485224E-04    0.4235241314E-02
    0.5000000000E+02    0.6493398897E-04    0.6384790719E+00    0.5343209280E-04    0.1371700278E-03    0.4233757773E-02
    0.7000000000E+02    0.7555654115E-04    0.6538963575E+00    0.6887420933E-04    0.1881434737E-03    0.4229639867E-02
    0.9000000000E+02    0.8692951723E-04    0.6627882171E+00    0.8492877441E-04    0.2392818274E-03    0.4224487206E-02
    0.1100000000E+03    0.9888923537E-04    0.6685739767E+00    0.1014440337E-03    0.2909111451E-03    0.4218783206E-02
    0.1300000000E+03    0.1113427883E-03    0.6726391962E+00    0.1183680562E-03    0.3432417141E-03    0.4212720906E-02
    0.1500000000E+03    0.1242395954E-03    0.6756520124E+00    0.1356876879E-03    0.3964273732E-03    0.4206389909E-02
    0.1700000000E+03    0.1375532593E-03    0.6779742627E+00    0.1534067485E-03    0.4505911315E-03    0.4199835362E-02
    0.1900000000E+03    0.1512717408E-03    0.6798189627E+00    0.1715372769E-03    0.5058380144E-03    0.4193080713E-02
    0.2100000000E+03    0.1653919807E-03    0.6813196846E+00    0.1900956962E-03    0.5622622201E-03    0.4186137761E-02
    0.2300000000E+03    0.1799168526E-03    0.6825644343E+00    0.2091010287E-03    0.6199514393E-03    0.4179011564E-02
    0.2500000000E+03    0.1948533723E-03    0.6836135552E+00    0.2285740402E-03    0.6789896400E-03    0.4171703016E-02
    0.2700000000E+03    0.2102116149E-03    0.6845098049E+00    0.2485368302E-03    0.7394589684E-03    0.4164210287E-02
    0.2900000000E+03    0.2260040450E-03    0.6852843266E+00    0.2690126510E-03    0.8014411154E-03    0.4156529655E-02
    0.3100000000E+03    0.2422450981E-03    0.6859603422E+00    0.2900258462E-03    0.8650183483E-03    0.4148656015E-02
    0.3300000000E+03    0.2589509206E-03    0.6865555197E+00    0.3116018577E-03    0.9302743269E-03    0.4140583186E-02
    0.3500000000E+03    0.2761392121E-03    0.6870835404E+00    0.3337672716E-03    0.9972947787E-03    0.4132304104E-02
    0.3700000000E+03    0.2938291375E-03    0.6875551632E+00    0.3565498878E-03    0.1066168083E-02    0.4123810944E-02
    0.3900000000E+03    0.3120412872E-03    0.6879789651E+00    0.3799788072E-03    0.1136985792E-02    0.4115095189E-02
    0.4100000000E+03    0.3307976718E-03    0.6883618680E+00    0.4040845292E-03    0.1209843122E-02    0.4106147673E-02
    0.4300000000E+03    0.3501217440E-03    0.6887095193E+00    0.4288990603E-03    0.1284839414E-02    0.4096958594E-02
    0.4500000000E+03    0.3700384406E-03    0.6890265725E+00    0.4544560304E-03    0.1362078597E-02    0.4087517523E-02
    0.4700000000E+03    0.3905742414E-03    0.6893168964E+00    0.4807908190E-03    0.1441669642E-02    0.4077813385E-02
    0.4900000000E+03    0.4117572435E-03    0.6895837342E+00    0.5079406887E-03    0.1523727033E-02    0.4067834447E-02
    0.1000000000E+03    0.9284312426E-04    0.6659579022E+00    0.9313338524E-04    0.2650202058E-03    0.4221688483E-02
    0.3000000000E+03    0.2340675223E-03    0.6856334346E+00    0.2794505128E-03    0.8330251585E-03    0.4152617325E-02
    0.5000000000E+03    0.4226006887E-03    0.6897092186E+00    0.5218334738E-03    0.1565718011E-02    0.4062738074E-02
    0.7000000000E+03    0.6819576351E-03    0.6914707238E+00    0.8535954447E-03    0.2569010700E-02    0.3942862048E-02
    0.9000000000E+03    0.1056940099E-02    0.6924530960E+00    0.1332865428E-02    0.4020449322E-02    0.3774720602E-02
    0.1100000000E+04    0.1632651993E-02    0.6930795864E+00    0.2069252814E-02    0.6254595806E-02    0.3524789592E-02
    0.1300000000E+04    0.2576589940E-02    0.6935138869E+00    0.3278777936E-02    0.9932540009E-02    0.3130281367E-02
    0.1500000000E+04    0.4192477980E-02    0.6938326487E+00    0.5355393946E-02    0.1626694034E-01    0.2488137496E-02
    0.1700000000E+04    0.6738260861E-02    0.6940765472E+00    0.8643681353E-02    0.2634828660E-01    0.1553158441E-02
    0.1900000000E+04    0.9505912682E-02    0.6942691709E+00    0.1225497865E-01    0.3752941114E-01    0.6797492221E-03
    0.2100000000E+04    0.1134955442E-01    0.6944251415E+00    0.1471350831E-01    0.4529937993E-01    0.2702663151E-03
    0.2300000000E+04    0.1246568567E-01    0.6945540043E+00    0.1625378346E-01    0.5032056418E-01    0.1543811856E-03
    0.2500000000E+04    0.1331085373E-01    0.6946622554E+00    0.1745619963E-01    0.5434522336E-01    0.1275055941E-03
    0.2700000000E+04    0.1405790325E-01    0.6947544690E+00    0.1854188082E-01    0.5804534603E-01    0.1218223529E-03
    0.2900000000E+04    0.1475393270E-01    0.6948339596E+00    0.1957087661E-01    0.6160302775E-01    0.1209041757E-03
    0.3100000000E+04    0.1541187169E-01    0.6949031870E+00    0.2055921704E-01    0.6506570237E-01    0.1210375993E-03
    0.3300000000E+04    0.1603622232E-01    0.6949640159E+00    0.2151205330E-01    0.6844743383E-01    0.1213903499E-03
    0.3500000000E+04    0.1662938059E-01    0.6950178848E+00    0.2243184197E-01    0.7175407079E-01    0.1217758915E-03
    0.3700000000E+04    0.1719315313E-01    0.6950659217E+00    0.2332031689E-01    0.7498933365E-01    0.1221532704E-03
    0.3900000000E+04    0.1772912571E-01    0.6951090234E+00    0.2417896780E-01    0.7815629303E-01    0.1225145561E-03
    0.4100000000E+04    0.1823875765E-01    0.6951479119E+00    0.2500916101E-01    0.8125773802E-01    0.1228592448E-03
    0.4300000000E+04    0.1872341024E-01    0.6951831749E+00    0.2581217349E-01    0.8429627487E-01    0.1231883903E-03
    0.4500000000E+04    0.1918435861E-01    0.6952152958E+00    0.2658920545E-01    0.8727435932E-01    0.1235032614E-03
    0.4700000000E+04    0.1962279930E-01    0.6952446756E+00    0.2734138741E-01    0.9019431177E-01    0.1238050502E-03
    0.4900000000E+04    0.2003985621E-01    0.6952716500E+00    0.2806978547E-01    0.9305832778E-01    0.1240948224E-03
    0.1000000000E+04    0.1311862751E-02    0.6927975403E+00    0.1658819507E-02    0.5008825396E-02    0.3663001457E-02
    0.3000000000E+04    0.1508729855E-01    0.6948697280E+00    0.2006969921E-01    0.6334503240E-01    0.1209181330E-03
    0.5000000000E+04    0.2024069841E-01    0.6952843254E+00    0.2842538223E-01    0.9447001374E-01    0.1242355016E-03
    0.7000000000E+04    0.2336040108E-01    0.6954615336E+00    0.3450538386E-01    0.1202181947E+00    0.1265982460E-03
    0.9000000000E+04    0.2522521042E-01    0.6955596529E+00    0.3906635581E-01    0.1421785439E+00    0.1283884395E-03
    0.1100000000E+05    0.2628351264E-01    0.6956218631E+00    0.4256367365E-01    0.1613386262E+00    0.1298342743E-03
    0.1300000000E+05    0.2680799530E-01    0.6956647646E+00    0.4528792597E-01    0.1783488298E+00    0.1310493564E-03
    0.1500000000E+05    0.2697168041E-01    0.6956960989E+00    0.4743326495E-01    0.1936572669E+00    0.1320986774E-03
    0.1700000000E+05    0.2688814321E-01    0.6957199610E+00    0.4913438497E-01    0.2075843818E+00    0.1330229810E-03
    0.1900000000E+05    0.2663401337E-01    0.6957387193E+00    0.5048770732E-01    0.2203665836E+00    0.1338495320E-03
    0.2100000000E+05    0.2626216128E-01    0.6957538386E+00    0.5156410770E-01    0.2321829766E+00    0.1345974910E-03
    0.2300000000E+05    0.2580973268E-01    0.6957662733E+00    0.5241687622E-01    0.2431723874E+00    0.1352808481E-03
    0.2500000000E+05    0.2530320933E-01    0.6957766715E+00    0.5308686997E-01    0.2534445829E+00    0.1359101364E-03
    0.2700000000E+05    0.2476168877E-01    0.6957854888E+00    0.5360594933E-01    0.2630878780E+00    0.1364934879E-03
    0.2900000000E+05    0.2419906302E-01    0.6957930548E+00    0.5399933028E-01    0.2721744289E+00    0.1370373148E-03
    0.3100000000E+05    0.2362549768E-01    0.6957996136E+00    0.5428723224E-01    0.2807639989E+00    0.1375467640E-03
    0.3300000000E+05    0.2304845513E-01    0.6958053501E+00    0.5448605640E-01    0.2889066925E+00    0.1380260308E-03
    0.3500000000E+05    0.2247341450E-01    0.6958104066E+00    0.5460924378E-01    0.2966449767E+00    0.1384785808E-03
    0.3700000000E+05    0.2190438575E-01    0.6958148946E+00    0.5466791067E-01    0.3040151986E+00    0.1389073105E-03
    0.3900000000E+05    0.2134428166E-01    0.6958189025E+00    0.5467132615E-01    0.3110487435E+00    0.1393146657E-03
    0.4100000000E+05    0.2079519021E-01    0.6958225014E+00    0.5462727597E-01    0.3177729291E+00    0.1397027310E-03
    0.4300000000E+05    0.2025857602E-01    0.6958257493E+00    0.5454234318E-01    0.3242117054E+00    0.1400732978E-03
    0.4500000000E+05    0.1973543087E-01    0.6958286935E+00    0.5442212714E-01    0.3303862082E+00    0.1404279170E-03
    0.4700000000E+05    0.1922638694E-01    0.6958313733E+00    0.5427141612E-01    0.3363152021E+00    0.1407679402E-03
    0.4900000000E+05    0.1873180277E-01    0.6958338218E+00    0.5409432473E-01    0.3420154375E+00    0.1410945529E-03
    0.1000000000E+05    0.2583514507E-01    0.6955938976E+00    0.4092695747E-01    0.1520620460E+00    0.1291457138E-03
    0.3000000000E+05    0.2391312768E-01    0.6957964474E+00    0.5415536291E-01    0.2765280052E+00    0.1372960550E-03
    0.5000000000E+05    0.1848998676E-01    0.6958349680E+00    0.5399701562E-01    0.3447845275E+00    0.1412531620E-03
    0.7000000000E+05    0.1438556947E-01    0.6958506176E+00    0.5131256892E-01    0.3911167256E+00    0.1439208148E-03
    0.9000000000E+05    0.1143073297E-01    0.6958588253E+00    0.4811669971E-01    0.4253020862E+00    0.1459458113E-03
    0.1100000000E+06    0.9273736919E-02    0.6958637335E+00    0.4497515873E-01    0.4517615744E+00    0.1475830351E-03
    0.1300000000E+06    0.7662762257E-02    0.6958669104E+00    0.4205969824E-01    0.4729196003E+00    0.1489599122E-03
    0.1500000000E+06    0.6432137810E-02    0.6958690760E+00    0.3941118475E-01    0.4902539917E+00    0.1501495285E-03
    0.1700000000E+06    0.5472708002E-02    0.6958706053E+00    0.3702378368E-01    0.5047289879E+00    0.1511977828E-03
    0.1900000000E+06    0.4711132487E-02    0.6958717117E+00    0.3487564900E-01    0.5170049794E+00    0.1521354286E-03
    0.2100000000E+06    0.4096979527E-02    0.6958725249E+00    0.3294084967E-01    0.5275512809E+00    0.1529840993E-03
    0.2300000000E+06    0.3594772828E-02    0.6958731281E+00    0.3119404095E-01    0.5367113914E+00    0.1537596024E-03
    0.2500000000E+06    0.3179024076E-02    0.6958735768E+00    0.2961216553E-01    0.5447428965E+00    0.1544738463E-03
    0.2700000000E+06    0.2831065427E-02    0.6958739094E+00    0.2817490934E-01    0.5518429458E+00    0.1551360297E-03
    0.2900000000E+06    0.2536984467E-02    0.6958741531E+00    0.2686464372E-01    0.5581651003E+00    0.1557534088E-03
    0.3100000000E+06    0.2286248488E-02    0.6958743276E+00    0.2566617308E-01    0.5638308068E+00    0.1563318100E-03
    0.3300000000E+06    0.2070769157E-02    0.6958744478E+00    0.2456642829E-01    0.5689374096E+00    0.1568759841E-03
    0.3500000000E+06    0.1884254489E-02    0.6958745245E+00    0.2355416564E-01    0.5735638670E+00    0.1573898563E-03
    0.3700000000E+06    0.1721752005E-02    0.6958745665E+00    0.2261969465E-01    0.5777749089E+00    0.1578767082E-03
    0.3900000000E+06    0.1579321472E-02    0.6958745803E+00    0.2175464149E-01    0.5816241113E+00    0.1583393113E-03
    0.4100000000E+06    0.1453797017E-02    0.6958745711E+00    0.2095174751E-01    0.5851562044E+00    0.1587800281E-03
    0.4300000000E+06    0.1342611832E-02    0.6958745431E+00    0.2020469948E-01    0.5884088293E+00    0.1592008892E-03
    0.4500000000E+06    0.1243667395E-02    0.6958744996E+00    0.1950798728E-01    0.5914138909E+00    0.1596036529E-03
    0.4700000000E+06    0.1155234751E-02    0.6958744432E+00    0.1885678488E-01    0.5941986117E+00    0.1599898519E-03
    0.4900000000E+06    0.1075879214E-02    0.6958743763E+00    0.1824685072E-01    0.5967863618E+00    0.1603608304E-03
    0.1000000000E+06    0.1027065005E-01    0.6958615639E+00    0.4652367958E-01    0.4393162258E+00    0.1468031586E-03
    0.3000000000E+06    0.2406752450E-02    0.6958742480E+00    0.2625229705E-01    0.5610734367E+00    0.1560471628E-03
    0.5000000000E+06    0.1039222927E-02    0.6958743394E+00    0.1795617272E-01    0.5980127874E+00    0.1605409880E-03
    0.7000000000E+06    0.5751245169E-03    0.6958733481E+00    0.1360066405E-01    0.6158978510E+00    0.1635713831E-03
    0.9000000000E+06    0.3641786772E-03    0.6958722189E+00    0.1093121111E-01    0.6264454547E+00    0.1658720462E-03
    0.1100000000E+07    0.2509827435E-03    0.6958711279E+00    0.9131013399E-02    0.6334001396E+00    0.1677322896E-03
    0.1300000000E+07    0.1833356299E-03    0.6958701120E+00    0.7836187537E-02    0.6383293395E+00    0.1692967975E-03
    0.1500000000E+07    0.1397311612E-03    0.6958691740E+00    0.6860683174E-02    0.6420047406E+00    0.1706485705E-03
    0.1700000000E+07    0.1100005002E-03    0.6958683079E+00    0.6099638864E-02    0.6448503269E+00    0.1718397409E-03
    0.1900000000E+07    0.8883084653E-04    0.6958675057E+00    0.5489507112E-02    0.6471183553E+00    0.1729052418E-03
    0.2100000000E+07    0.7322766095E-04    0.6958667598E+00    0.4989554678E-02    0.6489682875E+00    0.1738696486E-03
    0.2300000000E+07    0.6139915872E-04    0.6958660634E+00    0.4572477795E-02    0.6505058569E+00    0.1747509194E-03
    0.2500000000E+07    0.5222014006E-04    0.6958654107E+00    0.4219294233E-02    0.6518039334E+00    0.1755625835E-03
    0.2700000000E+07    0.4495522392E-04    0.6958647966E+00    0.3916400280E-02    0.6529143676E+00    0.1763150918E-03
    0.2900000000E+07    0.3910739631E-04    0.6958642170E+00    0.3653793389E-02    0.6538750578E+00    0.1770166886E-03
    0.3100000000E+07    0.3433099648E-04    0.6958636681E+00    0.3423955492E-02    0.6547143455E+00    0.1776739940E-03
    0.3300000000E+07    0.3037961681E-04    0.6958631470E+00    0.3221127331E-02    0.6554538488E+00    0.1782924058E-03
    0.3500000000E+07    0.2707378080E-04    0.6958626509E+00    0.3040822945E-02    0.6561103433E+00    0.1788763842E-03
    0.3700000000E+07    0.2428026325E-04    0.6958621775E+00    0.2879496485E-02    0.6566970459E+00    0.1794296578E-03
    0.3900000000E+07    0.2189849635E-04    0.6958617249E+00    0.2734308390E-02    0.6572245108E+00    0.1799553759E-03
    0.4100000000E+07    0.1985141751E-04    0.6958612912E+00    0.2602958004E-02    0.6577012675E+00    0.1804562230E-03
    0.4300000000E+07    0.1807917472E-04    0.6958608749E+00    0.2483561618E-02    0.6581342837E+00    0.1809345064E-03
    0.4500000000E+07    0.1653471369E-04    0.6958604747E+00    0.2374562179E-02    0.6585293076E+00    0.1813922242E-03
    0.4700000000E+07    0.1518063047E-04    0.6958600893E+00    0.2274661477E-02    0.6588911228E+00    0.1818311179E-03
    0.4900000000E+07    0.1398689116E-04    0.6958597176E+00    0.2182768545E-02    0.6592237428E+00    0.1822527151E-03
    0.1000000000E+07    0.2997439732E-03    0.6958716650E+00    0.9951190823E-02    0.6302466312E+00    0.1668461662E-03
    0.3000000000E+07    0.3660254423E-04    0.6958639389E+00    0.3535172892E-02    0.6543083939E+00    0.1773505155E-03
    0.5000000000E+07    0.1344235836E-04    0.6958595366E+00    0.2139530762E-02    0.6593801855E+00    0.1824574548E-03
    0.7000000000E+07    0.6938993176E-05    0.6958564499E+00    0.1531146548E-02    0.6615775041E+00    0.1859013596E-03
    0.9000000000E+07    0.4240317824E-05    0.6958540621E+00    0.1190956383E-02    0.6628034439E+00    0.1885159750E-03
    0.1100000000E+08    0.2867352026E-05    0.6958521095E+00    0.9738314170E-03    0.6635851701E+00    0.1906300772E-03
    0.1300000000E+08    0.2074728437E-05    0.6958504544E+00    0.8233040156E-03    0.6641269259E+00    0.1924080895E-03
    0.1500000000E+08    0.1575833541E-05    0.6958490162E+00    0.7128505266E-03    0.6645244225E+00    0.1939443370E-03
    0.1700000000E+08    0.1241414074E-05    0.6958477432E+00    0.6283722714E-03    0.6648284633E+00    0.1952980655E-03
    0.1900000000E+08    0.1006233435E-05    0.6958466004E+00    0.5616852918E-03    0.6650685120E+00    0.1965089748E-03
    0.2100000000E+08    0.8344748678E-06    0.6958455628E+00    0.5077142930E-03    0.6652628299E+00    0.1976049940E-03
    0.2300000000E+08    0.7051443572E-06    0.6958446123E+00    0.4631452512E-03    0.6654233366E+00    0.1986065317E-03
    0.2500000000E+08    0.6052741634E-06    0.6958437349E+00    0.4257227340E-03    0.6655581423E+00    0.1995289634E-03
    0.2700000000E+08    0.5265026443E-06    0.6958429198E+00    0.3938586777E-03    0.6656729567E+00    0.2003841662E-03
