  Pressure (Pa) 22mC5-500 (mol/kg) 24mC5-500 (mol/kg) 2mC6-500 (mol/kg) 3mC6-500 (mol/kg) C7-500 (mol/kg)
    0.1000000000E+01    0.1587355616E-04    0.3665736410E-01    0.1386515319E-04    0.1469843173E-05    0.4229152648E-02
    0.3000000000E+01    0.4195048685E-04    0.9946669827E-01    0.3583657284E-04    0.3800865651E-05    0.4344368017E-02
    0.5000000000E+01    0.6255771473E-04    0.1513228491E+00    0.5255534006E-04    0.5954082449E-05    0.4438358789E-02
    0.7000000000E+01    0.7915520524E-04    0.1948616499E+00    0.6554909401E-04    0.8020633453E-05    0.4517485309E-02
    0.9000000000E+01    0.9272877234E-04    0.2319359563E+00    0.7581961542E-04    0.1003152032E-04    0.4585153199E-02
    0.1100000000E+02    0.1039744304E-03    0.2638862842E+00    0.8405896123E-04    0.1200232837E-04    0.4643742974E-02
    0.1300000000E+02    0.1133974140E-03    0.2917064488E+00    0.9075914157E-04    0.1394236507E-04    0.4695004487E-02
    0.1500000000E+02    0.1213726466E-03    0.3161488457E+00    0.9627766508E-04    0.1585777954E-04    0.4740259532E-02
    0.1700000000E+02    0.1281835696E-03    0.3377935637E+00    0.1008790343E-03    0.1775291655E-04    0.4780527110E-02
    0.1900000000E+02    0.1340479333E-03    0.3570950410E+00    0.1047619756E-03    0.1963099736E-04    0.4816606171E-02
    0.2100000000E+02    0.1391353931E-03    0.3744143391E+00    0.1080778037E-03    0.2149449845E-04    0.4849132312E-02
    0.2300000000E+02    0.1435797908E-03    0.3900419564E+00    0.1109430908E-03    0.2334537852E-04    0.4878617699E-02
    0.2500000000E+02    0.1474878956E-03    0.4042142633E+00    0.1134485784E-03    0.2518522248E-04    0.4905479759E-02
    0.2700000000E+02    0.1509457357E-03    0.4171255490E+00    0.1156655535E-03    0.2701533703E-04    0.4930062209E-02
    0.2900000000E+02    0.1540232560E-03    0.4289369879E+00    0.1176504805E-03    0.2883681659E-04    0.4952650696E-02
    0.3100000000E+02    0.1567777927E-03    0.4397834063E+00    0.1194484126E-03    0.3065059006E-04    0.4973484612E-02
    0.3300000000E+02    0.1592566980E-03    0.4497784559E+00    0.1210955340E-03    0.3245745497E-04    0.4992766131E-02
    0.3500000000E+02    0.1614993472E-03    0.4590186137E+00    0.1226210770E-03    0.3425810294E-04    0.5010667196E-02
    0.3700000000E+02    0.1635386881E-03    0.4675863085E+00    0.1240487819E-03    0.3605313902E-04    0.5027334991E-02
    0.3900000000E+02    0.1654024497E-03    0.4755523881E+00    0.1253980186E-03    0.3784309668E-04    0.5042896265E-02
    0.4100000000E+02    0.1671140938E-03    0.4829780842E+00    0.1266846568E-03    0.3962844952E-04    0.5057460770E-02
    0.4300000000E+02    0.1686935696E-03    0.4899165908E+00    0.1279217460E-03    0.4140962063E-04    0.5071124033E-02
    0.4500000000E+02    0.1701579175E-03    0.4964143411E+00    0.1291200504E-03    0.4318699012E-04    0.5083969601E-02
    0.4700000000E+02    0.1715217551E-03    0.5025120484E+00    0.1302884732E-03    0.4496090122E-04    0.5096070868E-02
    0.4900000000E+02    0.1727976716E-03    0.5082455609E+00    0.1314343947E-03    0.4673166529E-04    0.5107492581E-02
    0.1000000000E+02    0.9860738425E-04    0.2484828330E+00    0.8015866442E-04    0.1102125503E-04    0.4615461584E-02
    0.3000000000E+02    0.1554377299E-03    0.4344732769E+00    0.1185703766E-03    0.2974461400E-04    0.4963273558E-02
    0.5000000000E+02    0.1734061193E-03    0.5109857925E+00    0.1320008755E-03    0.4761595683E-04    0.5112966785E-02
    0.7000000000E+02    0.1829432539E-03    0.5527087034E+00    0.1431784227E-03    0.6519407699E-04    0.5197742783E-02
    0.9000000000E+02    0.1902216252E-03    0.5789764734E+00    0.1551559175E-03    0.8267284573E-04    0.5252812737E-02
    0.1100000000E+03    0.1970150629E-03    0.5970351908E+00    0.1683141592E-03    0.1001518890E-03    0.5291639612E-02
    0.1300000000E+03    0.2039215419E-03    0.6102132002E+00    0.1825640001E-03    0.1176925254E-03    0.5320527717E-02
    0.1500000000E+03    0.2111532584E-03    0.6202536759E+00    0.1977520769E-03    0.1353369242E-03    0.5342841205E-02
    0.1700000000E+03    0.2187800901E-03    0.6281579478E+00    0.2137426119E-03    0.1531164269E-03    0.5360548050E-02
    0.1900000000E+03    0.2268162627E-03    0.6345422018E+00    0.2304293773E-03    0.1710557290E-03    0.5374880947E-02
    0.2100000000E+03    0.2352542595E-03    0.6398064164E+00    0.2477323642E-03    0.1891752058E-03    0.5386653984E-02
    0.2300000000E+03    0.2440788912E-03    0.6442215467E+00    0.2655921123E-03    0.2074923042E-03    0.5396427969E-02
    0.2500000000E+03    0.2532732906E-03    0.6479776692E+00    0.2839647030E-03    0.2260224261E-03    0.5404602750E-02
    0.2700000000E+03    0.2628214369E-03    0.6512120639E+00    0.3028178907E-03    0.2447795155E-03    0.5411471681E-02
    0.2900000000E+03    0.2727091341E-03    0.6540263564E+00    0.3221282358E-03    0.2637764638E-03    0.5417255227E-02
    0.3100000000E+03    0.2829242951E-03    0.6564973870E+00    0.3418790069E-03    0.2830253995E-03    0.5422122508E-02
    0.3300000000E+03    0.2934569185E-03    0.6586843335E+00    0.3620586444E-03    0.3025379007E-03    0.5426205571E-02
    0.3500000000E+03    0.3042989390E-03    0.6606335098E+00    0.3826596306E-03    0.3223251557E-03    0.5429609107E-02
    0.3700000000E+03    0.3154440355E-03    0.6623816814E+00    0.4036776512E-03    0.3423980862E-03    0.5432417230E-02
    0.3900000000E+03    0.3268874379E-03    0.6639584057E+00    0.4251109687E-03    0.3627674454E-03    0.5434698322E-02
    0.4100000000E+03    0.3386257471E-03    0.6653877158E+00    0.4469599500E-03    0.3834438967E-03    0.5436508542E-02
    0.4300000000E+03    0.3506567757E-03    0.6666893534E+00    0.4692267071E-03    0.4044380779E-03    0.5437894434E-02
    0.4500000000E+03    0.3629794105E-03    0.6678796862E+00    0.4919148231E-03    0.4257606559E-03    0.5438894877E-02
    0.4700000000E+03    0.3755934952E-03    0.6689723986E+00    0.5150291409E-03    0.4474223725E-03    0.5439542573E-02
    0.4900000000E+03    0.3884997313E-03    0.6699790204E+00    0.5385756001E-03    0.4694340852E-03    0.5439865192E-02
    0.1000000000E+03    0.1936276902E-03    0.5887710422E+00    0.1615895336E-03    0.9140790786E-04    0.5273764943E-02
    0.3000000000E+03    0.2777764541E-03    0.6553007319E+00    0.3319493969E-03    0.2733686988E-03    0.5419794410E-02
    0.5000000000E+03    0.3950628391E-03    0.6704531635E+00    0.5505130073E-03    0.4805746235E-03    0.5439912093E-02
    0.7000000000E+03    0.5423991259E-03    0.6771606361E+00    0.8141064114E-03    0.7245948718E-03    0.5427951087E-02
    0.9000000000E+03    0.7245046572E-03    0.6809428546E+00    0.1133761143E-02    0.1018257055E-02    0.5396581742E-02
    0.1100000000E+04    0.9510171023E-03    0.6833699371E+00    0.1527429991E-02    0.1378900022E-02    0.5347740056E-02
    0.1300000000E+04    0.1237041374E-02    0.6850589596E+00    0.2021820699E-02    0.1831413957E-02    0.5279424721E-02
    0.1500000000E+04    0.1605648307E-02    0.6863017706E+00    0.2657070708E-02    0.2412877582E-02    0.5186671186E-02
    0.1700000000E+04    0.2092522636E-02    0.6872542992E+00    0.3494947537E-02    0.3180246486E-02    0.5060961253E-02
    0.1900000000E+04    0.2753857640E-02    0.6880074227E+00    0.4632633097E-02    0.4223179423E-02    0.4888629035E-02
    0.2100000000E+04    0.3678635199E-02    0.6886176831E+00    0.6224210900E-02    0.5684093952E-02    0.4648383198E-02
    0.2300000000E+04    0.5002483186E-02    0.6891221011E+00    0.8505312312E-02    0.7781532656E-02    0.4309241939E-02
    0.2500000000E+04    0.6899033809E-02    0.6895459304E+00    0.1177996850E-01    0.1079963021E-01    0.3835955519E-02
    0.2700000000E+04    0.9463095198E-02    0.6899069877E+00    0.1622198731E-01    0.1490774826E-01    0.3223308924E-02
    0.2900000000E+04    0.1240945004E-01    0.6902182021E+00    0.2135486727E-01    0.1968089850E-01    0.2569041511E-02
    0.3100000000E+04    0.1502870760E-01    0.6904891830E+00    0.2596283427E-01    0.2400629076E-01    0.2059197433E-02
    0.3300000000E+04    0.1689356948E-01    0.6907272211E+00    0.2929935892E-01    0.2718785499E-01    0.1775784221E-02
    0.3500000000E+04    0.1815285358E-01    0.6909379476E+00    0.3160776199E-01    0.2943784516E-01    0.1652837143E-02
    0.3700000000E+04    0.1908667445E-01    0.6911257811E+00    0.3336450423E-01    0.3118923444E-01    0.1607236645E-02
    0.3900000000E+04    0.1986679350E-01    0.6912942367E+00    0.3486382632E-01    0.3271131621E-01    0.1592932459E-02
    0.4100000000E+04    0.2057127507E-01    0.6914461462E+00    0.3623985624E-01    0.3412722964E-01    0.1590404516E-02
    0.4300000000E+04    0.2123232784E-01    0.6915838156E+00    0.3754789184E-01    0.3548772797E-01    0.1592142468E-02
    0.4500000000E+04    0.2186310479E-01    0.6917091425E+00    0.3881033947E-01    0.3681323917E-01    0.1595351132E-02
    0.4700000000E+04    0.2246924360E-01    0.6918237020E+00    0.4003659658E-01    0.3811216173E-01    0.1599002616E-02
    0.4900000000E+04    0.2305345006E-01    0.6919288127E+00    0.4123098100E-01    0.3938819074E-01    0.1602722958E-02
    0.1000000000E+04    0.8314146639E-03    0.6822758543E+00    0.1319920949E-02    0.1188870805E-02    0.5374399879E-02
    0.3000000000E+04    0.1380277792E-01    0.6903582207E+00    0.2379857495E-01    0.2196806189E-01    0.2286340959E-02
    0.5000000000E+04    0.2333783555E-01    0.6919781791E+00    0.4181698508E-01    0.4001823395E-01    0.1604563170E-02
    0.7000000000E+04    0.2811552189E-01    0.6926659090E+00    0.5220200224E-01    0.5166381360E-01    0.1635823940E-02
    0.9000000000E+04    0.3155345122E-01    0.6930434521E+00    0.6056174501E-01    0.6182852338E-01    0.1659383411E-02
    0.1100000000E+05    0.3405565908E-01    0.6932805709E+00    0.6743562941E-01    0.7086829078E-01    0.1678331444E-02
    0.1300000000E+05    0.3588512501E-01    0.6934424555E+00    0.7318513686E-01    0.7902727316E-01    0.1694211701E-02
    0.1500000000E+05    0.3721948510E-01    0.6935594513E+00    0.7806198522E-01    0.8647942734E-01    0.1707899009E-02
    0.1700000000E+05    0.3818240734E-01    0.6936475741E+00    0.8224699905E-01    0.9335250902E-01    0.1719938244E-02
    0.1900000000E+05    0.3886220605E-01    0.6937160648E+00    0.8587354120E-01    0.9974278024E-01    0.1730692272E-02
    0.2100000000E+05    0.3932333041E-01    0.6937706233E+00    0.8904221476E-01    0.1057243844E+00    0.1740415173E-02
    0.2300000000E+05    0.3961369871E-01    0.6938149525E+00    0.9183040857E-01    0.1113555261E+00    0.1749291921E-02
    0.2500000000E+05    0.3976951940E-01    0.6938515606E+00    0.9429868073E-01    0.1166826651E+00    0.1757461451E-02
    0.2700000000E+05    0.3981854193E-01    0.6938822051E+00    0.9649513914E-01    0.1217434346E+00    0.1765030823E-02
    0.2900000000E+05    0.3978229855E-01    0.6939081535E+00    0.9845851664E-01    0.1265687192E+00    0.1772084314E-02
    0.3100000000E+05    0.3967768123E-01    0.6939303422E+00    0.1002203738E+00    0.1311841620E+00    0.1778689477E-02
    0.3300000000E+05    0.3951807080E-01    0.6939494775E+00    0.1018067054E+00    0.1356112791E+00    0.1784901311E-02
    0.3500000000E+05    0.3931415846E-01    0.6939661017E+00    0.1032391317E+00    0.1398682957E+00    0.1790765199E-02
    0.3700000000E+05    0.3907455203E-01    0.6939806380E+00    0.1045357938E+00    0.1439707833E+00    0.1796319036E-02
    0.3900000000E+05    0.3880622928E-01    0.6939934213E+00    0.1057120368E+00    0.1479321503E+00    0.1801594797E-02
    0.4100000000E+05    0.3851488089E-01    0.6940047198E+00    0.1067809370E+00    0.1517640266E+00    0.1806619713E-02
    0.4300000000E+05    0.3820517279E-01    0.6940147508E+00    0.1077537127E+00    0.1554765657E+00    0.1811417171E-02
    0.4500000000E+05    0.3788094880E-01    0.6940236921E+00    0.1086400483E+00    0.1590786863E+00    0.1816007404E-02
    0.4700000000E+05    0.3754538861E-01    0.6940316906E+00    0.1094483529E+00    0.1625782669E+00    0.1820408040E-02
    0.4900000000E+05    0.3720113195E-01    0.6940388686E+00    0.1101859666E+00    0.1659823030E+00    0.1824634530E-02
    0.1000000000E+05    0.3290259119E-01    0.6931742647E+00    0.6415864855E-01    0.6647174875E-01    0.1669315433E-02
    0.3000000000E+05    0.3973762890E-01    0.6939196692E+00    0.9936289577E-01    0.1289012403E+00    0.1775439244E-02
    0.5000000000E+05    0.3702644435E-01    0.6940421827E+00    0.1105303079E+00    0.1676504690E+00    0.1826686790E-02
    0.7000000000E+05    0.3344875078E-01    0.6940833340E+00    0.1149194289E+00    0.1972136074E+00    0.1861186835E-02
    0.9000000000E+05    0.3012258642E-01    0.6940997988E+00    0.1164163998E+00    0.2215743117E+00    0.1887358170E-02
    0.1100000000E+06    0.2721098126E-01    0.6941061500E+00    0.1164352335E+00    0.2424569626E+00    0.1908509505E-02
    0.1300000000E+06    0.2469399462E-01    0.6941076565E+00    0.1156242445E+00    0.2607928311E+00    0.1926292695E-02
    0.1500000000E+06    0.2251713359E-01    0.6941066200E+00    0.1143239406E+00    0.2771553807E+00    0.1941654348E-02
    0.1700000000E+06    0.2062578213E-01    0.6941041753E+00    0.1127296070E+00    0.2919294927E+00    0.1955188594E-02
    0.1900000000E+06    0.1897289105E-01    0.6941009309E+00    0.1109601839E+00    0.3053895393E+00    0.1967293341E-02
    0.2100000000E+06    0.1751968517E-01    0.6940972330E+00    0.1090912404E+00    0.3177399730E+00    0.1978248404E-02
    0.2300000000E+06    0.1623461473E-01    0.6940932876E+00    0.1071722410E+00    0.3291383731E+00    0.1988258188E-02
    0.2500000000E+06    0.1509203395E-01    0.6940892209E+00    0.1052362261E+00    0.3397094495E+00    0.1997476646E-02
    0.2700000000E+06    0.1407101408E-01    0.6940851125E+00    0.1033055389E+00    0.3495540202E+00    0.2006022678E-02
    0.2900000000E+06    0.1315437314E-01    0.6940810126E+00    0.1013953623E+00    0.3587550218E+00    0.2013990063E-02
    0.3100000000E+06    0.1232790958E-01    0.6940769534E+00    0.9951598066E-01    0.3673816797E+00    0.2021454090E-02
    0.3300000000E+06    0.1157980395E-01    0.6940729554E+00    0.9767426945E-01    0.3754924900E+00    0.2028476143E-02
    0.3500000000E+06    0.1090015251E-01    0.6940690312E+00    0.9587469989E-01    0.3831374064E+00    0.2035106933E-02
    0.3700000000E+06    0.1028060287E-01    0.6940651883E+00    0.9412003070E-01    0.3903594786E+00    0.2041388853E-02
    0.3900000000E+06    0.9714067516E-02    0.6940614308E+00    0.9241179257E-01    0.3971961046E+00    0.2047357703E-02
    0.4100000000E+06    0.9194497471E-02    0.6940577602E+00    0.9075063236E-01    0.4036800026E+00    0.2053043999E-02
    0.4300000000E+06    0.8716701987E-02    0.6940541767E+00    0.8913656076E-01    0.4098399770E+00    0.2058473967E-02
    0.4500000000E+06    0.8276204081E-02    0.6940506793E+00    0.8756913224E-01    0.4157015293E+00    0.2063670314E-02
    0.4700000000E+06    0.7869123924E-02    0.6940472663E+00    0.8604757693E-01    0.4212873518E+00    0.2068652833E-02
    0.4900000000E+06    0.7492084128E-02    0.6940439356E+00    0.8457089791E-01    0.4266177299E+00    0.2073438884E-02
    0.1000000000E+06    0.2861462417E-01    0.6941038034E+00    0.1165598073E+00    0.2323807497E+00    0.1898435087E-02
    0.3000000000E+06    0.1273065771E-01    0.6940789764E+00    0.1004513261E+00    0.3631362650E+00    0.2017780877E-02
    0.5000000000E+06    0.7313891962E-02    0.6940423003E+00    0.8384903151E-01    0.4291928912E+00    0.2075763090E-02
    0.7000000000E+06    0.4776033195E-02    0.6940132804E+00    0.7145503000E-01    0.4708643682E+00    0.2114854840E-02
    0.9000000000E+06    0.3371753705E-02    0.6939897111E+00    0.6211395595E-01    0.4998744864E+00    0.2144529382E-02
    0.1100000000E+07    0.2510131454E-02    0.6939699257E+00    0.5487688783E-01    0.5213262067E+00    0.2168521139E-02
    0.1300000000E+07    0.1942399920E-02    0.6939528826E+00    0.4912231810E-01    0.5378667324E+00    0.2188697377E-02
    0.1500000000E+07    0.1548147656E-02    0.6939379102E+00    0.4444395502E-01    0.5510233849E+00    0.2206129163E-02
    0.1700000000E+07    0.1263065550E-02    0.6939245544E+00    0.4056893747E-01    0.5617445898E+00    0.2221489172E-02
    0.1900000000E+07    0.1050181265E-02    0.6939124952E+00    0.3730840115E-01    0.5706524077E+00    0.2235228126E-02
    0.2100000000E+07    0.8869801850E-03    0.6939014988E+00    0.3452789582E-01    0.5781726211E+00    0.2247663087E-02
    0.2300000000E+07    0.7591020514E-03    0.6938913898E+00    0.3212928302E-01    0.5846068599E+00    0.2259025734E-02
    0.2500000000E+07    0.6570313863E-03    0.6938820327E+00    0.3003933428E-01    0.5901749575E+00    0.2269490603E-02
    0.2700000000E+07    0.5742577604E-03    0.6938733211E+00    0.2820233993E-01    0.5950410090E+00    0.2279192511E-02
    0.2900000000E+07    0.5062035011E-03    0.6938651698E+00    0.2657518751E-01    0.5993300321E+00    0.2288237806E-02
    0.3100000000E+07    0.4495731718E-03    0.6938575094E+00    0.2512400389E-01    0.6031389731E+00    0.2296711884E-02
    0.3300000000E+07    0.4019451369E-03    0.6938502829E+00    0.2382181334E-01    0.6065441828E+00    0.2304684371E-02
    0.3500000000E+07    0.3615073692E-03    0.6938434425E+00    0.2264687144E-01    0.6096066185E+00    0.2312212796E-02
    0.3700000000E+07    0.3268820355E-03    0.6938369481E+00    0.2158145846E-01    0.6123755434E+00    0.2319345253E-02
    0.3900000000E+07    0.2970063074E-03    0.6938307655E+00    0.2061099134E-01    0.6148912054E+00    0.2326122361E-02
    0.4100000000E+07    0.2710496908E-03    0.6938248655E+00    0.1972336029E-01    0.6171868119E+00    0.2332578746E-02
    0.4300000000E+07    0.2483556169E-03    0.6938192226E+00    0.1890842670E-01    0.6192900054E+00    0.2338744166E-02
    0.4500000000E+07    0.2283994817E-03    0.6938138148E+00    0.1815763844E-01    0.6212239838E+00    0.2344644390E-02
    0.4700000000E+07    0.2107580427E-03    0.6938086229E+00    0.1746373164E-01    0.6230083594E+00    0.2350301879E-02
    0.4900000000E+07    0.1950867891E-03    0.6938036298E+00    0.1682049729E-01    0.6246598264E+00    0.2355736336E-02
    0.1000000000E+07    0.2893050967E-02    0.6939794216E+00    0.5827754716E-01    0.5113437905E+00    0.2157092941E-02
    0.3000000000E+07    0.4766285440E-03    0.6938612821E+00    0.2582942504E-01    0.6012893280E+00    0.2292541575E-02
    0.5000000000E+07    0.1878995907E-03    0.6938012030E+00    0.1651618419E-01    0.6254402693E+00    0.2358375437E-02
    0.7000000000E+07    0.9990485828E-04    0.6937602132E+00    0.1211846974E-01    0.6366590965E+00    0.2402764891E-02
    0.9000000000E+07    0.6194388054E-04    0.6937289193E+00    0.9561181873E-02    0.6431344710E+00    0.2436462167E-02
    0.1100000000E+08    0.4219142153E-04    0.6937035318E+00    0.7890338337E-02    0.6473474772E+00    0.2463706784E-02
    0.1300000000E+08    0.3062231850E-04    0.6936821327E+00    0.6713757626E-02    0.6503062885E+00    0.2486618790E-02
    0.1500000000E+08    0.2326860445E-04    0.6936636139E+00    0.5840717567E-02    0.6524977697E+00    0.2506414323E-02
    0.1700000000E+08    0.1830509683E-04    0.6936472754E+00    0.5167367575E-02    0.6541857862E+00    0.2523857200E-02
    0.1900000000E+08    0.1479723134E-04    0.6936326468E+00    0.4632344570E-02    0.6555257298E+00    0.2539459223E-02
    0.2100000000E+08    0.1222627228E-04    0.6936193959E+00    0.4197070637E-02    0.6566150482E+00    0.2553580435E-02
    0.2300000000E+08    0.1028555781E-04    0.6936072795E+00    0.3836080698E-02    0.6575179418E+00    0.2566483922E-02
    0.2500000000E+08    0.8784372049E-05    0.6935961141E+00    0.3531890211E-02    0.6582784234E+00    0.2578367880E-02
    0.2700000000E+08    0.7599058690E-05    0.6935857577E+00    0.3272097624E-02    0.6589276717E+00    0.2589385408E-02
