  Pressure (Pa) 22mC5-500 (mol/kg) 24mC5-500 (mol/kg) 2mC6-500 (mol/kg) 3mC6-500 (mol/kg) C7-500 (mol/kg)
    0.1000000000E+01    0.1418649319E-04    0.9949592766E-01    0.6135903844E-05    0.3091802740E-05    0.4204212571E-02
    0.3000000000E+01    0.3138014128E-04    0.2320915773E+00    0.1300981187E-04    0.7943924443E-05    0.4264643785E-02
    0.5000000000E+01    0.4115509470E-04    0.3164327820E+00    0.1659626231E-04    0.1241514115E-04    0.4301912848E-02
    0.7000000000E+01    0.4727856929E-04    0.3748063547E+00    0.1872085721E-04    0.1670214251E-04    0.4327797212E-02
    0.9000000000E+01    0.5140022706E-04    0.4176054726E+00    0.2013007014E-04    0.2087152801E-04    0.4346908831E-02
    0.1100000000E+02    0.5434169740E-04    0.4503297806E+00    0.2116937642E-04    0.2495668987E-04    0.4361629832E-02
    0.1300000000E+02    0.5655024452E-04    0.4761621915E+00    0.2201235958E-04    0.2897753072E-04    0.4373331889E-02
    0.1500000000E+02    0.5828589792E-04    0.4970725729E+00    0.2275142684E-04    0.3294717909E-04    0.4382864249E-02
    0.1700000000E+02    0.5970768547E-04    0.5143453654E+00    0.2343781758E-04    0.3687489929E-04    0.4390782082E-02
    0.1900000000E+02    0.6091683868E-04    0.5288538513E+00    0.2410072870E-04    0.4076755256E-04    0.4397464205E-02
    0.2100000000E+02    0.6197991194E-04    0.5412124841E+00    0.2475704871E-04    0.4463040897E-04    0.4403178271E-02
    0.2300000000E+02    0.6294182998E-04    0.5518661668E+00    0.2541656619E-04    0.4846763342E-04    0.4408118944E-02
    0.2500000000E+02    0.6383358248E-04    0.5611449600E+00    0.2608487210E-04    0.5228259373E-04    0.4412431318E-02
    0.2700000000E+02    0.6467693268E-04    0.5692988916E+00    0.2676503146E-04    0.5607806501E-04    0.4416225829E-02
    0.2900000000E+02    0.6548739106E-04    0.5765208284E+00    0.2745857269E-04    0.5985637039E-04    0.4419588079E-02
    0.3100000000E+02    0.6627614487E-04    0.5829619284E+00    0.2816608620E-04    0.6361948085E-04    0.4422585490E-02
    0.3300000000E+02    0.6705134006E-04    0.5887423371E+00    0.2888759288E-04    0.6736908812E-04    0.4425271912E-02
    0.3500000000E+02    0.6781895080E-04    0.5939587536E+00    0.2962277392E-04    0.7110665886E-04    0.4427690903E-02
    0.3700000000E+02    0.6858338003E-04    0.5986898837E+00    0.3037111551E-04    0.7483347597E-04    0.4429878090E-02
    0.3900000000E+02    0.6934788098E-04    0.6030004389E+00    0.3113200032E-04    0.7855067037E-04    0.4431862909E-02
    0.4100000000E+02    0.7011485745E-04    0.6069441150E+00    0.3190476516E-04    0.8225924607E-04    0.4433669907E-02
    0.4300000000E+02    0.7088608027E-04    0.6105658397E+00    0.3268873727E-04    0.8596009999E-04    0.4435319720E-02
    0.4500000000E+02    0.7166284534E-04    0.6139034928E+00    0.3348325647E-04    0.8965403796E-04    0.4436829836E-02
    0.4700000000E+02    0.7244609009E-04    0.6169892356E+00    0.3428768853E-04    0.9334178774E-04    0.4438215172E-02
    0.4900000000E+02    0.7323648010E-04    0.6198505509E+00    0.3510143246E-04    0.9702400965E-04    0.4439488537E-02
    0.1000000000E+02    0.5298466610E-04    0.4349907254E+00    0.2068251071E-04    0.2292318384E-04    0.4354716315E-02
    0.3000000000E+02    0.6588391242E-04    0.5798308480E+00    0.2781057147E-04    0.6173971342E-04    0.4421128749E-02
    0.5000000000E+02    0.7363450458E-04    0.6212045631E+00    0.3551161863E-04    0.9886323777E-04    0.4440086749E-02
    0.7000000000E+02    0.8201709412E-04    0.6408019084E+00    0.4408765267E-04    0.1354796712E-03    0.4448204237E-02
    0.9000000000E+02    0.9114224570E-04    0.6522335234E+00    0.5316490674E-04    0.1720011870E-03    0.4451939268E-02
    0.1100000000E+03    0.1008651098E-03    0.6597230988E+00    0.6257314996E-04    0.2086413414E-03    0.4453396870E-02
    0.1300000000E+03    0.1110708405E-03    0.6650097669E+00    0.7223404768E-04    0.2455333944E-03    0.4453482865E-02
    0.1500000000E+03    0.1216832790E-03    0.6689407943E+00    0.8211006190E-04    0.2827707192E-03    0.4452656503E-02
    0.1700000000E+03    0.1326530982E-03    0.6719783281E+00    0.9218326605E-04    0.3204243207E-03    0.4451177452E-02
    0.1900000000E+03    0.1439484181E-03    0.6743958852E+00    0.1024459030E-03    0.3585516295E-03    0.4449204376E-02
    0.2100000000E+03    0.1555487894E-03    0.6763656812E+00    0.1128958420E-03    0.3972013882E-03    0.4446839977E-02
    0.2300000000E+03    0.1674414401E-03    0.6780015540E+00    0.1235342469E-03    0.4364165800E-03    0.4444153719E-02
    0.2500000000E+03    0.1796189052E-03    0.6793817676E+00    0.1343643133E-03    0.4762362903E-03    0.4441194203E-02
    0.2700000000E+03    0.1920774996E-03    0.6805619010E+00    0.1453905569E-03    0.5166969492E-03    0.4437996343E-02
    0.2900000000E+03    0.2048163105E-03    0.6815825121E+00    0.1566183981E-03    0.5578331954E-03    0.4434585722E-02
    0.3100000000E+03    0.2178365192E-03    0.6824738908E+00    0.1680539141E-03    0.5996784985E-03    0.4430981356E-02
    0.3300000000E+03    0.2311409354E-03    0.6832591153E+00    0.1797036895E-03    0.6422656233E-03    0.4427197515E-02
    0.3500000000E+03    0.2447336734E-03    0.6839560776E+00    0.1915747258E-03    0.6856269854E-03    0.4423244945E-02
    0.3700000000E+03    0.2586199231E-03    0.6845788630E+00    0.2036743876E-03    0.7297949326E-03    0.4419131724E-02
    0.3900000000E+03    0.2728057871E-03    0.6851387112E+00    0.2160103722E-03    0.7748019739E-03    0.4414863864E-02
    0.4100000000E+03    0.2872981652E-03    0.6856447005E+00    0.2285906948E-03    0.8206809698E-03    0.4410445749E-02
    0.4300000000E+03    0.3021046711E-03    0.6861042431E+00    0.2414236841E-03    0.8674652964E-03    0.4405880453E-02
    0.4500000000E+03    0.3172335751E-03    0.6865234512E+00    0.2545179842E-03    0.9151889887E-03    0.4401169987E-02
    0.4700000000E+03    0.3326937638E-03    0.6869074096E+00    0.2678825626E-03    0.9638868705E-03    0.4396315469E-02
    0.4900000000E+03    0.3484947139E-03    0.6872603827E+00    0.2815267211E-03    0.1013594673E-02    0.4391317271E-02
    0.1000000000E+03    0.9593717719E-04    0.6563316071E+00    0.5783388944E-04    0.1902968675E-03    0.4452880918E-02
    0.3000000000E+03    0.2112910983E-03    0.6820427717E+00    0.1623097958E-03    0.5786651551E-03    0.4432806771E-02
    0.5000000000E+03    0.3565260937E-03    0.6874263982E+00    0.2884566445E-03    0.1038838737E-02    0.4388764231E-02
    0.7000000000E+03    0.5378528535E-03    0.6897583906E+00    0.4443361036E-03    0.1606524596E-02    0.4329807767E-02
    0.9000000000E+03    0.7690818004E-03    0.6910599163E+00    0.6424150868E-03    0.2328186162E-02    0.4253307086E-02
    0.1100000000E+04    0.1072272447E-02    0.6918901195E+00    0.9018542276E-03    0.3274302541E-02    0.4152985207E-02
    0.1300000000E+04    0.1483225203E-02    0.6924656068E+00    0.1253522275E-02    0.4558294731E-02    0.4018172124E-02
    0.1500000000E+04    0.2062076394E-02    0.6928879058E+00    0.1749233782E-02    0.6370750710E-02    0.3831066250E-02
    0.1700000000E+04    0.2912360177E-02    0.6932109248E+00    0.2478334903E-02    0.9041000123E-02    0.3561864034E-02
    0.1900000000E+04    0.4208376359E-02    0.6934659397E+00    0.3591769929E-02    0.1312743304E-01    0.3162993961E-02
    0.2100000000E+04    0.6191673660E-02    0.6936723419E+00    0.5300511863E-02    0.1941696687E-01    0.2576717885E-02
    0.2300000000E+04    0.8948352004E-02    0.6938427929E+00    0.7686456286E-02    0.2823887285E-01    0.1811548403E-02
    0.2500000000E+04    0.1187313049E-01    0.6939859103E+00    0.1023880285E-01    0.3775148283E-01    0.1085703528E-02
    0.2700000000E+04    0.1405392740E-01    0.6941077628E+00    0.1217217244E-01    0.4506576995E-01    0.6535993872E-03
    0.2900000000E+04    0.1543547812E-01    0.6942127474E+00    0.1342964801E-01    0.4993927277E-01    0.4795811592E-03
    0.3100000000E+04    0.1640395374E-01    0.6943041278E+00    0.1433806039E-01    0.5355428833E-01    0.4226491467E-03
    0.3300000000E+04    0.1720165379E-01    0.6943843774E+00    0.1510451356E-01    0.5666747673E-01    0.4059017399E-03
    0.3500000000E+04    0.1792342638E-01    0.6944554049E+00    0.1581034481E-01    0.5957706687E-01    0.4016790948E-03
    0.3700000000E+04    0.1860197921E-01    0.6945187063E+00    0.1648352395E-01    0.6238542486E-01    0.4012364842E-03
    0.3900000000E+04    0.1924868465E-01    0.6945754711E+00    0.1713361495E-01    0.6512705847E-01    0.4019054668E-03
    0.4100000000E+04    0.1986797175E-01    0.6946266569E+00    0.1776417651E-01    0.6781427062E-01    0.4028779384E-03
    0.4300000000E+04    0.2046201344E-01    0.6946730430E+00    0.1837681939E-01    0.7045216557E-01    0.4039101830E-03
    0.4500000000E+04    0.2103222333E-01    0.6947152702E+00    0.1897250730E-01    0.7304347962E-01    0.4049300470E-03
    0.4700000000E+04    0.2157973413E-01    0.6947538704E+00    0.1955197372E-01    0.7559013349E-01    0.4059176855E-03
    0.4900000000E+04    0.2210555257E-01    0.6947892885E+00    0.2011585683E-01    0.7809373477E-01    0.4068691456E-03
    0.1000000000E+04    0.9098588113E-03    0.6915163574E+00    0.7628907635E-03    0.2767405640E-02    0.4206664881E-02
    0.3000000000E+04    0.1595151052E-01    0.6942599681E+00    0.1391055206E-01    0.5184230474E-01    0.4429278403E-03
    0.5000000000E+04    0.2236062089E-01    0.6948059239E+00    0.2039213971E-01    0.7932985077E-01    0.4073314762E-03
    0.7000000000E+04    0.2652395240E-01    0.6950378039E+00    0.2522662505E-01    0.1021072974E+00    0.4150973559E-03
    0.9000000000E+04    0.2931914846E-01    0.6951653436E+00    0.2901347407E-01    0.1218560220E+00    0.4209772094E-03
    0.1100000000E+05    0.3117881911E-01    0.6952456522E+00    0.3203726640E-01    0.1393045934E+00    0.4257239044E-03
    0.1300000000E+05    0.3238162883E-01    0.6953006432E+00    0.3448788866E-01    0.1549515152E+00    0.4297118727E-03
    0.1500000000E+05    0.3311360123E-01    0.6953405156E+00    0.3649691286E-01    0.1691506406E+00    0.4331550969E-03
    0.1700000000E+05    0.3350263010E-01    0.6953706535E+00    0.3815842539E-01    0.1821610048E+00    0.4361876299E-03
    0.1900000000E+05    0.3363883443E-01    0.6953941646E+00    0.3954153117E-01    0.1941772730E+00    0.4388991295E-03
    0.2100000000E+05    0.3358704574E-01    0.6954129666E+00    0.4069816629E-01    0.2053490862E+00    0.4413525795E-03
    0.2300000000E+05    0.3339473074E-01    0.6954283063E+00    0.4166814919E-01    0.2157937679E+00    0.4435939532E-03
    0.2500000000E+05    0.3309716593E-01    0.6954410288E+00    0.4248254481E-01    0.2256049158E+00    0.4456578539E-03
    0.2700000000E+05    0.3272090422E-01    0.6954517267E+00    0.4316596416E-01    0.2348583594E+00    0.4475709926E-03
    0.2900000000E+05    0.3228614954E-01    0.6954608278E+00    0.4373817247E-01    0.2436163842E+00    0.4493544268E-03
    0.3100000000E+05    0.3180841578E-01    0.6954686483E+00    0.4421523727E-01    0.2519307867E+00    0.4510250566E-03
    0.3300000000E+05    0.3129970651E-01    0.6954754270E+00    0.4461036288E-01    0.2598451235E+00    0.4525966561E-03
    0.3500000000E+05    0.3076936690E-01    0.6954813474E+00    0.4493450723E-01    0.2673963942E+00    0.4540806018E-03
    0.3700000000E+05    0.3022470799E-01    0.6954865529E+00    0.4519684463E-01    0.2746163181E+00    0.4554864011E-03
    0.3900000000E+05    0.2967146982E-01    0.6954911571E+00    0.4540511762E-01    0.2815323166E+00    0.4568220818E-03
    0.4100000000E+05    0.2911416914E-01    0.6954952509E+00    0.4556590798E-01    0.2881682780E+00    0.4580944852E-03
    0.4300000000E+05    0.2855636309E-01    0.6954989082E+00    0.4568484773E-01    0.2945451589E+00    0.4593094900E-03
    0.4500000000E+05    0.2800085125E-01    0.6955021895E+00    0.4576678529E-01    0.3006814633E+00    0.4604721853E-03
    0.4700000000E+05    0.2744983170E-01    0.6955051449E+00    0.4581591749E-01    0.3065936268E+00    0.4615870066E-03
    0.4900000000E+05    0.2690502250E-01    0.6955078159E+00    0.4583589550E-01    0.3122963278E+00    0.4626578437E-03
    0.1000000000E+05    0.3034579321E-01    0.6952096201E+00    0.3060719240E-01    0.1308325089E+00    0.4234635573E-03
    0.3000000000E+05    0.3205183384E-01    0.6954648817E+00    0.4398771355E-01    0.2478261449E+00    0.4502029178E-03
    0.5000000000E+05    0.2663537634E-01    0.6955090560E+00    0.4583596486E-01    0.3150732998E+00    0.4631778560E-03
    0.7000000000E+05    0.2175822613E-01    0.6955250713E+00    0.4490271280E-01    0.3622152454E+00    0.4719235001E-03
    0.9000000000E+05    0.1791766525E-01    0.6955323292E+00    0.4307611721E-01    0.3978604181E+00    0.4785617725E-03
    0.1100000000E+06    0.1493991342E-01    0.6955358915E+00    0.4098588949E-01    0.4259687945E+00    0.4839286236E-03
    0.1300000000E+06    0.1261461022E-01    0.6955376183E+00    0.3887970106E-01    0.4487680358E+00    0.4884419160E-03
    0.1500000000E+06    0.1077574983E-01    0.6955383371E+00    0.3685970355E-01    0.4676537148E+00    0.4923412947E-03
    0.1700000000E+06    0.9301777331E-02    0.6955384646E+00    0.3496569307E-01    0.4835600508E+00    0.4957772507E-03
    0.1900000000E+06    0.8104825250E-02    0.6955382293E+00    0.3320911262E-01    0.4971415280E+00    0.4988506118E-03
    0.2100000000E+06    0.7121047521E-02    0.6955377651E+00    0.3158829847E-01    0.5088724130E+00    0.5016323028E-03
    0.2300000000E+06    0.6303528307E-02    0.6955371541E+00    0.3009571876E-01    0.5191056298E+00    0.5041741467E-03
    0.2500000000E+06    0.5617337610E-02    0.6955364487E+00    0.2872152183E-01    0.5281095764E+00    0.5065151828E-03
    0.2700000000E+06    0.5036119817E-02    0.6955356833E+00    0.2745529226E-01    0.5360921402E+00    0.5086855667E-03
    0.2900000000E+06    0.4539730625E-02    0.6955348810E+00    0.2628690462E-01    0.5432168946E+00    0.5107090854E-03
    0.3100000000E+06    0.4112584262E-02    0.6955340575E+00    0.2520691318E-01    0.5496143274E+00    0.5126048389E-03
    0.3300000000E+06    0.3742483632E-02    0.6955332238E+00    0.2420670117E-01    0.5553898060E+00    0.5143884005E-03
    0.3500000000E+06    0.3419781764E-02    0.6955323877E+00    0.2327850667E-01    0.5606293425E+00    0.5160726376E-03
    0.3700000000E+06    0.3136773147E-02    0.6955315543E+00    0.2241538728E-01    0.5654038372E+00    0.5176683069E-03
    0.3900000000E+06    0.2887246520E-02    0.6955307276E+00    0.2161115703E-01    0.5697722539E+00    0.5191844936E-03
    0.4100000000E+06    0.2666152455E-02    0.6955299103E+00    0.2086031323E-01    0.5737840250E+00    0.5206289421E-03
    0.4300000000E+06    0.2469353533E-02    0.6955291040E+00    0.2015796272E-01    0.5774808993E+00    0.5220083086E-03
    0.4500000000E+06    0.2293434642E-02    0.6955283100E+00    0.1949975195E-01    0.5808983759E+00    0.5233283562E-03
    0.4700000000E+06    0.2135557509E-02    0.6955275292E+00    0.1888180305E-01    0.5840668285E+00    0.5245941092E-03
    0.4900000000E+06    0.1993348140E-02    0.6955267621E+00    0.1830065663E-01    0.5870123967E+00    0.5258099739E-03
    0.1000000000E+06    0.1633491524E-01    0.6955344194E+00    0.4204349738E-01    0.4126914598E+00    0.4813721971E-03
    0.3000000000E+06    0.4318332676E-02    0.6955344711E+00    0.2573641806E-01    0.5464994283E+00    0.5116718878E-03
    0.5000000000E+06    0.1927481917E-02    0.6955263837E+00    0.1802290511E-01    0.5884087878E+00    0.5264004307E-03
    0.7000000000E+06    0.1083023590E-02    0.6955195229E+00    0.1380219858E-01    0.6087928966E+00    0.5363322625E-03
    0.9000000000E+06    0.6917401013E-03    0.6955138111E+00    0.1116371795E-01    0.6208228387E+00    0.5438723191E-03
    0.1100000000E+07    0.4793819551E-03    0.6955089548E+00    0.9363664464E-02    0.6287537076E+00    0.5499688822E-03
    0.1300000000E+07    0.3515239759E-03    0.6955047390E+00    0.8059041810E-02    0.6343727513E+00    0.5550961750E-03
    0.1500000000E+07    0.2686715589E-03    0.6955010161E+00    0.7070845956E-02    0.6385608877E+00    0.5595262391E-03
    0.1700000000E+07    0.2119576878E-03    0.6954976827E+00    0.6296800362E-02    0.6418022575E+00    0.5634299405E-03
    0.1900000000E+07    0.1714514899E-03    0.6954946643E+00    0.5674316084E-02    0.6443848903E+00    0.5669217732E-03
    0.2100000000E+07    0.1415237462E-03    0.6954919059E+00    0.5162978929E-02    0.6464908224E+00    0.5700822828E-03
    0.2300000000E+07    0.1187912190E-03    0.6954893655E+00    0.4735543652E-02    0.6482407220E+00    0.5729703266E-03
    0.2500000000E+07    0.1011216867E-03    0.6954870106E+00    0.4372981672E-02    0.6497177275E+00    0.5756302457E-03
    0.2700000000E+07    0.8711750229E-04    0.6954848155E+00    0.4061604707E-02    0.6509809790E+00    0.5780962927E-03
    0.2900000000E+07    0.7583171233E-04    0.6954827595E+00    0.3791316398E-02    0.6520736902E+00    0.5803954872E-03
    0.3100000000E+07    0.6660434650E-04    0.6954808255E+00    0.3554507953E-02    0.6530281699E+00    0.5825495259E-03
    0.3300000000E+07    0.5896408520E-04    0.6954789996E+00    0.3345337293E-02    0.6538690556E+00    0.5845760998E-03
    0.3500000000E+07    0.5256709074E-04    0.6954772701E+00    0.3159244919E-02    0.6546154618E+00    0.5864898263E-03
    0.3700000000E+07    0.4715777939E-04    0.6954756271E+00    0.2992620592E-02    0.6552824454E+00    0.5883029253E-03
    0.3900000000E+07    0.4254298231E-04    0.6954740621E+00    0.2842568751E-02    0.6558820269E+00    0.5900257182E-03
    0.4100000000E+07    0.3857451760E-04    0.6954725679E+00    0.2706740162E-02    0.6564239194E+00    0.5916670032E-03
    0.4300000000E+07    0.3513718468E-04    0.6954711382E+00    0.2583208990E-02    0.6569160564E+00    0.5932343423E-03
    0.4500000000E+07    0.3214033576E-04    0.6954697675E+00    0.2470381608E-02    0.6573649814E+00    0.5947342831E-03
    0.4700000000E+07    0.2951185645E-04    0.6954684510E+00    0.2366927988E-02    0.6577761392E+00    0.5961725336E-03
    0.4900000000E+07    0.2719379974E-04    0.6954671845E+00    0.2271729408E-02    0.6581540976E+00    0.5975541002E-03
    0.1000000000E+07    0.5710876902E-03    0.6955112913E+00    0.1018579286E-01    0.6251578713E+00    0.5470648056E-03
    0.3000000000E+07    0.7099375368E-04    0.6954817781E+00    0.3669127157E-02    0.6525665187E+00    0.5814894639E-03
    0.5000000000E+07    0.2613613698E-04    0.6954665689E+00    0.2226923819E-02    0.6583318571E+00    0.5982250273E-03
    0.7000000000E+07    0.1349070982E-04    0.6954561565E+00    0.1595640456E-02    0.6608280899E+00    0.6095104993E-03
    0.9000000000E+07    0.8235313072E-05    0.6954481935E+00    0.1241966562E-02    0.6622204326E+00    0.6180782858E-03
    0.1100000000E+08    0.5559910808E-05    0.6954417263E+00    0.1015982467E-02    0.6631081511E+00    0.6250058532E-03
    0.1300000000E+08    0.4015094469E-05    0.6954362709E+00    0.8591977949E-03    0.6637233211E+00    0.6308320425E-03
    0.1500000000E+08    0.3042832906E-05    0.6954315469E+00    0.7440928254E-03    0.6641746679E+00    0.6358659684E-03
    0.1700000000E+08    0.2391276917E-05    0.6954273771E+00    0.6560227029E-03    0.6645198929E+00    0.6403017844E-03
    0.1900000000E+08    0.1933249838E-05    0.6954236421E+00    0.5864793394E-03    0.6647924567E+00    0.6442695895E-03
    0.2100000000E+08    0.1598905718E-05    0.6954202576E+00    0.5301830719E-03    0.6650130962E+00    0.6478609080E-03
    0.2300000000E+08    0.1347296352E-05    0.6954171619E+00    0.4836846972E-03    0.6651953459E+00    0.6511426197E-03
    0.2500000000E+08    0.1153125964E-05    0.6954143084E+00    0.4446358274E-03    0.6653484146E+00    0.6541651098E-03
    0.2700000000E+08    0.1000083235E-05    0.6954116609E+00    0.4113823910E-03    0.6654787853E+00    0.6569672999E-03
