  Pressure (Pa) 22mC5-500 (mol/kg) 24mC5-500 (mol/kg) 2mC6-500 (mol/kg) 3mC6-500 (mol/kg) C7-500 (mol/kg)
    0.1000000000E+01    0.1344367608E-04    0.1266275928E+00    0.5781711610E-05    0.2318545700E-05    0.4202446620E-02
    0.3000000000E+01    0.2776583366E-04    0.2785006771E+00    0.1137830691E-04    0.5955814446E-05    0.4255181821E-02
    0.5000000000E+01    0.3497008065E-04    0.3663886996E+00    0.1394213225E-04    0.9306074088E-05    0.4284765707E-02
    0.7000000000E+01    0.3915770666E-04    0.4236925447E+00    0.1539429894E-04    0.1251696508E-04    0.4304170986E-02
    0.9000000000E+01    0.4186491206E-04    0.4640110198E+00    0.1638745086E-04    0.1563850086E-04    0.4317955769E-02
    0.1100000000E+02    0.4377564029E-04    0.4939214800E+00    0.1718228084E-04    0.1869576667E-04    0.4328281350E-02
    0.1300000000E+02    0.4523088775E-04    0.5169934849E+00    0.1789371130E-04    0.2170371882E-04    0.4336317253E-02
    0.1500000000E+02    0.4641485787E-04    0.5353317314E+00    0.1857554127E-04    0.2467222591E-04    0.4342754528E-02
    0.1700000000E+02    0.4743314336E-04    0.5502575723E+00    0.1925371547E-04    0.2760825361E-04    0.4348028847E-02
    0.1900000000E+02    0.4834907157E-04    0.5626424354E+00    0.1994071861E-04    0.3051696188E-04    0.4352429034E-02
    0.2100000000E+02    0.4920196837E-04    0.5730843038E+00    0.2064226643E-04    0.3340231477E-04    0.4356154422E-02
    0.2300000000E+02    0.5001691974E-04    0.5820071702E+00    0.2136059012E-04    0.3626744551E-04    0.4359347205E-02
    0.2500000000E+02    0.5081025668E-04    0.5897200270E+00    0.2209611641E-04    0.3911488792E-04    0.4362111656E-02
    0.2700000000E+02    0.5159276735E-04    0.5964533811E+00    0.2284835314E-04    0.4194673005E-04    0.4364526056E-02
    0.2900000000E+02    0.5237164454E-04    0.6023826851E+00    0.2361636560E-04    0.4476471988E-04    0.4366650372E-02
    0.3100000000E+02    0.5315170170E-04    0.6076438485E+00    0.2439903494E-04    0.4757034042E-04    0.4368531355E-02
    0.3300000000E+02    0.5393615144E-04    0.6123437834E+00    0.2519519796E-04    0.5036486446E-04    0.4370206018E-02
    0.3500000000E+02    0.5472711496E-04    0.6165677464E+00    0.2600372101E-04    0.5314939538E-04    0.4371704068E-02
    0.3700000000E+02    0.5552596155E-04    0.6203845579E+00    0.2682353698E-04    0.5592489814E-04    0.4373049636E-02
    0.3900000000E+02    0.5633353859E-04    0.6238503804E+00    0.2765366155E-04    0.5869222322E-04    0.4374262544E-02
    0.4100000000E+02    0.5715032951E-04    0.6270115008E+00    0.2849319791E-04    0.6145212551E-04    0.4375359231E-02
    0.4300000000E+02    0.5797656354E-04    0.6299064100E+00    0.2934133515E-04    0.6420527915E-04    0.4376353453E-02
    0.4500000000E+02    0.5881229276E-04    0.6325673774E+00    0.3019734342E-04    0.6695228966E-04    0.4377256817E-02
    0.4700000000E+02    0.5965744666E-04    0.6350216597E+00    0.3106056765E-04    0.6969370365E-04    0.4378079186E-02
    0.4900000000E+02    0.6051187092E-04    0.6372924375E+00    0.3193042068E-04    0.7243001689E-04    0.4378829002E-02
    0.1000000000E+02    0.4289345950E-04    0.4799979779E+00    0.1680043199E-04    0.1717407568E-04    0.4323462757E-02
    0.3000000000E+02    0.5276129431E-04    0.6050895213E+00    0.2400594092E-04    0.4616899237E-04    0.4367618771E-02
    0.5000000000E+02    0.6094249533E-04    0.6383653256E+00    0.3236766643E-04    0.7379640341E-04    0.4379179014E-02
    0.7000000000E+02    0.6997912763E-04    0.6537744182E+00    0.4135918949E-04    0.1009478476E-03    0.4383698828E-02
    0.9000000000E+02    0.7965272545E-04    0.6626609501E+00    0.5066176871E-04    0.1279316895E-03    0.4385402133E-02
    0.1100000000E+03    0.8978239811E-04    0.6684428790E+00    0.6016009409E-04    0.1549060782E-03    0.4385643526E-02
    0.1300000000E+03    0.1002621653E-03    0.6725051613E+00    0.6980869083E-04    0.1819681864E-03    0.4385002977E-02
    0.1500000000E+03    0.1110300675E-03    0.6755156224E+00    0.7958927050E-04    0.2091847312E-03    0.4383774306E-02
    0.1700000000E+03    0.1220490048E-03    0.6778359220E+00    0.8949537839E-04    0.2366052183E-03    0.4382123840E-02
    0.1900000000E+03    0.1332964075E-03    0.6796789655E+00    0.9952615265E-04    0.2642685946E-03    0.4380153446E-02
    0.2100000000E+03    0.1447585762E-03    0.6811782532E+00    0.1096835381E-03    0.2922069429E-03    0.4377929257E-02
    0.2300000000E+03    0.1564274553E-03    0.6824217419E+00    0.1199709518E-03    0.3204476942E-03    0.4375496168E-02
    0.2500000000E+03    0.1682987190E-03    0.6834697396E+00    0.1303926109E-03    0.3490150301E-03    0.4372885731E-02
    0.2700000000E+03    0.1803705924E-03    0.6843649783E+00    0.1409531805E-03    0.3779308148E-03    0.4370120727E-02
    0.2900000000E+03    0.1926431026E-03    0.6851385819E+00    0.1516575870E-03    0.4072152380E-03    0.4367217961E-02
    0.3100000000E+03    0.2051175892E-03    0.6858137572E+00    0.1625109181E-03    0.4368872744E-03    0.4364190029E-02
    0.3300000000E+03    0.2177963770E-03    0.6864081606E+00    0.1735183707E-03    0.4669650202E-03    0.4361046483E-02
    0.3500000000E+03    0.2306825525E-03    0.6869354642E+00    0.1846852254E-03    0.4974659481E-03    0.4357794622E-02
    0.3700000000E+03    0.2437798096E-03    0.6874064192E+00    0.1960168374E-03    0.5284071022E-03    0.4354440037E-02
    0.3900000000E+03    0.2570923408E-03    0.6878295965E+00    0.2075186349E-03    0.5598052534E-03    0.4350987007E-02
    0.4100000000E+03    0.2706247604E-03    0.6882119129E+00    0.2191961240E-03    0.5916770233E-03    0.4347438775E-02
    0.4300000000E+03    0.2843820504E-03    0.6885590116E+00    0.2310548955E-03    0.6240389868E-03    0.4343797764E-02
    0.4500000000E+03    0.2983695216E-03    0.6888755423E+00    0.2431006338E-03    0.6569077573E-03    0.4340065729E-02
    0.4700000000E+03    0.3125927865E-03    0.6891653710E+00    0.2553391273E-03    0.6903000605E-03    0.4336243876E-02
    0.4900000000E+03    0.3270577415E-03    0.6894317379E+00    0.2677762779E-03    0.7242327970E-03    0.4332332953E-02
    0.1000000000E+03    0.8466851779E-04    0.6658285804E+00    0.5539023241E-04    0.1414130492E-03    0.4385659554E-02
    0.3000000000E+03    0.1988549736E-03    0.6854872608E+00    0.1570653144E-03    0.4220016563E-03    0.4365718983E-02
    0.5000000000E+03    0.3343827696E-03    0.6895569954E+00    0.2740712279E-03    0.7414071712E-03    0.4330344218E-02
    0.7000000000E+03    0.4952406599E-03    0.6913148294E+00    0.4119685251E-03    0.1117677764E-02    0.4285819133E-02
    0.9000000000E+03    0.6892493745E-03    0.6922945636E+00    0.5779055135E-03    0.1570770883E-02    0.4231250952E-02
    0.1100000000E+04    0.9276318141E-03    0.6929189922E+00    0.7816680352E-03    0.2127671950E-02    0.4164082262E-02
    0.1300000000E+04    0.1226700258E-02    0.6933515981E+00    0.1037335966E-02    0.2827157363E-02    0.4080241335E-02
    0.1500000000E+04    0.1610820894E-02    0.6936689200E+00    0.1365894616E-02    0.3727054696E-02    0.3973561822E-02
    0.1700000000E+04    0.2117402472E-02    0.6939115653E+00    0.1799568298E-02    0.4916264681E-02    0.3834658082E-02
    0.1900000000E+04    0.2805164086E-02    0.6941030792E+00    0.2389002486E-02    0.6534733134E-02    0.3649092703E-02
    0.2100000000E+04    0.3766761426E-02    0.6942580531E+00    0.3214289882E-02    0.8804284122E-02    0.3394812573E-02
    0.2300000000E+04    0.5142237871E-02    0.6943860110E+00    0.4396948489E-02    0.1206273745E-01    0.3040300950E-02
    0.2500000000E+04    0.7106343304E-02    0.6944934331E+00    0.6089920894E-02    0.1673879569E-01    0.2551160369E-02
    0.2700000000E+04    0.9739354406E-02    0.6945848818E+00    0.8367739195E-02    0.2305275994E-01    0.1927092471E-02
    0.2900000000E+04    0.1272091177E-01    0.6946636619E+00    0.1096221105E-01    0.3028539173E-01    0.1273803738E-02
    0.3100000000E+04    0.1533296200E-01    0.6947322260E+00    0.1325822118E-01    0.3674820465E-01    0.7751439109E-03
    0.3300000000E+04    0.1718547957E-01    0.6947924326E+00    0.1491469529E-01    0.4148622453E-01    0.5008650414E-03
    0.3500000000E+04    0.1844784440E-01    0.6948457154E+00    0.1607100834E-01    0.4486678475E-01    0.3807231256E-03
    0.3700000000E+04    0.1939648497E-01    0.6948931984E+00    0.1696212231E-01    0.4753010262E-01    0.3339826891E-03
    0.3900000000E+04    0.2019684396E-01    0.6949357749E+00    0.1772961359E-01    0.4986456399E-01    0.3169039005E-03
    0.4100000000E+04    0.2092360305E-01    0.6949741639E+00    0.1843756911E-01    0.5204650711E-01    0.3110685111E-03
    0.4300000000E+04    0.2160752164E-01    0.6950089508E+00    0.1911235653E-01    0.5414845285E-01    0.3093976221E-03
    0.4500000000E+04    0.2226115319E-01    0.6950406166E+00    0.1976464562E-01    0.5619954082E-01    0.3092519153E-03
    0.4700000000E+04    0.2288987622E-01    0.6950695608E+00    0.2039890206E-01    0.5821171395E-01    0.3096550618E-03
    0.4900000000E+04    0.2349627365E-01    0.6950961172E+00    0.2101717192E-01    0.6019019891E-01    0.3102461190E-03
    0.1000000000E+04    0.8020209347E-03    0.6926379212E+00    0.6743036534E-03    0.1834166397E-02    0.4199456306E-02
    0.3000000000E+04    0.1411396042E-01    0.6946990932E+00    0.1218286944E-01    0.3371103272E-01    0.9962075172E-03
    0.5000000000E+04    0.2379158527E-01    0.6951085898E+00    0.2132067323E-01    0.6116767106E-01    0.3105662793E-03
    0.7000000000E+04    0.2875888767E-01    0.6952824025E+00    0.2671194292E-01    0.7929375649E-01    0.3164188739E-03
    0.9000000000E+04    0.3232640180E-01    0.6953779596E+00    0.3106039773E-01    0.9518674196E-01    0.3208921692E-03
    0.1100000000E+05    0.3490086633E-01    0.6954381055E+00    0.3463147804E-01    0.1093576005E+00    0.3245049707E-03
    0.1300000000E+05    0.3675298977E-01    0.6954792749E+00    0.3760686877E-01    0.1221636642E+00    0.3275411601E-03
    0.1500000000E+05    0.3806896266E-01    0.6955091151E+00    0.4011525770E-01    0.1338633923E+00    0.3301631419E-03
    0.1700000000E+05    0.3898034390E-01    0.6955316621E+00    0.4225039128E-01    0.1446488998E+00    0.3324727289E-03
    0.1900000000E+05    0.3958224111E-01    0.6955492453E+00    0.4408222334E-01    0.1546663644E+00    0.3345380512E-03
    0.2100000000E+05    0.3994477097E-01    0.6955633018E+00    0.4566405085E-01    0.1640292862E+00    0.3364069883E-03
    0.2300000000E+05    0.4012050852E-01    0.6955747659E+00    0.4703722516E-01    0.1728273702E+00    0.3381144992E-03
    0.2500000000E+05    0.4014946034E-01    0.6955842706E+00    0.4823434752E-01    0.1811326337E+00    0.3396869036E-03
    0.2700000000E+05    0.4006246335E-01    0.6955922599E+00    0.4928148878E-01    0.1890037057E+00    0.3411445223E-03
    0.2900000000E+05    0.3988355643E-01    0.6955990541E+00    0.5019976400E-01    0.1964889160E+00    0.3425033779E-03
    0.3100000000E+05    0.3963166607E-01    0.6956048902E+00    0.5100647073E-01    0.2036285548E+00    0.3437763317E-03
    0.3300000000E+05    0.3932182459E-01    0.6956099469E+00    0.5171592587E-01    0.2104565550E+00    0.3449738669E-03
    0.3500000000E+05    0.3896606361E-01    0.6956143616E+00    0.5234009044E-01    0.2170017615E+00    0.3461046435E-03
    0.3700000000E+05    0.3857407850E-01    0.6956182417E+00    0.5288904249E-01    0.2232889030E+00    0.3471758988E-03
    0.3900000000E+05    0.3815372837E-01    0.6956216721E+00    0.5337133967E-01    0.2293393451E+00    0.3481937447E-03
    0.4100000000E+05    0.3771141671E-01    0.6956247209E+00    0.5379430043E-01    0.2351716804E+00    0.3491633901E-03
    0.4300000000E+05    0.3725238412E-01    0.6956274436E+00    0.5416422442E-01    0.2408021954E+00    0.3500893111E-03
    0.4500000000E+05    0.3678093556E-01    0.6956298852E+00    0.5448656705E-01    0.2462452444E+00    0.3509753831E-03
    0.4700000000E+05    0.3630061824E-01    0.6956320832E+00    0.5476607892E-01    0.2515135507E+00    0.3518249838E-03
    0.4900000000E+05    0.3581436215E-01    0.6956340688E+00    0.5500691812E-01    0.2566184511E+00    0.3526410753E-03
    0.1000000000E+05    0.3371840203E-01    0.6954111226E+00    0.3293023452E-01    0.1024622902E+00    0.3227844222E-03
    0.3000000000E+05    0.3976571517E-01    0.6956020796E+00    0.5061610695E-01    0.2000996786E+00    0.3431498890E-03
    0.5000000000E+05    0.3556978187E-01    0.6956349903E+00    0.5511399568E-01    0.2591128380E+00    0.3530373837E-03
    0.7000000000E+05    0.3077018263E-01    0.6956468615E+00    0.5591715390E-01    0.3024143451E+00    0.3597028766E-03
    0.9000000000E+05    0.2655441929E-01    0.6956522023E+00    0.5524193526E-01    0.3365781689E+00    0.3647625599E-03
    0.1100000000E+06    0.2302801851E-01    0.6956547933E+00    0.5390012424E-01    0.3645754848E+00    0.3688533204E-03
    0.1300000000E+06    0.2010496636E-01    0.6956560219E+00    0.5225673609E-01    0.3880773052E+00    0.3722935599E-03
    0.1500000000E+06    0.1767633256E-01    0.6956565045E+00    0.5049452730E-01    0.4081461041E+00    0.3752658984E-03
    0.1700000000E+06    0.1564603651E-01    0.6956565509E+00    0.4871029602E-01    0.4255103981E+00    0.3778850231E-03
    0.1900000000E+06    0.1393622720E-01    0.6956563310E+00    0.4695644359E-01    0.4406953603E+00    0.3802277770E-03
    0.2100000000E+06    0.1248542243E-01    0.6956559439E+00    0.4526105026E-01    0.4540932307E+00    0.3823482151E-03
    0.2300000000E+06    0.1124534915E-01    0.6956554504E+00    0.4363835884E-01    0.4660048315E+00    0.3842858350E-03
    0.2500000000E+06    0.1017802536E-01    0.6956548891E+00    0.4209456234E-01    0.4766657083E+00    0.3860703917E-03
    0.2700000000E+06    0.9253400774E-02    0.6956542854E+00    0.4063113033E-01    0.4862634268E+00    0.3877248696E-03
    0.2900000000E+06    0.8447534165E-02    0.6956536561E+00    0.3924677745E-01    0.4949494638E+00    0.3892673992E-03
    0.3100000000E+06    0.7741208022E-02    0.6956530129E+00    0.3793865223E-01    0.5028476322E+00    0.3907125389E-03
    0.3300000000E+06    0.7118879576E-02    0.6956523637E+00    0.3670306443E-01    0.5100602001E+00    0.3920721588E-03
    0.3500000000E+06    0.6567884881E-02    0.6956517140E+00    0.3553593248E-01    0.5166724259E+00    0.3933560670E-03
    0.3700000000E+06    0.6077831961E-02    0.6956510677E+00    0.3443305801E-01    0.5227559781E+00    0.3945724625E-03
    0.3900000000E+06    0.5640135165E-02    0.6956504276E+00    0.3339029216E-01    0.5283715530E+00    0.3957282705E-03
    0.4100000000E+06    0.5247655391E-02    0.6956497954E+00    0.3240363349E-01    0.5335709045E+00    0.3968293942E-03
    0.4300000000E+06    0.4894420090E-02    0.6956491725E+00    0.3146928241E-01    0.5383984364E+00    0.3978809070E-03
    0.4500000000E+06    0.4575403798E-02    0.6956485597E+00    0.3058366805E-01    0.5428924644E+00    0.3988872021E-03
    0.4700000000E+06    0.4286354897E-02    0.6956479575E+00    0.2974345779E-01    0.5470862255E+00    0.3998521092E-03
    0.4900000000E+06    0.4023657920E-02    0.6956473663E+00    0.2894555592E-01    0.5510086928E+00    0.4007789870E-03
    0.1000000000E+06    0.2470903670E-01    0.6956537274E+00    0.5462548320E-01    0.3512240398E+00    0.3669047273E-03
    0.3000000000E+06    0.8082975697E-02    0.6956533357E+00    0.3858340365E-01    0.4989901944E+00    0.3900013462E-03
    0.5000000000E+06    0.3901207948E-02    0.6956470748E+00    0.2856156619E-01    0.5528762449E+00    0.4012291046E-03
    0.7000000000E+06    0.2281601233E-02    0.6956418012E+00    0.2251685058E-01    0.5807423301E+00    0.4088003952E-03
    0.9000000000E+06    0.1492990358E-02    0.6956374217E+00    0.1853875219E-01    0.5977355322E+00    0.4145484287E-03
    0.1100000000E+07    0.1051496870E-02    0.6956337032E+00    0.1573671483E-01    0.6091685377E+00    0.4191960697E-03
    0.1300000000E+07    0.7799630126E-03    0.6956304777E+00    0.1366115522E-01    0.6173815690E+00    0.4231048185E-03
    0.1500000000E+07    0.6012610413E-03    0.6956276309E+00    0.1206393355E-01    0.6235645990E+00    0.4264820542E-03
    0.1700000000E+07    0.4774870473E-03    0.6956250830E+00    0.1079771901E-01    0.6283861822E+00    0.4294580299E-03
    0.1900000000E+07    0.3882631783E-03    0.6956227767E+00    0.9769779776E-02    0.6322506407E+00    0.4321200262E-03
    0.2100000000E+07    0.3218471189E-03    0.6956206695E+00    0.8918934984E-02    0.6354167740E+00    0.4345294447E-03
    0.2300000000E+07    0.2710882732E-03    0.6956187293E+00    0.8203230885E-02    0.6380578809E+00    0.4367311533E-03
    0.2500000000E+07    0.2314314226E-03    0.6956169311E+00    0.7592958226E-02    0.6402943518E+00    0.4387589545E-03
    0.2700000000E+07    0.1998638059E-03    0.6956152552E+00    0.7066499342E-02    0.6422124156E+00    0.4406389598E-03
    0.2900000000E+07    0.1743286370E-03    0.6956136856E+00    0.6607754651E-02    0.6438754467E+00    0.4423917671E-03
    0.3100000000E+07    0.1533831070E-03    0.6956122093E+00    0.6204490861E-02    0.6453310619E+00    0.4440339164E-03
    0.3300000000E+07    0.1359910054E-03    0.6956108158E+00    0.5847248059E-02    0.6466157287E+00    0.4455788940E-03
    0.3500000000E+07    0.1213926554E-03    0.6956094959E+00    0.5528597160E-02    0.6477578459E+00    0.4470378434E-03
    0.3700000000E+07    0.1090209051E-03    0.6956082421E+00    0.5242623494E-02    0.6487798572E+00    0.4484200801E-03
    0.3900000000E+07    0.9844544160E-04    0.6956070479E+00    0.4984560156E-02    0.6496997336E+00    0.4497334725E-03
    0.4100000000E+07    0.8933502249E-04    0.6956059079E+00    0.4750522843E-02    0.6505320340E+00    0.4509847278E-03
    0.4300000000E+07    0.8143132741E-04    0.6956048171E+00    0.4537314871E-02    0.6512886779E+00    0.4521796106E-03
    0.4500000000E+07    0.7453051845E-04    0.6956037714E+00    0.4342281650E-02    0.6519795174E+00    0.4533231127E-03
    0.4700000000E+07    0.6847001764E-04    0.6956027671E+00    0.4163200578E-02    0.6526127665E+00    0.4544195854E-03
    0.4900000000E+07    0.6311888104E-04    0.6956018010E+00    0.3998196702E-02    0.6531953277E+00    0.4554728451E-03
    0.1000000000E+07    0.1243492489E-02    0.6956354918E+00    0.1702534403E-01    0.6039619076E+00    0.4169821789E-03
    0.3000000000E+07    0.1633546536E-03    0.6956129365E+00    0.6399833845E-02    0.6446266827E+00    0.4432257690E-03
    0.5000000000E+07    0.6067526649E-04    0.6956013313E+00    0.3920466461E-02    0.6534694619E+00    0.4559843376E-03
    0.7000000000E+07    0.3135119004E-04    0.6955933903E+00    0.2820491715E-02    0.6573289094E+00    0.4645880403E-03
    0.9000000000E+07    0.1909896670E-04    0.6955873189E+00    0.2200308334E-02    0.6594894823E+00    0.4711199040E-03
    0.1100000000E+08    0.1284613102E-04    0.6955823889E+00    0.1802554680E-02    0.6608698526E+00    0.4764013327E-03
    0.1300000000E+08    0.9231861741E-05    0.6955782308E+00    0.1525919344E-02    0.6618276791E+00    0.4808431125E-03
    0.1500000000E+08    0.6956699154E-05    0.6955746306E+00    0.1322470126E-02    0.6625310640E+00    0.4846808987E-03
    0.1700000000E+08    0.5432572603E-05    0.6955714530E+00    0.1166602224E-02    0.6630694154E+00    0.4880627056E-03
    0.1900000000E+08    0.4361981072E-05    0.6955686070E+00    0.1043398769E-02    0.6634946619E+00    0.4910877153E-03
    0.2100000000E+08    0.3581333517E-05    0.6955660283E+00    0.9435834135E-03    0.6638390238E+00    0.4938257026E-03
    0.2300000000E+08    0.2994642713E-05    0.6955636698E+00    0.8610857014E-03    0.6641235506E+00    0.4963276541E-03
    0.2500000000E+08    0.2542580958E-05    0.6955614958E+00    0.7917669161E-03    0.6643625742E+00    0.4986319817E-03
    0.2700000000E+08    0.2186880676E-05    0.6955594790E+00    0.7327086800E-03    0.6645661904E+00    0.5007683580E-03
