  Pressure (Pa) 22mC5-500 (mol/kg) 24mC5-500 (mol/kg) 2mC6-500 (mol/kg) 3mC6-500 (mol/kg) C7-500 (mol/kg)
    0.1000000000E+01    0.1501018869E-04    0.6964890038E-01    0.9797786618E-05    0.3092038288E-05    0.4206214919E-02
    0.3000000000E+01    0.3599839509E-04    0.1740733984E+00    0.2271506351E-04    0.7945555391E-05    0.4276617755E-02
    0.5000000000E+01    0.4983376721E-04    0.2486274965E+00    0.3068669012E-04    0.1241916859E-04    0.4325396654E-02
    0.7000000000E+01    0.5946345052E-04    0.3045248136E+00    0.3593099302E-04    0.1670946554E-04    0.4362025783E-02
    0.9000000000E+01    0.6645008316E-04    0.3479901805E+00    0.3957320472E-04    0.2088299482E-04    0.4390651294E-02
    0.1100000000E+02    0.7169370153E-04    0.3827562903E+00    0.4223339376E-04    0.2497311724E-04    0.4413678000E-02
    0.1300000000E+02    0.7574453626E-04    0.4111974153E+00    0.4427334807E-04    0.2899971370E-04    0.4432622623E-02
    0.1500000000E+02    0.7895493292E-04    0.4348958371E+00    0.4591354167E-04    0.3297589671E-04    0.4448494143E-02
    0.1700000000E+02    0.8155909468E-04    0.4549466655E+00    0.4729300152E-04    0.3691091824E-04    0.4461991402E-02
    0.1900000000E+02    0.8371754603E-04    0.4721319373E+00    0.4850181443E-04    0.4081162973E-04    0.4473614407E-02
    0.2100000000E+02    0.8554317169E-04    0.4870250337E+00    0.4959963817E-04    0.4468329333E-04    0.4483730685E-02
    0.2300000000E+02    0.8711710055E-04    0.5000559202E+00    0.5062666540E-04    0.4853006749E-04    0.4492616623E-02
    0.2500000000E+02    0.8849873556E-04    0.5115533482E+00    0.5161033624E-04    0.5235531474E-04    0.4500484198E-02
    0.2700000000E+02    0.8973227766E-04    0.5217729829E+00    0.5256956555E-04    0.5616180578E-04    0.4507498788E-02
    0.2900000000E+02    0.9085107993E-04    0.5309166446E+00    0.5351747073E-04    0.5995186010E-04    0.4513791373E-02
    0.3100000000E+02    0.9188061985E-04    0.5391457753E+00    0.5446316938E-04    0.6372744572E-04    0.4519467076E-02
    0.3300000000E+02    0.9284056919E-04    0.5465910561E+00    0.5541298602E-04    0.6749025192E-04    0.4524611281E-02
    0.3500000000E+02    0.9374626121E-04    0.5533594009E+00    0.5637127527E-04    0.7124174342E-04    0.4529294079E-02
    0.3700000000E+02    0.9460974732E-04    0.5595391245E+00    0.5734099142E-04    0.7498320153E-04    0.4533573564E-02
    0.3900000000E+02    0.9544056906E-04    0.5652038189E+00    0.5832408745E-04    0.7871575603E-04    0.4537498315E-02
    0.4100000000E+02    0.9624632946E-04    0.5704152984E+00    0.5932179748E-04    0.8244041002E-04    0.4541109273E-02
    0.4300000000E+02    0.9703312078E-04    0.5752258655E+00    0.6033483879E-04    0.8615805985E-04    0.4544441200E-02
    0.4500000000E+02    0.9780584840E-04    0.5796800723E+00    0.6136355731E-04    0.8986951104E-04    0.4547523807E-02
    0.4700000000E+02    0.9856847830E-04    0.5838161055E+00    0.6240803321E-04    0.9357549122E-04    0.4550382648E-02
    0.4900000000E+02    0.9932422794E-04    0.5876668833E+00    0.6346815791E-04    0.9727666086E-04    0.4553039824E-02
    0.1000000000E+02    0.6924944791E-04    0.3662887988E+00    0.4099914511E-04    0.2293703036E-04    0.4402754601E-02
    0.3000000000E+02    0.9137566171E-04    0.5351367302E+00    0.5399014627E-04    0.6184135009E-04    0.4516700594E-02
    0.5000000000E+02    0.9970036067E-04    0.5894943677E+00    0.6400401725E-04    0.9912563194E-04    0.4554298895E-02
    0.7000000000E+02    0.1072871556E-03    0.6163282344E+00    0.7545224538E-04    0.1359747526E-03    0.4572459700E-02
    0.9000000000E+02    0.1154073182E-03    0.6323202687E+00    0.8800627427E-04    0.1728019700E-03    0.4582533474E-02
    0.1100000000E+03    0.1241776405E-03    0.6429369753E+00    0.1013496985E-03    0.2098228837E-03    0.4588372891E-02
    0.1300000000E+03    0.1335458910E-03    0.6504985932E+00    0.1152961850E-03    0.2471733963E-03    0.4591667120E-02
    0.1500000000E+03    0.1434449533E-03    0.6561579453E+00    0.1297392159E-03    0.2849499726E-03    0.4593281036E-02
    0.1700000000E+03    0.1538194649E-03    0.6605526345E+00    0.1446174650E-03    0.3232270838E-03    0.4593706424E-02
    0.1900000000E+03    0.1646280405E-03    0.6640639476E+00    0.1598957959E-03    0.3620659656E-03    0.4593244886E-02
    0.2100000000E+03    0.1758409180E-03    0.6669338936E+00    0.1755548759E-03    0.4015194871E-03    0.4592092203E-02
    0.2300000000E+03    0.1874372790E-03    0.6693234773E+00    0.1915853213E-03    0.4416350735E-03    0.4590381174E-02
    0.2500000000E+03    0.1994030750E-03    0.6713439745E+00    0.2079842762E-03    0.4824565688E-03    0.4588205038E-02
    0.2700000000E+03    0.2117294075E-03    0.6730747554E+00    0.2247533435E-03    0.5240254851E-03    0.4585631067E-02
    0.2900000000E+03    0.2244113488E-03    0.6745739549E+00    0.2418972979E-03    0.5663818764E-03    0.4582708856E-02
    0.3100000000E+03    0.2374470889E-03    0.6758851293E+00    0.2594232643E-03    0.6095649748E-03    0.4579475572E-02
    0.3300000000E+03    0.2508373157E-03    0.6770415566E+00    0.2773401840E-03    0.6536136698E-03    0.4575959412E-02
    0.3500000000E+03    0.2645847633E-03    0.6780690994E+00    0.2956584625E-03    0.6985668832E-03    0.4572181937E-02
    0.3700000000E+03    0.2786938794E-03    0.6789881614E+00    0.3143897368E-03    0.7444638704E-03    0.4568159688E-02
    0.3900000000E+03    0.2931705816E-03    0.6798150555E+00    0.3335467218E-03    0.7913444719E-03    0.4563905334E-02
    0.4100000000E+03    0.3080220769E-03    0.6805629802E+00    0.3531431101E-03    0.8392493290E-03    0.4559428505E-02
    0.4300000000E+03    0.3232567295E-03    0.6812427286E+00    0.3731935109E-03    0.8882200742E-03    0.4554736401E-02
    0.4500000000E+03    0.3388839649E-03    0.6818632129E+00    0.3937134155E-03    0.9382995048E-03    0.4549834242E-02
    0.4700000000E+03    0.3549142014E-03    0.6824318570E+00    0.4147191827E-03    0.9895317433E-03    0.4544725617E-02
    0.4900000000E+03    0.3713588037E-03    0.6829548943E+00    0.4362280397E-03    0.1041962391E-02    0.4539412742E-02
    0.1000000000E+03    0.1197134407E-03    0.6381156102E+00    0.9459337820E-04    0.1912784945E-03    0.4585848976E-02
    0.3000000000E+03    0.2308850035E-03    0.6752507634E+00    0.2506120085E-03    0.5878676534E-03    0.4581129157E-02
    0.5000000000E+03    0.3797402947E-03    0.6832009905E+00    0.4471767506E-03    0.1068641811E-02    0.4536680078E-02
    0.7000000000E+03    0.5726789604E-03    0.6866642488E+00    0.6975778525E-03    0.1677933447E-02    0.4471047155E-02
    0.9000000000E+03    0.8278839052E-03    0.6886024039E+00    0.1026632788E-02    0.2478077199E-02    0.4381103422E-02
    0.1100000000E+04    0.1176702400E-02    0.6898407035E+00    0.1475260328E-02    0.3569631658E-02    0.4257308622E-02
    0.1300000000E+04    0.1673472408E-02    0.6907000196E+00    0.2113798495E-02    0.5125051240E-02    0.4082206899E-02
    0.1500000000E+04    0.2415416340E-02    0.6913310981E+00    0.3068031925E-02    0.7453115014E-02    0.3824959934E-02
    0.1700000000E+04    0.3576426431E-02    0.6918141090E+00    0.4563527929E-02    0.1110926075E-01    0.3432810400E-02
    0.1900000000E+04    0.5424913511E-02    0.6921956192E+00    0.6950930451E-02    0.1696296117E-01    0.2832793996E-02
    0.2100000000E+04    0.8112547816E-02    0.6925045271E+00    0.1043816662E-01    0.2555306510E-01    0.2015009842E-02
    0.2300000000E+04    0.1100683635E-01    0.6927597155E+00    0.1422647920E-01    0.3496424280E-01    0.1233861853E-02
    0.2500000000E+04    0.1308946561E-01    0.6929740441E+00    0.1700082017E-01    0.4197210677E-01    0.7983041342E-03
    0.2700000000E+04    0.1436832603E-01    0.6931565733E+00    0.1875552438E-01    0.4652530592E-01    0.6418775135E-03
    0.2900000000E+04    0.1527536836E-01    0.6933138705E+00    0.2003998390E-01    0.4995126895E-01    0.5970350909E-03
    0.3100000000E+04    0.1603931890E-01    0.6934508124E+00    0.2114765461E-01    0.5296527679E-01    0.5860514178E-03
    0.3300000000E+04    0.1673890372E-01    0.6935710958E+00    0.2217975054E-01    0.5581464932E-01    0.5844802805E-03
    0.3500000000E+04    0.1739883084E-01    0.6936775741E+00    0.2316780918E-01    0.5857600931E-01    0.5854281725E-03
    0.3700000000E+04    0.1802731753E-01    0.6937724849E+00    0.2412200866E-01    0.6127342761E-01    0.5870015421E-03
    0.3900000000E+04    0.1862771105E-01    0.6938576072E+00    0.2504621295E-01    0.6391541371E-01    0.5886845691E-03
    0.4100000000E+04    0.1920189162E-01    0.6939343737E+00    0.2594239854E-01    0.6650585000E-01    0.5903398588E-03
    0.4300000000E+04    0.1975126059E-01    0.6940039505E+00    0.2681194426E-01    0.6904718972E-01    0.5919341700E-03
    0.4500000000E+04    0.2027703025E-01    0.6940672968E+00    0.2765600990E-01    0.7154139696E-01    0.5934627428E-03
    0.4700000000E+04    0.2078031170E-01    0.6941252086E+00    0.2847564997E-01    0.7399022745E-01    0.5949282911E-03
    0.4900000000E+04    0.2126214371E-01    0.6941783519E+00    0.2927184994E-01    0.7639531584E-01    0.5963351710E-03
    0.1000000000E+04    0.9879047746E-03    0.6892830178E+00    0.1232517414E-02    0.2978889858E-02    0.4324297213E-02
    0.3000000000E+04    0.1566828545E-01    0.6933846317E+00    0.2060698506E-01    0.5148793344E-01    0.5895116709E-03
    0.5000000000E+04    0.2149532395E-01    0.6942033145E+00    0.2966145240E-01    0.7758194222E-01    0.5970180006E-03
    0.7000000000E+04    0.2524316608E-01    0.6945514148E+00    0.3642431802E-01    0.9935435793E-01    0.6084668313E-03
    0.9000000000E+04    0.2767864609E-01    0.6947430262E+00    0.4164858583E-01    0.1181087414E+00    0.6171211728E-03
    0.1100000000E+05    0.2923880213E-01    0.6948637569E+00    0.4577247555E-01    0.1346038588E+00    0.6241013249E-03
    0.1300000000E+05    0.3019781624E-01    0.6949464751E+00    0.4908199621E-01    0.1493489002E+00    0.6299622783E-03
    0.1500000000E+05    0.3073463655E-01    0.6950064851E+00    0.5177179292E-01    0.1626998262E+00    0.6350205398E-03
    0.1700000000E+05    0.3096988296E-01    0.6950518685E+00    0.5397899659E-01    0.1749140559E+00    0.6394741055E-03
    0.1900000000E+05    0.3098705391E-01    0.6950872916E+00    0.5580306900E-01    0.1861831429E+00    0.6434552602E-03
    0.2100000000E+05    0.3084524893E-01    0.6951156347E+00    0.5731795925E-01    0.1966531541E+00    0.6470568588E-03
    0.2300000000E+05    0.3058708497E-01    0.6951387707E+00    0.5857983314E-01    0.2064378517E+00    0.6503466343E-03
    0.2500000000E+05    0.3024377896E-01    0.6951579696E+00    0.5963214801E-01    0.2156274891E+00    0.6533755428E-03
    0.2700000000E+05    0.2983850070E-01    0.6951741219E+00    0.6050907898E-01    0.2242948442E+00    0.6561829012E-03
    0.2900000000E+05    0.2938863778E-01    0.6951878708E+00    0.6123788964E-01    0.2324994567E+00    0.6587996941E-03
    0.3100000000E+05    0.2890735784E-01    0.6951996917E+00    0.6184060825E-01    0.2402906678E+00    0.6612507816E-03
    0.3300000000E+05    0.2840470635E-01    0.6952099437E+00    0.6233523632E-01    0.2477098434E+00    0.6635564193E-03
    0.3500000000E+05    0.2788839069E-01    0.6952189028E+00    0.6273663508E-01    0.2547920264E+00    0.6657333341E-03
    0.3700000000E+05    0.2736434866E-01    0.6952267848E+00    0.6305718617E-01    0.2615671850E+00    0.6677955014E-03
    0.3900000000E+05    0.2683716604E-01    0.6952337604E+00    0.6330729100E-01    0.2680611682E+00    0.6697547199E-03
    0.4100000000E+05    0.2631038712E-01    0.6952399667E+00    0.6349575316E-01    0.2742964470E+00    0.6716210430E-03
    0.4300000000E+05    0.2578674799E-01    0.6952455148E+00    0.6363007480E-01    0.2802926961E+00    0.6734031081E-03
    0.4500000000E+05    0.2526835366E-01    0.6952504958E+00    0.6371668880E-01    0.2860672543E+00    0.6751083916E-03
    0.4700000000E+05    0.2475681367E-01    0.6952549850E+00    0.6376114250E-01    0.2916354945E+00    0.6767434089E-03
    0.4900000000E+05    0.2425334671E-01    0.6952590451E+00    0.6376824448E-01    0.2970111219E+00    0.6783138733E-03
    0.1000000000E+05    0.2854818200E-01    0.6948095796E+00    0.4382752569E-01    0.1266024359E+00    0.6207780352E-03
    0.3000000000E+05    0.2915123436E-01    0.6951939975E+00    0.6155380266E-01    0.2364439868E+00    0.6600445915E-03
    0.5000000000E+05    0.2400493502E-01    0.6952609311E+00    0.6375911883E-01    0.2996305935E+00    0.6790764958E-03
    0.7000000000E+05    0.1957633798E-01    0.6952853772E+00    0.6239299943E-01    0.3443226617E+00    0.6919011017E-03
    0.9000000000E+05    0.1614379507E-01    0.6952965713E+00    0.5991267748E-01    0.3784987973E+00    0.7016341498E-03
    0.1100000000E+06    0.1349907482E-01    0.6953021553E+00    0.5711537593E-01    0.4057759028E+00    0.7095024186E-03
    0.1300000000E+06    0.1143758786E-01    0.6953049429E+00    0.5430889343E-01    0.4281695934E+00    0.7161189525E-03
    0.1500000000E+06    0.9806462003E-02    0.6953061884E+00    0.5161850541E-01    0.4469371768E+00    0.7218352708E-03
    0.1700000000E+06    0.8496567026E-02    0.6953065246E+00    0.4909241619E-01    0.4629202114E+00    0.7268720915E-03
    0.1900000000E+06    0.7430093737E-02    0.6953062998E+00    0.4674411732E-01    0.4767099976E+00    0.7313772805E-03
    0.2100000000E+06    0.6550937224E-02    0.6953057181E+00    0.4457114212E-01    0.4887371752E+00    0.7354548434E-03
    0.2300000000E+06    0.5818038858E-02    0.6953049053E+00    0.4256389682E-01    0.4993242568E+00    0.7391807704E-03
    0.2500000000E+06    0.5200885780E-02    0.6953039419E+00    0.4070997034E-01    0.5087182904E+00    0.7426123041E-03
    0.2700000000E+06    0.4676463533E-02    0.6953028809E+00    0.3899626454E-01    0.5171121039E+00    0.7457936593E-03
    0.2900000000E+06    0.4227170428E-02    0.6953017580E+00    0.3741003208E-01    0.5246586252E+00    0.7487597119E-03
    0.3100000000E+06    0.3839370167E-02    0.6953005979E+00    0.3593935317E-01    0.5314808222E+00    0.7515384655E-03
    0.3300000000E+06    0.3502372503E-02    0.6952994177E+00    0.3457332133E-01    0.5376787744E+00    0.7541527520E-03
    0.3500000000E+06    0.3207704842E-02    0.6952982295E+00    0.3330207892E-01    0.5433348087E+00    0.7566214362E-03
    0.3700000000E+06    0.2948584432E-02    0.6952970417E+00    0.3211677789E-01    0.5485172993E+00    0.7589602880E-03
    0.3900000000E+06    0.2719530835E-02    0.6952958606E+00    0.3100950574E-01    0.5532835229E+00    0.7611826266E-03
    0.4100000000E+06    0.2516077863E-02    0.6952946904E+00    0.2997319848E-01    0.5576818359E+00    0.7632998054E-03
    0.4300000000E+06    0.2334556962E-02    0.6952935342E+00    0.2900155209E-01    0.5617533546E+00    0.7653215823E-03
    0.4500000000E+06    0.2171932566E-02    0.6952923940E+00    0.2808893798E-01    0.5655332674E+00    0.7672564062E-03
    0.4700000000E+06    0.2025675675E-02    0.6952912713E+00    0.2723032536E-01    0.5690518705E+00    0.7691116421E-03
    0.4900000000E+06    0.1893665892E-02    0.6952901669E+00    0.2642121132E-01    0.5723353925E+00    0.7708937497E-03
    0.1000000000E+06    0.1473692796E-01    0.6952998333E+00    0.5852812667E-01    0.3928499227E+00    0.7057545364E-03
    0.3000000000E+06    0.4026311184E-02    0.6953011814E+00    0.3666095475E-01    0.5281535407E+00    0.7501709689E-03
    0.5000000000E+06    0.1832433565E-02    0.6952896218E+00    0.2603393799E-01    0.5738962481E+00    0.7717591873E-03
    0.7000000000E+06    0.1041428174E-02    0.6952797048E+00    0.2010183730E-01    0.5970090895E+00    0.7863161644E-03
    0.9000000000E+06    0.6701343214E-03    0.6952714162E+00    0.1634611196E-01    0.6109583221E+00    0.7973673267E-03
    0.1100000000E+07    0.4668488954E-03    0.6952643550E+00    0.1376160515E-01    0.6202905485E+00    0.8063026989E-03
    0.1300000000E+07    0.3436772389E-03    0.6952582176E+00    0.1187673373E-01    0.6269712775E+00    0.8138173936E-03
    0.1500000000E+07    0.2634798529E-03    0.6952527932E+00    0.1044230916E-01    0.6319891443E+00    0.8203101595E-03
    0.1700000000E+07    0.2083781515E-03    0.6952479333E+00    0.9314617567E-02    0.6358957400E+00    0.8260314426E-03
    0.1900000000E+07    0.1689050579E-03    0.6952435307E+00    0.8405070144E-02    0.6390230654E+00    0.8311490598E-03
    0.2100000000E+07    0.1396684396E-03    0.6952395057E+00    0.7656130462E-02    0.6415829000E+00    0.8357810680E-03
    0.2300000000E+07    0.1174147739E-03    0.6952357979E+00    0.7028825105E-02    0.6437166920E+00    0.8400137345E-03
    0.2500000000E+07    0.1000868388E-03    0.6952323600E+00    0.6495826050E-02    0.6455225100E+00    0.8439120499E-03
    0.2700000000E+07    0.8633238456E-04    0.6952291547E+00    0.6037408621E-02    0.6470704843E+00    0.8475262176E-03
    0.2900000000E+07    0.7523301818E-04    0.6952261519E+00    0.5638982106E-02    0.6484120918E+00    0.8508958400E-03
    0.3100000000E+07    0.6614734091E-04    0.6952233270E+00    0.5289523214E-02    0.6495859694E+00    0.8540527172E-03
    0.3300000000E+07    0.5861645883E-04    0.6952206597E+00    0.4980549682E-02    0.6506216812E+00    0.8570227783E-03
    0.3500000000E+07    0.5230505769E-04    0.6952181329E+00    0.4705428690E-02    0.6515422331E+00    0.8598274475E-03
    0.3700000000E+07    0.4696353017E-04    0.6952157321E+00    0.4458899327E-02    0.6523657949E+00    0.8624846351E-03
    0.3900000000E+07    0.4240298028E-04    0.6952134452E+00    0.4236735650E-02    0.6531069077E+00    0.8650094686E-03
    0.4100000000E+07    0.3847833461E-04    0.6952112615E+00    0.4035504327E-02    0.6537773458E+00    0.8674148431E-03
    0.4300000000E+07    0.3507668960E-04    0.6952091720E+00    0.3852387295E-02    0.6543867451E+00    0.8697118417E-03
    0.4500000000E+07    0.3210911894E-04    0.6952071686E+00    0.3685049960E-02    0.6549430668E+00    0.8719100611E-03
    0.4700000000E+07    0.2950481503E-04    0.6952052443E+00    0.3531541873E-02    0.6554529465E+00    0.8740178669E-03
    0.4900000000E+07    0.2720683445E-04    0.6952033929E+00    0.3390220899E-02    0.6559219586E+00    0.8760425966E-03
    0.1000000000E+07    0.5548163879E-03    0.6952677537E+00    0.1494430381E-01    0.6160455029E+00    0.8020463780E-03
    0.3000000000E+07    0.7047060692E-04    0.6952247186E+00    0.5458712024E-02    0.6490179706E+00    0.8524991318E-03
    0.5000000000E+07    0.2615792309E-04    0.6952024929E+00    0.3323687028E-02    0.6561426423E+00    0.8770258605E-03
    0.7000000000E+07    0.1359305042E-04    0.6951872688E+00    0.2384858310E-02    0.6592483751E+00    0.8935649296E-03
    0.9000000000E+07    0.8352790381E-05    0.6951756231E+00    0.1857728386E-02    0.6609860456E+00    0.9061210217E-03
    0.1100000000E+08    0.5677744302E-05    0.6951661638E+00    0.1520475310E-02    0.6620958685E+00    0.9162732736E-03
    0.1300000000E+08    0.4129334680E-05    0.6951581838E+00    0.1286292638E-02    0.6628657987E+00    0.9248114035E-03
    0.1500000000E+08    0.3152525411E-05    0.6951512733E+00    0.1114260028E-02    0.6634311132E+00    0.9321884423E-03
    0.1700000000E+08    0.2496405474E-05    0.6951451732E+00    0.9825726883E-03    0.6638637385E+00    0.9386889343E-03
    0.1900000000E+08    0.2034095749E-05    0.6951397092E+00    0.8785506309E-03    0.6642054398E+00    0.9445035468E-03
    0.2100000000E+08    0.1695827548E-05    0.6951347579E+00    0.7943194937E-03    0.6644821270E+00    0.9497664131E-03
    0.2300000000E+08    0.1440651290E-05    0.6951302290E+00    0.7247319292E-03    0.6647107240E+00    0.9545755486E-03
    0.2500000000E+08    0.1243242989E-05    0.6951260544E+00    0.6662816935E-03    0.6649027530E+00    0.9590047944E-03
    0.2700000000E+08    0.1087256080E-05    0.6951221813E+00    0.6164982077E-03    0.6650663293E+00    0.9631111914E-03
