  Pressure (Pa) 22mC5-500 (mol/kg) 24mC5-500 (mol/kg) 2mC6-500 (mol/kg) 3mC6-500 (mol/kg) C7-500 (mol/kg)
    0.1000000000E+01    0.1418620290E-04    0.9949480590E-01    0.1227145429E-04    0.1545727385E-05    0.4204312275E-02
    0.3000000000E+01    0.3137851372E-04    0.2320860235E+00    0.2601755660E-04    0.3970740356E-05    0.4264864564E-02
    0.5000000000E+01    0.4115174374E-04    0.3164233196E+00    0.3318803331E-04    0.6204516841E-05    0.4302237171E-02
    0.7000000000E+01    0.4727321090E-04    0.3747941045E+00    0.3743418353E-04    0.8345469204E-05    0.4328217449E-02
    0.9000000000E+01    0.5139255090E-04    0.4175913550E+00    0.4024893253E-04    0.1042693373E-04    0.4347420352E-02
    0.1100000000E+02    0.5433136174E-04    0.4503144598E+00    0.4232320902E-04    0.1246563052E-04    0.4362229402E-02
    0.1300000000E+02    0.5653688630E-04    0.4761461317E+00    0.4400416894E-04    0.1447152815E-04    0.4374017060E-02
    0.1500000000E+02    0.5826914149E-04    0.4970560965E+00    0.4547662326E-04    0.1645120395E-04    0.4383633078E-02
    0.1700000000E+02    0.5968714843E-04    0.5143286968E+00    0.4684305175E-04    0.1840930031E-04    0.4391632976E-02
    0.1900000000E+02    0.6089213549E-04    0.5288371465E+00    0.4816185138E-04    0.2034925608E-04    0.4398395830E-02
    0.2100000000E+02    0.6195065602E-04    0.5411958522E+00    0.4946680331E-04    0.2227371300E-04    0.4404189490E-02
    0.2300000000E+02    0.6290763497E-04    0.5518496834E+00    0.5077748911E-04    0.2418475907E-04    0.4409208778E-02
    0.2500000000E+02    0.6379406286E-04    0.5611286774E+00    0.5210509493E-04    0.2608408279E-04    0.4413598911E-02
    0.2700000000E+02    0.6463170415E-04    0.5692828451E+00    0.5345575476E-04    0.2797307558E-04    0.4417470432E-02
    0.2900000000E+02    0.6543607066E-04    0.5765050412E+00    0.5483252905E-04    0.2985290222E-04    0.4420909030E-02
    0.3100000000E+02    0.6621835098E-04    0.5829464148E+00    0.5623660181E-04    0.3172455091E-04    0.4423982199E-02
    0.3300000000E+02    0.6698669236E-04    0.5887271055E+00    0.5766801757E-04    0.3358886977E-04    0.4426743856E-02
    0.3500000000E+02    0.6774707016E-04    0.5939438075E+00    0.5912614113E-04    0.3544659400E-04    0.4429237613E-02
    0.3700000000E+02    0.6850388839E-04    0.5986752232E+00    0.6060994694E-04    0.3729836658E-04    0.4431499145E-02
    0.3900000000E+02    0.6926040125E-04    0.6029860618E+00    0.6211820202E-04    0.3914475424E-04    0.4433557931E-02
    0.4100000000E+02    0.7001901333E-04    0.6069300172E+00    0.6364958147E-04    0.4098625994E-04    0.4435438555E-02
    0.4300000000E+02    0.7078149616E-04    0.6105520162E+00    0.6520274087E-04    0.4282333293E-04    0.4437161689E-02
    0.4500000000E+02    0.7154914623E-04    0.6138899374E+00    0.6677636083E-04    0.4465637666E-04    0.4438744850E-02
    0.4700000000E+02    0.7232290138E-04    0.6169759417E+00    0.6836917353E-04    0.4648575538E-04    0.4440202982E-02
    0.4900000000E+02    0.7310342757E-04    0.6198375116E+00    0.6997997751E-04    0.4831179946E-04    0.4441548921E-02
    0.1000000000E+02    0.5297570449E-04    0.4349759372E+00    0.4135172896E-04    0.1145090037E-04    0.4355272207E-02
    0.3000000000E+02    0.6582940289E-04    0.5798151963E+00    0.5553113005E-04    0.3078969288E-04    0.4422487648E-02
    0.5000000000E+02    0.7349637988E-04    0.6211916484E+00    0.7079177081E-04    0.4922366609E-04    0.4442183342E-02
    0.7000000000E+02    0.8175788487E-04    0.6407911220E+00    0.8773903545E-04    0.6734691050E-04    0.4451017868E-02
    0.9000000000E+02    0.9072428136E-04    0.6522242946E+00    0.1056249438E-03    0.8536495683E-04    0.4455464675E-02
    0.1100000000E+03    0.1002499851E-03    0.6597150381E+00    0.1241076992E-03    0.1033832910E-03    0.4457636656E-02
    0.1300000000E+03    0.1102190951E-03    0.6650026093E+00    0.1430287768E-03    0.1214668058E-03    0.4458444489E-02
    0.1500000000E+03    0.1205541735E-03    0.6689343545E+00    0.1623108778E-03    0.1396601295E-03    0.4458350817E-02
    0.1700000000E+03    0.1312044376E-03    0.6719724720E+00    0.1819156334E-03    0.1579964467E-03    0.4457617892E-02
    0.1900000000E+03    0.1421363990E-03    0.6743905130E+00    0.2018247596E-03    0.1765019267E-03    0.4456406489E-02
    0.2100000000E+03    0.1533278620E-03    0.6763607168E+00    0.2220309921E-03    0.1951981848E-03    0.4454821120E-02
    0.2300000000E+03    0.1647641757E-03    0.6779969379E+00    0.2425334320E-03    0.2141037547E-03    0.4452932870E-02
    0.2500000000E+03    0.1764358677E-03    0.6793774526E+00    0.2633350257E-03    0.2332350221E-03    0.4450791840E-02
    0.2700000000E+03    0.1883371160E-03    0.6805578489E+00    0.2844411402E-03    0.2526068458E-03    0.4448434365E-02
    0.2900000000E+03    0.2004647405E-03    0.6815786915E+00    0.3058587288E-03    0.2722329859E-03    0.4445887402E-02
    0.3100000000E+03    0.2128175215E-03    0.6824702758E+00    0.3275958310E-03    0.2921264099E-03    0.4443171318E-02
    0.3300000000E+03    0.2253957300E-03    0.6832556841E+00    0.3496612651E-03    0.3122995177E-03    0.4440301725E-02
    0.3500000000E+03    0.2382007983E-03    0.6839528118E+00    0.3720644388E-03    0.3327643112E-03    0.4437290722E-02
    0.3700000000E+03    0.2512350855E-03    0.6845757467E+00    0.3948152308E-03    0.3535325255E-03    0.4434147753E-02
    0.3900000000E+03    0.2645017079E-03    0.6851357309E+00    0.4179239192E-03    0.3746157323E-03    0.4430880223E-02
    0.4100000000E+03    0.2780044157E-03    0.6856418442E+00    0.4414011387E-03    0.3960254237E-03    0.4427493942E-02
    0.4300000000E+03    0.2917475022E-03    0.6861015007E+00    0.4652578569E-03    0.4177730810E-03    0.4423993452E-02
    0.4500000000E+03    0.3057357369E-03    0.6865208135E+00    0.4895053647E-03    0.4398702324E-03    0.4420382274E-02
    0.4700000000E+03    0.3199743163E-03    0.6869048685E+00    0.5141552742E-03    0.4623285030E-03    0.4416663095E-02
    0.4900000000E+03    0.3344688277E-03    0.6872579313E+00    0.5392195239E-03    0.4851596577E-03    0.4412837909E-02
    0.1000000000E+03    0.9542549320E-04    0.6563230019E+00    0.1148042912E-03    0.9436940457E-04    0.4456762840E-02
    0.3000000000E+03    0.2066130000E-03    0.6820390569E+00    0.3166868051E-03    0.2821455013E-03    0.4444549429E-02
    0.5000000000E+03    0.3418139041E-03    0.6874239891E+00    0.5519108484E-03    0.4967187911E-03    0.4410886026E-02
    0.7000000000E+03    0.5038093078E-03    0.6897565938E+00    0.8307222083E-03    0.7505623761E-03    0.4366390116E-02
    0.9000000000E+03    0.7005436559E-03    0.6910584773E+00    0.1167995754E-02    0.1057694133E-02    0.4310689822E-02
    0.1100000000E+04    0.9438544044E-03    0.6918889160E+00    0.1584503410E-02    0.1437260148E-02    0.4241188426E-02
    0.1300000000E+04    0.1251207767E-02    0.6924645707E+00    0.2110459335E-02    0.1917020519E-02    0.4153489295E-02
    0.1500000000E+04    0.1648971657E-02    0.6928869949E+00    0.2791320336E-02    0.2538744601E-02    0.4040792495E-02
    0.1700000000E+04    0.2177993872E-02    0.6932101114E+00    0.3697493389E-02    0.3367197249E-02    0.3892628991E-02
    0.1900000000E+04    0.2902808367E-02    0.6934652044E+00    0.4940349319E-02    0.4504996471E-02    0.3692800699E-02
    0.2100000000E+04    0.3925169281E-02    0.6936716705E+00    0.6695915022E-02    0.6114744539E-02    0.3416667823E-02
    0.2300000000E+04    0.5395431525E-02    0.6938421749E+00    0.9225452732E-02    0.8438835888E-02    0.3030153655E-02
    0.2500000000E+04    0.7483031697E-02    0.6939853377E+00    0.1282679022E-01    0.1175664250E-01    0.2501421098E-02
    0.2700000000E+04    0.1019945666E-01    0.6941072291E+00    0.1753204315E-01    0.1610883338E-01    0.1850477647E-02
    0.2900000000E+04    0.1309392115E-01    0.6942122476E+00    0.2257948759E-01    0.2080801290E-01    0.1216995943E-02
    0.3100000000E+04    0.1546343861E-01    0.6943036578E+00    0.2676023375E-01    0.2474402014E-01    0.7763472372E-03
    0.3300000000E+04    0.1709282956E-01    0.6943839338E+00    0.2969097495E-01    0.2755302273E-01    0.5518679255E-03
    0.3500000000E+04    0.1822140710E-01    0.6944549847E+00    0.3177259440E-01    0.2959375258E-01    0.4579735333E-03
    0.3700000000E+04    0.1909781232E-01    0.6945183071E+00    0.3342874517E-01    0.3125187266E-01    0.4224480831E-03
    0.3900000000E+04    0.1985509772E-01    0.6945750910E+00    0.3488733970E-01    0.3273597500E-01    0.4098643786E-03
    0.4100000000E+04    0.2055098238E-01    0.6946262940E+00    0.3624742452E-01    0.3413689656E-01    0.4058740875E-03
    0.4300000000E+04    0.2120902107E-01    0.6946726958E+00    0.3754930469E-01    0.3549152386E-01    0.4050450967E-03
    0.4500000000E+04    0.2183893217E-01    0.6947149375E+00    0.3880940883E-01    0.3681473367E-01    0.4053630877E-03
    0.4700000000E+04    0.2244502020E-01    0.6947535510E+00    0.4003480221E-01    0.3811275007E-01    0.4060841735E-03
    0.4900000000E+04    0.2302947666E-01    0.6947889813E+00    0.4122889703E-01    0.3938842013E-01    0.4069336187E-03
    0.1000000000E+04    0.8154470171E-03    0.6915150471E+00    0.1364732056E-02    0.1236940137E-02    0.4277892921E-02
    0.3000000000E+04    0.1437421330E-01    0.6942594837E+00    0.2483036159E-01    0.2291996047E-01    0.9667016035E-03
    0.5000000000E+04    0.2331403208E-01    0.6948056224E+00    0.4181485102E-01    0.4001837565E-01    0.4073716927E-03
    0.7000000000E+04    0.2809504844E-01    0.6950375847E+00    0.5220031055E-01    0.5166380171E-01    0.4150972336E-03
    0.9000000000E+04    0.3153521808E-01    0.6951651717E+00    0.6056039811E-01    0.6182851014E-01    0.4209771080E-03
    0.1100000000E+05    0.3403904164E-01    0.6952455112E+00    0.6743450697E-01    0.7086827638E-01    0.4257238202E-03
    0.1300000000E+05    0.3586974502E-01    0.6953005242E+00    0.7318417262E-01    0.7902725770E-01    0.4297118009E-03
    0.1500000000E+05    0.3720509281E-01    0.6953404131E+00    0.7806113873E-01    0.8647941092E-01    0.4331550344E-03
    0.1700000000E+05    0.3816882756E-01    0.6953705638E+00    0.8224624374E-01    0.9335249170E-01    0.4361875748E-03
    0.1900000000E+05    0.3884931024E-01    0.6953940852E+00    0.8587285868E-01    0.9974276208E-01    0.4388990803E-03
    0.2100000000E+05    0.3931102090E-01    0.6954128957E+00    0.8904159173E-01    0.1057243654E+00    0.4413525353E-03
    0.2300000000E+05    0.3960189921E-01    0.6954282425E+00    0.9182983513E-01    0.1113555064E+00    0.4435939131E-03
    0.2500000000E+05    0.3975816896E-01    0.6954409711E+00    0.9429814927E-01    0.1166826446E+00    0.4456578174E-03
    0.2700000000E+05    0.3980759094E-01    0.6954516743E+00    0.9649464371E-01    0.1217434135E+00    0.4475709592E-03
    0.2900000000E+05    0.3977170595E-01    0.6954607800E+00    0.9845805247E-01    0.1265686974E+00    0.4493543961E-03
    0.3100000000E+05    0.3966741260E-01    0.6954686046E+00    0.1002199370E+00    0.1311841396E+00    0.4510250285E-03
    0.3300000000E+05    0.3950809694E-01    0.6954753869E+00    0.1018062929E+00    0.1356112561E+00    0.4525966301E-03
    0.3500000000E+05    0.3930445435E-01    0.6954813106E+00    0.1032387407E+00    0.1398682721E+00    0.4540805778E-03
    0.3700000000E+05    0.3906509601E-01    0.6954865191E+00    0.1045354221E+00    0.1439707591E+00    0.4554863789E-03
    0.3900000000E+05    0.3879700248E-01    0.6954911259E+00    0.1057116826E+00    0.1479321256E+00    0.4568220612E-03
    0.4100000000E+05    0.3850586671E-01    0.6954952222E+00    0.1067805986E+00    0.1517640013E+00    0.4580944661E-03
    0.4300000000E+05    0.3819635658E-01    0.6954988818E+00    0.1077533887E+00    0.1554765399E+00    0.4593094723E-03
    0.4500000000E+05    0.3787231752E-01    0.6955021653E+00    0.1086397375E+00    0.1590786600E+00    0.4604721688E-03
    0.4700000000E+05    0.3753693061E-01    0.6955051226E+00    0.1094480541E+00    0.1625782401E+00    0.4615869914E-03
    0.4900000000E+05    0.3719283675E-01    0.6955077954E+00    0.1101856790E+00    0.1659822758E+00    0.4626578296E-03
    0.1000000000E+05    0.3288522460E-01    0.6952094652E+00    0.6415742455E-01    0.6647173492E-01    0.4234634653E-03
    0.3000000000E+05    0.3972720223E-01    0.6954648360E+00    0.9936244573E-01    0.1289012182E+00    0.4502028884E-03
    0.5000000000E+05    0.3701822695E-01    0.6955090364E+00    0.1105300256E+00    0.1676504414E+00    0.4631778424E-03
    0.7000000000E+05    0.3344172734E-01    0.6955250645E+00    0.1149192212E+00    0.1972135756E+00    0.4719234947E-03
    0.9000000000E+05    0.3011634047E-01    0.6955323305E+00    0.1164162348E+00    0.2215742762E+00    0.4785617722E-03
    0.1100000000E+06    0.2720529402E-01    0.6955358987E+00    0.1164350962E+00    0.2424569239E+00    0.4839286272E-03
    0.1300000000E+06    0.2468873424E-01    0.6955376300E+00    0.1156241266E+00    0.2607927895E+00    0.4884419227E-03
    0.1500000000E+06    0.2251221335E-01    0.6955383525E+00    0.1143238371E+00    0.2771553364E+00    0.4923413039E-03
    0.1700000000E+06    0.2062114134E-01    0.6955384831E+00    0.1127295147E+00    0.2919294458E+00    0.4957772620E-03
    0.1900000000E+06    0.1896848526E-01    0.6955382506E+00    0.1109601005E+00    0.3053894901E+00    0.4988506250E-03
    0.2100000000E+06    0.1751548066E-01    0.6955377888E+00    0.1090911643E+00    0.3177399216E+00    0.5016323177E-03
    0.2300000000E+06    0.1623058520E-01    0.6955371800E+00    0.1071721710E+00    0.3291383196E+00    0.5041741631E-03
    0.2500000000E+06    0.1508815841E-01    0.6955364766E+00    0.1052361612E+00    0.3397093940E+00    0.5065152006E-03
    0.2700000000E+06    0.1406727544E-01    0.6955357131E+00    0.1033054784E+00    0.3495539628E+00    0.5086855859E-03
    0.2900000000E+06    0.1315075728E-01    0.6955349124E+00    0.1013953056E+00    0.3587549626E+00    0.5107091058E-03
    0.3100000000E+06    0.1232440468E-01    0.6955340906E+00    0.9951592736E-01    0.3673816187E+00    0.5126048605E-03
    0.3300000000E+06    0.1157639997E-01    0.6955332584E+00    0.9767421911E-01    0.3754924274E+00    0.5143884232E-03
    0.3500000000E+06    0.1089684087E-01    0.6955324237E+00    0.9587465218E-01    0.3831373421E+00    0.5160726614E-03
    0.3700000000E+06    0.1027737612E-01    0.6955315917E+00    0.9411998536E-01    0.3903594127E+00    0.5176683317E-03
    0.3900000000E+06    0.9710919194E-02    0.6955307663E+00    0.9241174936E-01    0.3971960372E+00    0.5191845193E-03
    0.4100000000E+06    0.9191421885E-02    0.6955299502E+00    0.9075059108E-01    0.4036799337E+00    0.5206289688E-03
    0.4300000000E+06    0.8713694109E-02    0.6955291451E+00    0.8913652124E-01    0.4098399067E+00    0.5220083361E-03
    0.4500000000E+06    0.8273259441E-02    0.6955283523E+00    0.8756909433E-01    0.4157014576E+00    0.5233283846E-03
    0.4700000000E+06    0.7866238530E-02    0.6955275726E+00    0.8604754050E-01    0.4212872786E+00    0.5245941384E-03
    0.4900000000E+06    0.7489254391E-02    0.6955268065E+00    0.8457086283E-01    0.4266176554E+00    0.5258100039E-03
    0.1000000000E+06    0.2860867807E-01    0.6955344238E+00    0.1165596574E+00    0.2323807125E+00    0.4813721989E-03
    0.3000000000E+06    0.1272709868E-01    0.6955345034E+00    0.1004512712E+00    0.3631362049E+00    0.5116719088E-03
    0.5000000000E+06    0.7311088820E-02    0.6955264287E+00    0.8384899708E-01    0.4291928161E+00    0.5264004611E-03
    0.7000000000E+06    0.4773638000E-02    0.6955195770E+00    0.7145500469E-01    0.4708642811E+00    0.5363322999E-03
    0.9000000000E+06    0.3369623993E-02    0.6955138726E+00    0.6211393583E-01    0.4998743891E+00    0.5438723623E-03
    0.1100000000E+07    0.2508192441E-02    0.6955090227E+00    0.5487687109E-01    0.5213261004E+00    0.5499689305E-03
    0.1300000000E+07    0.1940606573E-02    0.6955048127E+00    0.4912230373E-01    0.5378666180E+00    0.5550962278E-03
    0.1500000000E+07    0.1546470356E-02    0.6955010949E+00    0.4444394241E-01    0.5510232630E+00    0.5595262961E-03
    0.1700000000E+07    0.1261483578E-02    0.6954977662E+00    0.4056892622E-01    0.5617444611E+00    0.5634300014E-03
    0.1900000000E+07    0.1048679452E-02    0.6954947522E+00    0.3730839099E-01    0.5706522725E+00    0.5669218376E-03
    0.2100000000E+07    0.8855470231E-03    0.6954919979E+00    0.3452788655E-01    0.5781724798E+00    0.5700823507E-03
    0.2300000000E+07    0.7577285647E-03    0.6954894615E+00    0.3212927449E-01    0.5846067128E+00    0.5729703978E-03
    0.2500000000E+07    0.6557104113E-03    0.6954871103E+00    0.3003932638E-01    0.5901748050E+00    0.5756303200E-03
    0.2700000000E+07    0.5729834702E-03    0.6954849188E+00    0.2820233256E-01    0.5950408511E+00    0.5780963699E-03
    0.2900000000E+07    0.5049710801E-03    0.6954828661E+00    0.2657518061E-01    0.5993298692E+00    0.5803955673E-03
    0.3100000000E+07    0.4483785847E-03    0.6954809354E+00    0.2512399740E-01    0.6031388054E+00    0.5825496088E-03
    0.3300000000E+07    0.4007849622E-03    0.6954791127E+00    0.2382180721E-01    0.6065440103E+00    0.5845761853E-03
    0.3500000000E+07    0.3603786756E-03    0.6954773862E+00    0.2264686563E-01    0.6096064415E+00    0.5864899144E-03
    0.3700000000E+07    0.3257822885E-03    0.6954757462E+00    0.2158145294E-01    0.6123753620E+00    0.5883030159E-03
    0.3900000000E+07    0.2959332978E-03    0.6954741840E+00    0.2061098608E-01    0.6148910198E+00    0.5900258113E-03
    0.4100000000E+07    0.2700014788E-03    0.6954726926E+00    0.1972335526E-01    0.6171866221E+00    0.5916670987E-03
    0.4300000000E+07    0.2473304884E-03    0.6954712656E+00    0.1890842189E-01    0.6192898116E+00    0.5932344401E-03
    0.4500000000E+07    0.2273959128E-03    0.6954698975E+00    0.1815763382E-01    0.6212237861E+00    0.5947343832E-03
    0.4700000000E+07    0.2097746714E-03    0.6954685836E+00    0.1746372720E-01    0.6230081579E+00    0.5961726359E-03
    0.4900000000E+07    0.1941223921E-03    0.6954673196E+00    0.1682049301E-01    0.6246596211E+00    0.5975542046E-03
    0.1000000000E+07    0.2891023608E-02    0.6955113561E+00    0.5827752889E-01    0.5113436886E+00    0.5470648514E-03
    0.3000000000E+07    0.4754155027E-03    0.6954818865E+00    0.2582941835E-01    0.6012891627E+00    0.5814895454E-03
    0.5000000000E+07    0.1869442601E-03    0.6954667051E+00    0.1651618000E-01    0.6254400622E+00    0.5982251329E-03
    0.7000000000E+07    0.9908859176E-04    0.6954563148E+00    0.1211846666E-01    0.6366588562E+00    0.6095106242E-03
    0.9000000000E+07    0.6121810725E-04    0.6954483705E+00    0.9561179422E-02    0.6431342026E+00    0.6180784275E-03
    0.1100000000E+08    0.4153064742E-04    0.6954419198E+00    0.7890336297E-02    0.6473471839E+00    0.6250060098E-03
    0.1300000000E+08    0.3001119231E-04    0.6954364793E+00    0.6713755875E-02    0.6503059728E+00    0.6308322127E-03
    0.1500000000E+08    0.2269703040E-04    0.6954317690E+00    0.5840716031E-02    0.6524974334E+00    0.6358661512E-03
    0.1700000000E+08    0.1776601286E-04    0.6954276118E+00    0.5167366205E-02    0.6541854308E+00    0.6403019790E-03
    0.1900000000E+08    0.1428546654E-04    0.6954238886E+00    0.4632343332E-02    0.6555253565E+00    0.6442697952E-03
    0.2100000000E+08    0.1173790464E-04    0.6954205153E+00    0.4197069508E-02    0.6566146581E+00    0.6478611242E-03
    0.2300000000E+08    0.9817527974E-05    0.6954174302E+00    0.3836079659E-02    0.6575175357E+00    0.6511428459E-03
    0.2500000000E+08    0.8334238442E-05    0.6954145867E+00    0.3531889248E-02    0.6582780020E+00    0.6541653456E-03
    0.2700000000E+08    0.7164835425E-05    0.6954119489E+00    0.3272096726E-02    0.6589272357E+00    0.6569675448E-03
