  Pressure (Pa) 22mC5-500 (mol/kg) 24mC5-500 (mol/kg) 2mC6-500 (mol/kg) 3mC6-500 (mol/kg) C7-500 (mol/kg)
    0.1000000000E+01    0.1454064425E-04    0.9950066347E-01    0.6422955245E-05    0.8171218436E-05    0.4146250852E-02
    0.3000000000E+01    0.3214759251E-04    0.2321174850E+00    0.1363132247E-04    0.2018606906E-04    0.4174231058E-02
    0.5000000000E+01    0.4227531732E-04    0.3164811673E+00    0.1750313681E-04    0.3110057335E-04    0.4183572499E-02
    0.7000000000E+01    0.4872529291E-04    0.3748745242E+00    0.1989202208E-04    0.4150380178E-04    0.4188731359E-02
    0.9000000000E+01    0.5315808670E-04    0.4176904228E+00    0.2155332664E-04    0.5159003400E-04    0.4191943356E-02
    0.1100000000E+02    0.5640065121E-04    0.4504289122E+00    0.2283682674E-04    0.6145528025E-04    0.4194031112E-02
    0.1300000000E+02    0.5890335866E-04    0.4762733813E+00    0.2391860201E-04    0.7115618297E-04    0.4195396622E-02
    0.1500000000E+02    0.6092824988E-04    0.4971941082E+00    0.2489266777E-04    0.8072981298E-04    0.4196266384E-02
    0.1700000000E+02    0.6263574649E-04    0.5144758615E+00    0.2581137413E-04    0.9020216556E-04    0.4196779691E-02
    0.1900000000E+02    0.6412809467E-04    0.5289921797E+00    0.2670472491E-04    0.9959239446E-04    0.4197027565E-02
    0.2100000000E+02    0.6547261592E-04    0.5413577168E+00    0.2759021788E-04    0.1089151497E-03    0.4197072241E-02
    0.2300000000E+02    0.6671483262E-04    0.5520175328E+00    0.2847811600E-04    0.1181819693E-03    0.4196957807E-02
    0.2500000000E+02    0.6788621164E-04    0.5613018130E+00    0.2937438889E-04    0.1274021574E-03    0.4196716409E-02
    0.2700000000E+02    0.6900890519E-04    0.5694606847E+00    0.3028241030E-04    0.1365833641E-03    0.4196372051E-02
    0.2900000000E+02    0.7009874638E-04    0.5766870948E+00    0.3120396490E-04    0.1457319831E-03    0.4195943025E-02
    0.3100000000E+02    0.7116719414E-04    0.5831322667E+00    0.3213985904E-04    0.1548534332E-03    0.4195443512E-02
    0.3300000000E+02    0.7222262637E-04    0.5889164000E+00    0.3309029811E-04    0.1639523626E-03    0.4194884677E-02
    0.3500000000E+02    0.7327121749E-04    0.5941362380E+00    0.3405512281E-04    0.1730328006E-03    0.4194275425E-02
    0.3700000000E+02    0.7431754523E-04    0.5988705239E+00    0.3503395872E-04    0.1820982728E-03    0.4193622944E-02
    0.3900000000E+02    0.7536501684E-04    0.6031840007E+00    0.3602631148E-04    0.1911518898E-03    0.4192933097E-02
    0.4100000000E+02    0.7641617300E-04    0.6071303904E+00    0.3703162736E-04    0.2001964162E-03    0.4192210710E-02
    0.4300000000E+02    0.7747290716E-04    0.6107546438E+00    0.3804933179E-04    0.2092343260E-03    0.4191459792E-02
    0.4500000000E+02    0.7853662587E-04    0.6140946598E+00    0.3907885335E-04    0.2182678465E-03    0.4190683694E-02
    0.4700000000E+02    0.7960836706E-04    0.6171826167E+00    0.4011963851E-04    0.2272989944E-03    0.4189885244E-02
    0.4900000000E+02    0.8068888818E-04    0.6200460119E+00    0.4117116021E-04    0.2363296047E-03    0.4189066836E-02
    0.1000000000E+02    0.5489409979E-04    0.4350830605E+00    0.2222866772E-04    0.5654613389E-04    0.4193096897E-02
    0.3000000000E+02    0.7063506049E-04    0.5799991969E+00    0.3167009590E-04    0.1502957977E-03    0.4195701321E-02
    0.5000000000E+02    0.8123261787E-04    0.6214010177E+00    0.4170079098E-04    0.2408452382E-03    0.4188650799E-02
    0.7000000000E+02    0.9263271193E-04    0.6410135531E+00    0.5275472528E-04    0.3314732157E-03    0.4179648456E-02
    0.9000000000E+02    0.1050077873E-03    0.6524549718E+00    0.6450833663E-04    0.4233559478E-03    0.4169842272E-02
    0.1100000000E+03    0.1182523852E-03    0.6599515512E+00    0.7682382947E-04    0.5171504739E-03    0.4159548200E-02
    0.1300000000E+03    0.1322836316E-03    0.6652435617E+00    0.8964947536E-04    0.6133133695E-03    0.4148872931E-02
    0.1500000000E+03    0.1470548048E-03    0.6691788539E+00    0.1029724030E-03    0.7122084948E-03    0.4137851744E-02
    0.1700000000E+03    0.1625455689E-03    0.6722199073E+00    0.1167990875E-03    0.8141536739E-03    0.4126490528E-02
    0.1900000000E+03    0.1787536774E-03    0.6746404438E+00    0.1311467864E-03    0.9194444219E-03    0.4114781270E-02
    0.2100000000E+03    0.1956896264E-03    0.6766128123E+00    0.1460395423E-03    0.1028367550E-02    0.4102708518E-02
    0.2300000000E+03    0.2133733779E-03    0.6782509420E+00    0.1615062424E-03    0.1141209804E-02    0.4090252300E-02
    0.2500000000E+03    0.2318323764E-03    0.6796331617E+00    0.1775796788E-03    0.1258263880E-02    0.4077389500E-02
    0.2700000000E+03    0.2511003697E-03    0.6808150976E+00    0.1942961261E-03    0.1379833004E-02    0.4064094502E-02
    0.2900000000E+03    0.2712167359E-03    0.6818373431E+00    0.2116952100E-03    0.1506234697E-02    0.4050339466E-02
    0.3100000000E+03    0.2922261467E-03    0.6827302155E+00    0.2298199480E-03    0.1637804119E-02    0.4036094391E-02
    0.3300000000E+03    0.3141784588E-03    0.6835168143E+00    0.2487169026E-03    0.1774897196E-02    0.4021327079E-02
    0.3500000000E+03    0.3371287718E-03    0.6842150485E+00    0.2684364171E-03    0.1917893707E-02    0.4006003004E-02
    0.3700000000E+03    0.3611376137E-03    0.6848390171E+00    0.2890329148E-03    0.2067200420E-02    0.3990085145E-02
    0.3900000000E+03    0.3862712315E-03    0.6853999708E+00    0.3105652556E-03    0.2223254378E-02    0.3973533769E-02
    0.4100000000E+03    0.4126019732E-03    0.6859069973E+00    0.3330971473E-03    0.2386526388E-02    0.3956306183E-02
    0.4300000000E+03    0.4402087547E-03    0.6863675167E+00    0.3566976104E-03    0.2557524787E-02    0.3938356456E-02
    0.4500000000E+03    0.4691776097E-03    0.6867876475E+00    0.3814415015E-03    0.2736799540E-02    0.3919635101E-02
    0.4700000000E+03    0.4996023233E-03    0.6871724801E+00    0.4074100974E-03    0.2924946714E-02    0.3900088733E-02
    0.4900000000E+03    0.5315851532E-03    0.6875262837E+00    0.4346917465E-03    0.3122613413E-02    0.3879659685E-02
    0.1000000000E+03    0.1115275157E-03    0.6565568175E+00    0.7060034544E-04    0.4699827211E-03    0.4164747048E-02
    0.3000000000E+03    0.2816068162E-03    0.6822983657E+00    0.2206640476E-03    0.1571351719E-02    0.4043280143E-02
    0.5000000000E+03    0.5481953320E-03    0.6876926993E+00    0.4488546851E-03    0.3225234084E-02    0.3869094859E-02
    0.7000000000E+03    0.9968236300E-03    0.6900311521E+00    0.8307914214E-03    0.5994876380E-02    0.3592508491E-02
    0.9000000000E+03    0.1838944397E-02    0.6913373074E+00    0.1547927700E-02    0.1120811796E-01    0.3102490787E-02
    0.1100000000E+04    0.3543510119E-02    0.6921711236E+00    0.3004477670E-02    0.2184095312E-01    0.2184039498E-02
    0.1300000000E+04    0.6260667015E-02    0.6927495778E+00    0.5345522107E-02    0.3907308882E-01    0.9107035771E-03
    0.1500000000E+04    0.8316025728E-02    0.6931743964E+00    0.7154439949E-02    0.5266179827E-01    0.2362507614E-03
    0.1700000000E+04    0.9428501510E-02    0.6934996071E+00    0.8175021826E-02    0.6062348996E-01    0.9955218699E-04
    0.1900000000E+04    0.1026153872E-01    0.6937565628E+00    0.8966646240E-02    0.6699079089E-01    0.8028388171E-04
    0.2100000000E+04    0.1100672367E-01    0.6939647074E+00    0.9691985501E-02    0.7294532648E-01    0.7802110722E-04
    0.2300000000E+04    0.1169835575E-01    0.6941367401E+00    0.1037964456E-01    0.7869185643E-01    0.7805238354E-04
    0.2500000000E+04    0.1234428984E-01    0.6942813063E+00    0.1103556618E-01    0.8426904379E-01    0.7837220416E-04
    0.2700000000E+04    0.1294820012E-01    0.6944044958E+00    0.1166214643E-01    0.8968972701E-01    0.7870923614E-04
    0.2900000000E+04    0.1351294472E-01    0.6945107219E+00    0.1226114000E-01    0.9496236754E-01    0.7902881502E-04
    0.3100000000E+04    0.1404108186E-01    0.6946032615E+00    0.1283410379E-01    0.1000943170E+00    0.7932860742E-04
    0.3300000000E+04    0.1453496284E-01    0.6946845985E+00    0.1338247242E-01    0.1050923492E+00    0.7961039250E-04
    0.3500000000E+04    0.1499676036E-01    0.6947566499E+00    0.1390757768E-01    0.1099627753E+00    0.7987617632E-04
    0.3700000000E+04    0.1542848575E-01    0.6948209193E+00    0.1441065869E-01    0.1147114922E+00    0.8012771098E-04
    0.3900000000E+04    0.1583200323E-01    0.6948786019E+00    0.1489286995E-01    0.1193440182E+00    0.8036648372E-04
    0.4100000000E+04    0.1620904246E-01    0.6949306604E+00    0.1535528835E-01    0.1238655231E+00    0.8059376021E-04
    0.4300000000E+04    0.1656120999E-01    0.6949778785E+00    0.1579891955E-01    0.1282808556E+00    0.8081062549E-04
    0.4500000000E+04    0.1688999947E-01    0.6950209007E+00    0.1622470372E-01    0.1325945683E+00    0.8101801668E-04
    0.4700000000E+04    0.1719680092E-01    0.6950602621E+00    0.1663352070E-01    0.1368109402E+00    0.8121674878E-04
    0.4900000000E+04    0.1748290918E-01    0.6950964105E+00    0.1702619476E-01    0.1409339972E+00    0.8140753510E-04
    0.1000000000E+04    0.2544341349E-02    0.6917956533E+00    0.2149810523E-02    0.1559496960E-01    0.2711890235E-02
    0.3000000000E+04    0.1378143784E-01    0.6945585318E+00    0.1255078340E-01    0.9754549371E-01    0.7918109247E-04
    0.5000000000E+04    0.1761858384E-01    0.6951134002E+00    0.1721672163E-01    0.1429617260E+00    0.8150014777E-04
    0.7000000000E+04    0.1949892459E-01    0.6953512133E+00    0.2034400177E-01    0.1794304000E+00    0.8305471722E-04
    0.9000000000E+04    0.2028126260E-01    0.6954832304E+00    0.2249796380E-01    0.2097788602E+00    0.8423168848E-04
    0.1100000000E+05    0.2042453747E-01    0.6955671465E+00    0.2400173838E-01    0.2356941358E+00    0.8518184602E-04
    0.1300000000E+05    0.2018897471E-01    0.6956251647E+00    0.2505296208E-01    0.2582535185E+00    0.8598013483E-04
    0.1500000000E+05    0.1972877457E-01    0.6956676486E+00    0.2577910231E-01    0.2781831128E+00    0.8666938528E-04
    0.1700000000E+05    0.1913834129E-01    0.6957000849E+00    0.2626593474E-01    0.2959943225E+00    0.8727642941E-04
    0.1900000000E+05    0.1847683990E-01    0.6957256500E+00    0.2657320576E-01    0.3120606892E+00    0.8781921321E-04
    0.2100000000E+05    0.1778192444E-01    0.6957463098E+00    0.2674372929E-01    0.3266635060E+00    0.8831034374E-04
    0.2300000000E+05    0.1707774212E-01    0.6957633462E+00    0.2680891752E-01    0.3400201321E+00    0.8875902311E-04
    0.2500000000E+05    0.1637976608E-01    0.6957776306E+00    0.2679227654E-01    0.3523022531E+00    0.8917217772E-04
    0.2700000000E+05    0.1569780000E-01    0.6957897759E+00    0.2671169091E-01    0.3636480536E+00    0.8955515415E-04
    0.2900000000E+05    0.1503789259E-01    0.6958002261E+00    0.2658096057E-01    0.3741705715E+00    0.8991216740E-04
    0.3100000000E+05    0.1440358294E-01    0.6958093101E+00    0.2641086137E-01    0.3839635803E+00    0.9024660037E-04
    0.3300000000E+05    0.1379672480E-01    0.6958172772E+00    0.2620989335E-01    0.3931058273E+00    0.9056121011E-04
    0.3500000000E+05    0.1321803992E-01    0.6958243196E+00    0.2598481915E-01    0.4016641507E+00    0.9085827388E-04
    0.3700000000E+05    0.1266749382E-01    0.6958305879E+00    0.2574105838E-01    0.4096958143E+00    0.9113969474E-04
    0.3900000000E+05    0.1214455339E-01    0.6958362017E+00    0.2548298082E-01    0.4172502870E+00    0.9140707962E-04
    0.4100000000E+05    0.1164836450E-01    0.6958412573E+00    0.2521412763E-01    0.4243706178E+00    0.9166179795E-04
    0.4300000000E+05    0.1117787502E-01    0.6958458329E+00    0.2493738024E-01    0.4310945151E+00    0.9190502647E-04
    0.4500000000E+05    0.1073192000E-01    0.6958499929E+00    0.2465509081E-01    0.4374552031E+00    0.9213778386E-04
    0.4700000000E+05    0.1030928067E-01    0.6958537906E+00    0.2436918396E-01    0.4434821097E+00    0.9236095800E-04
    0.4900000000E+05    0.9908724915E-02    0.6958572708E+00    0.2408123683E-01    0.4492014248E+00    0.9257532749E-04
    0.1000000000E+05    0.2041326610E-01    0.6955293972E+00    0.2331666189E-01    0.2232128774E+00    0.8472938562E-04
    0.3000000000E+05    0.1471739022E-01    0.6958049217E+00    0.2650025463E-01    0.3791530317E+00    0.9008202138E-04
    0.5000000000E+05    0.9716346636E-02    0.6958589038E+00    0.2393691194E-01    0.4519531487E+00    0.9267942825E-04
    0.7000000000E+05    0.6756495311E-02    0.6958815253E+00    0.2115407148E-01    0.4954021962E+00    0.9443022704E-04
    0.9000000000E+05    0.4935508257E-02    0.6958937957E+00    0.1876130320E-01    0.5243588888E+00    0.9575917010E-04
    0.1100000000E+06    0.3750885282E-02    0.6959014096E+00    0.1678032257E-01    0.5450303378E+00    0.9683359538E-04
    0.1300000000E+06    0.2941727935E-02    0.6959065429E+00    0.1514256838E-01    0.5605163762E+00    0.9773715025E-04
    0.1500000000E+06    0.2366301216E-02    0.6959102045E+00    0.1377734229E-01    0.5725433076E+00    0.9851780718E-04
    0.1700000000E+06    0.1943269244E-02    0.6959129247E+00    0.1262702531E-01    0.5821491592E+00    0.9920569188E-04
    0.1900000000E+06    0.1623561961E-02    0.6959150083E+00    0.1164720005E-01    0.5899953618E+00    0.9982098851E-04
    0.2100000000E+06    0.1376262606E-02    0.6959166428E+00    0.1080402033E-01    0.5965231110E+00    0.1003778952E-03
    0.2300000000E+06    0.1181152341E-02    0.6959179494E+00    0.1007160884E-01    0.6020378438E+00    0.1008867862E-03
    0.2500000000E+06    0.1024577424E-02    0.6959190099E+00    0.9430003603E-02    0.6067576377E+00    0.1013554767E-03
    0.2700000000E+06    0.8970576923E-03    0.6959198816E+00    0.8863637126E-02    0.6108423066E+00    0.1017900036E-03
    0.2900000000E+06    0.7918492967E-03    0.6959206055E+00    0.8360230770E-02    0.6144116079E+00    0.1021951287E-03
    0.3100000000E+06    0.7040516171E-03    0.6959212118E+00    0.7909992092E-02    0.6175570321E+00    0.1025746756E-03
    0.3300000000E+06    0.6300357218E-03    0.6959217233E+00    0.7505028764E-02    0.6203496652E+00    0.1029317621E-03
    0.3500000000E+06    0.5670688956E-03    0.6959221573E+00    0.7138916735E-02    0.6228455683E+00    0.1032689640E-03
    0.3700000000E+06    0.5130621432E-03    0.6959225272E+00    0.6806378750E-02    0.6250895422E+00    0.1035884348E-03
    0.3900000000E+06    0.4663967916E-03    0.6959228438E+00    0.6503042445E-02    0.6271178158E+00    0.1038919932E-03
    0.4100000000E+06    0.4258031419E-03    0.6959231156E+00    0.6225256382E-02    0.6289600000E+00    0.1041811897E-03
    0.4300000000E+06    0.3902740786E-03    0.6959233494E+00    0.5969948696E-02    0.6306405307E+00    0.1044573568E-03
    0.4500000000E+06    0.3590026015E-03    0.6959235507E+00    0.5734517422E-02    0.6321797512E+00    0.1047216481E-03
    0.4700000000E+06    0.3313360080E-03    0.6959237242E+00    0.5516744610E-02    0.6335947332E+00    0.1049750696E-03
    0.4900000000E+06    0.3067418481E-03    0.6959238737E+00    0.5314728457E-02    0.6348999083E+00    0.1052185034E-03
    0.1000000000E+06    0.4283768134E-02    0.6958980076E+00    0.1772316926E-01    0.5354919702E+00    0.9632180604E-04
    0.3000000000E+06    0.7460255919E-03    0.6959209218E+00    0.8128997586E-02    0.6160324561E+00    0.1023878902E-03
    0.5000000000E+06    0.2954569868E-03    0.6959239405E+00    0.5219107729E-02    0.6355152295E+00    0.1053367217E-03
    0.7000000000E+06    0.1570291000E-03    0.6959245661E+00    0.3834280364E-02    0.6442569356E+00    0.1073252437E-03
    0.9000000000E+06    0.9717745518E-04    0.6959245362E+00    0.3026875792E-02    0.6492159887E+00    0.1088349184E-03
    0.1100000000E+07    0.6601514308E-04    0.6959242730E+00    0.2498699792E-02    0.6524095029E+00    0.1100555927E-03
    0.1300000000E+07    0.4776407299E-04    0.6959239194E+00    0.2126514449E-02    0.6546373052E+00    0.1110822082E-03
    0.1500000000E+07    0.3616764995E-04    0.6959235328E+00    0.1850231081E-02    0.6562796385E+00    0.1119692291E-03
    0.1700000000E+07    0.2834522661E-04    0.6959231388E+00    0.1637081495E-02    0.6575403455E+00    0.1127508643E-03
    0.1900000000E+07    0.2282106966E-04    0.6959227493E+00    0.1467685228E-02    0.6585385109E+00    0.1134500366E-03
    0.2100000000E+07    0.1877587434E-04    0.6959223700E+00    0.1329850240E-02    0.6593483575E+00    0.1140828720E-03
    0.2300000000E+07    0.1572525887E-04    0.6959220034E+00    0.1215524904E-02    0.6600185489E+00    0.1146611546E-03
    0.2500000000E+07    0.1336799569E-04    0.6959216503E+00    0.1119179005E-02    0.6605823175E+00    0.1151937620E-03
    0.2700000000E+07    0.1150879981E-04    0.6959213109E+00    0.1036888995E-02    0.6610631301E+00    0.1156875521E-03
    0.2900000000E+07    0.1001657966E-04    0.6959209848E+00    0.9657943843E-03    0.6614780289E+00    0.1161479345E-03
    0.3100000000E+07    0.8800690290E-05    0.6959206713E+00    0.9037607649E-03    0.6618396889E+00    0.1165792535E-03
    0.3300000000E+07    0.7796835503E-05    0.6959203700E+00    0.8491633188E-03    0.6621577322E+00    0.1169850509E-03
    0.3500000000E+07    0.6958385818E-05    0.6959200799E+00    0.8007433974E-03    0.6624395947E+00    0.1173682535E-03
    0.3700000000E+07    0.6250858959E-05    0.6959198005E+00    0.7575109369E-03    0.6626911136E+00    0.1177313079E-03
    0.3900000000E+07    0.5648311918E-05    0.6959195312E+00    0.7186764890E-03    0.6629169351E+00    0.1180762807E-03
    0.4100000000E+07    0.5130923854E-05    0.6959192711E+00    0.6836028898E-03    0.6631208030E+00    0.1184049334E-03
    0.4300000000E+07    0.4683341000E-05    0.6959190199E+00    0.6517702526E-03    0.6633057680E+00    0.1187187801E-03
    0.4500000000E+07    0.4293520941E-05    0.6959187770E+00    0.6227501894E-03    0.6634743407E+00    0.1190191318E-03
    0.4700000000E+07    0.3951911217E-05    0.6959185417E+00    0.5961865429E-03    0.6636286063E+00    0.1193071313E-03
    0.4900000000E+07    0.3650856149E-05    0.6959183138E+00    0.5717807884E-03    0.6637703106E+00    0.1195837810E-03
    0.1000000000E+07    0.7934877609E-04    0.6959244217E+00    0.2737762649E-02    0.6509688206E+00    0.1094741268E-03
    0.3000000000E+07    0.9378608428E-05    0.6959208265E+00    0.9337564896E-03    0.6616648527E+00    0.1163669893E-03
    0.5000000000E+07    0.3513553448E-05    0.6959182024E+00    0.5603067804E-03    0.6638369218E+00    0.1197181301E-03
    0.7000000000E+07    0.1873347128E-05    0.6959162701E+00    0.3994993113E-03    0.6647700682E+00    0.1219780042E-03
    0.9000000000E+07    0.1189743080E-05    0.6959147410E+00    0.3100976042E-03    0.6652888253E+00    0.1236937059E-03
    0.1100000000E+08    0.8391194658E-06    0.6959134733E+00    0.2532297439E-03    0.6656189891E+00    0.1250809747E-03
    0.1300000000E+08    0.6345852453E-06    0.6959123886E+00    0.2138922780E-03    0.6658475510E+00    0.1262477035E-03
    0.1500000000E+08    0.5042922239E-06    0.6959114394E+00    0.1850728851E-03    0.6660151405E+00    0.1272557879E-03
    0.1700000000E+08    0.4157918618E-06    0.6959105946E+00    0.1630568775E-03    0.6661432763E+00    0.1281441041E-03
    0.1900000000E+08    0.3526648534E-06    0.6959098327E+00    0.1456933526E-03    0.6662444191E+00    0.1289387032E-03
    0.2100000000E+08    0.3058663603E-06    0.6959091384E+00    0.1316509763E-03    0.6663262834E+00    0.1296579118E-03
    0.2300000000E+08    0.2700737845E-06    0.6959085001E+00    0.1200617404E-03    0.6663939002E+00    0.1303151220E-03
    0.2500000000E+08    0.2419848149E-06    0.6959079092E+00    0.1103356284E-03    0.6664506906E+00    0.1309204232E-03
    0.2700000000E+08    0.2194597771E-06    0.6959073589E+00    0.1020576282E-03    0.6664990618E+00    0.1314816090E-03
