  Pressure (Pa) 22mC5-500 (mol/kg) 24mC5-500 (mol/kg) 2mC6-500 (mol/kg) 3mC6-500 (mol/kg) C7-500 (mol/kg)
    0.1000000000E+01    0.1504968641E-04    0.6965060802E-01    0.3281887203E-05    0.5603578414E-05    0.4195565123E-02
    0.3000000000E+01    0.3608870687E-04    0.1740837579E+00    0.7607936508E-05    0.1433828748E-04    0.4253044423E-02
    0.5000000000E+01    0.4996940630E-04    0.2486480725E+00    0.1028315687E-04    0.2238046282E-04    0.4291951541E-02
    0.7000000000E+01    0.5964207435E-04    0.3045549369E+00    0.1204835953E-04    0.3009205879E-04    0.4320981860E-02
    0.9000000000E+01    0.6667040602E-04    0.3480286482E+00    0.1327907527E-04    0.3759514298E-04    0.4343567092E-02
    0.1100000000E+02    0.7195501174E-04    0.3828018866E+00    0.1418222879E-04    0.4495077037E-04    0.4361659452E-02
    0.1300000000E+02    0.7604648906E-04    0.4112490615E+00    0.1487856021E-04    0.5219526572E-04    0.4376481940E-02
    0.1500000000E+02    0.7929743649E-04    0.4349526192E+00    0.1544165705E-04    0.5935255620E-04    0.4388845557E-02
    0.1700000000E+02    0.8194223961E-04    0.4550078226E+00    0.1591792937E-04    0.6643950711E-04    0.4399311004E-02
    0.1900000000E+02    0.8414155877E-04    0.4721968392E+00    0.1633745568E-04    0.7346859777E-04    0.4408278978E-02
    0.2100000000E+02    0.8600838250E-04    0.4870931586E+00    0.1672015932E-04    0.8044940681E-04    0.4416043756E-02
    0.2300000000E+02    0.8762392081E-04    0.5001268345E+00    0.1707946685E-04    0.8738950040E-04    0.4422826495E-02
    0.2500000000E+02    0.8904764123E-04    0.5116266898E+00    0.1742454796E-04    0.9429499473E-04    0.4428796721E-02
    0.2700000000E+02    0.9032379706E-04    0.5218484480E+00    0.1776172619E-04    0.1011709289E-03    0.4434086631E-02
    0.2900000000E+02    0.9148578448E-04    0.5309939770E+00    0.1809538933E-04    0.1080215213E-03    0.4438800878E-02
    0.3100000000E+02    0.9255911703E-04    0.5392247576E+00    0.1842858940E-04    0.1148503519E-03    0.4443023426E-02
    0.3300000000E+02    0.9356349700E-04    0.5466715031E+00    0.1876344548E-04    0.1216604942E-03    0.4446822446E-02
    0.3500000000E+02    0.9451428387E-04    0.5534411536E+00    0.1910141852E-04    0.1284546147E-03    0.4450253879E-02
    0.3700000000E+02    0.9542355184E-04    0.5596220460E+00    0.1944350152E-04    0.1352350471E-03    0.4453364077E-02
    0.3900000000E+02    0.9630086248E-04    0.5652877908E+00    0.1979035274E-04    0.1420038507E-03    0.4456191785E-02
    0.4100000000E+02    0.9715383658E-04    0.5705002177E+00    0.2014239008E-04    0.1487628554E-03    0.4458769646E-02
    0.4300000000E+02    0.9798858237E-04    0.5753116423E+00    0.2049985853E-04    0.1555136983E-03    0.4461125366E-02
    0.4500000000E+02    0.9881001969E-04    0.5797666278E+00    0.2086287876E-04    0.1622578520E-03    0.4463282621E-02
    0.4700000000E+02    0.9962212771E-04    0.5839033703E+00    0.2123148246E-04    0.1689966485E-03    0.4465261762E-02
    0.4900000000E+02    0.1004281361E-03    0.5877547962E+00    0.2160563804E-04    0.1757312988E-03    0.4467080390E-02
    0.1000000000E+02    0.6949032707E-04    0.3663309758E+00    0.1376261786E-04    0.4128873549E-04    0.4353086153E-02
    0.3000000000E+02    0.9203218461E-04    0.5352149126E+00    0.1826189666E-04    0.1114384541E-03    0.4440969031E-02
    0.5000000000E+02    0.1008296944E-03    0.5895825840E+00    0.2179477537E-04    0.1790974182E-03    0.4467934372E-02
    0.7000000000E+02    0.1089684013E-03    0.6164205631E+00    0.2583975949E-04    0.2464275267E-03    0.4479424256E-02
    0.9000000000E+02    0.1177284901E-03    0.6324147298E+00    0.3029083562E-04    0.3141951677E-03    0.4484463518E-02
    0.1100000000E+03    0.1272335193E-03    0.6430327320E+00    0.3504532636E-04    0.3828130017E-03    0.4486102471E-02
    0.1300000000E+03    0.1374376283E-03    0.6505952327E+00    0.4004379981E-04    0.4525530036E-03    0.4485671550E-02
    0.1500000000E+03    0.1482801697E-03    0.6562552400E+00    0.4525349193E-04    0.5236189789E-03    0.4483847391E-02
    0.1700000000E+03    0.1597125442E-03    0.6606504476E+00    0.5065683705E-04    0.5961779732E-03    0.4481011310E-02
    0.1900000000E+03    0.1717005244E-03    0.6641621911E+00    0.5624517233E-04    0.6703760830E-03    0.4477394341E-02
    0.2100000000E+03    0.1842219671E-03    0.6670325074E+00    0.6201530222E-04    0.7463473133E-03    0.4473143994E-02
    0.2300000000E+03    0.1972641871E-03    0.6694224186E+00    0.6796756867E-04    0.8242189698E-03    0.4468358072E-02
    0.2500000000E+03    0.2108218318E-03    0.6714432112E+00    0.7410473081E-04    0.9041151791E-03    0.4463103114E-02
    0.2700000000E+03    0.2248953091E-03    0.6731742627E+00    0.8043129584E-04    0.9861593352E-03    0.4457425073E-02
    0.2900000000E+03    0.2394896581E-03    0.6746737132E+00    0.8695311099E-04    0.1070475900E-02    0.4451355795E-02
    0.3100000000E+03    0.2546137488E-03    0.6759851225E+00    0.9367711224E-04    0.1157191807E-02    0.4444917109E-02
    0.3300000000E+03    0.2702797184E-03    0.6771417712E+00    0.1006111705E-03    0.1246437608E-02    0.4438123504E-02
    0.3500000000E+03    0.2865025809E-03    0.6781695241E+00    0.1077640006E-03    0.1338348466E-02    0.4430983915E-02
    0.3700000000E+03    0.3032999615E-03    0.6790887862E+00    0.1151451119E-03    0.1433065051E-02    0.4423502957E-02
    0.3900000000E+03    0.3206919236E-03    0.6799158717E+00    0.1227647881E-03    0.1530734372E-02    0.4415681777E-02
    0.4100000000E+03    0.3387008682E-03    0.6806639801E+00    0.1306340878E-03    0.1631510592E-02    0.4407518665E-02
    0.4300000000E+03    0.3573514865E-03    0.6813439052E+00    0.1387648605E-03    0.1735555832E-02    0.4399009483E-02
    0.4500000000E+03    0.3766707579E-03    0.6819645601E+00    0.1471697756E-03    0.1843040989E-02    0.4390147971E-02
    0.4700000000E+03    0.3966879834E-03    0.6825333689E+00    0.1558623612E-03    0.1954146584E-02    0.4380925966E-02
    0.4900000000E+03    0.4174348509E-03    0.6830565658E+00    0.1648570524E-03    0.2069063645E-02    0.4371333550E-02
    0.1000000000E+03    0.1223897192E-03    0.6382107887E+00    0.3263467570E-04    0.3483786708E-03    0.4485602712E-02
    0.3000000000E+03    0.2469847985E-03    0.6753506410E+00    0.9028936702E-04    0.1113525874E-02    0.4448181575E-02
    0.5000000000E+03    0.4280924777E-03    0.6833027399E+00    0.1694724603E-03    0.2128014273E-02    0.4366394884E-02
    0.7000000000E+03    0.6896500384E-03    0.6867673567E+00    0.2821138260E-03    0.3565371425E-02    0.4244381508E-02
    0.9000000000E+03    0.1087377778E-02    0.6887066043E+00    0.4525705242E-03    0.5740851371E-02    0.4060042377E-02
    0.1100000000E+04    0.1737485080E-02    0.6899458238E+00    0.7309405000E-03    0.9298945466E-02    0.3765331702E-02
    0.1300000000E+04    0.2887522546E-02    0.6908059370E+00    0.1224032657E-02    0.1561717728E-01    0.3262492481E-02
    0.1500000000E+04    0.4965444182E-02    0.6914377198E+00    0.2118139554E-02    0.2711972599E-01    0.2405755348E-02
    0.1700000000E+04    0.7904569583E-02    0.6919213624E+00    0.3392574375E-02    0.4364105198E-01    0.1321551950E-02
    0.1900000000E+04    0.1018237919E-01    0.6923034457E+00    0.4398439994E-02    0.5690953035E-01    0.6774495796E-03
    0.2100000000E+04    0.1143673617E-01    0.6926128784E+00    0.4973054352E-02    0.6474702715E-01    0.4992443592E-03
    0.2300000000E+04    0.1230365011E-01    0.6928685510E+00    0.5385475580E-02    0.7055931921E-01    0.4652829246E-03
    0.2500000000E+04    0.1305129138E-01    0.6930833292E+00    0.5750283228E-02    0.7581150065E-01    0.4606887434E-03
    0.2700000000E+04    0.1374306245E-01    0.6932662782E+00    0.6094514828E-02    0.8084905952E-01    0.4614648504E-03
    0.2900000000E+04    0.1439361284E-01    0.6934239693E+00    0.6424221971E-02    0.8574722917E-01    0.4631279073E-03
    0.3100000000E+04    0.1500755898E-01    0.6935612821E+00    0.6741126837E-02    0.9052530931E-01    0.4648603484E-03
    0.3300000000E+04    0.1558741503E-01    0.6936819163E+00    0.7046055733E-02    0.9519112556E-01    0.4665209431E-03
    0.3500000000E+04    0.1613517244E-01    0.6937887272E+00    0.7339625995E-02    0.9974996626E-01    0.4680927322E-03
    0.3700000000E+04    0.1665262068E-01    0.6938839543E+00    0.7622385086E-02    0.1042063904E+00    0.4695806626E-03
    0.3900000000E+04    0.1714141868E-01    0.6939693783E+00    0.7894840573E-02    0.1085646079E+00    0.4709926041E-03
    0.4100000000E+04    0.1760311592E-01    0.6940464330E+00    0.8157468107E-02    0.1128285716E+00    0.4723359684E-03
    0.4300000000E+04    0.1803916303E-01    0.6941162859E+00    0.8410714788E-02    0.1170020092E+00    0.4736172459E-03
    0.4500000000E+04    0.1845091955E-01    0.6941798971E+00    0.8655001450E-02    0.1210884416E+00    0.4748420648E-03
    0.4700000000E+04    0.1883966077E-01    0.6942380634E+00    0.8890724576E-02    0.1250911978E+00    0.4760153201E-03
    0.4900000000E+04    0.1920658385E-01    0.6942914519E+00    0.9118258030E-02    0.1290134281E+00    0.4771412926E-03
    0.1000000000E+04    0.1369669319E-02    0.6893876960E+00    0.5734356699E-03    0.7284894201E-02    0.3931056469E-02
    0.3000000000E+04    0.1470498449E-01    0.6934949187E+00    0.6584214851E-02    0.8815068891E-01    0.4639996990E-03
    0.5000000000E+04    0.1938221773E-01    0.6943165336E+00    0.9229064668E-02    0.1309452847E+00    0.4776877423E-03
    0.7000000000E+04    0.2198904611E-01    0.6946666558E+00    0.1109118231E-01    0.1660020189E+00    0.4868495305E-03
    0.9000000000E+04    0.2335026554E-01    0.6948598193E+00    0.1243522315E-01    0.1955962856E+00    0.4937750930E-03
    0.1100000000E+05    0.2393598248E-01    0.6949818136E+00    0.1342015185E-01    0.2211435728E+00    0.4993609330E-03
    0.1300000000E+05    0.2402816805E-01    0.6950655996E+00    0.1414706723E-01    0.2435758992E+00    0.5040511601E-03
    0.1500000000E+05    0.2380277357E-01    0.6951265351E+00    0.1468328212E-01    0.2635358982E+00    0.5080990485E-03
    0.1700000000E+05    0.2337303434E-01    0.6951727362E+00    0.1507532684E-01    0.2814839807E+00    0.5116630386E-03
    0.1900000000E+05    0.2281358946E-01    0.6952088921E+00    0.1535638161E-01    0.2977608479E+00    0.5148489880E-03
    0.2100000000E+05    0.2217453950E-01    0.6952378996E+00    0.1555073146E-01    0.3126256699E+00    0.5177312016E-03
    0.2300000000E+05    0.2148995754E-01    0.6952616436E+00    0.1567654647E-01    0.3262803314E+00    0.5203638815E-03
    0.2500000000E+05    0.2078321098E-01    0.6952814029E+00    0.1574767838E-01    0.3388853569E+00    0.5227878044E-03
    0.2700000000E+05    0.2007038230E-01    0.6952980754E+00    0.1577485713E-01    0.3505706830E+00    0.5250344329E-03
    0.2900000000E+05    0.1936252047E-01    0.6953123096E+00    0.1576650936E-01    0.3614431382E+00    0.5271285621E-03
    0.3100000000E+05    0.1866715337E-01    0.6953245855E+00    0.1572933155E-01    0.3715917582E+00    0.5290900859E-03
    0.3300000000E+05    0.1798932183E-01    0.6953352659E+00    0.1566869983E-01    0.3810916424E+00    0.5309352136E-03
    0.3500000000E+05    0.1733229755E-01    0.6953446297E+00    0.1558896863E-01    0.3900068064E+00    0.5326773308E-03
    0.3700000000E+05    0.1669808791E-01    0.6953528953E+00    0.1549369185E-01    0.3983923275E+00    0.5343276213E-03
    0.3900000000E+05    0.1608779518E-01    0.6953602356E+00    0.1538578926E-01    0.4062959850E+00    0.5358955267E-03
    0.4100000000E+05    0.1550187431E-01    0.6953667895E+00    0.1526767335E-01    0.4137595310E+00    0.5373890922E-03
    0.4300000000E+05    0.1494031956E-01    0.6953726696E+00    0.1514134725E-01    0.4208196903E+00    0.5388152299E-03
    0.4500000000E+05    0.1440280038E-01    0.6953779684E+00    0.1500848112E-01    0.4275089539E+00    0.5401799228E-03
    0.4700000000E+05    0.1388876082E-01    0.6953827625E+00    0.1487047244E-01    0.4338562188E+00    0.5414883848E-03
    0.4900000000E+05    0.1339749248E-01    0.6953871155E+00    0.1472849390E-01    0.4398873068E+00    0.5427451878E-03
    0.1000000000E+05    0.2371925165E-01    0.6949270336E+00    0.1296525759E-01    0.2088090681E+00    0.4967014795E-03
    0.3000000000E+05    0.1901291139E-01    0.6953186674E+00    0.1575116120E-01    0.3666029448E+00    0.5281248117E-03
    0.5000000000E+05    0.1316014798E-01    0.6953891438E+00    0.1465633058E-01    0.4427916193E+00    0.5433554958E-03
    0.7000000000E+05    0.9396781121E-02    0.6954159853E+00    0.1317429221E-01    0.4888303536E+00    0.5536187499E-03
    0.9000000000E+05    0.6978421793E-02    0.6954290002E+00    0.1181068105E-01    0.5196153518E+00    0.5614079452E-03
    0.1100000000E+06    0.5362394109E-02    0.6954360574E+00    0.1064109721E-01    0.5415716913E+00    0.5677048186E-03
    0.1300000000E+06    0.4238546753E-02    0.6954400844E+00    0.9652716474E-02    0.5579732605E+00    0.5729999651E-03
    0.1500000000E+06    0.3429094166E-02    0.6954424011E+00    0.8816465862E-02    0.5706645001E+00    0.5775746929E-03
    0.1700000000E+06    0.2828399659E-02    0.6954436814E+00    0.8104296005E-02    0.5807612059E+00    0.5816056350E-03
    0.1900000000E+06    0.2371161059E-02    0.6954443010E+00    0.7492818686E-02    0.5889762153E+00    0.5852111239E-03
    0.2100000000E+06    0.2015490749E-02    0.6954444838E+00    0.6963366910E-02    0.5957852306E+00    0.5884743922E-03
    0.2300000000E+06    0.1733618542E-02    0.6954443696E+00    0.6501222354E-02    0.6015172886E+00    0.5914562528E-03
    0.2500000000E+06    0.1506589521E-02    0.6954440496E+00    0.6094778761E-02    0.6064069190E+00    0.5942025154E-03
    0.2700000000E+06    0.1321129451E-02    0.6954435851E+00    0.5734834609E-02    0.6106256173E+00    0.5967485640E-03
    0.2900000000E+06    0.1167729216E-02    0.6954430184E+00    0.5414039032E-02    0.6143015779E+00    0.5991223090E-03
    0.3100000000E+06    0.1039438548E-02    0.6954423793E+00    0.5126469636E-02    0.6175324821E+00    0.6013461610E-03
    0.3300000000E+06    0.9310856169E-03    0.6954416893E+00    0.4867313542E-02    0.6203940243E+00    0.6034383920E-03
    0.3500000000E+06    0.8387597027E-03    0.6954409639E+00    0.4632626339E-02    0.6229457415E+00    0.6054140991E-03
    0.3700000000E+06    0.7594606594E-03    0.6954402147E+00    0.4419149076E-02    0.6252350884E+00    0.6072859026E-03
    0.3900000000E+06    0.6908566420E-03    0.6954394502E+00    0.4224168393E-02    0.6273003421E+00    0.6090644616E-03
    0.4100000000E+06    0.6311136157E-03    0.6954386769E+00    0.4045408788E-02    0.6291727105E+00    0.6107588621E-03
    0.4300000000E+06    0.5787733987E-03    0.6954378997E+00    0.3880948961E-02    0.6308778865E+00    0.6123769131E-03
    0.4500000000E+06    0.5326651074E-03    0.6954371222E+00    0.3729156334E-02    0.6324372108E+00    0.6139253763E-03
    0.4700000000E+06    0.4918399664E-03    0.6954363473E+00    0.3588635369E-02    0.6338685529E+00    0.6154101456E-03
    0.4900000000E+06    0.4555227096E-03    0.6954355770E+00    0.3458186482E-02    0.6351869875E+00    0.6168363906E-03
    0.1000000000E+06    0.6093583933E-02    0.6954330335E+00    0.1120166622E-01    0.5314464734E+00    0.5647054338E-03
    0.3000000000E+06    0.1100803047E-02    0.6954427064E+00    0.5266424720E-02    0.6159674946E+00    0.6002517455E-03
    0.5000000000E+06    0.4388505012E-03    0.6954351941E+00    0.3396409540E-02    0.6358079426E+00    0.6175290127E-03
    0.7000000000E+06    0.2338858923E-03    0.6954280050E+00    0.2499613312E-02    0.6445852683E+00    0.6291792138E-03
    0.9000000000E+06    0.1449773843E-03    0.6954217865E+00    0.1975087211E-02    0.6495258160E+00    0.6380237075E-03
    0.1100000000E+07    0.9860292950E-04    0.6954163982E+00    0.1631371586E-02    0.6526918312E+00    0.6451749226E-03
    0.1300000000E+07    0.7141077958E-04    0.6954116672E+00    0.1388909352E-02    0.6548930544E+00    0.6511891565E-03
    0.1500000000E+07    0.5411891931E-04    0.6954074574E+00    0.1208791844E-02    0.6565118626E+00    0.6563855285E-03
    0.1700000000E+07    0.4244711356E-04    0.6954036673E+00    0.1069759825E-02    0.6577522422E+00    0.6609644716E-03
    0.1900000000E+07    0.3420023384E-04    0.6954002214E+00    0.9592228183E-03    0.6587329190E+00    0.6650602906E-03
    0.2100000000E+07    0.2815858231E-04    0.6953970621E+00    0.8692525003E-03    0.6595276760E+00    0.6687674678E-03
    0.2300000000E+07    0.2360060052E-04    0.6953941450E+00    0.7946090710E-03    0.6601847751E+00    0.6721550436E-03
    0.2500000000E+07    0.2007733402E-04    0.6953914351E+00    0.7316914692E-03    0.6607371101E+00    0.6752750307E-03
    0.2700000000E+07    0.1729760229E-04    0.6953889046E+00    0.6779436116E-03    0.6612078716E+00    0.6781676078E-03
    0.2900000000E+07    0.1506586958E-04    0.6953865308E+00    0.6315012315E-03    0.6616138781E+00    0.6808644691E-03
    0.3100000000E+07    0.1324688752E-04    0.6953842950E+00    0.5909728097E-03    0.6619676235E+00    0.6833910649E-03
    0.3300000000E+07    0.1174469525E-04    0.6953821817E+00    0.5552987544E-03    0.6622785827E+00    0.6857681466E-03
    0.3500000000E+07    0.1048968185E-04    0.6953801780E+00    0.5236580641E-03    0.6625540716E+00    0.6880128605E-03
    0.3700000000E+07    0.9430358821E-05    0.6953782727E+00    0.4954047955E-03    0.6627998285E+00    0.6901395404E-03
    0.3900000000E+07    0.8527980430E-05    0.6953764565E+00    0.4700237964E-03    0.6630204177E+00    0.6921602933E-03
    0.4100000000E+07    0.7752938732E-05    0.6953747212E+00    0.4470992193E-03    0.6632195150E+00    0.6940854394E-03
    0.4300000000E+07    0.7082294538E-05    0.6953730597E+00    0.4262917083E-03    0.6634001138E+00    0.6959238488E-03
    0.4500000000E+07    0.6498052963E-05    0.6953714658E+00    0.4073215967E-03    0.6635646764E+00    0.6976832018E-03
    0.4700000000E+07    0.5985937592E-05    0.6953699341E+00    0.3899563447E-03    0.6637152469E+00    0.6993701938E-03
    0.4900000000E+07    0.5534505085E-05    0.6953684598E+00    0.3740010208E-03    0.6638535362E+00    0.7009906971E-03
    0.1000000000E+07    0.1184532686E-03    0.6954190001E+00    0.1786998970E-02    0.6512650904E+00    0.6417684723E-03
    0.3000000000E+07    0.1411152239E-04    0.6953853967E+00    0.6105705072E-03    0.6617966323E+00    0.6821476577E-03
    0.5000000000E+07    0.5328580191E-05    0.6953677429E+00    0.3664996166E-03    0.6639185353E+00    0.7017776581E-03
    0.7000000000E+07    0.2865829013E-05    0.6953555956E+00    0.2613517281E-03    0.6648286732E+00    0.7150148563E-03
    0.9000000000E+07    0.1836603722E-05    0.6953462820E+00    0.2028812662E-03    0.6653343442E+00    0.7250643120E-03
    0.1100000000E+08    0.1307173771E-05    0.6953387057E+00    0.1656837877E-03    0.6656561014E+00    0.7331898624E-03
    0.1300000000E+08    0.9973819908E-06    0.6953323073E+00    0.1399508328E-03    0.6658788230E+00    0.7400235495E-03
    0.1500000000E+08    0.7994003654E-06    0.6953267619E+00    0.1210972422E-03    0.6660421274E+00    0.7459279530E-03
    0.1700000000E+08    0.6644734153E-06    0.6953218635E+00    0.1066937704E-03    0.6661669899E+00    0.7511308066E-03
    0.1900000000E+08    0.5679002689E-06    0.6953174734E+00    0.9533368649E-04    0.6662655538E+00    0.7557847104E-03
    0.2100000000E+08    0.4960568779E-06    0.6953134932E+00    0.8614620967E-04    0.6663453358E+00    0.7599970182E-03
    0.2300000000E+08    0.4409154605E-06    0.6953098511E+00    0.7856357273E-04    0.6664112374E+00    0.7638461765E-03
    0.2500000000E+08    0.3974886154E-06    0.6953064925E+00    0.7219982575E-04    0.6664665914E+00    0.7673912845E-03
    0.2700000000E+08    0.3625403673E-06    0.6953033753E+00    0.6678348495E-04    0.6665137430E+00    0.7706779953E-03
