  Pressure (Pa) 22mC5-500 (mol/kg) 24mC5-500 (mol/kg) 2mC6-500 (mol/kg) 3mC6-500 (mol/kg) C7-500 (mol/kg)
    0.1000000000E+01    0.1696341432E-04    0.9949915096E-01    0.1284513140E-04    0.5105763883E-05    0.4146571477E-02
    0.3000000000E+01    0.3750156422E-04    0.2321099008E+00    0.2725788479E-04    0.1260787287E-04    0.4174900346E-02
    0.5000000000E+01    0.4931254493E-04    0.3164680852E+00    0.3499544976E-04    0.1941715249E-04    0.4184532288E-02
    0.7000000000E+01    0.5683166595E-04    0.3748573857E+00    0.3976532872E-04    0.2590225008E-04    0.4189956400E-02
    0.9000000000E+01    0.6199626272E-04    0.4176704463E+00    0.4307825042E-04    0.3218483737E-04    0.4193418504E-02
    0.1100000000E+02    0.6577109131E-04    0.4504069965E+00    0.4563377306E-04    0.3832507602E-04    0.4195746011E-02
    0.1300000000E+02    0.6868156925E-04    0.4762501684E+00    0.4778406273E-04    0.4435847403E-04    0.4197343667E-02
    0.1500000000E+02    0.7103340184E-04    0.4971700546E+00    0.4971715963E-04    0.5030827726E-04    0.4198439727E-02
    0.1700000000E+02    0.7301374392E-04    0.5144512931E+00    0.5153777468E-04    0.5619078929E-04    0.4199174698E-02
    0.1900000000E+02    0.7474188211E-04    0.5289673306E+00    0.5330592586E-04    0.6201802343E-04    0.4199640480E-02
    0.2100000000E+02    0.7629635912E-04    0.5413327560E+00    0.5505661792E-04    0.6779916751E-04    0.4199899976E-02
    0.2300000000E+02    0.7773028597E-04    0.5519925830E+00    0.5681038447E-04    0.7354145612E-04    0.4199997792E-02
    0.2500000000E+02    0.7908037560E-04    0.5612769630E+00    0.5857917094E-04    0.7925072111E-04    0.4199966487E-02
    0.2700000000E+02    0.8037247357E-04    0.5694359990E+00    0.6036972937E-04    0.8493175524E-04    0.4199830405E-02
    0.2900000000E+02    0.8162505268E-04    0.5766626199E+00    0.6218563216E-04    0.9058856167E-04    0.4199608115E-02
    0.3100000000E+02    0.8285148203E-04    0.5831080358E+00    0.6402849378E-04    0.9622453048E-04    0.4199314036E-02
    0.3300000000E+02    0.8406153554E-04    0.5888924363E+00    0.6589872544E-04    0.1018425670E-03    0.4198959534E-02
    0.3500000000E+02    0.8526241590E-04    0.5941125572E+00    0.6779600791E-04    0.1074451869E-03    0.4198553686E-02
    0.3700000000E+02    0.8645946238E-04    0.5988471360E+00    0.6971959069E-04    0.1130345890E-03    0.4198103832E-02
    0.3900000000E+02    0.8765664822E-04    0.6031609115E+00    0.7166848244E-04    0.1186127101E-03    0.4197615965E-02
    0.4100000000E+02    0.8885693511E-04    0.6071076026E+00    0.7364157230E-04    0.1241812694E-03    0.4197095030E-02
    0.4300000000E+02    0.9006252921E-04    0.6107321573E+00    0.7563770690E-04    0.1297418024E-03    0.4196545138E-02
    0.4500000000E+02    0.9127506815E-04    0.6140724731E+00    0.7765573851E-04    0.1352956891E-03    0.4195969737E-02
    0.4700000000E+02    0.9249575912E-04    0.6171607266E+00    0.7969455455E-04    0.1408441764E-03    0.4195371735E-02
    0.4900000000E+02    0.9372548171E-04    0.6200244144E+00    0.8175309477E-04    0.1463883964E-03    0.4194753605E-02
    0.1000000000E+02    0.6401767681E-04    0.4350620199E+00    0.4442341722E-04    0.3527015121E-04    0.4194693012E-02
    0.3000000000E+02    0.8224085482E-04    0.5799748406E+00    0.6310364581E-04    0.9340895908E-04    0.4199469278E-02
    0.5000000000E+02    0.9434393457E-04    0.6213795647E+00    0.8278944681E-04    0.1491592324E-03    0.4194437665E-02
    0.7000000000E+02    0.1072611816E-03    0.6409946805E+00    0.1043454031E-03    0.2045621309E-03    0.4187442441E-02
    0.9000000000E+02    0.1211876930E-03    0.6524381082E+00    0.1271153833E-03    0.2603317788E-03    0.4179679873E-02
    0.1100000000E+03    0.1359921922E-03    0.6599362595E+00    0.1508116789E-03    0.3168510306E-03    0.4171492450E-02
    0.1300000000E+03    0.1515681356E-03    0.6652295268E+00    0.1753163975E-03    0.3743723128E-03    0.4163005327E-02
    0.1500000000E+03    0.1678497232E-03    0.6691658460E+00    0.2005872963E-03    0.4330854747E-03    0.4154268679E-02
    0.1700000000E+03    0.1848005424E-03    0.6722077554E+00    0.2266188034E-03    0.4931470340E-03    0.4145301640E-02
    0.1900000000E+03    0.2024038516E-03    0.6746290170E+00    0.2534248321E-03    0.5546948565E-03    0.4136108768E-02
    0.2100000000E+03    0.2206562624E-03    0.6766020087E+00    0.2810306626E-03    0.6178563744E-03    0.4126687058E-02
    0.2300000000E+03    0.2395638035E-03    0.6782406804E+00    0.3094688967E-03    0.6827535992E-03    0.4117029224E-02
    0.2500000000E+03    0.2591394692E-03    0.6796233764E+00    0.3387773710E-03    0.7495064128E-03    0.4107125333E-02
    0.2700000000E+03    0.2794016780E-03    0.6808057348E+00    0.3689980732E-03    0.8182348747E-03    0.4096963652E-02
    0.2900000000E+03    0.3003733004E-03    0.6818283579E+00    0.4001766006E-03    0.8890609452E-03    0.4086531099E-02
    0.3100000000E+03    0.3220810501E-03    0.6827215701E+00    0.4323619266E-03    0.9621098497E-03    0.4075813478E-02
    0.3300000000E+03    0.3445551148E-03    0.6835084767E+00    0.4656063518E-03    0.1037511223E-02    0.4064795588E-02
    0.3500000000E+03    0.3678289505E-03    0.6842069912E+00    0.4999655722E-03    0.1115400117E-02    0.4053461267E-02
    0.3700000000E+03    0.3919391899E-03    0.6848312163E+00    0.5354988277E-03    0.1195917933E-02    0.4041793388E-02
    0.3900000000E+03    0.4169256360E-03    0.6853924059E+00    0.5722691079E-03    0.1279213312E-02    0.4029773827E-02
    0.4100000000E+03    0.4428313198E-03    0.6858996500E+00    0.6103434046E-03    0.1365443014E-02    0.4017383410E-02
    0.4300000000E+03    0.4697026111E-03    0.6863603710E+00    0.6497930044E-03    0.1454772813E-02    0.4004601843E-02
    0.4500000000E+03    0.4975893715E-03    0.6867806892E+00    0.6906938179E-03    0.1547378417E-02    0.3991407636E-02
    0.4700000000E+03    0.5265451480E-03    0.6871656965E+00    0.7331267457E-03    0.1643446426E-02    0.3977778011E-02
    0.4900000000E+03    0.5566274020E-03    0.6875196634E+00    0.7771780803E-03    0.1743175355E-02    0.3963688798E-02
    0.1000000000E+03    0.1284879152E-03    0.6565407860E+00    0.1388575891E-03    0.2884799539E-03    0.4175628823E-02
    0.3000000000E+03    0.3111333509E-03    0.6822895547E+00    0.4161402233E-03    0.9252995566E-03    0.4081208850E-02
    0.5000000000E+03    0.5721100492E-03    0.6876861568E+00    0.7998391989E-03    0.1794478222E-02    0.3956463886E-02
    0.7000000000E+03    0.9590709689E-03    0.6900257778E+00    0.1364977940E-02    0.3074437481E-02    0.3780431021E-02
    0.9000000000E+03    0.1573165433E-02    0.6913326644E+00    0.2260854561E-02    0.5106644427E-02    0.3513087441E-02
    0.1100000000E+04    0.2627020556E-02    0.6921669897E+00    0.3800141165E-02    0.8606660410E-02    0.3075708883E-02
    0.1300000000E+04    0.4526129063E-02    0.6927458228E+00    0.6582474601E-02    0.1495533939E-01    0.2335275333E-02
    0.1500000000E+04    0.7528092914E-02    0.6931709366E+00    0.1100710234E-01    0.2511290437E-01    0.1277884989E-02
    0.1700000000E+04    0.1042724089E-01    0.6934963854E+00    0.1533679417E-01    0.3517993078E-01    0.4520431882E-03
    0.1900000000E+04    0.1216434113E-01    0.6937535380E+00    0.1800507724E-01    0.4154917443E-01    0.1596033658E-03
    0.2100000000E+04    0.1328704189E-01    0.6939618488E+00    0.1979261131E-01    0.4595472133E-01    0.9396159653E-04
    0.2300000000E+04    0.1421263987E-01    0.6941340241E+00    0.2130582527E-01    0.4977019408E-01    0.8121128413E-04
    0.2500000000E+04    0.1505764256E-01    0.6942787143E+00    0.2271438347E-01    0.5338095413E-01    0.7900394480E-04
    0.2700000000E+04    0.1584993086E-01    0.6944020129E+00    0.2405818658E-01    0.5687629555E-01    0.7883735209E-04
    0.2900000000E+04    0.1659755888E-01    0.6945083360E+00    0.2534799215E-01    0.6027873094E-01    0.7905508683E-04
    0.3100000000E+04    0.1730424748E-01    0.6946009624E+00    0.2658822539E-01    0.6359631526E-01    0.7933393812E-04
    0.3300000000E+04    0.1797266117E-01    0.6946823777E+00    0.2778182746E-01    0.6683382334E-01    0.7961134420E-04
    0.3500000000E+04    0.1860510573E-01    0.6947545002E+00    0.2893128753E-01    0.6999513192E-01    0.7987619948E-04
    0.3700000000E+04    0.1920368656E-01    0.6948188345E+00    0.3003887250E-01    0.7308374234E-01    0.8012753733E-04
    0.3900000000E+04    0.1977035282E-01    0.6948765767E+00    0.3110668648E-01    0.7610290739E-01    0.8036627104E-04
    0.4100000000E+04    0.2030691630E-01    0.6949286901E+00    0.3213669294E-01    0.7905567187E-01    0.8059354291E-04
    0.4300000000E+04    0.2081506412E-01    0.6949759590E+00    0.3313072794E-01    0.8194489343E-01    0.8081041098E-04
    0.4500000000E+04    0.2129636913E-01    0.6950190284E+00    0.3409051068E-01    0.8477325777E-01    0.8101780640E-04
    0.4700000000E+04    0.2175229919E-01    0.6950584339E+00    0.3501765268E-01    0.8754329187E-01    0.8121654283E-04
    0.4900000000E+04    0.2218422551E-01    0.6950946234E+00    0.3591366607E-01    0.9025737572E-01    0.8140733329E-04
    0.1000000000E+04    0.2024834565E-02    0.6917912853E+00    0.2920195127E-02    0.6604665582E-02    0.3322850709E-02
    0.3000000000E+04    0.1695584211E-01    0.6945561904E+00    0.2597410566E-01    0.6194779799E-01    0.7919297927E-04
    0.5000000000E+04    0.2239159122E-01    0.6951116326E+00    0.3635044676E-01    0.9159414250E-01    0.8149994795E-04
    0.7000000000E+04    0.2554936421E-01    0.6953497407E+00    0.4375463520E-01    0.1158743174E+00    0.8305454763E-04
    0.9000000000E+04    0.2735355762E-01    0.6954819439E+00    0.4923275851E-01    0.1364686277E+00    0.8423153827E-04
    0.1100000000E+05    0.2831432813E-01    0.6955659911E+00    0.5339163015E-01    0.1543873381E+00    0.8518170959E-04
    0.1300000000E+05    0.2873148761E-01    0.6956241078E+00    0.5660748995E-01    0.1702787118E+00    0.8598000887E-04
    0.1500000000E+05    0.2878999374E-01    0.6956666691E+00    0.5912615125E-01    0.1845806332E+00    0.8666926763E-04
    0.1700000000E+05    0.2860839743E-01    0.6956991686E+00    0.6111514369E-01    0.1976014536E+00    0.8727631855E-04
    0.1900000000E+05    0.2826503998E-01    0.6957247863E+00    0.6269268466E-01    0.2095659234E+00    0.8781910807E-04
    0.2100000000E+05    0.2781297458E-01    0.6957454909E+00    0.6394465679E-01    0.2206426800E+00    0.8831024348E-04
    0.2300000000E+05    0.2728884060E-01    0.6957625660E+00    0.6493500921E-01    0.2309614273E+00    0.8875892710E-04
    0.2500000000E+05    0.2671833694E-01    0.6957768842E+00    0.6571237513E-01    0.2406240760E+00    0.8917208545E-04
    0.2700000000E+05    0.2611970434E-01    0.6957890596E+00    0.6631442104E-01    0.2497122001E+00    0.8955506520E-04
    0.2900000000E+05    0.2550600100E-01    0.6957995366E+00    0.6677078685E-01    0.2582921671E+00    0.8991208144E-04
    0.3100000000E+05    0.2488662454E-01    0.6958086448E+00    0.6710512338E-01    0.2664187543E+00    0.9024651710E-04
    0.3300000000E+05    0.2426835081E-01    0.6958166338E+00    0.6733653556E-01    0.2741377528E+00    0.9056112930E-04
    0.3500000000E+05    0.2365605561E-01    0.6958236962E+00    0.6748062496E-01    0.2814878803E+00    0.9085819532E-04
    0.3700000000E+05    0.2305322413E-01    0.6958299829E+00    0.6755025598E-01    0.2885022078E+00    0.9113961825E-04
    0.3900000000E+05    0.2246231543E-01    0.6958356137E+00    0.6755612816E-01    0.2952092437E+00    0.9140700504E-04
    0.4100000000E+05    0.2188502660E-01    0.6958406849E+00    0.6750720959E-01    0.3016337668E+00    0.9166172515E-04
    0.4300000000E+05    0.2132248612E-01    0.6958452751E+00    0.6741106961E-01    0.3077974754E+00    0.9190495533E-04
    0.4500000000E+05    0.2077539693E-01    0.6958494487E+00    0.6727413713E-01    0.3137195000E+00    0.9213771427E-04
    0.4700000000E+05    0.2024414300E-01    0.6958532592E+00    0.6710190342E-01    0.3194168110E+00    0.9236088987E-04
    0.4900000000E+05    0.1972886943E-01    0.6958567513E+00    0.6689908301E-01    0.3249045480E+00    0.9257526072E-04
    0.1000000000E+05    0.2791714245E-01    0.6955281814E+00    0.5144968047E-01    0.1457156844E+00    0.8472924281E-04
    0.3000000000E+05    0.2519654667E-01    0.6958042446E+00    0.6695192199E-01    0.2624090858E+00    0.9008193680E-04
    0.5000000000E+05    0.1947722053E-01    0.6958583900E+00    0.6678749587E-01    0.3275741234E+00    0.9267936214E-04
    0.7000000000E+05    0.1522305264E-01    0.6958810989E+00    0.6369026332E-01    0.3726358842E+00    0.9443017108E-04
    0.9000000000E+05    0.1216477286E-01    0.6958934263E+00    0.5997107166E-01    0.4064291058E+00    0.9575912087E-04
    0.1100000000E+06    0.9925252739E-02    0.6959010813E+00    0.5628524486E-01    0.4329586341E+00    0.9683355108E-04
    0.1300000000E+06    0.8244792707E-02    0.6959062463E+00    0.5283845850E-01    0.4544370554E+00    0.9773710979E-04
    0.1500000000E+06    0.6954492553E-02    0.6959099333E+00    0.4968516863E-01    0.4722260981E+00    0.9851776984E-04
    0.1700000000E+06    0.5943386104E-02    0.6959126745E+00    0.4682444843E-01    0.4872235912E+00    0.9920565715E-04
    0.1900000000E+06    0.5136851846E-02    0.6959147761E+00    0.4423535775E-01    0.5000509852E+00    0.9982095602E-04
    0.2100000000E+06    0.4483441009E-02    0.6959164260E+00    0.4189098716E-01    0.5111545034E+00    0.1003778646E-03
    0.2300000000E+06    0.3946834335E-02    0.6959177462E+00    0.3976415942E-01    0.5208639801E+00    0.1008867574E-03
    0.2500000000E+06    0.3500835527E-02    0.6959188189E+00    0.3782965196E-01    0.5294290690E+00    0.1013554494E-03
    0.2700000000E+06    0.3126180299E-02    0.6959197014E+00    0.3606492040E-01    0.5370425253E+00    0.1017899777E-03
    0.2900000000E+06    0.2808453537E-02    0.6959204351E+00    0.3445017604E-01    0.5438557194E+00    0.1021951041E-03
    0.3100000000E+06    0.2536698701E-02    0.6959210504E+00    0.3296819823E-01    0.5499892820E+00    0.1025746522E-03
    0.3300000000E+06    0.2302469782E-02    0.6959215702E+00    0.3160405410E-01    0.5555405935E+00    0.1029317397E-03
    0.3500000000E+06    0.2099172447E-02    0.6959220117E+00    0.3034480332E-01    0.5605891679E+00    0.1032689427E-03
    0.3700000000E+06    0.1921598070E-02    0.6959223888E+00    0.2917922083E-01    0.5652005960E+00    0.1035884144E-03
    0.3900000000E+06    0.1765588829E-02    0.6959227120E+00    0.2809754989E-01    0.5694294817E+00    0.1038919737E-03
    0.4100000000E+06    0.1627793462E-02    0.6959229900E+00    0.2709128794E-01    0.5733216616E+00    0.1041811710E-03
    0.4300000000E+06    0.1505486703E-02    0.6959232296E+00    0.2615300363E-01    0.5769159041E+00    0.1044573388E-03
    0.4500000000E+06    0.1396434142E-02    0.6959234364E+00    0.2527618165E-01    0.5802452269E+00    0.1047216309E-03
    0.4700000000E+06    0.1298789902E-02    0.6959236151E+00    0.2445509170E-01    0.5833379287E+00    0.1049750531E-03
    0.4900000000E+06    0.1211018357E-02    0.6959237695E+00    0.2368467784E-01    0.5862184059E+00    0.1052184876E-03
    0.1000000000E+06    0.1096148498E-01    0.6958976602E+00    0.5810570907E-01    0.4204367826E+00    0.9632175945E-04
    0.3000000000E+06    0.2667407493E-02    0.6959207560E+00    0.3369357474E-01    0.5470008949E+00    0.1023878662E-03
    0.5000000000E+06    0.1170424617E-02    0.6959238387E+00    0.2331705558E-01    0.5875857804E+00    0.1053367062E-03
    0.7000000000E+06    0.6533431016E-03    0.6959245024E+00    0.1777229140E-01    0.6076924940E+00    0.1073252335E-03
    0.9000000000E+06    0.4159448753E-03    0.6959244995E+00    0.1433969638E-01    0.6197012869E+00    0.1088349119E-03
    0.1100000000E+07    0.2877264544E-03    0.6959242574E+00    0.1200984789E-01    0.6276831704E+00    0.1100555893E-03
    0.1300000000E+07    0.2107533534E-03    0.6959239210E+00    0.1032648151E-01    0.6333717915E+00    0.1110822073E-03
    0.1500000000E+07    0.1609704303E-03    0.6959235492E+00    0.9054026797E-02    0.6376306285E+00    0.1119692304E-03
    0.1700000000E+07    0.1269389213E-03    0.6959231680E+00    0.8058773470E-02    0.6409380952E+00    0.1127508676E-03
    0.1900000000E+07    0.1026566598E-03    0.6959227900E+00    0.7259257615E-02    0.6435806481E+00    0.1134500416E-03
    0.2100000000E+07    0.8472899750E-04    0.6959224211E+00    0.6603042514E-02    0.6457402735E+00    0.1140828787E-03
    0.2300000000E+07    0.7111912988E-04    0.6959220640E+00    0.6054860499E-02    0.6475381262E+00    0.1146611627E-03
    0.2500000000E+07    0.6054506618E-04    0.6959217196E+00    0.5590124270E-02    0.6490579810E+00    0.1151937715E-03
    0.2700000000E+07    0.5216734182E-04    0.6959213884E+00    0.5191172016E-02    0.6503596131E+00    0.1156875628E-03
    0.2900000000E+07    0.4541766511E-04    0.6959210699E+00    0.4844991519E-02    0.6514868160E+00    0.1161479465E-03
    0.3100000000E+07    0.3990024232E-04    0.6959207637E+00    0.4541785850E-02    0.6524724062E+00    0.1165792666E-03
    0.3300000000E+07    0.3533257808E-04    0.6959204691E+00    0.4274038829E-02    0.6533414589E+00    0.1169850652E-03
    0.3500000000E+07    0.3150868558E-04    0.6959201855E+00    0.4035888344E-02    0.6541134626E+00    0.1173682688E-03
    0.3700000000E+07    0.2827551239E-04    0.6959199123E+00    0.3822695423E-02    0.6548037926E+00    0.1177313242E-03
    0.3900000000E+07    0.2551742317E-04    0.6959196488E+00    0.3630741277E-02    0.6554247413E+00    0.1180762980E-03
    0.4100000000E+07    0.2314573998E-04    0.6959193945E+00    0.3457010097E-02    0.6559862537E+00    0.1184049516E-03
    0.4300000000E+07    0.2109154055E-04    0.6959191487E+00    0.3299030562E-02    0.6564964620E+00    0.1187187992E-03
    0.4500000000E+07    0.1930060471E-04    0.6959189110E+00    0.3154758358E-02    0.6569620806E+00    0.1190191517E-03
    0.4700000000E+07    0.1772980667E-04    0.6959186808E+00    0.3022487838E-02    0.6573887021E+00    0.1193071521E-03
    0.4900000000E+07    0.1634449925E-04    0.6959184578E+00    0.2900784735E-02    0.6577810218E+00    0.1195838026E-03
    0.1000000000E+07    0.3430409623E-03    0.6959243962E+00    0.1307284894E-01    0.6240575203E+00    0.1094741220E-03
    0.3000000000E+07    0.4252472096E-04    0.6959209153E+00    0.4688531535E-02    0.6519955934E+00    0.1163670019E-03
    0.5000000000E+07    0.1571241148E-04    0.6959183488E+00    0.2843508948E-02    0.6579655838E+00    0.1197181521E-03
    0.7000000000E+07    0.8153272151E-05    0.6959164580E+00    0.2036810959E-02    0.6605605427E+00    0.1219780333E-03
    0.9000000000E+07    0.5008618630E-05    0.6959149625E+00    0.1585085338E-02    0.6620104456E+00    0.1236937409E-03
    0.1100000000E+08    0.3405490390E-05    0.6959137235E+00    0.1296531043E-02    0.6629357220E+00    0.1250810147E-03
    0.1300000000E+08    0.2478254405E-05    0.6959126642E+00    0.1096372451E-02    0.6635772758E+00    0.1262477481E-03
    0.1500000000E+08    0.1893564400E-05    0.6959117379E+00    0.9494428762E-03    0.6640481475E+00    0.1272558366E-03
    0.1700000000E+08    0.1500917063E-05    0.6959109140E+00    0.8370334884E-03    0.6644083915E+00    0.1281441567E-03
    0.1900000000E+08    0.1224274301E-05    0.6959101716E+00    0.7482774548E-03    0.6646928583E+00    0.1289387594E-03
    0.2100000000E+08    0.1021851060E-05    0.6959094954E+00    0.6764324649E-03    0.6649231582E+00    0.1296579714E-03
    0.2300000000E+08    0.8691340820E-06    0.6959088743E+00    0.6170943121E-03    0.6651134015E+00    0.1303151848E-03
    0.2500000000E+08    0.7509693866E-06    0.6959082997E+00    0.5672646940E-03    0.6652731918E+00    0.1309204890E-03
    0.2700000000E+08    0.6575777840E-06    0.6959077648E+00    0.5248319493E-03    0.6654092914E+00    0.1314816777E-03
