  Pressure (Pa) 22mC5-500 (mol/kg) 24mC5-500 (mol/kg) 2mC6-500 (mol/kg) 3mC6-500 (mol/kg) C7-500 (mol/kg)
    0.1000000000E+01    0.1869203377E-04    0.3665912713E-01    0.1410509379E-04    0.4192723312E-05    0.4185536793E-02
    0.3000000000E+01    0.4933325215E-04    0.9947972704E-01    0.3637657801E-04    0.1065949424E-04    0.4238918023E-02
    0.5000000000E+01    0.7356829799E-04    0.1513531098E+00    0.5335895671E-04    0.1659776712E-04    0.4279283885E-02
    0.7000000000E+01    0.9311490827E-04    0.1949119958E+00    0.6660095003E-04    0.2228458816E-04    0.4312774532E-02
    0.9000000000E+01    0.1091273545E-03    0.2320075077E+00    0.7711068731E-04    0.2781301905E-04    0.4341208926E-02
    0.1100000000E+02    0.1224196012E-03    0.2639791854E+00    0.8558326642E-04    0.3322950833E-04    0.4365698591E-02
    0.1300000000E+02    0.1335822481E-03    0.2918202972E+00    0.9251250465E-04    0.3856165033E-04    0.4387025578E-02
    0.1500000000E+02    0.1430534995E-03    0.3162829404E+00    0.9825712728E-04    0.4382760118E-04    0.4405769798E-02
    0.1700000000E+02    0.1511646281E-03    0.3379470523E+00    0.1030825220E-03    0.4904014685E-04    0.4422374172E-02
    0.1900000000E+02    0.1581701389E-03    0.3572670061E+00    0.1071880923E-03    0.5420874096E-04    0.4437184139E-02
    0.2100000000E+02    0.1642683394E-03    0.3746038507E+00    0.1107256892E-03    0.5934063492E-04    0.4450473606E-02
    0.2300000000E+02    0.1696156897E-03    0.3902481012E+00    0.1138123205E-03    0.6444155320E-04    0.4462462798E-02
    0.2500000000E+02    0.1743370167E-03    0.4044361627E+00    0.1165390877E-03    0.6951612076E-04    0.4473330928E-02
    0.2700000000E+02    0.1785329111E-03    0.4173623678E+00    0.1189775799E-03    0.7456814619E-04    0.4483225385E-02
    0.2900000000E+02    0.1822851685E-03    0.4291879382E+00    0.1211845184E-03    0.7960081636E-04    0.4492268547E-02
    0.3100000000E+02    0.1856608491E-03    0.4400477490E+00    0.1232051767E-03    0.8461683453E-04    0.4500562902E-02
    0.3300000000E+02    0.1887153448E-03    0.4500554996E+00    0.1250759300E-03    0.8961852081E-04    0.4508194946E-02
    0.3500000000E+02    0.1914947230E-03    0.4593077130E+00    0.1268261771E-03    0.9460788700E-04    0.4515238204E-02
    0.3700000000E+02    0.1940375379E-03    0.4678868615E+00    0.1284798046E-03    0.9958669339E-04    0.4521755584E-02
    0.3900000000E+02    0.1963762429E-03    0.4758638336E+00    0.1300563123E-03    0.1045564926E-03    0.4527801237E-02
    0.4100000000E+02    0.1985383020E-03    0.4832998993E+00    0.1315716855E-03    0.1095186639E-03    0.4533422031E-02
    0.4300000000E+02    0.2005470722E-03    0.4902482878E+00    0.1330390769E-03    0.1144744406E-03    0.4538658747E-02
    0.4500000000E+02    0.2024225090E-03    0.4967554647E+00    0.1344693442E-03    0.1194249321E-03    0.4543547038E-02
    0.4700000000E+02    0.2041817347E-03    0.5028621737E+00    0.1358714751E-03    0.1243711412E-03    0.4548118213E-02
    0.4900000000E+02    0.2058394987E-03    0.5086042907E+00    0.1372529268E-03    0.1293139793E-03    0.4552399884E-02
    0.1000000000E+02    0.1160723454E-03    0.2485650828E+00    0.8156696939E-04    0.3053324004E-04    0.4353892201E-02
    0.3000000000E+02    0.1840163759E-03    0.4347310128E+00    0.1222156757E-03    0.8211075394E-04    0.4496503584E-02
    0.5000000000E+02    0.2066343871E-03    0.5113486837E+00    0.1379378781E-03    0.1317843971E-03    0.4554439905E-02
    0.7000000000E+02    0.2195318758E-03    0.5531392010E+00    0.1515949594E-03    0.1811852784E-03    0.4584714396E-02
    0.9000000000E+02    0.2299504784E-03    0.5794542572E+00    0.1662898744E-03    0.2308893703E-03    0.4602321843E-02
    0.1100000000E+03    0.2399832033E-03    0.5975481496E+00    0.1824333460E-03    0.2812058322E-03    0.4612974765E-02
    0.1300000000E+03    0.2503452951E-03    0.6107535315E+00    0.1999595369E-03    0.3323378247E-03    0.4619337031E-02
    0.1500000000E+03    0.2612996418E-03    0.6208160449E+00    0.2187360754E-03    0.3844371680E-03    0.4622822840E-02
    0.1700000000E+03    0.2729423067E-03    0.6287385350E+00    0.2386475695E-03    0.4376279890E-03    0.4624254070E-02
    0.1900000000E+03    0.2853043554E-03    0.6351381702E+00    0.2596083832E-03    0.4920186124E-03    0.4624141179E-02
    0.2100000000E+03    0.2983918058E-03    0.6404155955E+00    0.2815597518E-03    0.5477082146E-03    0.4622817580E-02
    0.2300000000E+03    0.3122022839E-03    0.6448422347E+00    0.3044643951E-03    0.6047908705E-03    0.4620509650E-02
    0.2500000000E+03    0.3267321858E-03    0.6486085039E+00    0.3283017165E-03    0.6633581906E-03    0.4617375756E-02
    0.2700000000E+03    0.3419797527E-03    0.6518519361E+00    0.3530641004E-03    0.7235011508E-03    0.4613529221E-02
    0.2900000000E+03    0.3579463254E-03    0.6546743488E+00    0.3787541951E-03    0.7853114364E-03    0.4609052454E-02
    0.3100000000E+03    0.3746367792E-03    0.6571527315E+00    0.4053829567E-03    0.8488824859E-03    0.4604005984E-02
    0.3300000000E+03    0.3920595983E-03    0.6593463790E+00    0.4329682548E-03    0.9143103444E-03    0.4598434420E-02
    0.3500000000E+03    0.4102268035E-03    0.6613016991E+00    0.4615338885E-03    0.9816943969E-03    0.4592370481E-02
    0.3700000000E+03    0.4291538353E-03    0.6630555334E+00    0.4911089011E-03    0.1051138028E-02    0.4585837804E-02
    0.3900000000E+03    0.4488594397E-03    0.6646375014E+00    0.5217271159E-03    0.1122749237E-02    0.4578852916E-02
    0.4100000000E+03    0.4693655781E-03    0.6660716877E+00    0.5534268371E-03    0.1196641232E-02    0.4571426657E-02
    0.4300000000E+03    0.4906973690E-03    0.6673778773E+00    0.5862506778E-03    0.1272933021E-02    0.4563565217E-02
    0.4500000000E+03    0.5128830652E-03    0.6685724741E+00    0.6202454873E-03    0.1351750008E-02    0.4555270891E-02
    0.4700000000E+03    0.5359540655E-03    0.6696691933E+00    0.6554623576E-03    0.1433224610E-02    0.4546542643E-02
    0.4900000000E+03    0.5599449603E-03    0.6706795911E+00    0.6919566974E-03    0.1517496897E-02    0.4537376521E-02
    0.1000000000E+03    0.2349540793E-03    0.5892675993E+00    0.1741810874E-03    0.2559567447E-03    0.4608309617E-02
    0.3000000000E+03    0.3662006210E-03    0.6559524884E+00    0.3919502745E-03    0.8168709330E-03    0.4606597326E-02
    0.5000000000E+03    0.5722970685E-03    0.6711555429E+00    0.7107014449E-03    0.1560728205E-02    0.4532627301E-02
    0.7000000000E+03    0.8791091650E-03    0.6778912359E+00    0.1170385047E-02    0.2614872121E-02    0.4411716332E-02
    0.9000000000E+03    0.1351162004E-02    0.6816925346E+00    0.1868646279E-02    0.4209424423E-02    0.4224235192E-02
    0.1100000000E+04    0.2124961050E-02    0.6841338719E+00    0.3007742683E-02    0.6810214628E-02    0.3922258026E-02
    0.1300000000E+04    0.3486061304E-02    0.6858342097E+00    0.5010242316E-02    0.1139056080E-01    0.3409388976E-02
    0.1500000000E+04    0.5899273273E-02    0.6870863743E+00    0.8570333017E-02    0.1956433389E-01    0.2552826306E-02
    0.1700000000E+04    0.9219640005E-02    0.6880468610E+00    0.1350515030E-01    0.3098062496E-01    0.1501453642E-02
    0.1900000000E+04    0.1178630908E-01    0.6888069027E+00    0.1738878534E-01    0.4011949239E-01    0.8801915620E-03
    0.2100000000E+04    0.1322982426E-01    0.6894232781E+00    0.1965122552E-01    0.4561604468E-01    0.7022286996E-03
    0.2300000000E+04    0.1423121103E-01    0.6899331732E+00    0.2127886459E-01    0.4969671258E-01    0.6671131678E-03
    0.2500000000E+04    0.1509140474E-01    0.6903619611E+00    0.2271192753E-01    0.5336518940E-01    0.6627434221E-03
    0.2700000000E+04    0.1588591894E-01    0.6907275477E+00    0.2406073696E-01    0.5687290099E-01    0.6642887138E-03
    0.2900000000E+04    0.1663312870E-01    0.6910429302E+00    0.2535142900E-01    0.6027800394E-01    0.6668326853E-03
    0.3100000000E+04    0.1733891895E-01    0.6913177713E+00    0.2659169068E-01    0.6359617053E-01    0.6694284943E-03
    0.3300000000E+04    0.1800640061E-01    0.6915594040E+00    0.2778515418E-01    0.6683380778E-01    0.6719059379E-03
    0.3500000000E+04    0.1863796552E-01    0.6917734940E+00    0.2893445441E-01    0.6999514574E-01    0.6742458782E-03
    0.3700000000E+04    0.1923573001E-01    0.6919644876E+00    0.3004188774E-01    0.7308376326E-01    0.6764570941E-03
    0.3900000000E+04    0.1980163929E-01    0.6921359235E+00    0.3110956293E-01    0.7610293032E-01    0.6785520607E-03
    0.4100000000E+04    0.2033749899E-01    0.6922906527E+00    0.3213944296E-01    0.7905569565E-01    0.6805424052E-03
    0.4300000000E+04    0.2084499039E-01    0.6924309979E+00    0.3313336255E-01    0.8194491776E-01    0.6824382738E-03
    0.4500000000E+04    0.2132568128E-01    0.6925588708E+00    0.3409303955E-01    0.8477328259E-01    0.6842484378E-03
    0.4700000000E+04    0.2178103512E-01    0.6926758586E+00    0.3502008432E-01    0.8754331714E-01    0.6859805023E-03
    0.4900000000E+04    0.2221241936E-01    0.6927832903E+00    0.3591600798E-01    0.9025740143E-01    0.6876410984E-03
    0.1000000000E+04    0.1687225145E-02    0.6830331161E+00    0.2363701654E-02    0.5339453720E-02    0.4092135675E-02
    0.3000000000E+04    0.1699097971E-01    0.6911849146E+00    0.2597759795E-01    0.6194746730E-01    0.6681412471E-03
    0.5000000000E+04    0.2241952579E-01    0.6928337800E+00    0.3635274636E-01    0.9159416843E-01    0.6884464412E-03
    0.7000000000E+04    0.2557330222E-01    0.6935400624E+00    0.4375633150E-01    0.1158743472E+00    0.7019007298E-03
    0.9000000000E+04    0.2737487693E-01    0.6939313333E+00    0.4923410912E-01    0.1364686608E+00    0.7120223268E-03
    0.1100000000E+05    0.2833375876E-01    0.6941793753E+00    0.5339275571E-01    0.1543873741E+00    0.7201629953E-03
    0.1300000000E+05    0.2874947172E-01    0.6943503455E+00    0.5660845690E-01    0.1702787505E+00    0.7269858128E-03
    0.1500000000E+05    0.2880682323E-01    0.6944751274E+00    0.5912700014E-01    0.1845806743E+00    0.7328665672E-03
    0.1700000000E+05    0.2862427708E-01    0.6945700683E+00    0.6111590115E-01    0.1976014969E+00    0.7380393170E-03
    0.1900000000E+05    0.2828012005E-01    0.6946446272E+00    0.6269336915E-01    0.2095659689E+00    0.7426599404E-03
    0.2100000000E+05    0.2782736924E-01    0.6947046555E+00    0.6394528162E-01    0.2206427275E+00    0.7468375836E-03
    0.2300000000E+05    0.2730263903E-01    0.6947539659E+00    0.6493558431E-01    0.2309614766E+00    0.7506517084E-03
    0.2500000000E+05    0.2673161038E-01    0.6947951481E+00    0.6571290814E-01    0.2406241271E+00    0.7541619999E-03
    0.2700000000E+05    0.2613251080E-01    0.6948300227E+00    0.6631491793E-01    0.2497122530E+00    0.7574144500E-03
    0.2900000000E+05    0.2551838847E-01    0.6948599064E+00    0.6677125239E-01    0.2582922216E+00    0.7604452637E-03
    0.3100000000E+05    0.2489863325E-01    0.6948857748E+00    0.6710556144E-01    0.2664188103E+00    0.7632834624E-03
    0.3300000000E+05    0.2428001489E-01    0.6949083659E+00    0.6733694934E-01    0.2741378104E+00    0.7659526735E-03
    0.3500000000E+05    0.2366740434E-01    0.6949282485E+00    0.6748101711E-01    0.2814879393E+00    0.7684723939E-03
    0.3700000000E+05    0.2306428280E-01    0.6949458676E+00    0.6755062874E-01    0.2885022683E+00    0.7708589040E-03
    0.3900000000E+05    0.2247310612E-01    0.6949615764E+00    0.6755648344E-01    0.2952093056E+00    0.7731259404E-03
    0.4100000000E+05    0.2189556869E-01    0.6949756587E+00    0.6750754902E-01    0.3016338300E+00    0.7752852024E-03
    0.4300000000E+05    0.2133279676E-01    0.6949883454E+00    0.6741139460E-01    0.3077975400E+00    0.7773467368E-03
    0.4500000000E+05    0.2078549135E-01    0.6949998256E+00    0.6727444890E-01    0.3137195658E+00    0.7793192368E-03
    0.4700000000E+05    0.2025403483E-01    0.6950102565E+00    0.6710220307E-01    0.3194168781E+00    0.7812102755E-03
    0.4900000000E+05    0.1973857092E-01    0.6950197690E+00    0.6689937147E-01    0.3249046163E+00    0.7830264911E-03
    0.1000000000E+05    0.2793744881E-01    0.6940678835E+00    0.5145090786E-01    0.1457157190E+00    0.7162894082E-03
    0.3000000000E+05    0.2520874014E-01    0.6948732917E+00    0.6695237335E-01    0.2624091411E+00    0.7618868537E-03
    0.5000000000E+05    0.1948683105E-01    0.6950242160E+00    0.6678777906E-01    0.3275741923E+00    0.7839083963E-03
    0.7000000000E+05    0.1523126718E-01    0.6950843660E+00    0.6369047160E-01    0.3726359639E+00    0.7987342664E-03
    0.9000000000E+05    0.1217207831E-01    0.6951151899E+00    0.5997123722E-01    0.4064291947E+00    0.8099814760E-03
    0.1100000000E+06    0.9931904913E-02    0.6951331181E+00    0.5628538269E-01    0.4329587311E+00    0.8190716274E-03
    0.1300000000E+06    0.8250945735E-02    0.6951443411E+00    0.5283857682E-01    0.4544371598E+00    0.8267144692E-03
    0.1500000000E+06    0.6960247847E-02    0.6951516868E+00    0.4968527245E-01    0.4722262092E+00    0.8333167394E-03
    0.1700000000E+06    0.5948814623E-02    0.6951566195E+00    0.4682454103E-01    0.4872237086E+00    0.8391337289E-03
    0.1900000000E+06    0.5142005560E-02    0.6951599676E+00    0.4423544140E-01    0.5000511084E+00    0.8443364172E-03
    0.2100000000E+06    0.4488359342E-02    0.6951622316E+00    0.4189106350E-01    0.5111546320E+00    0.8490450414E-03
    0.2300000000E+06    0.3951548046E-02    0.6951637303E+00    0.3976422968E-01    0.5208641140E+00    0.8533474367E-03
    0.2500000000E+06    0.3505369168E-02    0.6951646747E+00    0.3782971706E-01    0.5294292079E+00    0.8573097590E-03
    0.2700000000E+06    0.3130553840E-02    0.6951652095E+00    0.3606498107E-01    0.5370426689E+00    0.8609831026E-03
    0.2900000000E+06    0.2812683486E-02    0.6951654367E+00    0.3445023288E-01    0.5438558676E+00    0.8644077658E-03
    0.3100000000E+06    0.2540798890E-02    0.6951654297E+00    0.3296825171E-01    0.5499894346E+00    0.8676161036E-03
    0.3300000000E+06    0.2306451941E-02    0.6951652426E+00    0.3160410461E-01    0.5555407504E+00    0.8706344940E-03
    0.3500000000E+06    0.2103046627E-02    0.6951649159E+00    0.3034485118E-01    0.5605893289E+00    0.8734847305E-03
    0.3700000000E+06    0.1925372960E-02    0.6951644802E+00    0.2917926632E-01    0.5652007609E+00    0.8761850299E-03
    0.3900000000E+06    0.1769272004E-02    0.6951639592E+00    0.2809759325E-01    0.5694296505E+00    0.8787507779E-03
    0.4100000000E+06    0.1631391573E-02    0.6951633712E+00    0.2709132936E-01    0.5733218341E+00    0.8811950886E-03
    0.4300000000E+06    0.1509005629E-02    0.6951627307E+00    0.2615304328E-01    0.5769160803E+00    0.8835292326E-03
    0.4500000000E+06    0.1399879108E-02    0.6951620490E+00    0.2527621969E-01    0.5802454066E+00    0.8857629685E-03
    0.4700000000E+06    0.1302165580E-02    0.6951613354E+00    0.2445512826E-01    0.5833381118E+00    0.8879048025E-03
    0.4900000000E+06    0.1214328941E-02    0.6951605971E+00    0.2368471303E-01    0.5862185924E+00    0.8899621954E-03
    0.1000000000E+06    0.1096843983E-01    0.6951252602E+00    0.5810585944E-01    0.4204368756E+00    0.8147419387E-03
    0.3000000000E+06    0.2671570975E-02    0.6951654587E+00    0.3369362985E-01    0.5470010453E+00    0.8660372052E-03
    0.5000000000E+06    0.1173704097E-02    0.6951602206E+00    0.2331709013E-01    0.5875859685E+00    0.8909613131E-03
    0.7000000000E+06    0.6561454615E-03    0.6951523574E+00    0.1777231680E-01    0.6076927122E+00    0.9077663714E-03
    0.9000000000E+06    0.4184367220E-03    0.6951448310E+00    0.1433971656E-01    0.6197015306E+00    0.9205237165E-03
    0.1100000000E+07    0.2899952491E-03    0.6951380064E+00    0.1200986469E-01    0.6276834365E+00    0.9308383790E-03
    0.1300000000E+07    0.2128517657E-03    0.6951318569E+00    0.1032649593E-01    0.6333720780E+00    0.9395129284E-03
    0.1500000000E+07    0.1629331007E-03    0.6951262922E+00    0.9054039454E-02    0.6376309336E+00    0.9470077333E-03
    0.1700000000E+07    0.1287900824E-03    0.6951212229E+00    0.8058784759E-02    0.6409384176E+00    0.9536119324E-03
    0.1900000000E+07    0.1044140556E-03    0.6951165734E+00    0.7259267812E-02    0.6435809866E+00    0.9595192645E-03
    0.2100000000E+07    0.8640608698E-04    0.6951122817E+00    0.6603051820E-02    0.6457406274E+00    0.9648660202E-03
    0.2300000000E+07    0.7272641195E-04    0.6951082976E+00    0.6054869063E-02    0.6475384945E+00    0.9697517888E-03
    0.2500000000E+07    0.6209091993E-04    0.6951045804E+00    0.5590132205E-02    0.6490583631E+00    0.9742515961E-03
    0.2700000000E+07    0.5365858267E-04    0.6951010966E+00    0.5191179412E-02    0.6503600084E+00    0.9784233973E-03
    0.2900000000E+07    0.4685992612E-04    0.6950978183E+00    0.4844998447E-02    0.6514872239E+00    0.9823129089E-03
    0.3100000000E+07    0.4129824353E-04    0.6950947226E+00    0.4541792368E-02    0.6524728263E+00    0.9859568405E-03
    0.3300000000E+07    0.3669032172E-04    0.6950917898E+00    0.4274044985E-02    0.6533418907E+00    0.9893851239E-03
    0.3500000000E+07    0.3282960058E-04    0.6950890035E+00    0.4035894178E-02    0.6541139058E+00    0.9926224906E-03
    0.3700000000E+07    0.2956256345E-04    0.6950863495E+00    0.3822700968E-02    0.6548042468E+00    0.9956896156E-03
    0.3900000000E+07    0.2677319453E-04    0.6950838155E+00    0.3630746561E-02    0.6554252062E+00    0.9986039615E-03
    0.4100000000E+07    0.2437250061E-04    0.6950813910E+00    0.3457015145E-02    0.6559867289E+00    0.1001380414E-02
    0.4300000000E+07    0.2229129571E-04    0.6950790667E+00    0.3299035395E-02    0.6564969473E+00    0.1004031766E-02
    0.4500000000E+07    0.2047513703E-04    0.6950768345E+00    0.3154762995E-02    0.6569625758E+00    0.1006569096E-02
    0.4700000000E+07    0.1888070944E-04    0.6950746871E+00    0.3022492294E-02    0.6573892068E+00    0.1009002061E-02
    0.4900000000E+07    0.1747320348E-04    0.6950726183E+00    0.2900789025E-02    0.6577815359E+00    0.1011339131E-02
    0.1000000000E+07    0.3454130925E-03    0.6951413296E+00    0.1307286728E-01    0.6240577756E+00    0.9259250635E-03
    0.3000000000E+07    0.4394431082E-04    0.6950962489E+00    0.4688538251E-02    0.6519960074E+00    0.9841635637E-03
    0.5000000000E+07    0.1683050858E-04    0.6950716116E+00    0.2843513159E-02    0.6579661026E+00    0.1012474074E-02
    0.7000000000E+07    0.9108668949E-05    0.6950544972E+00    0.2036814055E-02    0.6605611444E+00    0.1031564367E-02
    0.9000000000E+07    0.5858136425E-05    0.6950413169E+00    0.1585087799E-02    0.6620111179E+00    0.1046057156E-02
    0.1100000000E+08    0.4178954998E-05    0.6950305676E+00    0.1296533091E-02    0.6629364565E+00    0.1057775247E-02
    0.1300000000E+08    0.3193626024E-05    0.6950214741E+00    0.1096374209E-02    0.6635780666E+00    0.1067630209E-02
    0.1500000000E+08    0.2562654927E-05    0.6950135836E+00    0.9494444187E-03    0.6640489898E+00    0.1076144967E-02
    0.1700000000E+08    0.2131989167E-05    0.6950066076E+00    0.8370348642E-03    0.6644092816E+00    0.1083647965E-02
    0.1900000000E+08    0.1823378109E-05    0.6950003512E+00    0.7482786975E-03    0.6646937933E+00    0.1090359285E-02
    0.2100000000E+08    0.1593575547E-05    0.6949946761E+00    0.6764335990E-03    0.6649241354E+00    0.1096433753E-02
    0.2300000000E+08    0.1417058911E-05    0.6949894807E+00    0.6170953557E-03    0.6651144188E+00    0.1101984504E-02
    0.2500000000E+08    0.1277951425E-05    0.6949846883E+00    0.5672656610E-03    0.6652742472E+00    0.1107096771E-02
    0.2700000000E+08    0.1165940732E-05    0.6949802390E+00    0.5248328506E-03    0.6654103833E+00    0.1111836392E-02
