  Pressure (Pa) 22mC5-500 (mol/kg) 24mC5-500 (mol/kg) 2mC6-500 (mol/kg) 3mC6-500 (mol/kg) C7-500 (mol/kg)
    0.1000000000E+01    0.1494467075E-04    0.1513989981E+00    0.8242480722E-05    0.8000147359E-06    0.4191605753E-02
    0.3000000000E+01    0.2911568438E-04    0.3164716873E+00    0.1525502126E-04    0.2044881115E-05    0.4230465805E-02
    0.5000000000E+01    0.3557734671E-04    0.4047300564E+00    0.1820408903E-04    0.3188654190E-05    0.4250035129E-02
    0.7000000000E+01    0.3916954037E-04    0.4596716758E+00    0.1990868388E-04    0.4283238955E-05    0.4262229256E-02
    0.9000000000E+01    0.4148089569E-04    0.4971668343E+00    0.2118070184E-04    0.5346176961E-05    0.4270612939E-02
    0.1100000000E+02    0.4315678201E-04    0.5243872075E+00    0.2230391935E-04    0.6386256931E-05    0.4276747400E-02
    0.1300000000E+02    0.4449661443E-04    0.5450473822E+00    0.2338828419E-04    0.7408715407E-05    0.4281435530E-02
    0.1500000000E+02    0.4565243902E-04    0.5612639348E+00    0.2447819204E-04    0.8417006078E-05    0.4285135018E-02
    0.1700000000E+02    0.4670658890E-04    0.5743313204E+00    0.2559108754E-04    0.9413565911E-05    0.4288126802E-02
    0.1900000000E+02    0.4770576542E-04    0.5850857081E+00    0.2673275870E-04    0.1040019969E-04    0.4290593311E-02
    0.2100000000E+02    0.4867734838E-04    0.5940913044E+00    0.2790386324E-04    0.1137829361E-04    0.4292658400E-02
    0.2300000000E+02    0.4963774579E-04    0.6017426098E+00    0.2910285835E-04    0.1234894313E-04    0.4294409247E-02
    0.2500000000E+02    0.5059690484E-04    0.6083237630E+00    0.3032735614E-04    0.1331303400E-04    0.4295909082E-02
    0.2700000000E+02    0.5156085774E-04    0.6140446117E+00    0.3157475608E-04    0.1427129600E-04    0.4297204937E-02
    0.2900000000E+02    0.5253321134E-04    0.6190635027E+00    0.3284253403E-04    0.1522433993E-04    0.4298332562E-02
    0.3100000000E+02    0.5351604516E-04    0.6235021684E+00    0.3412836457E-04    0.1617268393E-04    0.4299319644E-02
    0.3300000000E+02    0.5451046623E-04    0.6274557312E+00    0.3543016232E-04    0.1711677256E-04    0.4300187975E-02
    0.3500000000E+02    0.5551695922E-04    0.6309995982E+00    0.3674608439E-04    0.1805699115E-04    0.4300954960E-02
    0.3700000000E+02    0.5653561097E-04    0.6341943171E+00    0.3807451515E-04    0.1899367659E-04    0.4301634676E-02
    0.3900000000E+02    0.5756625646E-04    0.6370890645E+00    0.3941404407E-04    0.1992712570E-04    0.4302238642E-02
    0.4100000000E+02    0.5860857469E-04    0.6397241959E+00    0.4076344193E-04    0.2085760189E-04    0.4302776379E-02
    0.4300000000E+02    0.5966215205E-04    0.6421331387E+00    0.4212163787E-04    0.2178534028E-04    0.4303255829E-02
    0.4500000000E+02    0.6072652436E-04    0.6443438175E+00    0.4348769846E-04    0.2271055200E-04    0.4303683678E-02
    0.4700000000E+02    0.6180120467E-04    0.6463797421E+00    0.4486080915E-04    0.2363342754E-04    0.4304065592E-02
    0.4900000000E+02    0.6288570164E-04    0.6482608462E+00    0.4624025805E-04    0.2455413962E-04    0.4304406411E-02
    0.1000000000E+02    0.4237468722E-04    0.5117779801E+00    0.2175176883E-04    0.5868691865E-05    0.4273900042E-02
    0.3000000000E+02    0.5302323111E-04    0.6213488877E+00    0.3348332884E-04    0.1569907010E-04    0.4298842191E-02
    0.5000000000E+02    0.6343147964E-04    0.6491487564E+00    0.4693216145E-04    0.2501373404E-04    0.4304562733E-02
    0.7000000000E+02    0.7475554353E-04    0.6618401670E+00    0.6098731407E-04    0.3412386243E-04    0.4306289813E-02
    0.9000000000E+02    0.8664436552E-04    0.6691079735E+00    0.7529017105E-04    0.4313651507E-04    0.4306434024E-02
    0.1100000000E+03    0.9890551454E-04    0.6738167070E+00    0.8973263763E-04    0.5210608016E-04    0.4305760357E-02
    0.1300000000E+03    0.1114390658E-03    0.6771156269E+00    0.1042801794E-03    0.6106550354E-04    0.4304595014E-02
    0.1500000000E+03    0.1241906673E-03    0.6795554291E+00    0.1189237546E-03    0.7003697795E-04    0.4303102927E-02
    0.1700000000E+03    0.1371295604E-03    0.6814330372E+00    0.1336641077E-03    0.7903658525E-04    0.4301377357E-02
    0.1900000000E+03    0.1502379787E-03    0.6829226816E+00    0.1485059059E-03    0.8807662942E-04    0.4299475378E-02
    0.2100000000E+03    0.1635057110E-03    0.6841333393E+00    0.1634553463E-03    0.9716693301E-04    0.4297434027E-02
    0.2300000000E+03    0.1769271455E-03    0.6851366671E+00    0.1785191285E-03    0.1063156130E-03    0.4295278444E-02
    0.2500000000E+03    0.1904995807E-03    0.6859817175E+00    0.1937040044E-03    0.1155295721E-03    0.4293026303E-02
    0.2700000000E+03    0.2042222191E-03    0.6867032005E+00    0.2090165892E-03    0.1248148252E-03    0.4290690380E-02
    0.2900000000E+03    0.2180955457E-03    0.6873263685E+00    0.2244632904E-03    0.1341767229E-03    0.4288280119E-02
    0.3100000000E+03    0.2321209333E-03    0.6878700321E+00    0.2400502947E-03    0.1436201116E-03    0.4285802619E-02
    0.3300000000E+03    0.2463003845E-03    0.6883484908E+00    0.2557835790E-03    0.1531494491E-03    0.4283263296E-02
    0.3500000000E+03    0.2606363609E-03    0.6887728092E+00    0.2716689337E-03    0.1627688915E-03    0.4280666318E-02
    0.3700000000E+03    0.2751316665E-03    0.6891516825E+00    0.2877119888E-03    0.1724823596E-03    0.4278014916E-02
    0.3900000000E+03    0.2897893689E-03    0.6894920386E+00    0.3039182410E-03    0.1822935897E-03    0.4275311601E-02
    0.4100000000E+03    0.3046127434E-03    0.6897994654E+00    0.3202930786E-03    0.1922061742E-03    0.4272558325E-02
    0.4300000000E+03    0.3196052354E-03    0.6900785199E+00    0.3368418056E-03    0.2022235942E-03    0.4269756596E-02
    0.4500000000E+03    0.3347704327E-03    0.6903329552E+00    0.3535696621E-03    0.2123492455E-03    0.4266907567E-02
    0.4700000000E+03    0.3501120478E-03    0.6905658905E+00    0.3704818441E-03    0.2225864606E-03    0.4264012101E-02
    0.4900000000E+03    0.3656339042E-03    0.6907799396E+00    0.3875835205E-03    0.2329385265E-03    0.4261070825E-02
    0.1000000000E+03    0.9273609403E-04    0.6716895963E+00    0.8249701607E-04    0.4762429211E-04    0.4306173528E-02
    0.3000000000E+03    0.2250891192E-03    0.6876071563E+00    0.2322388764E-03    0.1388879443E-03    0.4287049402E-02
    0.5000000000E+03    0.3734636460E-03    0.6908805850E+00    0.3962070307E-03    0.2381586470E-03    0.4259583148E-02
    0.7000000000E+03    0.5405396778E-03    0.6922923836E+00    0.5799022205E-03    0.3493883312E-03    0.4227450162E-02
    0.9000000000E+03    0.7308201879E-03    0.6930787914E+00    0.7887786646E-03    0.4759633874E-03    0.4190508290E-02
    0.1100000000E+04    0.9499601429E-03    0.6935798738E+00    0.1029239030E-02    0.6218041930E-03    0.4147967371E-02
    0.1300000000E+04    0.1205206512E-02    0.6939269897E+00    0.1309352206E-02    0.7918429454E-03    0.4098636934E-02
    0.1500000000E+04    0.1506061805E-02    0.6941816006E+00    0.1639646452E-02    0.9925170475E-03    0.4040892666E-02
    0.1700000000E+04    0.1865232348E-02    0.6943763014E+00    0.2034181022E-02    0.1232429098E-02    0.3972546640E-02
    0.1900000000E+04    0.2300009639E-02    0.6945299864E+00    0.2512088698E-02    0.1523296332E-02    0.3890635527E-02
    0.2100000000E+04    0.2834301810E-02    0.6946543624E+00    0.3099840068E-02    0.1881346125E-02    0.3791106680E-02
    0.2300000000E+04    0.3501601471E-02    0.6947570695E+00    0.3834555871E-02    0.2329362023E-02    0.3668371278E-02
    0.2500000000E+04    0.4349168623E-02    0.6948433055E+00    0.4768691282E-02    0.2899587588E-02    0.3514708164E-02
    0.2700000000E+04    0.5443329352E-02    0.6949167297E+00    0.5976012199E-02    0.3637456833E-02    0.3319594998E-02
    0.2900000000E+04    0.6874135014E-02    0.6949799926E+00    0.7556977167E-02    0.4605028593E-02    0.3069373243E-02
    0.3100000000E+04    0.8752416517E-02    0.6950350611E+00    0.9635901738E-02    0.5879503350E-02    0.2748580667E-02
    0.3300000000E+04    0.1118029096E-01    0.6950834256E+00    0.1232897954E-01    0.7534018886E-02    0.2346176052E-02
    0.3500000000E+04    0.1416457667E-01    0.6951262361E+00    0.1564899666E-01    0.9579568233E-02    0.1870966162E-02
    0.3700000000E+04    0.1748505196E-01    0.6951643937E+00    0.1935860083E-01    0.1187450359E-01    0.1371411114E-02
    0.3900000000E+04    0.2068442524E-01    0.6951986150E+00    0.2295554447E-01    0.1411330216E-01    0.9295334346E-03
    0.4100000000E+04    0.2334336116E-01    0.6952294766E+00    0.2597373506E-01    0.1600910517E-01    0.6085194881E-03
    0.4300000000E+04    0.2535325671E-01    0.6952574478E+00    0.2828712644E-01    0.1748118599E-01    0.4122768410E-03
    0.4500000000E+04    0.2685264204E-01    0.6952829146E+00    0.3004383720E-01    0.1861725834E-01    0.3058733385E-03
    0.4700000000E+04    0.2802778403E-01    0.6953061973E+00    0.3144717108E-01    0.1954026471E-01    0.2520988928E-03
    0.4900000000E+04    0.2901525686E-01    0.6953275636E+00    0.3264711930E-01    0.2034147154E-01    0.2259399967E-03
    0.1000000000E+04    0.8363737743E-03    0.6933543339E+00    0.9046039657E-03    0.5461962738E-03    0.4170002930E-02
    0.3000000000E+04    0.7750092976E-02    0.6950084486E+00    0.8526018550E-02    0.5198798632E-02    0.2918719711E-02
    0.5000000000E+04    0.2946542494E-01    0.6953376002E+00    0.3320035477E-01    0.2071442468E-01    0.2185644665E-03
    0.7000000000E+04    0.3655884686E-01    0.6954776054E+00    0.4233232571E-01    0.2711543545E-01    0.2050935001E-03
    0.9000000000E+04    0.4195459736E-01    0.6955547498E+00    0.4984054390E-01    0.3271343155E-01    0.2079747787E-03
    0.1100000000E+05    0.4619320954E-01    0.6956034205E+00    0.5621781604E-01    0.3775033940E-01    0.2103144205E-03
    0.1300000000E+05    0.4956272483E-01    0.6956368165E+00    0.6171517623E-01    0.4233946736E-01    0.2122809989E-03
    0.1500000000E+05    0.5226567203E-01    0.6956610833E+00    0.6651304287E-01    0.4656374181E-01    0.2139794904E-03
    0.1700000000E+05    0.5444829496E-01    0.6956794667E+00    0.7074462772E-01    0.5048548291E-01    0.2154757466E-03
    0.1900000000E+05    0.5621858335E-01    0.6956938411E+00    0.7451053449E-01    0.5415256455E-01    0.2168138466E-03
    0.2100000000E+05    0.5765783527E-01    0.6957053641E+00    0.7788824077E-01    0.5760246826E-01    0.2180247752E-03
    0.2300000000E+05    0.5882829497E-01    0.6957147884E+00    0.8093844270E-01    0.6086502995E-01    0.2191311595E-03
    0.2500000000E+05    0.5977833050E-01    0.6957226247E+00    0.8370941172E-01    0.6396434919E-01    0.2201500377E-03
    0.2700000000E+05    0.6054602418E-01    0.6957292314E+00    0.8624005520E-01    0.6692014622E-01    0.2210945661E-03
    0.2900000000E+05    0.6116171329E-01    0.6957348671E+00    0.8856211057E-01    0.6974874582E-01    0.2219751190E-03
    0.3100000000E+05    0.6164982042E-01    0.6957397234E+00    0.9070174677E-01    0.7246380349E-01    0.2228000248E-03
    0.3300000000E+05    0.6203019368E-01    0.6957439448E+00    0.9268075232E-01    0.7507684980E-01    0.2235760724E-03
    0.3500000000E+05    0.6231910235E-01    0.6957476427E+00    0.9451742968E-01    0.7759770464E-01    0.2243088702E-03
    0.3700000000E+05    0.6252998645E-01    0.6957509040E+00    0.9622727755E-01    0.8003479630E-01    0.2250031058E-03
    0.3900000000E+05    0.6267402795E-01    0.6957537976E+00    0.9782351772E-01    0.8239541045E-01    0.2256627378E-03
    0.4100000000E+05    0.6276059077E-01    0.6957563788E+00    0.9931750649E-01    0.8468588638E-01    0.2262911401E-03
    0.4300000000E+05    0.6279756334E-01    0.6957586925E+00    0.1007190592E+00    0.8691177329E-01    0.2268912124E-03
    0.4500000000E+05    0.6279162760E-01    0.6957607754E+00    0.1020367085E+00    0.8907795591E-01    0.2274654648E-03
    0.4700000000E+05    0.6274847227E-01    0.6957626581E+00    0.1032779123E+00    0.9118875631E-01    0.2280160855E-03
    0.4900000000E+05    0.6267296318E-01    0.6957643660E+00    0.1044492214E+00    0.9324801715E-01    0.2285449935E-03
    0.1000000000E+05    0.4419808737E-01    0.6955815713E+00    0.5315284304E-01    0.3529407739E-01    0.2092001292E-03
    0.3000000000E+05    0.6142037995E-01    0.6957373827E+00    0.8965327830E-01    0.7111970232E-01    0.2223940721E-03
    0.5000000000E+05    0.6262440582E-01    0.6957651611E+00    0.1050104990E+00    0.9425940707E-01    0.2288018419E-03
    0.7000000000E+05    0.6070962166E-01    0.6957756305E+00    0.1136678222E+00    0.1124501195E+00    0.2331218906E-03
    0.9000000000E+05    0.5802482849E-01    0.6957806394E+00    0.1191703557E+00    0.1278774842E+00    0.2364013080E-03
    0.1100000000E+06    0.5521880215E-01    0.6957833066E+00    0.1228771692E+00    0.1414787799E+00    0.2390527830E-03
    0.1300000000E+06    0.5250250883E-01    0.6957847888E+00    0.1254422388E+00    0.1537510339E+00    0.2412826500E-03
    0.1500000000E+06    0.4994502832E-01    0.6957856060E+00    0.1272274426E+00    0.1649944397E+00    0.2432092585E-03
    0.1700000000E+06    0.4756337752E-01    0.6957860228E+00    0.1284528881E+00    0.1754069547E+00    0.2449069359E-03
    0.1900000000E+06    0.4535442072E-01    0.6957861863E+00    0.1292618752E+00    0.1851276186E+00    0.2464254844E-03
    0.2100000000E+06    0.4330739809E-01    0.6957861838E+00    0.1297525849E+00    0.1942588203E+00    0.2477999379E-03
    0.2300000000E+06    0.4140914525E-01    0.6957860696E+00    0.1299949988E+00    0.2028787756E+00    0.2490558959E-03
    0.2500000000E+06    0.3964631653E-01    0.6957858789E+00    0.1300405907E+00    0.2110490031E+00    0.2502126436E-03
    0.2700000000E+06    0.3800630751E-01    0.6957856354E+00    0.1299281978E+00    0.2188190482E+00    0.2512850783E-03
    0.2900000000E+06    0.3647759350E-01    0.6957853552E+00    0.1296877438E+00    0.2262296023E+00    0.2522849510E-03
    0.3100000000E+06    0.3504980290E-01    0.6957850497E+00    0.1293426923E+00    0.2333146381E+00    0.2532216979E-03
    0.3300000000E+06    0.3371367332E-01    0.6957847271E+00    0.1289117157E+00    0.2401029165E+00    0.2541030127E-03
    0.3500000000E+06    0.3246095994E-01    0.6957843930E+00    0.1284098623E+00    0.2466190796E+00    0.2549352526E-03
    0.3700000000E+06    0.3128432940E-01    0.6957840520E+00    0.1278493916E+00    0.2528844599E+00    0.2557237318E-03
    0.3900000000E+06    0.3017725467E-01    0.6957837070E+00    0.1272403858E+00    0.2589176930E+00    0.2564729390E-03
    0.4100000000E+06    0.2913391737E-01    0.6957833606E+00    0.1265912040E+00    0.2647351888E+00    0.2571867005E-03
    0.4300000000E+06    0.2814912036E-01    0.6957830143E+00    0.1259088264E+00    0.2703514997E+00    0.2578683048E-03
    0.4500000000E+06    0.2721821057E-01    0.6957826696E+00    0.1251991182E+00    0.2757796125E+00    0.2585205994E-03
    0.4700000000E+06    0.2633701187E-01    0.6957823274E+00    0.1244670348E+00    0.2810311820E+00    0.2591460666E-03
    0.4900000000E+06    0.2550176674E-01    0.6957819884E+00    0.1237167829E+00    0.2861167216E+00    0.2597468835E-03
    0.1000000000E+06    0.5661866287E-01    0.6957821708E+00    0.1211977192E+00    0.1348690028E+00    0.2377897732E-03
    0.3000000000E+06    0.3575168672E-01    0.6957852051E+00    0.1295270290E+00    0.2298109048E+00    0.2527606989E-03
    0.5000000000E+06    0.2510030446E-01    0.6957818203E+00    0.1233359857E+00    0.2886002424E+00    0.2600386571E-03
    0.7000000000E+06    0.1881469129E-01    0.6957786961E+00    0.1154031559E+00    0.3314659329E+00    0.2649465185E-03
    0.9000000000E+06    0.1471698371E-01    0.6957760235E+00    0.1076807921E+00    0.3647997104E+00    0.2686725390E-03
    0.1100000000E+07    0.1186727730E-01    0.6957737206E+00    0.1006061446E+00    0.3917170621E+00    0.2716852752E-03
    0.1300000000E+07    0.9792670630E-02    0.6957717055E+00    0.9424245759E-01    0.4140211261E+00    0.2742190518E-03
    0.1500000000E+07    0.8229394552E-02    0.6957699165E+00    0.8854567287E-01    0.4328610152E+00    0.2764082929E-03
    0.1700000000E+07    0.7019091189E-02    0.6957683086E+00    0.8344371936E-01    0.4490165360E+00    0.2783374297E-03
    0.1900000000E+07    0.6061266260E-02    0.6957668486E+00    0.7886251990E-01    0.4630411496E+00    0.2800630385E-03
    0.2100000000E+07    0.5289309045E-02    0.6957655115E+00    0.7473439931E-01    0.4753412456E+00    0.2816249204E-03
    0.2300000000E+07    0.4657485300E-02    0.6957642780E+00    0.7100021839E-01    0.4862233454E+00    0.2830521598E-03
    0.2500000000E+07    0.4133464444E-02    0.6957631329E+00    0.6760924201E-01    0.4959237651E+00    0.2843666678E-03
    0.2700000000E+07    0.3693820937E-02    0.6957620643E+00    0.6451825296E-01    0.5046280612E+00    0.2855853705E-03
    0.2900000000E+07    0.3321218896E-02    0.6957610625E+00    0.6169049578E-01    0.5124842226E+00    0.2867216199E-03
    0.3100000000E+07    0.3002591303E-02    0.6957601193E+00    0.5909467016E-01    0.5196118787E+00    0.2877861374E-03
    0.3300000000E+07    0.2727928764E-02    0.6957592282E+00    0.5670404618E-01    0.5261088822E+00    0.2887876653E-03
    0.3500000000E+07    0.2489453741E-02    0.6957583836E+00    0.5449571435E-01    0.5320561132E+00    0.2897334269E-03
    0.3700000000E+07    0.2281045331E-02    0.6957575809E+00    0.5244996085E-01    0.5375210498E+00    0.2906294609E-03
    0.3900000000E+07    0.2097830839E-02    0.6957568159E+00    0.5054975104E-01    0.5425604622E+00    0.2914808677E-03
    0.4100000000E+07    0.1935890784E-02    0.6957560852E+00    0.4878030383E-01    0.5472224759E+00    0.2922919951E-03
    0.4300000000E+07    0.1792042550E-02    0.6957553857E+00    0.4712874069E-01    0.5515481707E+00    0.2930665799E-03
    0.4500000000E+07    0.1663679476E-02    0.6957547149E+00    0.4558379588E-01    0.5555728349E+00    0.2938078579E-03
    0.4700000000E+07    0.1548649674E-02    0.6957540705E+00    0.4413557637E-01    0.5593269577E+00    0.2945186497E-03
    0.4900000000E+07    0.1445163687E-02    0.6957534503E+00    0.4277536229E-01    0.5628370241E+00    0.2952014292E-03
    0.1000000000E+07    0.1317245206E-01    0.6957748314E+00    0.1040544243E+00    0.3789274865E+00    0.2702501648E-03
    0.3000000000E+07    0.3155844384E-02    0.6957605840E+00    0.6036535982E-01    0.5161325511E+00    0.2872622585E-03
    0.5000000000E+07    0.1397271682E-02    0.6957531488E+00    0.4212581161E-01    0.5645078778E+00    0.2955330064E-03
    0.7000000000E+07    0.7849980757E-03    0.6957480445E+00    0.3228511565E-01    0.5894283093E+00    0.3011104170E-03
    0.9000000000E+07    0.5019135287E-03    0.6957441363E+00    0.2614570073E-01    0.6046358870E+00    0.3053447737E-03
    0.1100000000E+08    0.3482170815E-03    0.6957409605E+00    0.2195498506E-01    0.6148825186E+00    0.3087685402E-03
    0.1300000000E+08    0.2555864797E-03    0.6957382806E+00    0.1891431192E-01    0.6222539607E+00    0.3116480048E-03
    0.1500000000E+08    0.1954969983E-03    0.6957359595E+00    0.1660841972E-01    0.6278104361E+00    0.3141359292E-03
    0.1700000000E+08    0.1543234345E-03    0.6957339106E+00    0.1480024961E-01    0.6321480534E+00    0.3163282630E-03
    0.1900000000E+08    0.1248901277E-03    0.6957320751E+00    0.1334469620E-01    0.6356277221E+00    0.3182893008E-03
    0.2100000000E+08    0.1031264821E-03    0.6957304119E+00    0.1214799852E-01    0.6384807279E+00    0.3200642740E-03
    0.2300000000E+08    0.8658397463E-04    0.6957288906E+00    0.1114689288E-01    0.6408621230E+00    0.3216862347E-03
    0.2500000000E+08    0.7371820252E-04    0.6957274884E+00    0.1029715463E-01    0.6428797363E+00    0.3231800836E-03
    0.2700000000E+08    0.6351603974E-04    0.6957261874E+00    0.9566942274E-02    0.6446108747E+00    0.3245650559E-03
