  Pressure (Pa) 22mC5-500 (mol/kg) 24mC5-500 (mol/kg) 2mC6-500 (mol/kg) 3mC6-500 (mol/kg) C7-500 (mol/kg)
    0.1000000000E+01    0.1696320844E-04    0.9949859003E-01    0.1605612905E-04    0.4084346819E-05    0.4146655737E-02
    0.3000000000E+01    0.3750038764E-04    0.2321071233E+00    0.3407066372E-04    0.1008451370E-04    0.4175076145E-02
    0.5000000000E+01    0.4931005222E-04    0.3164633527E+00    0.4374055640E-04    0.1552933351E-04    0.4184784287E-02
    0.7000000000E+01    0.5682758547E-04    0.3748512584E+00    0.4970026945E-04    0.2071382648E-04    0.4190277925E-02
    0.9000000000E+01    0.6199031442E-04    0.4176633846E+00    0.5383821217E-04    0.2573538333E-04    0.4193805540E-02
    0.1100000000E+02    0.6576298088E-04    0.4503993326E+00    0.5702882573E-04    0.3064216728E-04    0.4196195802E-02
    0.1300000000E+02    0.6867099255E-04    0.4762421345E+00    0.5971231532E-04    0.3546260828E-04    0.4197854176E-02
    0.1500000000E+02    0.7102004913E-04    0.4971618121E+00    0.6212373203E-04    0.4021532020E-04    0.4199009380E-02
    0.1700000000E+02    0.7299730268E-04    0.5144429541E+00    0.6439396711E-04    0.4491335885E-04    0.4199802238E-02
    0.1900000000E+02    0.7472203871E-04    0.5289589733E+00    0.6659804625E-04    0.4956634477E-04    0.4200324884E-02
    0.2100000000E+02    0.7627279978E-04    0.5413244350E+00    0.6877972870E-04    0.5418163586E-04    0.4200640393E-02
    0.2300000000E+02    0.7770269723E-04    0.5519843360E+00    0.7096468453E-04    0.5876502567E-04    0.4200793509E-02
    0.2500000000E+02    0.7904844453E-04    0.5612688163E+00    0.7316784816E-04    0.6332118420E-04    0.4200816900E-02
    0.2700000000E+02    0.8033588781E-04    0.5694279703E+00    0.7539766184E-04    0.6785394903E-04    0.4200734997E-02
    0.2900000000E+02    0.8158350040E-04    0.5766547209E+00    0.7765859282E-04    0.7236652513E-04    0.4200566445E-02
    0.3100000000E+02    0.8280465185E-04    0.5831002736E+00    0.7995266050E-04    0.7686162625E-04    0.4200325724E-02
    0.3300000000E+02    0.8400911639E-04    0.5888848150E+00    0.8228037980E-04    0.8134157761E-04    0.4200024251E-02
    0.3500000000E+02    0.8520409688E-04    0.5941050787E+00    0.8464135222E-04    0.8580839230E-04    0.4199671151E-02
    0.3700000000E+02    0.8639493266E-04    0.5988398003E+00    0.8703463983E-04    0.9026382913E-04    0.4199273802E-02
    0.3900000000E+02    0.8758559687E-04    0.6031537175E+00    0.8945900334E-04    0.9470943718E-04    0.4198838233E-02
    0.4100000000E+02    0.8877905097E-04    0.6071005483E+00    0.9191305381E-04    0.9914659080E-04    0.4198369418E-02
    0.4300000000E+02    0.8997750079E-04    0.6107252402E+00    0.9439534886E-04    0.1035765173E-03    0.4197871496E-02
    0.4500000000E+02    0.9118258353E-04    0.6140656901E+00    0.9690445298E-04    0.1080003189E-03    0.4197347939E-02
    0.4700000000E+02    0.9239550579E-04    0.6171540744E+00    0.9943897434E-04    0.1124189915E-03    0.4196801678E-02
    0.4900000000E+02    0.9361714651E-04    0.6200178895E+00    0.1019975864E-03    0.1168334386E-03    0.4196235205E-02
    0.1000000000E+02    0.6401068497E-04    0.4350546226E+00    0.5551784860E-04    0.2820104101E-04    0.4195111717E-02
    0.3000000000E+02    0.8219670249E-04    0.5799670093E+00    0.7880142537E-04    0.7461610663E-04    0.4200454330E-02
    0.5000000000E+02    0.9423144077E-04    0.6213731021E+00    0.1032855327E-03    0.1190393378E-03    0.4195945068E-02
    0.7000000000E+02    0.1070488422E-03    0.6409892826E+00    0.1300505197E-03    0.1631029607E-03    0.4189465166E-02
    0.9000000000E+02    0.1208428381E-03    0.6524334897E+00    0.1582740317E-03    0.2073749378E-03    0.4182223311E-02
    0.1100000000E+03    0.1354804574E-03    0.6599322254E+00    0.1875932960E-03    0.2521569203E-03    0.4174568596E-02
    0.1300000000E+03    0.1508530927E-03    0.6652259445E+00    0.2178571568E-03    0.2976452996E-03    0.4166630584E-02
    0.1500000000E+03    0.1668925735E-03    0.6691626229E+00    0.2490084712E-03    0.3439856235E-03    0.4158462845E-02
    0.1700000000E+03    0.1835598326E-03    0.6722048244E+00    0.2810354240E-03    0.3912960386E-03    0.4150087408E-02
    0.1900000000E+03    0.2008351926E-03    0.6746263282E+00    0.3139500473E-03    0.4396790354E-03    0.4141511468E-02
    0.2100000000E+03    0.2187120416E-03    0.6765995239E+00    0.3477780603E-03    0.4892279999E-03    0.4132734545E-02
    0.2300000000E+03    0.2371928832E-03    0.6782383700E+00    0.3825537848E-03    0.5400311854E-03    0.4123751854E-02
    0.2500000000E+03    0.2562868658E-03    0.6796212167E+00    0.4183175024E-03    0.5921742924E-03    0.4114555990E-02
    0.2700000000E+03    0.2760082184E-03    0.6808037066E+00    0.4551140572E-03    0.6457422524E-03    0.4105137826E-02
    0.2900000000E+03    0.2963752516E-03    0.6818264456E+00    0.4929921294E-03    0.7008205333E-03    0.4095486995E-02
    0.3100000000E+03    0.3174097180E-03    0.6827197607E+00    0.5320038866E-03    0.7574961487E-03    0.4085592151E-02
    0.3300000000E+03    0.3391364085E-03    0.6835067593E+00    0.5722048598E-03    0.8158584799E-03    0.4075441108E-02
    0.3500000000E+03    0.3615829077E-03    0.6842053566E+00    0.6136539581E-03    0.8759999793E-03    0.4065020908E-02
    0.3700000000E+03    0.3847794601E-03    0.6848296565E+00    0.6564135747E-03    0.9380168000E-03    0.4054317840E-02
    0.3900000000E+03    0.4087589156E-03    0.6853909141E+00    0.7005497579E-03    0.1002009381E-02    0.4043317434E-02
    0.4100000000E+03    0.4335567350E-03    0.6858982203E+00    0.7461324294E-03    0.1068083010E-02    0.4032004433E-02
    0.4300000000E+03    0.4592110418E-03    0.6863589983E+00    0.7932356436E-03    0.1136348382E-02    0.4020362751E-02
    0.4500000000E+03    0.4857627116E-03    0.6867793689E+00    0.8419378804E-03    0.1206922161E-02    0.4008375426E-02
    0.4700000000E+03    0.5132554940E-03    0.6871644245E+00    0.8923223721E-03    0.1279927558E-02    0.3996024556E-02
    0.4900000000E+03    0.5417361628E-03    0.6875184363E+00    0.9444774618E-03    0.1355494932E-02    0.3983291235E-02
    0.1000000000E+03    0.1280640372E-03    0.6565364795E+00    0.1728092274E-03    0.2296883057E-03    0.4178436808E-02
    0.3000000000E+03    0.3068075739E-03    0.6822876954E+00    0.5123529052E-03    0.7289531520E-03    0.4090570818E-02
    0.5000000000E+03    0.5563624415E-03    0.6876849509E+00    0.9712480815E-03    0.1394282210E-02    0.3976774954E-02
    0.7000000000E+03    0.9152976856E-03    0.6900248784E+00    0.1626681284E-02    0.2344233889E-02    0.3820680634E-02
    0.9000000000E+03    0.1462633919E-02    0.6913319441E+00    0.2624748374E-02    0.3792773813E-02    0.3592252892E-02
    0.1100000000E+04    0.2357150540E-02    0.6921663873E+00    0.4257228880E-02    0.6166992670E-02    0.3234657242E-02
    0.1300000000E+04    0.3908584119E-02    0.6927453041E+00    0.7095230001E-02    0.1030647768E-01    0.2646316000E-02
    0.1500000000E+04    0.6503804132E-02    0.6931704807E+00    0.1186357886E-01    0.1729343482E-01    0.1735573819E-02
    0.1700000000E+04    0.9673432601E-02    0.6934959782E+00    0.1773884136E-01    0.2597702064E-01    0.7704392119E-03
    0.1900000000E+04    0.1195957317E-01    0.6937531698E+00    0.2205860875E-01    0.3247931755E-01    0.2661165821E-03
    0.2100000000E+04    0.1332565926E-01    0.6939615127E+00    0.2472568877E-01    0.3661568717E-01    0.1202656034E-03
    0.2300000000E+04    0.1433296927E-01    0.6941337147E+00    0.2675414161E-01    0.3984808256E-01    0.8725115980E-04
    0.2500000000E+04    0.1521421662E-01    0.6942784277E+00    0.2856771609E-01    0.4279234832E-01    0.8037912194E-04
    0.2700000000E+04    0.1603203051E-01    0.6944017458E+00    0.3028012940E-01    0.4561345785E-01    0.7915274145E-04
    0.2900000000E+04    0.1680313891E-01    0.6945080858E+00    0.3192092017E-01    0.4835320898E-01    0.7912826706E-04
    0.3100000000E+04    0.1753330606E-01    0.6946007271E+00    0.3349948431E-01    0.5102385153E-01    0.7935113732E-04
    0.3300000000E+04    0.1822563499E-01    0.6946821555E+00    0.3502038043E-01    0.5363059462E-01    0.7961543226E-04
    0.3500000000E+04    0.1888248818E-01    0.6947542899E+00    0.3648688402E-01    0.5617685490E-01    0.7987717304E-04
    0.3700000000E+04    0.1950593964E-01    0.6948186346E+00    0.3790182233E-01    0.5866548844E-01    0.8012776046E-04
    0.3900000000E+04    0.2009788952E-01    0.6948763864E+00    0.3926778096E-01    0.6109909016E-01    0.8036631106E-04
    0.4100000000E+04    0.2066009972E-01    0.6949285084E+00    0.4058716349E-01    0.6348007476E-01    0.8059353803E-04
    0.4300000000E+04    0.2119421029E-01    0.6949757852E+00    0.4186221566E-01    0.6581070512E-01    0.8081039536E-04
    0.4500000000E+04    0.2170175060E-01    0.6950188619E+00    0.4309504011E-01    0.6809310737E-01    0.8101778857E-04
    0.4700000000E+04    0.2218414846E-01    0.6950582739E+00    0.4428760808E-01    0.7032928203E-01    0.8121652493E-04
    0.4900000000E+04    0.2264273827E-01    0.6950944696E+00    0.4544176964E-01    0.7252111350E-01    0.8140731585E-04
    0.1000000000E+04    0.1851579459E-02    0.6917906294E+00    0.3334260126E-02    0.4823968054E-02    0.3434757528E-02
    0.3000000000E+04    0.1717311866E-01    0.6945559479E+00    0.3271764672E-01    0.4969677336E-01    0.7922840017E-04
    0.5000000000E+04    0.2286349843E-01    0.6951114817E+00    0.4600499531E-01    0.7360095977E-01    0.8149993078E-04
    0.7000000000E+04    0.2629257104E-01    0.6953496310E+00    0.5562395050E-01    0.9325186764E-01    0.8305453487E-04
    0.9000000000E+04    0.2836256593E-01    0.6954818579E+00    0.6285633872E-01    0.1099814995E+00    0.8423152811E-04
    0.1100000000E+05    0.2957415355E-01    0.6955659205E+00    0.6844734085E-01    0.1245917073E+00    0.8518170116E-04
    0.1300000000E+05    0.3022348087E-01    0.6956240482E+00    0.7286003339E-01    0.1375976949E+00    0.8598000167E-04
    0.1500000000E+05    0.3049458195E-01    0.6956666178E+00    0.7639759187E-01    0.1493477906E+00    0.8666926137E-04
    0.1700000000E+05    0.3050638776E-01    0.6956991236E+00    0.7926703143E-01    0.1600873980E+00    0.8727631303E-04
    0.1900000000E+05    0.3033822224E-01    0.6957247465E+00    0.8161468763E-01    0.1699953861E+00    0.8781910315E-04
    0.2100000000E+05    0.3004437186E-01    0.6957454554E+00    0.8354704563E-01    0.1792059031E+00    0.8831023905E-04
    0.2300000000E+05    0.2966278063E-01    0.6957625340E+00    0.8514352278E-01    0.1878220314E+00    0.8875892309E-04
    0.2500000000E+05    0.2922043278E-01    0.6957768553E+00    0.8646461371E-01    0.1959246576E+00    0.8917208179E-04
    0.2700000000E+05    0.2873679079E-01    0.6957890334E+00    0.8755725075E-01    0.2035784168E+00    0.8955506186E-04
    0.2900000000E+05    0.2822605151E-01    0.6957995126E+00    0.8845843203E-01    0.2108357893E+00    0.8991207837E-04
    0.3100000000E+05    0.2769866175E-01    0.6958086229E+00    0.8919773826E-01    0.2177399916E+00    0.9024651428E-04
    0.3300000000E+05    0.2716235769E-01    0.6958166137E+00    0.8979911696E-01    0.2243270601E+00    0.9056112670E-04
    0.3500000000E+05    0.2662289084E-01    0.6958236778E+00    0.9028217207E-01    0.2306273828E+00    0.9085819291E-04
    0.3700000000E+05    0.2608454321E-01    0.6958299660E+00    0.9066311246E-01    0.2366668439E+00    0.9113961602E-04
    0.3900000000E+05    0.2555049830E-01    0.6958355981E+00    0.9095546042E-01    0.2424676920E+00    0.9140700298E-04
    0.4100000000E+05    0.2502311156E-01    0.6958406705E+00    0.9117058855E-01    0.2480492090E+00    0.9166172324E-04
    0.4300000000E+05    0.2450410997E-01    0.6958452619E+00    0.9131813184E-01    0.2534282306E+00    0.9190495355E-04
    0.4500000000E+05    0.2399474082E-01    0.6958494365E+00    0.9140630765E-01    0.2586195574E+00    0.9213771263E-04
    0.4700000000E+05    0.2349588351E-01    0.6958532480E+00    0.9144216701E-01    0.2636362819E+00    0.9236088834E-04
    0.4900000000E+05    0.2300813445E-01    0.6958567410E+00    0.9143179376E-01    0.2684900523E+00    0.9257525931E-04
    0.1000000000E+05    0.2905375038E-01    0.6955281038E+00    0.6582328681E-01    0.1175143914E+00    0.8472923360E-04
    0.3000000000E+05    0.2796390064E-01    0.6958042217E+00    0.8884670786E-01    0.2143296364E+00    0.9008193386E-04
    0.5000000000E+05    0.2276855078E-01    0.6958583801E+00    0.9141094655E-01    0.2708591282E+00    0.9267936079E-04
    0.7000000000E+05    0.1858228281E-01    0.6958810955E+00    0.8953935084E-01    0.3117271955E+00    0.9443017053E-04
    0.9000000000E+05    0.1540317623E-01    0.6958934270E+00    0.8630288599E-01    0.3436686874E+00    0.9575912085E-04
    0.1100000000E+06    0.1296845577E-01    0.6959010849E+00    0.8267282212E-01    0.3696999781E+00    0.9683355144E-04
    0.1300000000E+06    0.1106999801E-01    0.6959062521E+00    0.7902160647E-01    0.3914940114E+00    0.9773711045E-04
    0.1500000000E+06    0.9562554745E-02    0.6959099410E+00    0.7550219784E-01    0.4100952138E+00    0.9851777075E-04
    0.1700000000E+06    0.8345704780E-02    0.6959126838E+00    0.7217541123E-01    0.4262062636E+00    0.9920565828E-04
    0.1900000000E+06    0.7349024242E-02    0.6959147867E+00    0.6906036620E-01    0.4403249521E+00    0.9982095734E-04
    0.2100000000E+06    0.6522157163E-02    0.6959164379E+00    0.6615669666E-01    0.4528175505E+00    0.1003778661E-03
    0.2300000000E+06    0.5828382731E-02    0.6959177592E+00    0.6345502914E-01    0.4639615392E+00    0.1008867590E-03
    0.2500000000E+06    0.5240426076E-02    0.6959188328E+00    0.6094214645E-01    0.4739720826E+00    0.1013554512E-03
    0.2700000000E+06    0.4737685451E-02    0.6959197163E+00    0.5860358889E-01    0.4830192384E+00    0.1017899796E-03
    0.2900000000E+06    0.4304361406E-02    0.6959204509E+00    0.5642496336E-01    0.4912395822E+00    0.1021951061E-03
    0.3100000000E+06    0.3928169979E-02    0.6959210670E+00    0.5439258094E-01    0.4987443071E+00    0.1025746543E-03
    0.3300000000E+06    0.3599441198E-02    0.6959215875E+00    0.5249373902E-01    0.5056250178E+00    0.1029317420E-03
    0.3500000000E+06    0.3310476647E-02    0.6959220298E+00    0.5071681468E-01    0.5119579679E+00    0.1032689450E-03
    0.3700000000E+06    0.3055084359E-02    0.6959224075E+00    0.4905125917E-01    0.5178072174E+00    0.1035884168E-03
    0.3900000000E+06    0.2828237192E-02    0.6959227314E+00    0.4748754272E-01    0.5232270259E+00    0.1038919763E-03
    0.4100000000E+06    0.2625818531E-02    0.6959230100E+00    0.4601707676E-01    0.5282636921E+00    0.1041811737E-03
    0.4300000000E+06    0.2444430652E-02    0.6959232502E+00    0.4463212856E-01    0.5329569873E+00    0.1044573416E-03
    0.4500000000E+06    0.2281248683E-02    0.6959234576E+00    0.4332573621E-01    0.5373412843E+00    0.1047216338E-03
    0.4700000000E+06    0.2133908130E-02    0.6959236368E+00    0.4209162802E-01    0.5414464565E+00    0.1049750561E-03
    0.4900000000E+06    0.2000417425E-02    0.6959237918E+00    0.4092414832E-01    0.5452986006E+00    0.1052184906E-03
    0.1000000000E+06    0.1410744319E-01    0.6958976624E+00    0.8450619000E-01    0.3572987188E+00    0.9632175962E-04
    0.3000000000E+06    0.4109781196E-02    0.6959207722E+00    0.5539131053E-01    0.4950752685E+00    0.1023878683E-03
    0.5000000000E+06    0.1938328173E-02    0.6959238612E+00    0.4036377854E-01    0.5471370561E+00    0.1053367092E-03
    0.7000000000E+06    0.1124838639E-02    0.6959245294E+00    0.3164831767E-01    0.5749395235E+00    0.1073252372E-03
    0.9000000000E+06    0.7336520859E-03    0.6959245303E+00    0.2599536134E-01    0.5922815888E+00    0.1088349162E-03
    0.1100000000E+07    0.5159218735E-03    0.6959242914E+00    0.2204054380E-01    0.6041402412E+00    0.1100555941E-03
    0.1300000000E+07    0.3824201610E-03    0.6959239579E+00    0.1912164110E-01    0.6127627169E+00    0.1110822126E-03
    0.1500000000E+07    0.2947130032E-03    0.6959235886E+00    0.1688012507E-01    0.6193147721E+00    0.1119692362E-03
    0.1700000000E+07    0.2340276643E-03    0.6959232098E+00    0.1510541662E-01    0.6244619783E+00    0.1127508737E-03
    0.1900000000E+07    0.1903097425E-03    0.6959228340E+00    0.1366585222E-01    0.6286121647E+00    0.1134500481E-03
    0.2100000000E+07    0.1577798913E-03    0.6959224672E+00    0.1247494046E-01    0.6320292203E+00    0.1140828855E-03
    0.2300000000E+07    0.1329246061E-03    0.6959221120E+00    0.1147354570E-01    0.6348914649E+00    0.1146611699E-03
    0.2500000000E+07    0.1135082520E-03    0.6959217696E+00    0.1061987825E-01    0.6373237367E+00    0.1151937789E-03
    0.2700000000E+07    0.9805343733E-04    0.6959214401E+00    0.9883575798E-02    0.6394160450E+00    0.1156875706E-03
    0.2900000000E+07    0.8555216532E-04    0.6959211233E+00    0.9242051331E-02    0.6412349241E+00    0.1161479546E-03
    0.3100000000E+07    0.7529764980E-04    0.6959208187E+00    0.8678156365E-02    0.6428306170E+00    0.1165792749E-03
    0.3300000000E+07    0.6678244785E-04    0.6959205257E+00    0.8178638534E-02    0.6442417738E+00    0.1169850737E-03
    0.3500000000E+07    0.5963462637E-04    0.6959202436E+00    0.7733095550E-02    0.6454986118E+00    0.1173682776E-03
    0.3700000000E+07    0.5357655947E-04    0.6959199719E+00    0.7333248788E-02    0.6466250966E+00    0.1177313333E-03
    0.3900000000E+07    0.4839763167E-04    0.6959197098E+00    0.6972428115E-02    0.6476404781E+00    0.1180763073E-03
    0.4100000000E+07    0.4393573160E-04    0.6959194569E+00    0.6645199665E-02    0.6485603963E+00    0.1184049612E-03
    0.4300000000E+07    0.4006444383E-04    0.6959192124E+00    0.6347092335E-02    0.6493976893E+00    0.1187188090E-03
    0.4500000000E+07    0.3668401904E-04    0.6959189760E+00    0.6074393781E-02    0.6501629934E+00    0.1190191618E-03
    0.4700000000E+07    0.3371490030E-04    0.6959187471E+00    0.5823996140E-02    0.6508651956E+00    0.1193071623E-03
    0.4900000000E+07    0.3109301107E-04    0.6959185253E+00    0.5593277907E-02    0.6515117790E+00    0.1195838131E-03
    0.1000000000E+07    0.6105022412E-03    0.6959244286E+00    0.2385703117E-01    0.5987196084E+00    0.1094741266E-03
    0.3000000000E+07    0.8017956354E-04    0.6959209695E+00    0.8951305591E-02    0.6420580243E+00    0.1163670100E-03
    0.5000000000E+07    0.2989561147E-04    0.6959184170E+00    0.5484589391E-02    0.6518162352E+00    0.1197181627E-03
    0.7000000000E+07    0.1551864028E-04    0.6959165373E+00    0.3946375846E-02    0.6561158062E+00    0.1219780458E-03
    0.9000000000E+07    0.9503561610E-05    0.6959150511E+00    0.3078944427E-02    0.6585334543E+00    0.1236937551E-03
    0.1100000000E+08    0.6429361863E-05    0.6959138203E+00    0.2522538128E-02    0.6600819826E+00    0.1250810304E-03
    0.1300000000E+08    0.4649655064E-05    0.6959127685E+00    0.2135518713E-02    0.6611582271E+00    0.1262477652E-03
    0.1500000000E+08    0.3527487267E-05    0.6959118490E+00    0.1850864721E-02    0.6619494436E+00    0.1272558549E-03
    0.1700000000E+08    0.2774430414E-05    0.6959110315E+00    0.1632769431E-02    0.6625554965E+00    0.1281441762E-03
    0.1900000000E+08    0.2244480644E-05    0.6959102950E+00    0.1460370248E-02    0.6630345005E+00    0.1289387800E-03
    0.2100000000E+08    0.1857301991E-05    0.6959096244E+00    0.1320692174E-02    0.6634225674E+00    0.1296579930E-03
    0.2300000000E+08    0.1565726565E-05    0.6959090086E+00    0.1205243695E-02    0.6637433156E+00    0.1303152074E-03
    0.2500000000E+08    0.1340581320E-05    0.6959084390E+00    0.1108235092E-02    0.6640128411E+00    0.1309205126E-03
    0.2700000000E+08    0.1163036032E-05    0.6959079089E+00    0.1025583566E-02    0.6642424907E+00    0.1314817022E-03
