  Pressure (Pa) 22mC5-500 (mol/kg) 24mC5-500 (mol/kg) 2mC6-500 (mol/kg) 3mC6-500 (mol/kg) C7-500 (mol/kg)
    0.1000000000E+01    0.1755775811E-04    0.6965031853E-01    0.3281825130E-05    0.4802579076E-05    0.4195661514E-02
    0.3000000000E+01    0.4210212934E-04    0.1740820068E+00    0.7607526495E-05    0.1228655498E-04    0.4253256956E-02
    0.5000000000E+01    0.5829452510E-04    0.2486446056E+00    0.1028219479E-04    0.1917476164E-04    0.4292263065E-02
    0.7000000000E+01    0.6957709778E-04    0.3045498797E+00    0.1204667675E-04    0.2577763152E-04    0.4321384762E-02
    0.9000000000E+01    0.7777420015E-04    0.3480222160E+00    0.1327651369E-04    0.3219989236E-04    0.4344056780E-02
    0.1100000000E+02    0.8393655460E-04    0.3827942958E+00    0.1417863357E-04    0.3849394007E-04    0.4362232775E-02
    0.1300000000E+02    0.8870652539E-04    0.4112405042E+00    0.1487377756E-04    0.4469095435E-04    0.4377136571E-02
    0.1500000000E+02    0.9249547519E-04    0.4349432583E+00    0.1543553362E-04    0.5081147666E-04    0.4389579697E-02
    0.1700000000E+02    0.9557685125E-04    0.4549977938E+00    0.1591031204E-04    0.5686998759E-04    0.4400123215E-02
    0.1900000000E+02    0.9813808837E-04    0.4721862549E+00    0.1632819155E-04    0.6287720268E-04    0.4409168084E-02
    0.2100000000E+02    0.1003110047E-03    0.4870821119E+00    0.1670909573E-04    0.6884134691E-04    0.4417008781E-02
    0.2300000000E+02    0.1021903439E-03    0.5001154026E+00    0.1706645138E-04    0.7476891705E-04    0.4423866618E-02
    0.2500000000E+02    0.1038454837E-03    0.5116149372E+00    0.1740942838E-04    0.8066516444E-04    0.4429911242E-02
    0.2700000000E+02    0.1053280520E-03    0.5218364285E+00    0.1774435048E-04    0.8653441506E-04    0.4435274952E-02
    0.2900000000E+02    0.1066770104E-03    0.5309817358E+00    0.1807560557E-04    0.9238028976E-04    0.4440062487E-02
    0.3100000000E+02    0.1079221239E-03    0.5392123328E+00    0.1840624578E-04    0.9820586052E-04    0.4444357882E-02
    0.3300000000E+02    0.1090863781E-03    0.5466589270E+00    0.1873839024E-04    0.1040137642E-03    0.4448229366E-02
    0.3500000000E+02    0.1101876916E-03    0.5534284537E+00    0.1907349988E-04    0.1098062875E-03    0.4451732934E-02
    0.3700000000E+02    0.1112401504E-03    0.5596092459E+00    0.1941256765E-04    0.1155854311E-03    0.4454914984E-02
    0.3900000000E+02    0.1122549089E-03    0.5652749104E+00    0.1975625170E-04    0.1213529595E-03    0.4457814299E-02
    0.4100000000E+02    0.1132408573E-03    0.5704872743E+00    0.2010496978E-04    0.1271104399E-03    0.4460463561E-02
    0.4300000000E+02    0.1142051211E-03    0.5752986507E+00    0.2045896665E-04    0.1328592735E-03    0.4462890506E-02
    0.4500000000E+02    0.1151534392E-03    0.5797536010E+00    0.2081836278E-04    0.1386007201E-03    0.4465118837E-02
    0.4700000000E+02    0.1160904529E-03    0.5838903192E+00    0.2118318954E-04    0.1443359183E-03    0.4467168933E-02
    0.4900000000E+02    0.1170199292E-03    0.5877417305E+00    0.2155341504E-04    0.1500659025E-03    0.4469058418E-02
    0.1000000000E+02    0.8106264859E-04    0.3663239384E+00    0.1375955872E-04    0.3536066552E-04    0.4353617991E-02
    0.3000000000E+02    0.1073109751E-03    0.5352025752E+00    0.1824085194E-04    0.9529543924E-04    0.4442267114E-02
    0.5000000000E+02    0.1174828223E-03    0.5895695142E+00    0.2174052978E-04    0.1529292374E-03    0.4469947799E-02
    0.7000000000E+02    0.1268437221E-03    0.6164076896E+00    0.2573691460E-04    0.2101141909E-03    0.4482144826E-02
    0.9000000000E+02    0.1368857305E-03    0.6324022793E+00    0.3012346717E-04    0.2675013165E-03    0.4487897780E-02
    0.1100000000E+03    0.1477509681E-03    0.6430207465E+00    0.3479676578E-04    0.3254360322E-03    0.4490264908E-02
    0.1300000000E+03    0.1593834829E-03    0.6505836980E+00    0.3969647842E-04    0.3841415056E-03    0.4490581941E-02
    0.1500000000E+03    0.1717097196E-03    0.6562441251E+00    0.4478881200E-04    0.4437810927E-03    0.4489529561E-02
    0.1700000000E+03    0.1846698553E-03    0.6606397181E+00    0.5005505385E-04    0.5044853680E-03    0.4487492490E-02
    0.1900000000E+03    0.1982205184E-03    0.6641518140E+00    0.5548527919E-04    0.5663657034E-03    0.4484704828E-02
    0.2100000000E+03    0.2123321174E-03    0.6670224526E+00    0.6107491438E-04    0.6295218412E-03    0.4481316978E-02
    0.2300000000E+03    0.2269857648E-03    0.6694126589E+00    0.6682280284E-04    0.6940464673E-03    0.4477429565E-02
    0.2500000000E+03    0.2421707824E-03    0.6714337229E+00    0.7273007865E-04    0.7600281592E-03    0.4473111958E-02
    0.2700000000E+03    0.2578828450E-03    0.6731650245E+00    0.7879948959E-04    0.8275533954E-03    0.4468412987E-02
    0.2900000000E+03    0.2741226386E-03    0.6746647064E+00    0.8503497987E-04    0.8967079967E-03    0.4463367462E-02
    0.3100000000E+03    0.2908948977E-03    0.6759763304E+00    0.9144142828E-04    0.9675782111E-03    0.4458000302E-02
    0.3300000000E+03    0.3082077156E-03    0.6771331790E+00    0.9802448240E-04    0.1040251567E-02    0.4452329230E-02
    0.3500000000E+03    0.3260720529E-03    0.6781611185E+00    0.1047904543E-03    0.1114817577E-02    0.4446366590E-02
    0.3700000000E+03    0.3445013867E-03    0.6790805554E+00    0.1117462563E-03    0.1191368338E-02    0.4440120602E-02
    0.3900000000E+03    0.3635114658E-03    0.6799078050E+00    0.1188993647E-03    0.1269999074E-02    0.4433596240E-02
    0.4100000000E+03    0.3831201428E-03    0.6806560677E+00    0.1262578019E-03    0.1350808626E-02    0.4426795867E-02
    0.4300000000E+03    0.4033472663E-03    0.6813361384E+00    0.1338301327E-03    0.1433899927E-02    0.4419719685E-02
    0.4500000000E+03    0.4242146183E-03    0.6819569309E+00    0.1416254716E-03    0.1519380462E-02    0.4412366077E-02
    0.4700000000E+03    0.4457458881E-03    0.6825258701E+00    0.1496534973E-03    0.1607362728E-02    0.4404731842E-02
    0.4900000000E+03    0.4679666763E-03    0.6830491906E+00    0.1579244744E-03    0.1697964700E-02    0.4396812385E-02
    0.1000000000E+03    0.1422177273E-03    0.6381985705E+00    0.3242884778E-04    0.2963844077E-03    0.4489398881E-02
    0.3000000000E+03    0.2824417763E-03    0.6753417435E+00    0.8821649789E-04    0.9319232206E-03    0.4460722835E-02
    0.5000000000E+03    0.4793441690E-03    0.6832954242E+00    0.1621544443E-03    0.1744286557E-02    0.4392743913E-02
    0.7000000000E+03    0.7511236489E-03    0.6867609859E+00    0.2626041093E-03    0.2843055657E-02    0.4294302026E-02
    0.9000000000E+03    0.1140543175E-02    0.6887008786E+00    0.4057475718E-03    0.4408577080E-02    0.4152950401E-02
    0.1100000000E+04    0.1729680470E-02    0.6899405749E+00    0.6219651040E-03    0.6775906096E-02    0.3942094455E-02
    0.1300000000E+04    0.2681079452E-02    0.6908010591E+00    0.9712937743E-03    0.1060762751E-01    0.3610028111E-02
    0.1500000000E+04    0.4309949681E-02    0.6914331414E+00    0.1570567745E-02    0.1719845616E-01    0.3062810436E-02
    0.1700000000E+04    0.7033931463E-02    0.6919170326E+00    0.2576764454E-02    0.2831161408E-01    0.2202230425E-02
    0.1900000000E+04    0.1047559830E-01    0.6922993265E+00    0.3858425874E-02    0.4258062965E-01    0.1233477986E-02
    0.2100000000E+04    0.1304067832E-01    0.6926089407E+00    0.4831086360E-02    0.5359724429E-01    0.6793038263E-03
    0.2300000000E+04    0.1451763931E-01    0.6928647719E+00    0.5410348922E-02    0.6036291605E-01    0.5091670556E-03
    0.2500000000E+04    0.1554865563E-01    0.6930796903E+00    0.5829203471E-02    0.6540694617E-01    0.4706432358E-03
    0.2700000000E+04    0.1643028253E-01    0.6932627644E+00    0.6196266217E-02    0.6991979918E-01    0.4637006302E-03
    0.2900000000E+04    0.1724421525E-01    0.6934205680E+00    0.6541463504E-02    0.7422980531E-01    0.4636318537E-03
    0.3100000000E+04    0.1801162632E-01    0.6935579828E+00    0.6872407269E-02    0.7841917387E-01    0.4649738772E-03
    0.3300000000E+04    0.1873908006E-01    0.6936787099E+00    0.7191304335E-02    0.8251026104E-01    0.4665456154E-03
    0.3500000000E+04    0.1942964521E-01    0.6937856060E+00    0.7499073763E-02    0.8651119675E-01    0.4680969709E-03
    0.3700000000E+04    0.2008548276E-01    0.6938809116E+00    0.7796310316E-02    0.9042661406E-01    0.4695801679E-03
    0.3900000000E+04    0.2070845149E-01    0.6939664083E+00    0.8083510249E-02    0.9426016936E-01    0.4709910217E-03
    0.4100000000E+04    0.2130025540E-01    0.6940435305E+00    0.8361125698E-02    0.9801514524E-01    0.4723341542E-03
    0.4300000000E+04    0.2186248430E-01    0.6941134462E+00    0.8629578979E-02    0.1016946030E+00    0.4736154024E-03
    0.4500000000E+04    0.2239662911E-01    0.6941771162E+00    0.8889267362E-02    0.1053014281E+00    0.4748402391E-03
    0.4700000000E+04    0.2290409058E-01    0.6942353378E+00    0.9140565456E-02    0.1088383494E+00    0.4760135225E-03
    0.4900000000E+04    0.2338618615E-01    0.6942887781E+00    0.9383826933E-02    0.1123079513E+00    0.4771395242E-03
    0.1000000000E+04    0.1402590205E-02    0.6893822249E+00    0.5019320755E-03    0.5461256910E-02    0.4058656604E-02
    0.3000000000E+04    0.1763318476E-01    0.6934915696E+00    0.6708527018E-02    0.7633759450E-01    0.4642391435E-03
    0.5000000000E+04    0.2361811211E-01    0.6943138847E+00    0.9502549102E-02    0.1140182782E+00    0.4776859882E-03
    0.7000000000E+04    0.2719022469E-01    0.6946643888E+00    0.1152720826E-01    0.1452230776E+00    0.4868480012E-03
    0.9000000000E+04    0.2926801587E-01    0.6948578024E+00    0.1303501474E-01    0.1718322320E+00    0.4937737134E-03
    0.1100000000E+05    0.3038483061E-01    0.6949799768E+00    0.1417918184E-01    0.1950214347E+00    0.4993596627E-03
    0.1300000000E+05    0.3086705308E-01    0.6950639007E+00    0.1505814279E-01    0.2155688084E+00    0.5040499743E-03
    0.1500000000E+05    0.3092268146E-01    0.6951249464E+00    0.1573804007E-01    0.2340126465E+00    0.5080979308E-03
    0.1700000000E+05    0.3068863585E-01    0.6951712380E+00    0.1626499267E-01    0.2507393105E+00    0.5116619772E-03
    0.1900000000E+05    0.3025742777E-01    0.6952074702E+00    0.1667216785E-01    0.2660349043E+00    0.5148479744E-03
    0.2100000000E+05    0.2969288684E-01    0.6952365431E+00    0.1698405065E-01    0.2801170419E+00    0.5177302292E-03
    0.2300000000E+05    0.2903979371E-01    0.6952603440E+00    0.1721912494E-01    0.2931551322E+00    0.5203629452E-03
    0.2500000000E+05    0.2832997502E-01    0.6952801534E+00    0.1739161490E-01    0.3052837607E+00    0.5227869000E-03
    0.2700000000E+05    0.2758626912E-01    0.6952968705E+00    0.1751265008E-01    0.3166117709E+00    0.5250335570E-03
    0.2900000000E+05    0.2682516991E-01    0.6953111447E+00    0.1759106543E-01    0.3272285850E+00    0.5271277120E-03
    0.3100000000E+05    0.2605862712E-01    0.6953234568E+00    0.1763396331E-01    0.3372087005E+00    0.5290892590E-03
    0.3300000000E+05    0.2529529532E-01    0.6953341701E+00    0.1764711664E-01    0.3466149544E+00    0.5309344082E-03
    0.3500000000E+05    0.2454141468E-01    0.6953435641E+00    0.1763526342E-01    0.3555009353E+00    0.5326765449E-03
    0.3700000000E+05    0.2380144122E-01    0.6953518575E+00    0.1760232558E-01    0.3639127960E+00    0.5343268534E-03
    0.3900000000E+05    0.2307850350E-01    0.6953592234E+00    0.1755157400E-01    0.3718906350E+00    0.5358947756E-03
    0.4100000000E+05    0.2237473731E-01    0.6953658011E+00    0.1748575474E-01    0.3794695655E+00    0.5373883568E-03
    0.4300000000E+05    0.2169153349E-01    0.6953717033E+00    0.1740718680E-01    0.3866805518E+00    0.5388145090E-03
    0.4500000000E+05    0.2102972282E-01    0.6953770229E+00    0.1731783867E-01    0.3935510728E+00    0.5401792155E-03
    0.4700000000E+05    0.2038971523E-01    0.6953818363E+00    0.1721938895E-01    0.4001056527E+00    0.5414876904E-03
    0.4900000000E+05    0.1977160510E-01    0.6953862076E+00    0.1711327485E-01    0.4063662911E+00    0.5427445055E-03
    0.1000000000E+05    0.2992260901E-01    0.6949251132E+00    0.1364544860E-01    0.1837986850E+00    0.4967001584E-03
    0.3000000000E+05    0.2644197260E-01    0.6953175211E+00    0.1761656598E-01    0.3322940611E+00    0.5281239735E-03
    0.5000000000E+05    0.1947072494E-01    0.6953882446E+00    0.1705773654E-01    0.4093926546E+00    0.5433548193E-03
    0.7000000000E+05    0.1450061779E-01    0.6954152203E+00    0.1576665973E-01    0.4584211199E+00    0.5536181633E-03
    0.9000000000E+05    0.1109661229E-01    0.6954283228E+00    0.1442450554E-01    0.4923841635E+00    0.5614074184E-03
    0.1100000000E+06    0.8718280923E-02    0.6954354432E+00    0.1319574864E-01    0.5172124318E+00    0.5677043354E-03
    0.1300000000E+06    0.7008955398E-02    0.6954395188E+00    0.1211196829E-01    0.5360884586E+00    0.5729995159E-03
    0.1500000000E+06    0.5746383043E-02    0.6954418743E+00    0.1116638121E-01    0.5508826624E+00    0.5775742710E-03
    0.1700000000E+06    0.4790643209E-02    0.6954431865E+00    0.1034214109E-01    0.5627649814E+00    0.5816052358E-03
    0.1900000000E+06    0.4051424311E-02    0.6954438332E+00    0.9621403137E-02    0.5725027377E+00    0.5852107441E-03
    0.2100000000E+06    0.3468815259E-02    0.6954440392E+00    0.8988105517E-02    0.5806187507E+00    0.5884740291E-03
    0.2300000000E+06    0.3002011034E-02    0.6954439453E+00    0.8428594076E-02    0.5874807045E+00    0.5914559044E-03
    0.2500000000E+06    0.2622537082E-02    0.6954436432E+00    0.7931519608E-02    0.5933542144E+00    0.5942021800E-03
    0.2700000000E+06    0.2310081492E-02    0.6954431946E+00    0.7487523115E-02    0.5984356426E+00    0.5967482403E-03
    0.2900000000E+06    0.2049864933E-02    0.6954426423E+00    0.7088894391E-02    0.6028730993E+00    0.5991219959E-03
    0.3100000000E+06    0.1830939870E-02    0.6954420162E+00    0.6729265574E-02    0.6067802891E+00    0.6013458576E-03
    0.3300000000E+06    0.1645065337E-02    0.6954413380E+00    0.6403354764E-02    0.6102458764E+00    0.6034380974E-03
    0.3500000000E+06    0.1485946655E-02    0.6954406235E+00    0.6106758025E-02    0.6133399699E+00    0.6054138126E-03
    0.3700000000E+06    0.1348711711E-02    0.6954398844E+00    0.5835782909E-02    0.6161187015E+00    0.6072856236E-03
    0.3900000000E+06    0.1229543737E-02    0.6954391292E+00    0.5587315882E-02    0.6186275218E+00    0.6090641896E-03
    0.4100000000E+06    0.1125419610E-02    0.6954383646E+00    0.5358716763E-02    0.6209036097E+00    0.6107585967E-03
    0.4300000000E+06    0.1033920533E-02    0.6954375955E+00    0.5147734493E-02    0.6229776610E+00    0.6123766539E-03
    0.4500000000E+06    0.9530931870E-03    0.6954368256E+00    0.4952439654E-02    0.6248752350E+00    0.6139251227E-03
    0.4700000000E+06    0.8813466001E-03    0.6954360578E+00    0.4771170164E-02    0.6266177800E+00    0.6154098975E-03
    0.4900000000E+06    0.8173746327E-03    0.6954352943E+00    0.4602487348E-02    0.6282234235E+00    0.6168361477E-03
    0.1000000000E+06    0.9805426912E-02    0.6954323901E+00    0.1379250192E-01    0.5056997928E+00    0.5647049304E-03
    0.3000000000E+06    0.1935809147E-02    0.6954423369E+00    0.6904557906E-02    0.6048869363E+00    0.6002514373E-03
    0.5000000000E+06    0.7879590563E-03    0.6954349146E+00    0.4522468513E-02    0.6289798185E+00    0.6175287722E-03
    0.7000000000E+06    0.4236200017E-03    0.6954277757E+00    0.3351308785E-02    0.6396801274E+00    0.6291790121E-03
    0.9000000000E+06    0.2637678416E-03    0.6954215907E+00    0.2658313095E-02    0.6457062738E+00    0.6380235325E-03
    0.1100000000E+07    0.1798448308E-03    0.6954162273E+00    0.2201132950E-02    0.6495673089E+00    0.6451747676E-03
    0.1300000000E+07    0.1304300885E-03    0.6954115158E+00    0.1877208424E-02    0.6522508655E+00    0.6511890174E-03
    0.1500000000E+07    0.9891655161E-04    0.6954073219E+00    0.1635827206E-02    0.6542236952E+00    0.6563854026E-03
    0.1700000000E+07    0.7760159757E-04    0.6954035453E+00    0.1449075769E-02    0.6557348384E+00    0.6609643569E-03
    0.1900000000E+07    0.6251840277E-04    0.6954001109E+00    0.1300334850E-02    0.6569292318E+00    0.6650601857E-03
    0.2100000000E+07    0.5145591345E-04    0.6953969617E+00    0.1179097170E-02    0.6578969305E+00    0.6687673715E-03
    0.2300000000E+07    0.4310289492E-04    0.6953940536E+00    0.1078396710E-02    0.6586968263E+00    0.6721549550E-03
    0.2500000000E+07    0.3664190154E-04    0.6953913519E+00    0.9934339769E-03    0.6593690488E+00    0.6752749492E-03
    0.2700000000E+07    0.3154191552E-04    0.6953888288E+00    0.9207951515E-03    0.6599418827E+00    0.6781675327E-03
    0.2900000000E+07    0.2744587505E-04    0.6953864616E+00    0.8579860596E-03    0.6604358365E+00    0.6808643999E-03
    0.3100000000E+07    0.2410653554E-04    0.6953842321E+00    0.8031422631E-03    0.6608661417E+00    0.6833910012E-03
    0.3300000000E+07    0.2134830990E-04    0.6953821245E+00    0.7548422584E-03    0.6612443474E+00    0.6857680880E-03
    0.3500000000E+07    0.1904372468E-04    0.6953801262E+00    0.7119834108E-03    0.6615793688E+00    0.6880128067E-03
    0.3700000000E+07    0.1709842870E-04    0.6953782260E+00    0.6736973558E-03    0.6618781979E+00    0.6901394912E-03
    0.3900000000E+07    0.1544137996E-04    0.6953764145E+00    0.6392909641E-03    0.6621463949E+00    0.6921602483E-03
    0.4100000000E+07    0.1401826353E-04    0.6953746836E+00    0.6082042924E-03    0.6623884372E+00    0.6940853985E-03
    0.4300000000E+07    0.1278697970E-04    0.6953730263E+00    0.5799800823E-03    0.6626079703E+00    0.6959238117E-03
    0.4500000000E+07    0.1171449032E-04    0.6953714364E+00    0.5542412703E-03    0.6628079927E+00    0.6976831684E-03
    0.4700000000E+07    0.1077457562E-04    0.6953699086E+00    0.5306741575E-03    0.6629909931E+00    0.6993701639E-03
    0.4900000000E+07    0.9946212966E-05    0.6953684379E+00    0.5090156450E-03    0.6631590542E+00    0.7009906706E-03
    0.1000000000E+07    0.2158185768E-03    0.6954188176E+00    0.2408430572E-02    0.6478275042E+00    0.6417683078E-03
    0.3000000000E+07    0.2569394269E-04    0.6953853307E+00    0.8296660342E-03    0.6606581514E+00    0.6821475913E-03
    0.5000000000E+07    0.9568415950E-05    0.6953677227E+00    0.4988312723E-03    0.6632380424E+00    0.7017776332E-03
    0.7000000000E+07    0.5056449544E-05    0.6953556046E+00    0.3559677367E-03    0.6643437508E+00    0.7150148589E-03
    0.9000000000E+07    0.3178803760E-05    0.6953463127E+00    0.2764372481E-03    0.6649578032E+00    0.7250643357E-03
    0.1100000000E+08    0.2218082461E-05    0.6953387539E+00    0.2258095560E-03    0.6653484019E+00    0.7331899034E-03
    0.1300000000E+08    0.1659313732E-05    0.6953323704E+00    0.1907709730E-03    0.6656187119E+00    0.7400236055E-03
    0.1500000000E+08    0.1304554243E-05    0.6953268379E+00    0.1650918626E-03    0.6658168708E+00    0.7459280222E-03
    0.1700000000E+08    0.1064457960E-05    0.6953219510E+00    0.1454695900E-03    0.6659683581E+00    0.7511308877E-03
    0.1900000000E+08    0.8938521993E-06    0.6953175713E+00    0.1299907578E-03    0.6660879214E+00    0.7557848024E-03
    0.2100000000E+08    0.7678781370E-06    0.6953136007E+00    0.1174705262E-03    0.6661846883E+00    0.7599971203E-03
    0.2300000000E+08    0.6719241457E-06    0.6953099674E+00    0.1071361349E-03    0.6662646099E+00    0.7638462881E-03
    0.2500000000E+08    0.5969363000E-06    0.6953066172E+00    0.9846216493E-04    0.6663317323E+00    0.7673914050E-03
    0.2700000000E+08    0.5370563459E-06    0.6953035078E+00    0.9107895686E-04    0.6663889020E+00    0.7706781242E-03
