  Pressure (Pa) 22mC5-500 (mol/kg) 24mC5-500 (mol/kg) 2mC6-500 (mol/kg) 3mC6-500 (mol/kg) C7-500 (mol/kg)
    0.1000000000E+01    0.1589204195E-04    0.1266287592E+00    0.1777843700E-04    0.8979587860E-06    0.4169212515E-02
    0.3000000000E+01    0.3284835601E-04    0.2785080904E+00    0.3508341304E-04    0.2258983739E-05    0.4197431638E-02
    0.5000000000E+01    0.4146358901E-04    0.3664040014E+00    0.4321302405E-04    0.3502104574E-05    0.4210202445E-02
    0.7000000000E+01    0.4654269115E-04    0.4237157185E+00    0.4797278818E-04    0.4688786144E-05    0.4218054607E-02
    0.9000000000E+01    0.4988430163E-04    0.4640415294E+00    0.5133408257E-04    0.5839579018E-05    0.4223392458E-02
    0.1100000000E+02    0.5228947770E-04    0.4939586603E+00    0.5408552464E-04    0.6964717814E-05    0.4227234550E-02
    0.1300000000E+02    0.5415787575E-04    0.5170366801E+00    0.5657569304E-04    0.8070274198E-05    0.4230105913E-02
    0.1500000000E+02    0.5570558698E-04    0.5353803422E+00    0.5896845216E-04    0.9160238978E-05    0.4232308590E-02
    0.1700000000E+02    0.5705662933E-04    0.5503110667E+00    0.6134334821E-04    0.1023742016E-04    0.4234029778E-02
    0.1900000000E+02    0.5828548904E-04    0.5627003472E+00    0.6373908398E-04    0.1130389233E-04    0.4235392086E-02
    0.2100000000E+02    0.5943850494E-04    0.5731462258E+00    0.6617375240E-04    0.1236124560E-04    0.4236479356E-02
    0.2300000000E+02    0.6054530234E-04    0.5820727468E+00    0.6865478492E-04    0.1341073428E-04    0.4237350951E-02
    0.2500000000E+02    0.6162522076E-04    0.5897889472E+00    0.7118405131E-04    0.1445337095E-04    0.4238050131E-02
    0.2700000000E+02    0.6269108020E-04    0.5965253717E+00    0.7376055575E-04    0.1548998871E-04    0.4238609196E-02
    0.2900000000E+02    0.6375146613E-04    0.6024575055E+00    0.7638189237E-04    0.1652128397E-04    0.4239052767E-02
    0.3100000000E+02    0.6481215721E-04    0.6077212856E+00    0.7904503949E-04    0.1754784683E-04    0.4239399950E-02
    0.3300000000E+02    0.6587704021E-04    0.6124236479E+00    0.8174679246E-04    0.1857018315E-04    0.4239665810E-02
    0.3500000000E+02    0.6694870918E-04    0.6166498697E+00    0.8448399545E-04    0.1958873098E-04    0.4239862388E-02
    0.3700000000E+02    0.6802886520E-04    0.6204687888E+00    0.8725366001E-04    0.2060387303E-04    0.4239999429E-02
    0.3900000000E+02    0.6911858756E-04    0.6239365830E+00    0.9005301959E-04    0.2161594636E-04    0.4240084906E-02
    0.4100000000E+02    0.7021852021E-04    0.6270995526E+00    0.9287954819E-04    0.2262524984E-04    0.4240125409E-02
    0.4300000000E+02    0.7132900160E-04    0.6299962000E+00    0.9573095918E-04    0.2363205023E-04    0.4240126430E-02
    0.4500000000E+02    0.7245015591E-04    0.6326588050E+00    0.9860519359E-04    0.2463658694E-04    0.4240092591E-02
    0.4700000000E+02    0.7358195783E-04    0.6351146332E+00    0.1015004035E-03    0.2563907599E-04    0.4240027801E-02
    0.4900000000E+02    0.7472427878E-04    0.6373868730E+00    0.1044149335E-03    0.2663971317E-04    0.4239935398E-02
    0.1000000000E+02    0.5117303753E-04    0.4800319071E+00    0.5275808286E-04    0.6404911353E-05    0.4225460497E-02
    0.3000000000E+02    0.6428149447E-04    0.6051656750E+00    0.7770843905E-04    0.1703512358E-04    0.4239237384E-02
    0.5000000000E+02    0.7529932384E-04    0.6384604630E+00    0.1058789742E-03    0.2713939365E-04    0.4239879752E-02
    0.7000000000E+02    0.8728888797E-04    0.6538805450E+00    0.1358892615E-03    0.3707187780E-04    0.4237836960E-02
    0.9000000000E+02    0.1000268843E-03    0.6627743997E+00    0.1668483305E-03    0.4695421705E-04    0.4234756407E-02
    0.1100000000E+03    0.1133182884E-03    0.6685616450E+00    0.1984435466E-03    0.5684878870E-04    0.4231145993E-02
    0.1300000000E+03    0.1270494731E-03    0.6726280143E+00    0.2305594292E-03    0.6679408361E-04    0.4227214225E-02
    0.1500000000E+03    0.1411553073E-03    0.6756417483E+00    0.2631561556E-03    0.7681673950E-04    0.4223061864E-02
    0.1700000000E+03    0.1555981218E-03    0.6779647500E+00    0.2962262259E-03    0.8693674190E-04    0.4218742919E-02
    0.1900000000E+03    0.1703563060E-03    0.6798100775E+00    0.3297770798E-03    0.9717002851E-04    0.4214288385E-02
    0.2100000000E+03    0.1854180585E-03    0.6813113323E+00    0.3638234697E-03    0.1075299328E-03    0.4209716836E-02
    0.2300000000E+03    0.2007778328E-03    0.6825565410E+00    0.3983838933E-03    0.1180280468E-03    0.4205039662E-02
    0.2500000000E+03    0.2164342357E-03    0.6836060618E+00    0.4334788494E-03    0.1286747685E-03    0.4200263853E-02
    0.2700000000E+03    0.2323887407E-03    0.6845026636E+00    0.4691299674E-03    0.1394796648E-03    0.4195393576E-02
    0.2900000000E+03    0.2486448754E-03    0.6852774980E+00    0.5053595736E-03    0.1504517238E-03    0.4190431117E-02
    0.3100000000E+03    0.2652076954E-03    0.6859537934E+00    0.5421904860E-03    0.1615995349E-03    0.4185377460E-02
    0.3300000000E+03    0.2820834366E-03    0.6865492231E+00    0.5796459292E-03    0.1729314220E-03    0.4180232657E-02
    0.3500000000E+03    0.2992792820E-03    0.6870774723E+00    0.6177495163E-03    0.1844555450E-03    0.4174996077E-02
    0.3700000000E+03    0.3168032032E-03    0.6875493033E+00    0.6565252664E-03    0.1961799789E-03    0.4169666567E-02
    0.3900000000E+03    0.3346638528E-03    0.6879732959E+00    0.6959976426E-03    0.2081127770E-03    0.4164242566E-02
    0.4100000000E+03    0.3528704918E-03    0.6883563741E+00    0.7361915998E-03    0.2202620231E-03    0.4158722182E-02
    0.4300000000E+03    0.3714329411E-03    0.6887041873E+00    0.7771326397E-03    0.2326358752E-03    0.4153103252E-02
    0.4500000000E+03    0.3903615509E-03    0.6890213905E+00    0.8188468676E-03    0.2452426034E-03    0.4147383374E-02
    0.4700000000E+03    0.4096671826E-03    0.6893118539E+00    0.8613610517E-03    0.2580906227E-03    0.4141559942E-02
    0.4900000000E+03    0.4293612007E-03    0.6895788217E+00    0.9047026826E-03    0.2711885228E-03    0.4135630159E-02
    0.1000000000E+03    0.1066119871E-03    0.6659448783E+00    0.1825762332E-03    0.5189720020E-04    0.4233000690E-02
    0.3000000000E+03    0.2568875844E-03    0.6856267497E+00    0.5236984241E-03    0.1560031351E-03    0.4187915667E-02
    0.5000000000E+03    0.4393575431E-03    0.6897043679E+00    0.9266925941E-03    0.2778339171E-03    0.4132624465E-02
    0.7000000000E+03    0.6628988462E-03    0.6914667916E+00    0.1417428588E-02    0.4261749248E-03    0.4066102597E-02
    0.9000000000E+03    0.9429127606E-03    0.6924497296E+00    0.2031079446E-02    0.6118371376E-03    0.3984389234E-02
    0.1100000000E+04    0.1302652605E-02    0.6930766094E+00    0.2819278299E-02    0.8505798902E-03    0.3881482780E-02
    0.1300000000E+04    0.1778158221E-02    0.6935111973E+00    0.3861639109E-02    0.1166702364E-02    0.3748254685E-02
    0.1500000000E+04    0.2426936713E-02    0.6938301817E+00    0.5285171946E-02    0.1599019824E-02    0.3570500736E-02
    0.1700000000E+04    0.3342320080E-02    0.6940742585E+00    0.7296337565E-02    0.2210757510E-02    0.3325941646E-02
    0.1900000000E+04    0.4672642516E-02    0.6942670292E+00    0.1022431111E-01    0.3103048929E-02    0.2981016659E-02
    0.2100000000E+04    0.6623196185E-02    0.6944231232E+00    0.1452774946E-01    0.4417736100E-02    0.2494257896E-02
    0.2300000000E+04    0.9342375441E-02    0.6945520916E+00    0.2054822957E-01    0.6263430564E-02    0.1851058604E-02
    0.2500000000E+04    0.1255744271E-01    0.6946604342E+00    0.2770728368E-01    0.8470395699E-02    0.1151711790E-02
    0.2700000000E+04    0.1544849584E-01    0.6947527281E+00    0.3420912607E-01    0.1049399329E-01    0.6089727437E-03
    0.2900000000E+04    0.1750316606E-01    0.6948322898E+00    0.3890945317E-01    0.1198056084E-01    0.3160484532E-03
    0.3100000000E+04    0.1890092484E-01    0.6949015809E+00    0.4218449610E-01    0.1303921322E-01    0.1929743555E-03
    0.3300000000E+04    0.1995879817E-01    0.6949624669E+00    0.4472435661E-01    0.1387803998E-01    0.1471757468E-03
    0.3500000000E+04    0.2085944524E-01    0.6950163877E+00    0.4692934167E-01    0.1461857181E-01    0.1309828586E-03
    0.3700000000E+04    0.2168149132E-01    0.6950644719E+00    0.4897214106E-01    0.1531336401E-01    0.1254583510E-03
    0.3900000000E+04    0.2245607598E-01    0.6951076169E+00    0.5092094956E-01    0.1598312415E-01    0.1237113642E-03
    0.4100000000E+04    0.2319565867E-01    0.6951465453E+00    0.5280269857E-01    0.1663593497E-01    0.1232968982E-03
    0.4300000000E+04    0.2390565755E-01    0.6951818451E+00    0.5462873318E-01    0.1727509917E-01    0.1233500311E-03
    0.4500000000E+04    0.2458884091E-01    0.6952140001E+00    0.5640453970E-01    0.1790212331E-01    0.1235635140E-03
    0.4700000000E+04    0.2524695371E-01    0.6952434117E+00    0.5813336099E-01    0.1851783070E-01    0.1238276681E-03
    0.4900000000E+04    0.2588132018E-01    0.6952704158E+00    0.5981753906E-01    0.1912277576E-01    0.1241033240E-03
    0.1000000000E+04    0.1110943114E-02    0.6927943847E+00    0.2399217876E-02    0.7233095781E-03    0.3936064301E-02
    0.3000000000E+04    0.1826184633E-01    0.6948680909E+00    0.4067672751E-01    0.1254882930E-01    0.2401152181E-03
    0.5000000000E+04    0.2618995621E-01    0.6952831053E+00    0.6064350368E-01    0.1942135266E-01    0.1242406956E-03
    0.7000000000E+04    0.3134801519E-01    0.6954605252E+00    0.7521513212E-01    0.2491604386E-01    0.1265980695E-03
    0.9000000000E+04    0.3503659613E-01    0.6955587773E+00    0.8687396641E-01    0.2967989141E-01    0.1283882835E-03
    0.1100000000E+05    0.3772388999E-01    0.6956210804E+00    0.9644352626E-01    0.3389966302E-01    0.1298341333E-03
    0.1300000000E+05    0.3970477663E-01    0.6956640516E+00    0.1044595049E+00    0.3770008117E-01    0.1310492268E-03
    0.1500000000E+05    0.4117320296E-01    0.6956954405E+00    0.1112860127E+00    0.4116807919E-01    0.1320985567E-03
    0.1700000000E+05    0.4226131270E-01    0.6957193469E+00    0.1171795714E+00    0.4436640355E-01    0.1330228677E-03
    0.1900000000E+05    0.4306181892E-01    0.6957381422E+00    0.1223263891E+00    0.4734167976E-01    0.1338494248E-03
    0.2100000000E+05    0.4364139739E-01    0.6957532930E+00    0.1268650973E+00    0.5012941702E-01    0.1345973890E-03
    0.2300000000E+05    0.4404902086E-01    0.6957657548E+00    0.1309011711E+00    0.5275723457E-01    0.1352807508E-03
    0.2500000000E+05    0.4432131944E-01    0.6957761768E+00    0.1345163831E+00    0.5524701050E-01    0.1359100431E-03
    0.2700000000E+05    0.4448612805E-01    0.6957850151E+00    0.1377751819E+00    0.5761635388E-01    0.1364933982E-03
    0.2900000000E+05    0.4456489326E-01    0.6957925999E+00    0.1407291053E+00    0.5987963847E-01    0.1370372282E-03
    0.3100000000E+05    0.4457434243E-01    0.6957991756E+00    0.1434199025E+00    0.6204874448E-01    0.1375466803E-03
    0.3300000000E+05    0.4452766401E-01    0.6958049275E+00    0.1458817856E+00    0.6413360126E-01    0.1380259497E-03
    0.3500000000E+05    0.4443535676E-01    0.6958099980E+00    0.1481430832E+00    0.6614259114E-01    0.1384785022E-03
    0.3700000000E+05    0.4430585032E-01    0.6958144988E+00    0.1502274733E+00    0.6808285471E-01    0.1389072341E-03
    0.3900000000E+05    0.4414596517E-01    0.6958185186E+00    0.1521549163E+00    0.6996052489E-01    0.1393145913E-03
    0.4100000000E+05    0.4396125792E-01    0.6958221286E+00    0.1539423701E+00    0.7178090856E-01    0.1397026586E-03
    0.4300000000E+05    0.4375628349E-01    0.6958253866E+00    0.1556043448E+00    0.7354862927E-01    0.1400732272E-03
    0.4500000000E+05    0.4353479636E-01    0.6958283404E+00    0.1571533376E+00    0.7526774056E-01    0.1404278480E-03
    0.4700000000E+05    0.4329990663E-01    0.6958310292E+00    0.1586001769E+00    0.7694181674E-01    0.1407678727E-03
    0.4900000000E+05    0.4305420193E-01    0.6958334860E+00    0.1599542980E+00    0.7857402636E-01    0.1410944870E-03
    0.1000000000E+05    0.3648398158E-01    0.6955930721E+00    0.9188138731E-01    0.3184889180E-01    0.1291455659E-03
    0.3000000000E+05    0.4457738640E-01    0.6957960012E+00    0.1421051016E+00    0.6097530278E-01    0.1372959699E-03
    0.5000000000E+05    0.4292798386E-01    0.6958346362E+00    0.1605992123E+00    0.7937532540E-01    0.1412530967E-03
    0.7000000000E+05    0.4020573330E-01    0.6958503473E+00    0.1701837171E+00    0.9375156529E-01    0.1439207605E-03
    0.9000000000E+05    0.3753417506E-01    0.6958585953E+00    0.1758364007E+00    0.1058967094E+00    0.1459457644E-03
    0.1100000000E+06    0.3511287459E-01    0.6958635328E+00    0.1793617250E+00    0.1165748237E+00    0.1475829936E-03
    0.1300000000E+06    0.3295710980E-01    0.6958667323E+00    0.1815935886E+00    0.1261919859E+00    0.1489598749E-03
    0.1500000000E+06    0.3104079756E-01    0.6958689163E+00    0.1829775964E+00    0.1349940850E+00    0.1501494946E-03
    0.1700000000E+06    0.2933129244E-01    0.6958704609E+00    0.1837761236E+00    0.1431434176E+00    0.1511977519E-03
    0.1900000000E+06    0.2779840678E-01    0.6958715804E+00    0.1841547647E+00    0.1507538612E+00    0.1521354002E-03
    0.2100000000E+06    0.2641635157E-01    0.6958724050E+00    0.1842236207E+00    0.1579090457E+00    0.1529840731E-03
    0.2300000000E+06    0.2516365162E-01    0.6958730183E+00    0.1840589186E+00    0.1646725921E+00    0.1537595782E-03
    0.2500000000E+06    0.2402254226E-01    0.6958734761E+00    0.1837151657E+00    0.1710942781E+00    0.1544738239E-03
    0.2700000000E+06    0.2297831101E-01    0.6958738168E+00    0.1832323773E+00    0.1772139514E+00    0.1551360089E-03
    0.2900000000E+06    0.2201871724E-01    0.6958740679E+00    0.1826405772E+00    0.1830641224E+00    0.1557533895E-03
    0.3100000000E+06    0.2113351521E-01    0.6958742493E+00    0.1819627091E+00    0.1886717442E+00    0.1563317921E-03
    0.3300000000E+06    0.2031407252E-01    0.6958743757E+00    0.1812165808E+00    0.1940594704E+00    0.1568759675E-03
    0.3500000000E+06    0.1955306779E-01    0.6958744583E+00    0.1804161992E+00    0.1992465682E+00    0.1573898409E-03
    0.3700000000E+06    0.1884425139E-01    0.6958745057E+00    0.1795727088E+00    0.2042495947E+00    0.1578766939E-03
    0.3900000000E+06    0.1818225553E-01    0.6958745247E+00    0.1786950654E+00    0.2090829087E+00    0.1583392980E-03
    0.4100000000E+06    0.1756244287E-01    0.6958745203E+00    0.1777905287E+00    0.2137590636E+00    0.1587800158E-03
    0.4300000000E+06    0.1698078502E-01    0.6958744968E+00    0.1768650275E+00    0.2182891137E+00    0.1592008779E-03
    0.4500000000E+06    0.1643376452E-01    0.6958744576E+00    0.1759234362E+00    0.2226828570E+00    0.1596036425E-03
    0.4700000000E+06    0.1591829509E-01    0.6958744054E+00    0.1749697849E+00    0.2269490289E+00    0.1599898423E-03
    0.4900000000E+06    0.1543165654E-01    0.6958743424E+00    0.1740074223E+00    0.2310954590E+00    0.1603608217E-03
    0.1000000000E+06    0.3628955531E-01    0.6958613495E+00    0.1777999160E+00    0.1113886265E+00    0.1468031145E-03
    0.3000000000E+06    0.2156739071E-01    0.6958741663E+00    0.1823111863E+00    0.1858967474E+00    0.1560471443E-03
    0.5000000000E+06    0.1519838549E-01    0.6958743074E+00    0.1735238661E+00    0.2331260019E+00    0.1605409797E-03
    0.7000000000E+06    0.1158600696E-01    0.6958733470E+00    0.1638724723E+00    0.2688497794E+00    0.1635713814E-03
    0.9000000000E+06    0.9248215981E-02    0.6958722406E+00    0.1548008615E+00    0.2977147101E+00    0.1658720496E-03
    0.1100000000E+07    0.7613043660E-02    0.6958711677E+00    0.1465375416E+00    0.3218985496E+00    0.1677322970E-03
    0.1300000000E+07    0.6408579989E-02    0.6958701670E+00    0.1390612105E+00    0.3426411410E+00    0.1692968085E-03
    0.1500000000E+07    0.5487729092E-02    0.6958692423E+00    0.1322939650E+00    0.3607313419E+00    0.1706485846E-03
    0.1700000000E+07    0.4763552438E-02    0.6958683879E+00    0.1261510772E+00    0.3767087277E+00    0.1718397577E-03
    0.1900000000E+07    0.4181232646E-02    0.6958675964E+00    0.1205546616E+00    0.3909616319E+00    0.1729052612E-03
    0.2100000000E+07    0.3704451943E-02    0.6958668602E+00    0.1154367507E+00    0.4037802875E+00    0.1738696703E-03
    0.2300000000E+07    0.3308187616E-02    0.6958661728E+00    0.1107390986E+00    0.4153880157E+00    0.1747509433E-03
    0.2500000000E+07    0.2974641446E-02    0.6958655285E+00    0.1064120492E+00    0.4259606773E+00    0.1755626094E-03
    0.2700000000E+07    0.2690814890E-02    0.6958649223E+00    0.1024132519E+00    0.4356393982E+00    0.1763151197E-03
    0.2900000000E+07    0.2447000548E-02    0.6958643501E+00    0.9870647941E-01    0.4445392226E+00    0.1770167183E-03
    0.3100000000E+07    0.2235808974E-02    0.6958638083E+00    0.9526061473E-01    0.4527551885E+00    0.1776740254E-03
    0.3300000000E+07    0.2051521191E-02    0.6958632938E+00    0.9204880679E-01    0.4603667074E+00    0.1782924389E-03
    0.3500000000E+07    0.1889646319E-02    0.6958628042E+00    0.8904777626E-01    0.4674407959E+00    0.1788764190E-03
    0.3700000000E+07    0.1746612282E-02    0.6958623369E+00    0.8623724628E-01    0.4740345048E+00    0.1794296941E-03
    0.3900000000E+07    0.1619545135E-02    0.6958618902E+00    0.8359947554E-01    0.4801967786E+00    0.1799554137E-03
    0.4100000000E+07    0.1506108753E-02    0.6958614622E+00    0.8111887424E-01    0.4859698985E+00    0.1804562622E-03
    0.4300000000E+07    0.1404386496E-02    0.6958610514E+00    0.7878168700E-01    0.4913906173E+00    0.1809345471E-03
    0.4500000000E+07    0.1312792591E-02    0.6958606565E+00    0.7657572993E-01    0.4964910633E+00    0.1813922662E-03
    0.4700000000E+07    0.1230004899E-02    0.6958602762E+00    0.7449017142E-01    0.5012994670E+00    0.1818311612E-03
    0.4900000000E+07    0.1154913292E-02    0.6958599095E+00    0.7251534871E-01    0.5058407509E+00    0.1822527597E-03
    0.1000000000E+07    0.8363917737E-02    0.6958716962E+00    0.1505671011E+00    0.3103001561E+00    0.1668461717E-03
    0.3000000000E+07    0.2337717531E-02    0.6958640756E+00    0.9695270297E-01    0.4487274009E+00    0.1773505461E-03
    0.5000000000E+07    0.1119954533E-02    0.6958597310E+00    0.7156672476E-01    0.5080182275E+00    0.1824575001E-03
    0.7000000000E+07    0.6590903132E-03    0.6958566873E+00    0.5672326384E-01    0.5417850572E+00    0.1859014162E-03
    0.9000000000E+07    0.4344462896E-03    0.6958543350E+00    0.4696990411E-01    0.5636993741E+00    0.1885160411E-03
    0.1100000000E+08    0.3079628871E-03    0.6958524130E+00    0.4006879057E-01    0.5790936498E+00    0.1906301516E-03
    0.1300000000E+08    0.2296837125E-03    0.6958507853E+00    0.3492802900E-01    0.5905071520E+00    0.1924081714E-03
    0.1500000000E+08    0.1778674004E-03    0.6958493719E+00    0.3095045340E-01    0.5993088891E+00    0.1939444259E-03
    0.1700000000E+08    0.1417934792E-03    0.6958481218E+00    0.2778167946E-01    0.6063036634E+00    0.1952981608E-03
    0.1900000000E+08    0.1156724169E-03    0.6958470002E+00    0.2519802964E-01    0.6119960611E+00    0.1965090762E-03
    0.2100000000E+08    0.9615238407E-04    0.6958459827E+00    0.2305133610E-01    0.6167186690E+00    0.1976051010E-03
    0.2300000000E+08    0.8118296917E-04    0.6958450510E+00    0.2123955000E-01    0.6206996723E+00    0.1986066441E-03
    0.2500000000E+08    0.6945243475E-04    0.6958441915E+00    0.1969009173E-01    0.6241008654E+00    0.1995290809E-03
    0.2700000000E+08    0.6008983010E-04    0.6958433934E+00    0.1834993003E-01    0.6270401711E+00    0.2003842887E-03
