  Pressure (Pa) 22mC5-500 (mol/kg) 24mC5-500 (mol/kg) 2mC6-500 (mol/kg) 3mC6-500 (mol/kg) C7-500 (mol/kg)
    0.1000000000E+01    0.1862888789E-04    0.3665911815E-01    0.7008631187E-05    0.4802953498E-05    0.4197417792E-02
    0.3000000000E+01    0.4919426053E-04    0.9947954062E-01    0.1809161259E-04    0.1228915345E-04    0.4265537046E-02
    0.5000000000E+01    0.7336430484E-04    0.1513524153E+00    0.2653763289E-04    0.1918118735E-04    0.4319131946E-02
    0.7000000000E+01    0.9285064385E-04    0.1949104321E+00    0.3311680915E-04    0.2578931839E-04    0.4363934653E-02
    0.9000000000E+01    0.1088056469E-03    0.2320047411E+00    0.3833188002E-04    0.3221818701E-04    0.4402107939E-02
    0.1100000000E+02    0.1220423836E-03    0.2639749295E+00    0.4252976438E-04    0.3852013556E-04    0.4435065748E-02
    0.1300000000E+02    0.1331509483E-03    0.2918143168E+00    0.4595701033E-04    0.4472630778E-04    0.4463826233E-02
    0.1500000000E+02    0.1425692259E-03    0.3162750484E+00    0.4879274976E-04    0.5085721965E-04    0.4489151992E-02
    0.1700000000E+02    0.1506282712E-03    0.3379371040E+00    0.5116951700E-04    0.5692733298E-04    0.4511628481E-02
    0.1900000000E+02    0.1575824319E-03    0.3572548930E+00    0.5318689722E-04    0.6294734909E-04    0.4531713652E-02
    0.2100000000E+02    0.1636298958E-03    0.3745894944E+00    0.5492072700E-04    0.6892548215E-04    0.4549771307E-02
    0.2300000000E+02    0.1689270294E-03    0.3902314485E+00    0.5642943999E-04    0.7486822053E-04    0.4566094317E-02
    0.2500000000E+02    0.1735985840E-03    0.4044171807E+00    0.5775853014E-04    0.8078080914E-04    0.4580921224E-02
    0.2700000000E+02    0.1777450874E-03    0.4173410400E+00    0.5894374505E-04    0.8666756907E-04    0.4594448344E-02
    0.2900000000E+02    0.1814482826E-03    0.4291642618E+00    0.6001340584E-04    0.9253211752E-04    0.4606838767E-02
    0.3100000000E+02    0.1847751844E-03    0.4400217318E+00    0.6099011546E-04    0.9837752385E-04    0.4618229127E-02
    0.3300000000E+02    0.1877811453E-03    0.4500271579E+00    0.6189203232E-04    0.1042064233E-03    0.4628734787E-02
    0.3500000000E+02    0.1905121983E-03    0.4592770701E+00    0.6273383045E-04    0.1100211014E-03    0.4638453834E-02
    0.3700000000E+02    0.1930068670E-03    0.4678539458E+00    0.6352743075E-04    0.1158235586E-03    0.4647470214E-02
    0.3900000000E+02    0.1952975774E-03    0.4758286778E+00    0.6428256318E-04    0.1216155596E-03    0.4655856204E-02
    0.4100000000E+02    0.1974117690E-03    0.4832625391E+00    0.6500720266E-04    0.1273986726E-03    0.4663674376E-02
    0.4300000000E+02    0.1993727766E-03    0.4902087612E+00    0.6570790970E-04    0.1331742998E-03    0.4670979182E-02
    0.4500000000E+02    0.2012005356E-03    0.4967138115E+00    0.6639009867E-04    0.1389437026E-03    0.4677818238E-02
    0.4700000000E+02    0.2029121497E-03    0.5028184349E+00    0.6705825032E-04    0.1447080217E-03    0.4684233365E-02
    0.4900000000E+02    0.2045223515E-03    0.5085585078E+00    0.6771608145E-04    0.1504682937E-03    0.4690261450E-02
    0.1000000000E+02    0.1157226787E-03    0.2485616042E+00    0.4054067100E-04    0.3538275150E-04    0.4419167948E-02
    0.3000000000E+02    0.1831550678E-03    0.4347061644E+00    0.6051215302E-04    0.9545703968E-04    0.4612651298E-02
    0.5000000000E+02    0.2052934723E-03    0.5113018945E+00    0.6804211346E-04    0.1533472109E-03    0.4693140709E-02
    0.7000000000E+02    0.2177149767E-03    0.5530744315E+00    0.7454055116E-04    0.2109058731E-03    0.4736651992E-02
    0.9000000000E+02    0.2276501631E-03    0.5793750912E+00    0.8155135545E-04    0.2687879557E-03    0.4763230118E-02
    0.1100000000E+03    0.2371858105E-03    0.5974573370E+00    0.8927574202E-04    0.3273444432E-03    0.4780523419E-02
    0.1300000000E+03    0.2470329383E-03    0.6106531391E+00    0.9767799082E-04    0.3868052134E-03    0.4792104474E-02
    0.1500000000E+03    0.2574511683E-03    0.6207076410E+00    0.1066897271E-03    0.4473412780E-03    0.4799873758E-02
    0.1700000000E+03    0.2685337841E-03    0.6286233292E+00    0.1162513628E-03    0.5090917334E-03    0.4804938585E-02
    0.1900000000E+03    0.2803093158E-03    0.6350171123E+00    0.1263183287E-03    0.5721773166E-03    0.4807988970E-02
    0.2100000000E+03    0.2927813538E-03    0.6402894437E+00    0.1368595441E-03    0.6367079863E-03    0.4809477547E-02
    0.2300000000E+03    0.3059451201E-03    0.6447116037E+00    0.1478546714E-03    0.7027875256E-03    0.4809713388E-02
    0.2500000000E+03    0.3197945745E-03    0.6484738988E+00    0.1592916786E-03    0.7705165329E-03    0.4808914336E-02
    0.2700000000E+03    0.3343254486E-03    0.6517137770E+00    0.1711649628E-03    0.8399944859E-03    0.4807237830E-02
    0.2900000000E+03    0.3495364685E-03    0.6545329891E+00    0.1834739703E-03    0.9113212489E-03    0.4804799898E-02
    0.3100000000E+03    0.3654297635E-03    0.6570084713E+00    0.1962222007E-03    0.9845982314E-03    0.4801687312E-02
    0.3300000000E+03    0.3820109161E-03    0.6591994756E+00    0.2094164939E-03    0.1059929326E-02    0.4797965614E-02
    0.3500000000E+03    0.3992888673E-03    0.6611523747E+00    0.2230665215E-03    0.1137421707E-02    0.4793684567E-02
    0.3700000000E+03    0.4172757778E-03    0.6629039813E+00    0.2371844298E-03    0.1217186534E-02    0.4788881949E-02
    0.3900000000E+03    0.4359868916E-03    0.6644838910E+00    0.2517845906E-03    0.1299339605E-02    0.4783586237E-02
    0.4100000000E+03    0.4554404218E-03    0.6659161683E+00    0.2668834356E-03    0.1384001984E-02    0.4777818556E-02
    0.4300000000E+03    0.4756574689E-03    0.6672205812E+00    0.2824993529E-03    0.1471300605E-02    0.4771594091E-02
    0.4500000000E+03    0.4966619714E-03    0.6684135190E+00    0.2986526310E-03    0.1561368889E-02    0.4764923148E-02
    0.4700000000E+03    0.5184806896E-03    0.6695086848E+00    0.3153654426E-03    0.1654347375E-02    0.4757811945E-02
    0.4900000000E+03    0.5411432209E-03    0.6705176240E+00    0.3326618588E-03    0.1750384363E-02    0.4750263196E-02
    0.1000000000E+03    0.2324072276E-03    0.5891823137E+00    0.8532481926E-04    0.2979656852E-03    0.4772758558E-02
    0.3000000000E+03    0.3573975629E-03    0.6558096438E+00    0.1897928266E-03    0.9477095375E-03    0.4803323417E-02
    0.5000000000E+03    0.5528009519E-03    0.6709928791E+00    0.3415369698E-03    0.1799598432E-02    0.4746324749E-02
    0.7000000000E+03    0.8401158262E-03    0.6777179093E+00    0.5573617289E-03    0.2989197908E-02    0.4643066605E-02
    0.9000000000E+03    0.1274509695E-02    0.6815122805E+00    0.8792554729E-03    0.4755319404E-02    0.4480215467E-02
    0.1100000000E+04    0.1971194200E-02    0.6839486238E+00    0.1392726677E-02    0.7571266899E-02    0.4219210313E-02
    0.1300000000E+04    0.3171565812E-02    0.6856451176E+00    0.2276430991E-02    0.1242476139E-01    0.3779941449E-02
    0.1500000000E+04    0.5318221098E-02    0.6868941876E+00    0.3859897025E-02    0.2114924236E-01    0.3030520625E-02
    0.1700000000E+04    0.8594840175E-02    0.6878521006E+00    0.6291077353E-02    0.3462767603E-01    0.1985371092E-02
    0.1900000000E+04    0.1157393001E-01    0.6886099486E+00    0.8532974395E-02    0.4722706631E-01    0.1210012775E-02
    0.2100000000E+04    0.1328151087E-01    0.6892244181E+00    0.9858523242E-02    0.5489210099E-01    0.9471913628E-03
    0.2300000000E+04    0.1436829418E-01    0.6897326318E+00    0.1073595508E-01    0.6014287232E-01    0.8916017319E-03
    0.2500000000E+04    0.1526125186E-01    0.6901599178E+00    0.1147749356E-01    0.6468728943E-01    0.8838822337E-03
    0.2700000000E+04    0.1607647657E-01    0.6905241487E+00    0.1216822985E-01    0.6899216742E-01    0.8855643050E-03
    0.2900000000E+04    0.1684147853E-01    0.6908382970E+00    0.1282801628E-01    0.7316499711E-01    0.8888801596E-03
    0.3100000000E+04    0.1756401770E-01    0.6911120060E+00    0.1346209691E-01    0.7723243897E-01    0.8923245312E-03
    0.3300000000E+04    0.1824754597E-01    0.6913525937E+00    0.1407254156E-01    0.8120362686E-01    0.8956228409E-03
    0.3500000000E+04    0.1889448418E-01    0.6915657136E+00    0.1466068514E-01    0.8508374466E-01    0.8987402233E-03
    0.3700000000E+04    0.1950692109E-01    0.6917558023E+00    0.1522764866E-01    0.8887693270E-01    0.9016865360E-03
    0.3900000000E+04    0.2008677002E-01    0.6919263904E+00    0.1577445458E-01    0.9258692489E-01    0.9044780388E-03
    0.4100000000E+04    0.2063581052E-01    0.6920803223E+00    0.1630205564E-01    0.9621719994E-01    0.9071301526E-03
    0.4300000000E+04    0.2115570466E-01    0.6922199153E+00    0.1681134475E-01    0.9977102658E-01    0.9096563829E-03
    0.4500000000E+04    0.2164800737E-01    0.6923470761E+00    0.1730316047E-01    0.1032514846E+00    0.9120684140E-03
    0.4700000000E+04    0.2211417475E-01    0.6924633879E+00    0.1777829128E-01    0.1066614798E+00    0.9143763790E-03
    0.4900000000E+04    0.2255557160E-01    0.6925701765E+00    0.1823747925E-01    0.1100037562E+00    0.9165891134E-03
    0.1000000000E+04    0.1579065203E-02    0.6828501853E+00    0.1103907279E-02    0.5987128679E-02    0.4365713279E-02
    0.3000000000E+04    0.1720779975E-01    0.6909797036E+00    0.1314811106E-01    0.7521116016E-01    0.8906137473E-03
    0.5000000000E+04    0.2276738427E-01    0.6926203559E+00    0.1846131472E-01    0.1116503161E+00    0.9176622281E-03
    0.7000000000E+04    0.2597513298E-01    0.6933215974E+00    0.2225093907E-01    0.1415867349E+00    0.9355899944E-03
    0.9000000000E+04    0.2776508107E-01    0.6937092245E+00    0.2503775204E-01    0.1669838483E+00    0.9490769503E-03
    0.1100000000E+05    0.2866461901E-01    0.6939544084E+00    0.2713037080E-01    0.1890448858E+00    0.9599243071E-03
    0.1300000000E+05    0.2898879740E-01    0.6941230240E+00    0.2872325462E-01    0.2085531129E+00    0.9690156163E-03
    0.1500000000E+05    0.2893427125E-01    0.6942458019E+00    0.2994504967E-01    0.2260435517E+00    0.9768516179E-03
    0.1700000000E+05    0.2862813046E-01    0.6943389967E+00    0.3088431205E-01    0.2418964237E+00    0.9837441972E-03
    0.1900000000E+05    0.2815480687E-01    0.6944120077E+00    0.3160404207E-01    0.2563910615E+00    0.9899010638E-03
    0.2100000000E+05    0.2757163445E-01    0.6944706450E+00    0.3215031628E-01    0.2697385549E+00    0.9954676563E-03
    0.2300000000E+05    0.2691821909E-01    0.6945186917E+00    0.3255763428E-01    0.2821023435E+00    0.1000549859E-02
    0.2500000000E+05    0.2622227784E-01    0.6945587160E+00    0.3285235184E-01    0.2936116664E+00    0.1005227202E-02
    0.2700000000E+05    0.2550338628E-01    0.6945925215E+00    0.3305495515E-01    0.3043706156E+00    0.1009560972E-02
    0.2900000000E+05    0.2477544541E-01    0.6946214120E+00    0.3318160899E-01    0.3144643950E+00    0.1013599411E-02
    0.3100000000E+05    0.2404834161E-01    0.6946463529E+00    0.3324523627E-01    0.3239637483E+00    0.1017381191E-02
    0.3300000000E+05    0.2332908546E-01    0.6946680738E+00    0.3325628713E-01    0.3329281595E+00    0.1020937795E-02
    0.3500000000E+05    0.2262260618E-01    0.6946871367E+00    0.3322329743E-01    0.3414082079E+00    0.1024295204E-02
    0.3700000000E+05    0.2193231420E-01    0.6947039808E+00    0.3315330135E-01    0.3494473331E+00    0.1027475110E-02
    0.3900000000E+05    0.2126050464E-01    0.6947189547E+00    0.3305214099E-01    0.3570831766E+00    0.1030495819E-02
    0.4100000000E+05    0.2060865000E-01    0.6947323381E+00    0.3292470195E-01    0.3643486170E+00    0.1033372920E-02
    0.4300000000E+05    0.1997761471E-01    0.6947443583E+00    0.3277509501E-01    0.3712725789E+00    0.1036119800E-02
    0.4500000000E+05    0.1936781351E-01    0.6947552018E+00    0.3260679770E-01    0.3778806729E+00    0.1038748042E-02
    0.4700000000E+05    0.1877932953E-01    0.6947650229E+00    0.3242276601E-01    0.3841957072E+00    0.1041267739E-02
    0.4900000000E+05    0.1821200258E-01    0.6947739504E+00    0.3222552324E-01    0.3902381013E+00    0.1043687735E-02
    0.1000000000E+05    0.2830288929E-01    0.6938442694E+00    0.2615672469E-01    0.1783751129E+00    0.9547627958E-03
    0.3000000000E+05    0.2441129398E-01    0.6946343260E+00    0.3322059724E-01    0.3192844243E+00    0.1015520269E-02
    0.5000000000E+05    0.1793617313E-01    0.6947781135E+00    0.3212263579E-01    0.3931628704E+00    0.1044862818E-02
    0.7000000000E+05    0.1340127871E-01    0.6948335093E+00    0.2975842464E-01    0.4409771322E+00    0.1064617244E-02
    0.9000000000E+05    0.1030452975E-01    0.6948607451E+00    0.2731553730E-01    0.4747253662E+00    0.1079603206E-02
    0.1100000000E+06    0.8136718710E-02    0.6948757821E+00    0.2507603534E-01    0.4998410923E+00    0.1091714973E-02
    0.1300000000E+06    0.6572857710E-02    0.6948845791E+00    0.2309364214E-01    0.5192496399E+00    0.1101898267E-02
    0.1500000000E+06    0.5412701008E-02    0.6948898322E+00    0.2135656279E-01    0.5346855120E+00    0.1110695057E-02
    0.1700000000E+06    0.4530595843E-02    0.6948929231E+00    0.1983571555E-01    0.5472461031E+00    0.1118445509E-02
    0.1900000000E+06    0.3845413278E-02    0.6948946252E+00    0.1850017520E-01    0.5576601284E+00    0.1125377445E-02
    0.2100000000E+06    0.3303220906E-02    0.6948954006E+00    0.1732195940E-01    0.5664303358E+00    0.1131651077E-02
    0.2300000000E+06    0.2867176695E-02    0.6948955398E+00    0.1627714649E-01    0.5739146055E+00    0.1137383439E-02
    0.2500000000E+06    0.2511485018E-02    0.6948952328E+00    0.1534574158E-01    0.5803744734E+00    0.1142662683E-02
    0.2700000000E+06    0.2217680502E-02    0.6948946079E+00    0.1451116690E-01    0.5860054021E+00    0.1147556886E-02
    0.2900000000E+06    0.1972280457E-02    0.6948937541E+00    0.1375969495E-01    0.5909563358E+00    0.1152119745E-02
    0.3100000000E+06    0.1765263804E-02    0.6948927348E+00    0.1307993325E-01    0.5953427144E+00    0.1156394371E-02
    0.3300000000E+06    0.1589062288E-02    0.6948915956E+00    0.1246238918E-01    0.5992553603E+00    0.1160415910E-02
    0.3500000000E+06    0.1437877013E-02    0.6948903699E+00    0.1189911435E-01    0.6027666870E+00    0.1164213400E-02
    0.3700000000E+06    0.1307206307E-02    0.6948890827E+00    0.1138341796E-01    0.6059351227E+00    0.1167811115E-02
    0.3900000000E+06    0.1193513719E-02    0.6948877528E+00    0.1090963726E-01    0.6088083212E+00    0.1171229554E-02
    0.4100000000E+06    0.1093990735E-02    0.6948863943E+00    0.1047295372E-01    0.6114255282E+00    0.1174486190E-02
    0.4300000000E+06    0.1006384654E-02    0.6948850181E+00    0.1006924562E-01    0.6138193523E+00    0.1177596042E-02
    0.4500000000E+06    0.9288719965E-03    0.6948836325E+00    0.9694969409E-02    0.6160171071E+00    0.1180572111E-02
    0.4700000000E+06    0.8599642388E-03    0.6948822439E+00    0.9347063787E-02    0.6180418413E+00    0.1183425732E-02
    0.4900000000E+06    0.7984367785E-03    0.6948808574E+00    0.9022871825E-02    0.6199131381E+00    0.1186166844E-02
    0.1000000000E+06    0.9128492177E-02    0.6948693005E+00    0.2616448353E-01    0.4881418344E+00    0.1085946083E-02
    0.3000000000E+06    0.1864495449E-02    0.6948932620E+00    0.1341148360E-01    0.5932139243E+00    0.1154290729E-02
    0.5000000000E+06    0.7701165536E-03    0.6948801661E+00    0.8868932853E-02    0.6207965764E+00    0.1187497990E-02
    0.7000000000E+06    0.4176029611E-03    0.6948670100E+00    0.6604547076E-02    0.6334301354E+00    0.1209887563E-02
    0.9000000000E+06    0.2616522275E-03    0.6948554672E+00    0.5254398586E-02    0.6406635405E+00    0.1226884108E-02
    0.1100000000E+07    0.1793287976E-03    0.6948453961E+00    0.4359367227E-02    0.6453459971E+00    0.1240626144E-02
    0.1300000000E+07    0.1306618981E-03    0.6948365166E+00    0.3723095137E-02    0.6486233456E+00    0.1252182995E-02
    0.1500000000E+07    0.9952767264E-04    0.6948285933E+00    0.3247802190E-02    0.6510449367E+00    0.1262168037E-02
    0.1700000000E+07    0.7841430402E-04    0.6948214458E+00    0.2879393664E-02    0.6529069250E+00    0.1270966505E-02
    0.1900000000E+07    0.6343999786E-04    0.6948149373E+00    0.2585538919E-02    0.6543830165E+00    0.1278836528E-02
    0.2100000000E+07    0.5243517282E-04    0.6948089631E+00    0.2345736090E-02    0.6555818021E+00    0.1285959691E-02
    0.2300000000E+07    0.4411028046E-04    0.6948034417E+00    0.2146360264E-02    0.6565746440E+00    0.1292468680E-02
    0.2500000000E+07    0.3765985445E-04    0.6947983085E+00    0.1978005452E-02    0.6574103655E+00    0.1298463453E-02
    0.2700000000E+07    0.3255979072E-04    0.6947935118E+00    0.1833970204E-02    0.6581234946E+00    0.1304021227E-02
    0.2900000000E+07    0.2845716062E-04    0.6947890095E+00    0.1709351466E-02    0.6587391381E+00    0.1309202910E-02
    0.3100000000E+07    0.2510726121E-04    0.6947847670E+00    0.1600479686E-02    0.6592759883E+00    0.1314057411E-02
    0.3300000000E+07    0.2233610354E-04    0.6947807553E+00    0.1504554142E-02    0.6597482482E+00    0.1318624608E-02
    0.3500000000E+07    0.2001723621E-04    0.6947769502E+00    0.1419400358E-02    0.6601669022E+00    0.1322937451E-02
    0.3700000000E+07    0.1805696948E-04    0.6947733308E+00    0.1343304460E-02    0.6605405789E+00    0.1327023486E-02
    0.3900000000E+07    0.1638469222E-04    0.6947698796E+00    0.1274897435E-02    0.6608761501E+00    0.1330905978E-02
    0.4100000000E+07    0.1494637042E-04    0.6947665812E+00    0.1213072608E-02    0.6611791566E+00    0.1334604759E-02
    0.4300000000E+07    0.1370008623E-04    0.6947634224E+00    0.1156925723E-02    0.6614541147E+00    0.1338136874E-02
    0.4500000000E+07    0.1261291732E-04    0.6947603915E+00    0.1105710712E-02    0.6617047432E+00    0.1341517082E-02
    0.4700000000E+07    0.1165871522E-04    0.6947574783E+00    0.1058806585E-02    0.6619341314E+00    0.1344758249E-02
    0.4900000000E+07    0.1081649847E-04    0.6947546738E+00    0.1015692287E-02    0.6621448673E+00    0.1347871659E-02
    0.1000000000E+07    0.2146621999E-03    0.6948502657E+00    0.4765628864E-02    0.6432313078E+00    0.1234080239E-02
    0.3000000000E+07    0.2670032787E-04    0.6947868577E+00    0.1653139311E-02    0.6590164368E+00    0.1311668382E-02
    0.5000000000E+07    0.1043194396E-04    0.6947533098E+00    0.9954159736E-03    0.6622439367E+00    0.1349383612E-02
    0.7000000000E+07    0.5807621375E-05    0.6947301850E+00    0.7107899411E-03    0.6636323154E+00    0.1374815158E-02
    0.9000000000E+07    0.3850878072E-05    0.6947124405E+00    0.5521832599E-03    0.6644045242E+00    0.1394121760E-02
    0.1100000000E+08    0.2831677537E-05    0.6946979998E+00    0.4511577785E-03    0.6648961060E+00    0.1409731867E-02
    0.1300000000E+08    0.2227633512E-05    0.6946858011E+00    0.3812126628E-03    0.6652364475E+00    0.1422859905E-02
    0.1500000000E+08    0.1836541772E-05    0.6946752271E+00    0.3299371436E-03    0.6654860081E+00    0.1434202535E-02
    0.1700000000E+08    0.1566471203E-05    0.6946658859E+00    0.2907477611E-03    0.6656768193E+00    0.1444197316E-02
    0.1900000000E+08    0.1370592361E-05    0.6946575135E+00    0.2598286982E-03    0.6658274327E+00    0.1453137443E-02
    0.2100000000E+08    0.1222933618E-05    0.6946499228E+00    0.2348162865E-03    0.6659493351E+00    0.1461229176E-02
    0.2300000000E+08    0.1108106117E-05    0.6946429768E+00    0.2141685200E-03    0.6660500188E+00    0.1468623235E-02
    0.2500000000E+08    0.1016495096E-05    0.6946365716E+00    0.1968367264E-03    0.6661345785E+00    0.1475433164E-02
    0.2700000000E+08    0.9418263646E-06    0.6946306270E+00    0.1820829800E-03    0.6662065992E+00    0.1481746674E-02
