  Pressure (Pa) 22mC5-500 (mol/kg) 24mC5-500 (mol/kg) 2mC6-500 (mol/kg) 3mC6-500 (mol/kg) C7-500 (mol/kg)
    0.1000000000E+01    0.1879127872E-04    0.3665913610E-01    0.2136467959E-04    0.3593377845E-05    0.4171237590E-02
    0.3000000000E+01    0.4954855276E-04    0.9947991343E-01    0.5501412813E-04    0.9046465766E-05    0.4211380393E-02
    0.5000000000E+01    0.7388228434E-04    0.1513538042E+00    0.8069354152E-04    0.1403435974E-04    0.4238784093E-02
    0.7000000000E+01    0.9351997390E-04    0.1949135591E+00    0.1007463396E-03    0.1880228473E-04    0.4261056033E-02
    0.9000000000E+01    0.1096189310E-03    0.2320102737E+00    0.1166910630E-03    0.2343211569E-04    0.4279788379E-02
    0.1100000000E+02    0.1229945586E-03    0.2639834405E+00    0.1295733820E-03    0.2796458434E-04    0.4295821764E-02
    0.1300000000E+02    0.1342382751E-03    0.2918262765E+00    0.1401357568E-03    0.3242383344E-04    0.4309714104E-02
    0.1500000000E+02    0.1437888052E-03    0.3162908311E+00    0.1489173875E-03    0.3682572014E-04    0.4321868109E-02
    0.1700000000E+02    0.1519777782E-03    0.3379569990E+00    0.1563171235E-03    0.4118139544E-04    0.4332587029E-02
    0.1900000000E+02    0.1590599583E-03    0.3572791174E+00    0.1626346308E-03    0.4549909428E-04    0.4342105408E-02
    0.2100000000E+02    0.1652338482E-03    0.3746182048E+00    0.1680981120E-03    0.4978512678E-04    0.4350608246E-02
    0.2300000000E+02    0.1706560616E-03    0.3902647516E+00    0.1728834134E-03    0.5404446994E-04    0.4358243750E-02
    0.2500000000E+02    0.1754515486E-03    0.4044551423E+00    0.1771274568E-03    0.5828114167E-04    0.4365132218E-02
    0.2700000000E+02    0.1797210013E-03    0.4173836930E+00    0.1809378479E-03    0.6249844839E-04    0.4371372397E-02
    0.2900000000E+02    0.1835463004E-03    0.4292116120E+00    0.1843998543E-03    0.6669915511E-04    0.4377046158E-02
    0.3100000000E+02    0.1869945784E-03    0.4400737635E+00    0.1875815438E-03    0.7088560593E-04    0.4382221978E-02
    0.3300000000E+02    0.1901212895E-03    0.4500838386E+00    0.1905376146E-03    0.7505981176E-04    0.4386957597E-02
    0.3500000000E+02    0.1929725555E-03    0.4593383534E+00    0.1933122828E-03    0.7922351556E-04    0.4391302053E-02
    0.3700000000E+02    0.1955869786E-03    0.4679197747E+00    0.1959414817E-03    0.8337824176E-04    0.4395297274E-02
    0.3900000000E+02    0.1979970543E-03    0.4758989871E+00    0.1984545517E-03    0.8752533452E-04    0.4398979327E-02
    0.4100000000E+02    0.2002302848E-03    0.4833372574E+00    0.2008755520E-03    0.9166598763E-04    0.4402379413E-02
    0.4300000000E+02    0.2023100610E-03    0.4902878123E+00    0.2032242847E-03    0.9580126822E-04    0.4405524664E-02
    0.4500000000E+02    0.2042563695E-03    0.4967971161E+00    0.2055171013E-03    0.9993213586E-04    0.4408438790E-02
    0.4700000000E+02    0.2060863603E-03    0.5029059110E+00    0.2077675426E-03    0.1040594581E-03    0.4411142603E-02
    0.4900000000E+02    0.2078148088E-03    0.5086500723E+00    0.2099868485E-03    0.1081840230E-03    0.4413654449E-02
    0.1000000000E+02    0.1166059431E-03    0.2485685608E+00    0.1234629168E-03    0.2570875510E-04    0.4288102999E-02
    0.3000000000E+02    0.1853138579E-03    0.4347558585E+00    0.1860220444E-03    0.6879402987E-04    0.4379692477E-02
    0.5000000000E+02    0.2086450166E-03    0.5113954718E+00    0.2110878114E-03    0.1102454988E-03    0.4414843532E-02
    0.7000000000E+02    0.2222494793E-03    0.5532039734E+00    0.2330480637E-03    0.1514768113E-03    0.4431648349E-02
    0.9000000000E+02    0.2333853896E-03    0.5795334310E+00    0.2565913989E-03    0.1929861115E-03    0.4440054467E-02
    0.1100000000E+03    0.2441549163E-03    0.5976389751E+00    0.2823524886E-03    0.2350412159E-03    0.4443837104E-02
    0.1300000000E+03    0.2552795105E-03    0.6108539417E+00    0.3102451577E-03    0.2778188088E-03    0.4444749708E-02
    0.1500000000E+03    0.2670268758E-03    0.6209244714E+00    0.3400806976E-03    0.3214516479E-03    0.4443718721E-02
    0.1700000000E+03    0.2794971930E-03    0.6288537676E+00    0.3716945420E-03    0.3660489605E-03    0.4441279326E-02
    0.1900000000E+03    0.2927252982E-03    0.6352592590E+00    0.4049661291E-03    0.4117066976E-03    0.4437761338E-02
    0.2100000000E+03    0.3067208315E-03    0.6405417817E+00    0.4398149655E-03    0.4585132753E-03    0.4433377972E-02
    0.2300000000E+03    0.3214850152E-03    0.6449729035E+00    0.4761927868E-03    0.5065530746E-03    0.4428272011E-02
    0.2500000000E+03    0.3370178993E-03    0.6487431500E+00    0.5140765185E-03    0.5559087333E-03    0.4422541490E-02
    0.2700000000E+03    0.3533214960E-03    0.6519901391E+00    0.5534628437E-03    0.6066627451E-03    0.4416254779E-02
    0.2900000000E+03    0.3704010828E-03    0.6548157551E+00    0.5943642233E-03    0.6588986468E-03    0.4409459837E-02
    0.3100000000E+03    0.3882656776E-03    0.6572970407E+00    0.6368060454E-03    0.7127019501E-03    0.4402190116E-02
    0.3300000000E+03    0.4069281501E-03    0.6594933337E+00    0.6808246109E-03    0.7681609154E-03    0.4394468431E-02
    0.3500000000E+03    0.4264051842E-03    0.6614510770E+00    0.7264657314E-03    0.8253672265E-03    0.4386309572E-02
    0.3700000000E+03    0.4467171964E-03    0.6632071410E+00    0.7737837748E-03    0.8844166066E-03    0.4377722111E-02
    0.3900000000E+03    0.4678882563E-03    0.6647911691E+00    0.8228410456E-03    0.9454094024E-03    0.4368709652E-02
    0.4100000000E+03    0.4899460336E-03    0.6662272663E+00    0.8737074159E-03    0.1008451156E-02    0.4359271733E-02
    0.4300000000E+03    0.5129217789E-03    0.6675352343E+00    0.9264601520E-03    0.1073653180E-02    0.4349404458E-02
    0.4500000000E+03    0.5368503426E-03    0.6687314915E+00    0.9811838957E-03    0.1141133143E-02    0.4339100961E-02
    0.4700000000E+03    0.5617702309E-03    0.6698297657E+00    0.1037970773E-02    0.1211015685E-02    0.4328351726E-02
    0.4900000000E+03    0.5877237003E-03    0.6708416235E+00    0.1096920611E-02    0.1283433059E-02    0.4317144813E-02
    0.1000000000E+03    0.2387545223E-03    0.5893528953E+00    0.2691946698E-03    0.2139330125E-03    0.4442386639E-02
    0.3000000000E+03    0.3792345400E-03    0.6560953808E+00    0.6153905470E-03    0.6855989296E-03    0.4405882685E-02
    0.5000000000E+03    0.6011022898E-03    0.6713182727E+00    0.1127240017E-02    0.1320635886E-02    0.4311365374E-02
    0.7000000000E+03    0.9369125025E-03    0.6780646393E+00    0.1879225349E-02    0.2238489036E-02    0.4166972626E-02
    0.9000000000E+03    0.1465798993E-02    0.6818728731E+00    0.3049786493E-02    0.3662024347E-02    0.3944413745E-02
    0.1100000000E+04    0.2357550045E-02    0.6843192098E+00    0.5015511548E-02    0.6053092278E-02    0.3581541442E-02
    0.1300000000E+04    0.3959416942E-02    0.6860233959E+00    0.8547275946E-02    0.1035887819E-01    0.2960350177E-02
    0.1500000000E+04    0.6694823527E-02    0.6872786585E+00    0.1460170892E-01    0.1777496343E-01    0.1979065608E-02
    0.1700000000E+04    0.9869261564E-02    0.6882417219E+00    0.2169826507E-01    0.2655392469E-01    0.1003677017E-02
    0.1900000000E+04    0.1194120023E-01    0.6890039598E+00    0.2644042461E-01    0.3255105507E-01    0.5693350973E-03
    0.2100000000E+04    0.1316001214E-01    0.6896222433E+00    0.2933731185E-01    0.3634011734E-01    0.4635200187E-03
    0.2300000000E+04    0.1409281665E-01    0.6901338218E+00    0.3162513434E-01    0.3941425434E-01    0.4438790777E-03
    0.2500000000E+04    0.1492469170E-01    0.6905641134E+00    0.3370960796E-01    0.4226640925E-01    0.4417561658E-03
    0.2700000000E+04    0.1569992768E-01    0.6909310572E+00    0.3568705470E-01    0.4501284606E-01    0.4429437867E-03
    0.2900000000E+04    0.1643013125E-01    0.6912476754E+00    0.3758158712E-01    0.4768143341E-01    0.4446716765E-03
    0.3100000000E+04    0.1711981738E-01    0.6915236499E+00    0.3940166654E-01    0.5028088028E-01    0.4464093984E-03
    0.3300000000E+04    0.1777185576E-01    0.6917663289E+00    0.4115220685E-01    0.5281563552E-01    0.4480632815E-03
    0.3500000000E+04    0.1838862456E-01    0.6919813901E+00    0.4283714484E-01    0.5528906101E-01    0.4496244702E-03
    0.3700000000E+04    0.1897226615E-01    0.6921732897E+00    0.4446000434E-01    0.5770412305E-01    0.4510995950E-03
    0.3900000000E+04    0.1952475303E-01    0.6923455743E+00    0.4602403462E-01    0.6006355486E-01    0.4524971319E-03
    0.4100000000E+04    0.2004791229E-01    0.6925011017E+00    0.4753225608E-01    0.6236990412E-01    0.4538248682E-03
    0.4300000000E+04    0.2054344020E-01    0.6926422002E+00    0.4898748434E-01    0.6462555436E-01    0.4550895786E-03
    0.4500000000E+04    0.2101291372E-01    0.6927707861E+00    0.5039234820E-01    0.6683273943E-01    0.4562971157E-03
    0.4700000000E+04    0.2145780056E-01    0.6928884506E+00    0.5174930512E-01    0.6899355556E-01    0.4574525532E-03
    0.4900000000E+04    0.2187946819E-01    0.6929965263E+00    0.5306065486E-01    0.7110997207E-01    0.4585603147E-03
    0.1000000000E+04    0.1849936531E-02    0.6832161342E+00    0.3896973770E-02    0.4692151606E-02    0.3786369804E-02
    0.3000000000E+04    0.1677984229E-01    0.6913902382E+00    0.3850059048E-01    0.4898947991E-01    0.4455488157E-03
    0.5000000000E+04    0.2208199673E-01    0.6930473266E+00    0.5369990571E-01    0.7215211357E-01    0.4590975481E-03
    0.7000000000E+04    0.2518140797E-01    0.6937586561E+00    0.6454759880E-01    0.9106009308E-01    0.4680727216E-03
    0.9000000000E+04    0.2698877029E-01    0.6941535751E+00    0.7261528871E-01    0.1070877369E+00    0.4748247102E-03
    0.1100000000E+05    0.2799692234E-01    0.6944044788E+00    0.7879727456E-01    0.1210468755E+00    0.4802552596E-03
    0.1300000000E+05    0.2849139538E-01    0.6945778065E+00    0.8364023482E-01    0.1334518978E+00    0.4848066976E-03
    0.1500000000E+05    0.2864652084E-01    0.6947045951E+00    0.8749747867E-01    0.1446469684E+00    0.4887297050E-03
    0.1700000000E+05    0.2857321802E-01    0.6948012842E+00    0.9060774285E-01    0.1548726309E+00    0.4921804172E-03
    0.1900000000E+05    0.2834442457E-01    0.6948773931E+00    0.9313833017E-01    0.1643031289E+00    0.4952628170E-03
    0.2100000000E+05    0.2800939560E-01    0.6949388142E+00    0.9521009389E-01    0.1730685045E+00    0.4980497133E-03
    0.2300000000E+05    0.2760211856E-01    0.6949893897E+00    0.9691259935E-01    0.1812682963E+00    0.5005941133E-03
    0.2500000000E+05    0.2714645810E-01    0.6950317314E+00    0.9831369434E-01    0.1889803629E+00    0.5029358316E-03
    0.2700000000E+05    0.2665940560E-01    0.6950676765E+00    0.9946575702E-01    0.1962667590E+00    0.5051055483E-03
    0.2900000000E+05    0.2615318979E-01    0.6950985547E+00    0.1004098956E+00    0.2031777606E+00    0.5071274151E-03
    0.3100000000E+05    0.2563668118E-01    0.6951253517E+00    0.1011788437E+00    0.2097546927E+00    0.5090207913E-03
    0.3300000000E+05    0.2511634659E-01    0.6951488143E+00    0.1017990028E+00    0.2160319603E+00    0.5108014384E-03
    0.3500000000E+05    0.2459691009E-01    0.6951695177E+00    0.1022919105E+00    0.2220385355E+00    0.5124823624E-03
    0.3700000000E+05    0.2408181819E-01    0.6951879128E+00    0.1026753167E+00    0.2277990654E+00    0.5140744234E-03
    0.3900000000E+05    0.2357357212E-01    0.6952043574E+00    0.1029639839E+00    0.2333347117E+00    0.5155867851E-03
    0.4100000000E+05    0.2307396818E-01    0.6952191396E+00    0.1031702915E+00    0.2386637951E+00    0.5170272516E-03
    0.4300000000E+05    0.2258427367E-01    0.6952324935E+00    0.1033046987E+00    0.2438022963E+00    0.5184025252E-03
    0.4500000000E+05    0.2210535691E-01    0.6952446114E+00    0.1033761021E+00    0.2487642513E+00    0.5197184048E-03
    0.4700000000E+05    0.2163778436E-01    0.6952556529E+00    0.1033921159E+00    0.2535620653E+00    0.5209799422E-03
    0.4900000000E+05    0.2118189355E-01    0.6952657512E+00    0.1033592942E+00    0.2582067653E+00    0.5221915659E-03
    0.1000000000E+05    0.2757150178E-01    0.6942916325E+00    0.7590200285E-01    0.1142886503E+00    0.4776712309E-03
    0.3000000000E+05    0.2589577047E-01    0.6951124120E+00    0.1008144894E+00    0.2065056924E+00    0.5080891064E-03
    0.5000000000E+05    0.2095838557E-01    0.6952704825E+00    0.1033263724E+00    0.2604748179E+00    0.5227798982E-03
    0.7000000000E+05    0.1708814287E-01    0.6953353930E+00    0.1011450024E+00    0.2997254543E+00    0.5326705187E-03
    0.9000000000E+05    0.1417937929E-01    0.6953698101E+00    0.9755266506E-01    0.3306106632E+00    0.5401738221E-03
    0.1100000000E+06    0.1196144539E-01    0.6953906334E+00    0.9356733351E-01    0.3559549986E+00    0.5462381451E-03
    0.1300000000E+06    0.1023462627E-01    0.6954042858E+00    0.8957372451E-01    0.3773171044E+00    0.5513369572E-03
    0.1500000000E+06    0.8863384178E-02    0.6954137272E+00    0.8572785622E-01    0.3956673415E+00    0.5557415924E-03
    0.1700000000E+06    0.7755408305E-02    0.6954205043E+00    0.8209083164E-01    0.4116580306E+00    0.5596223555E-03
    0.1900000000E+06    0.6846539925E-02    0.6954255006E+00    0.7868119251E-01    0.4257516319E+00    0.5630933076E-03
    0.2100000000E+06    0.6091155506E-02    0.6954292555E+00    0.7549774274E-01    0.4382890644E+00    0.5662346598E-03
    0.2300000000E+06    0.5456096848E-02    0.6954321156E+00    0.7253023280E-01    0.4495293033E+00    0.5691050077E-03
    0.2500000000E+06    0.4916782458E-02    0.6954343133E+00    0.6976459262E-01    0.4596738220E+00    0.5717484845E-03
    0.2700000000E+06    0.4454662075E-02    0.6954360096E+00    0.6718555453E-01    0.4688824400E+00    0.5741991760E-03
    0.2900000000E+06    0.4055512549E-02    0.6954373192E+00    0.6477796748E-01    0.4772840096E+00    0.5764839659E-03
    0.3100000000E+06    0.3708272191E-02    0.6954383260E+00    0.6252743407E-01    0.4849838578E+00    0.5786244385E-03
    0.3300000000E+06    0.3404227399E-02    0.6954390925E+00    0.6042059037E-01    0.4920691107E+00    0.5806381912E-03
    0.3500000000E+06    0.3136434641E-02    0.6954396661E+00    0.5844519647E-01    0.4986125896E+00    0.5825397628E-03
    0.3700000000E+06    0.2899302803E-02    0.6954400832E+00    0.5659012821E-01    0.5046757182E+00    0.5843413062E-03
    0.3900000000E+06    0.2688286796E-02    0.6954403723E+00    0.5484531931E-01    0.5103107303E+00    0.5860530855E-03
    0.4100000000E+06    0.2499659645E-02    0.6954405560E+00    0.5320168110E-01    0.5155623697E+00    0.5876838494E-03
    0.4300000000E+06    0.2330340812E-02    0.6954406522E+00    0.5165101468E-01    0.5204692178E+00    0.5892411168E-03
    0.4500000000E+06    0.2177765341E-02    0.6954406756E+00    0.5018592366E-01    0.5250647423E+00    0.5907313980E-03
    0.4700000000E+06    0.2039783068E-02    0.6954406379E+00    0.4879973142E-01    0.5293781342E+00    0.5921603677E-03
    0.4900000000E+06    0.1914580206E-02    0.6954405489E+00    0.4748640483E-01    0.5334349826E+00    0.5935330031E-03
    0.1000000000E+06    0.1299831183E-01    0.6953813975E+00    0.9557713952E-01    0.3438594189E+00    0.5433496695E-03
    0.3000000000E+06    0.3875995652E-02    0.6954378562E+00    0.6363393025E-01    0.4812158283E+00    0.5775710609E-03
    0.5000000000E+06    0.1856280797E-02    0.6954404876E+00    0.4685533960E-01    0.5353743519E+00    0.5941995876E-03
    0.7000000000E+06    0.1087915329E-02    0.6954379254E+00    0.3697979696E-01    0.5649665025E+00    0.6054115550E-03
    0.9000000000E+06    0.7145540241E-03    0.6954344216E+00    0.3050966732E-01    0.5836890924E+00    0.6139230836E-03
    0.1100000000E+07    0.5051914340E-03    0.6954308487E+00    0.2595071370E-01    0.5966161591E+00    0.6208049549E-03
    0.1300000000E+07    0.3761000945E-03    0.6954274336E+00    0.2256803318E-01    0.6060815252E+00    0.6265926010E-03
    0.1500000000E+07    0.2909182782E-03    0.6954242312E+00    0.1995974106E-01    0.6133123093E+00    0.6315931579E-03
    0.1700000000E+07    0.2317710922E-03    0.6954212435E+00    0.1788794510E-01    0.6190163481E+00    0.6359995265E-03
    0.1900000000E+07    0.1890355699E-03    0.6954184559E+00    0.1620297606E-01    0.6236308858E+00    0.6399409616E-03
    0.2100000000E+07    0.1571569183E-03    0.6954158495E+00    0.1480601440E-01    0.6274406940E+00    0.6435083913E-03
    0.2300000000E+07    0.1327461807E-03    0.6954134054E+00    0.1362921041E-01    0.6306392395E+00    0.6467682583E-03
    0.2500000000E+07    0.1136404753E-03    0.6954111066E+00    0.1262444576E-01    0.6333625755E+00    0.6497706176E-03
    0.2700000000E+07    0.9840677720E-04    0.6954089377E+00    0.1175665387E-01    0.6357091730E+00    0.6525541351E-03
    0.2900000000E+07    0.8606514529E-04    0.6954068856E+00    0.1099967963E-01    0.6377520612E+00    0.6551493117E-03
    0.3100000000E+07    0.7592709286E-04    0.6954049385E+00    0.1033362009E-01    0.6395465459E+00    0.6575806393E-03
    0.3300000000E+07    0.6749743634E-04    0.6954030865E+00    0.9743063245E-02    0.6411352785E+00    0.6598680877E-03
    0.3500000000E+07    0.6041264896E-04    0.6954013208E+00    0.9215889970E-02    0.6425516789E+00    0.6620281572E-03
    0.3700000000E+07    0.5440098790E-04    0.6953996337E+00    0.8742439908E-02    0.6438223047E+00    0.6640746418E-03
    0.3900000000E+07    0.4925602982E-04    0.6953980185E+00    0.8314918497E-02    0.6449685263E+00    0.6660191923E-03
    0.4100000000E+07    0.4481869860E-04    0.6953964694E+00    0.7926967624E-02    0.6460077339E+00    0.6678717399E-03
    0.4300000000E+07    0.4096480803E-04    0.6953949811E+00    0.7573349547E-02    0.6469542229E+00    0.6696408206E-03
    0.4500000000E+07    0.3759626696E-04    0.6953935489E+00    0.7249710721E-02    0.6478198525E+00    0.6713338253E-03
    0.4700000000E+07    0.3463476601E-04    0.6953921687E+00    0.6952402913E-02    0.6486145437E+00    0.6729571970E-03
    0.4900000000E+07    0.3201717696E-04    0.6953908368E+00    0.6678346042E-02    0.6493466594E+00    0.6745165868E-03
    0.1000000000E+07    0.5962984459E-03    0.6954326230E+00    0.2804809473E-01    0.5906942911E+00    0.6175268173E-03
    0.3000000000E+07    0.8075529541E-04    0.6954058996E+00    0.1065633783E-01    0.6386774381E+00    0.6563841166E-03
    0.5000000000E+07    0.3082091768E-04    0.6953901879E+00    0.6549202858E-02    0.6496915125E+00    0.6752738691E-03
    0.7000000000E+07    0.1640267247E-04    0.6953790945E+00    0.4718855657E-02    0.6545699486E+00    0.6880118335E-03
    0.9000000000E+07    0.1031950605E-04    0.6953704865E+00    0.3684486143E-02    0.6573199438E+00    0.6976822615E-03
    0.1100000000E+08    0.7184617884E-05    0.6953634351E+00    0.3020157519E-02    0.6590839130E+00    0.7055013398E-03
    0.1300000000E+08    0.5354190231E-05    0.6953574525E+00    0.2557680866E-02    0.6603110597E+00    0.7120772772E-03
    0.1500000000E+08    0.4189701868E-05    0.6953522504E+00    0.2217323058E-02    0.6612138178E+00    0.7177589800E-03
    0.1700000000E+08    0.3400936364E-05    0.6953476439E+00    0.1956431063E-02    0.6619056507E+00    0.7227655933E-03
    0.1900000000E+08    0.2840451934E-05    0.6953435074E+00    0.1750129676E-02    0.6624526596E+00    0.7272439620E-03
    0.2100000000E+08    0.2426828303E-05    0.6953397514E+00    0.1582937022E-02    0.6628959533E+00    0.7312973909E-03
    0.2300000000E+08    0.2112086506E-05    0.6953363101E+00    0.1444715079E-02    0.6632624367E+00    0.7350013678E-03
    0.2500000000E+08    0.1866441708E-05    0.6953331333E+00    0.1328548222E-02    0.6635704550E+00    0.7384127628E-03
    0.2700000000E+08    0.1670595940E-05    0.6953301823E+00    0.1229557781E-02    0.6638329462E+00    0.7415755070E-03
