  Pressure (Pa) 22mC5-500 (mol/kg) 24mC5-500 (mol/kg) 2mC6-500 (mol/kg) 3mC6-500 (mol/kg) C7-500 (mol/kg)
    0.1000000000E+01    0.1869182578E-04    0.3665889101E-01    0.1763109862E-04    0.3353981216E-05    0.4185595076E-02
    0.3000000000E+01    0.4933180724E-04    0.9947804506E-01    0.4546887364E-04    0.8526224320E-05    0.4239044601E-02
    0.5000000000E+01    0.7356497074E-04    0.1513493404E+00    0.6669439369E-04    0.1327480102E-04    0.4279467894E-02
    0.7000000000E+01    0.9310932843E-04    0.1949059384E+00    0.8324385747E-04    0.1782142336E-04    0.4313011164E-02
    0.9000000000E+01    0.1091192830E-03    0.2319991846E+00    0.9637756201E-04    0.2224058025E-04    0.4341495355E-02
    0.1100000000E+02    0.1224088594E-03    0.2639687273E+00    0.1069644382E-03    0.2656945585E-04    0.4366032947E-02
    0.1300000000E+02    0.1335686818E-03    0.2918078828E+00    0.1156217788E-03    0.3083014326E-04    0.4387406538E-02
    0.1500000000E+02    0.1430369606E-03    0.3162687641E+00    0.1227979932E-03    0.3503718035E-04    0.4406196377E-02
    0.1700000000E+02    0.1511449653E-03    0.3379313068E+00    0.1288248103E-03    0.3920080569E-04    0.4422845612E-02
    0.1900000000E+02    0.1581471938E-03    0.3572498742E+00    0.1339514755E-03    0.4332858968E-04    0.4437699841E-02
    0.2100000000E+02    0.1642419445E-03    0.3745855010E+00    0.1383677925E-03    0.4742633923E-04    0.4451033086E-02
    0.2300000000E+02    0.1695856681E-03    0.3902286871E+00    0.1422200108E-03    0.5149863844E-04    0.4463065660E-02
    0.2500000000E+02    0.1743031828E-03    0.4044158220E+00    0.1456219982E-03    0.5554919072E-04    0.4473976841E-02
    0.2700000000E+02    0.1784950708E-03    0.4173412236E+00    0.1486632330E-03    0.5958104553E-04    0.4483914073E-02
    0.2900000000E+02    0.1822431203E-03    0.4291661003E+00    0.1514146094E-03    0.6359675429E-04    0.4492999778E-02
    0.3100000000E+02    0.1856143849E-03    0.4400253148E+00    0.1539327129E-03    0.6759848090E-04    0.4501336477E-02
    0.3300000000E+02    0.1886642504E-03    0.4500325554E+00    0.1562630068E-03    0.7158808226E-04    0.4509010698E-02
    0.3500000000E+02    0.1914387790E-03    0.4592843353E+00    0.1584422349E-03    0.7556716816E-04    0.4516095991E-02
    0.3700000000E+02    0.1939765203E-03    0.4678631179E+00    0.1605002511E-03    0.7953714684E-04    0.4522655287E-02
    0.3900000000E+02    0.1963099235E-03    0.4758397842E+00    0.1624614262E-03    0.8349926005E-04    0.4528742753E-02
    0.4100000000E+02    0.1984664488E-03    0.4832755971E+00    0.1643457382E-03    0.8745461058E-04    0.4534405278E-02
    0.4300000000E+02    0.2004694500E-03    0.4902237797E+00    0.1661696254E-03    0.9140418419E-04    0.4539683656E-02
    0.4500000000E+02    0.2023388796E-03    0.4967307925E+00    0.1679466565E-03    0.9534886712E-04    0.4544613554E-02
    0.4700000000E+02    0.2040918571E-03    0.5028373742E+00    0.1696880636E-03    0.9928946042E-04    0.4549226294E-02
    0.4900000000E+02    0.2057431296E-03    0.5085793967E+00    0.1714031658E-03    0.1032266916E-03    0.4553549498E-02
    0.1000000000E+02    0.1160629590E-03    0.2485556719E+00    0.1019460365E-03    0.2441468889E-04    0.4354202787E-02
    0.3000000000E+02    0.1839721461E-03    0.4347088653E+00    0.1526997495E-03    0.6559924290E-04    0.4497256010E-02
    0.5000000000E+02    0.2065346802E-03    0.5113237536E+00    0.1722533270E-03    0.1051942562E-03    0.4555610278E-02
    0.7000000000E+02    0.2193521511E-03    0.5531145656E+00    0.1891796320E-03    0.1445041226E-03    0.4586300440E-02
    0.9000000000E+02    0.2296643938E-03    0.5794308217E+00    0.2073550884E-03    0.1839871276E-03    0.4604328676E-02
    0.1100000000E+03    0.2395629388E-03    0.5975261270E+00    0.2272906965E-03    0.2238871312E-03    0.4615411794E-02
    0.1300000000E+03    0.2497614611E-03    0.6107329005E+00    0.2489013713E-03    0.2643625137E-03    0.4622216692E-02
    0.1500000000E+03    0.2605211034E-03    0.6207967070E+00    0.2720184691E-03    0.3055300130E-03    0.4626159975E-02
    0.1700000000E+03    0.2719359908E-03    0.6287203719E+00    0.2964941956E-03    0.3474836833E-03    0.4628065590E-02
    0.1900000000E+03    0.2840350523E-03    0.6351210659E+00    0.3222175836E-03    0.3903044156E-03    0.4628445886E-02
    0.2100000000E+03    0.2968219658E-03    0.6403994434E+00    0.3491108820E-03    0.4340652510E-03    0.4627636076E-02
    0.2300000000E+03    0.3102918060E-03    0.6448269400E+00    0.3771228103E-03    0.4788345951E-03    0.4625864309E-02
    0.2500000000E+03    0.3244381954E-03    0.6485939831E+00    0.4062225375E-03    0.5246782973E-03    0.4623290734E-02
    0.2700000000E+03    0.3392563661E-03    0.6518381160E+00    0.4363950294E-03    0.5716610755E-03    0.4620030491E-02
    0.2900000000E+03    0.3547443979E-03    0.6546611655E+00    0.4676376217E-03    0.6198475468E-03    0.4616167870E-02
    0.3100000000E+03    0.3709036352E-03    0.6571401288E+00    0.4999575411E-03    0.6693030111E-03    0.4611765365E-02
    0.3300000000E+03    0.3877387396E-03    0.6593343076E+00    0.5333701237E-03    0.7200940764E-03    0.4606869643E-02
    0.3500000000E+03    0.4052575951E-03    0.6612901156E+00    0.5678975412E-03    0.7722891815E-03    0.4601515602E-02
    0.3700000000E+03    0.4234711641E-03    0.6630443991E+00    0.6035678961E-03    0.8259590521E-03    0.4595729184E-02
    0.3900000000E+03    0.4423933450E-03    0.6646267822E+00    0.6404145881E-03    0.8811771148E-03    0.4589529369E-02
    0.4100000000E+03    0.4620408495E-03    0.6660613532E+00    0.6784758813E-03    0.9380198857E-03    0.4582929612E-02
    0.4300000000E+03    0.4824331092E-03    0.6673679001E+00    0.7177946240E-03    0.9965673466E-03    0.4575938894E-02
    0.4500000000E+03    0.5035922139E-03    0.6685628296E+00    0.7584180856E-03    0.1056903317E-02    0.4568562500E-02
    0.4700000000E+03    0.5255428802E-03    0.6696598595E+00    0.8003978865E-03    0.1119115833E-02    0.4560802595E-02
    0.4900000000E+03    0.5483124497E-03    0.6706705481E+00    0.8437900028E-03    0.1183297529E-02    0.4552658666E-02
    0.1000000000E+03    0.2346044767E-03    0.5892448639E+00    0.2171037218E-03    0.2038738015E-03    0.4610530163E-02
    0.3000000000E+03    0.3627399015E-03    0.6559396020E+00    0.4836621301E-03    0.6444125290E-03    0.4614030870E-02
    0.5000000000E+03    0.5600135909E-03    0.6711466383E+00    0.8660343781E-03    0.1216157125E-02    0.4548441879E-02
    0.7000000000E+03    0.8460991763E-03    0.6778844020E+00    0.1402809243E-02    0.2004389033E-02    0.4442107506E-02
    0.9000000000E+03    0.1271176101E-02    0.6816869708E+00    0.2189701040E-02    0.3154621055E-02    0.4281698690E-02
    0.1100000000E+04    0.1937074775E-02    0.6841291685E+00    0.3415663998E-02    0.4945685224E-02    0.4033317380E-02
    0.1300000000E+04    0.3049865996E-02    0.6858301291E+00    0.5461647143E-02    0.7938653771E-02    0.3629503756E-02
    0.1500000000E+04    0.4986355691E-02    0.6870827659E+00    0.9027556023E-02    0.1316981709E-01    0.2958214647E-02
    0.1700000000E+04    0.8021419231E-02    0.6880436234E+00    0.1464337336E-01    0.2145161331E-01    0.1986692235E-02
    0.1900000000E+04    0.1115019955E-01    0.6888039645E+00    0.2049742295E-01    0.3017896227E-01    0.1136496608E-02
    0.2100000000E+04    0.1311735657E-01    0.6894205867E+00    0.2427007270E-01    0.3593414163E-01    0.7771080304E-03
    0.2300000000E+04    0.1431196983E-01    0.6899306890E+00    0.2664694844E-01    0.3968044162E-01    0.6850259854E-03
    0.2500000000E+04    0.1523826930E-01    0.6903596534E+00    0.2854650545E-01    0.4275270999E-01    0.6668568591E-03
    0.2700000000E+04    0.1606565915E-01    0.6907253922E+00    0.3027888330E-01    0.4560409835E-01    0.6652324559E-03
    0.2900000000E+04    0.1683813294E-01    0.6910409073E+00    0.3192412804E-01    0.4835098768E-01    0.6670503865E-03
    0.3100000000E+04    0.1756783574E-01    0.6913158651E+00    0.3350354660E-01    0.5102332769E-01    0.6694783752E-03
    0.3300000000E+04    0.1825933909E-01    0.6915576014E+00    0.3502447145E-01    0.5363047956E-01    0.6719165742E-03
    0.3500000000E+04    0.1891533899E-01    0.6917717838E+00    0.3649082556E-01    0.5617683986E-01    0.6742472495E-03
    0.3700000000E+04    0.1953798072E-01    0.6919628605E+00    0.3790558701E-01    0.5866549845E-01    0.6764562849E-03
    0.3900000000E+04    0.2012917530E-01    0.6921343715E+00    0.3927137537E-01    0.6109910676E-01    0.6785507664E-03
    0.4100000000E+04    0.2069068215E-01    0.6922891689E+00    0.4059060071E-01    0.6348009332E-01    0.6805410346E-03
    0.4300000000E+04    0.2122413644E-01    0.6924295765E+00    0.4186550883E-01    0.6581072446E-01    0.6824369245E-03
    0.4500000000E+04    0.2173106265E-01    0.6925575065E+00    0.4309820116E-01    0.6809312719E-01    0.6842471311E-03
    0.4700000000E+04    0.2221288431E-01    0.6926745468E+00    0.4429064761E-01    0.7032930224E-01    0.6859792407E-03
    0.4900000000E+04    0.2267093205E-01    0.6927820270E+00    0.4544469703E-01    0.7252113407E-01    0.6876398800E-03
    0.1000000000E+04    0.1564476041E-02    0.6830280201E+00    0.2730154664E-02    0.3944083510E-02    0.4171699174E-02
    0.3000000000E+04    0.1720797090E-01    0.6911829518E+00    0.3272147137E-01    0.4969569180E-01    0.6682457408E-03
    0.5000000000E+04    0.2289143292E-01    0.6928325396E+00    0.4600786980E-01    0.7360098051E-01    0.6884452435E-03
    0.7000000000E+04    0.2631650901E-01    0.6935391489E+00    0.5562607087E-01    0.9325189149E-01    0.7018998313E-03
    0.9000000000E+04    0.2838388520E-01    0.6939306077E+00    0.6285802697E-01    0.1099815260E+00    0.7120216031E-03
    0.1100000000E+05    0.2959358416E-01    0.6941787724E+00    0.6844874780E-01    0.1245917362E+00    0.7201623872E-03
    0.1300000000E+05    0.3024146495E-01    0.6943498292E+00    0.7286124207E-01    0.1375977259E+00    0.7269852872E-03
    0.1500000000E+05    0.3051141142E-01    0.6944746759E+00    0.7639865298E-01    0.1493478235E+00    0.7328661037E-03
    0.1700000000E+05    0.3052226739E-01    0.6945696670E+00    0.7926797826E-01    0.1600874327E+00    0.7380389021E-03
    0.1900000000E+05    0.3035330230E-01    0.6946442660E+00    0.8161554323E-01    0.1699954225E+00    0.7426595646E-03
    0.2100000000E+05    0.3005876651E-01    0.6947043272E+00    0.8354782666E-01    0.1792059410E+00    0.7468372400E-03
    0.2300000000E+05    0.2967657905E-01    0.6947536650E+00    0.8514424166E-01    0.1878220709E+00    0.7506513918E-03
    0.2500000000E+05    0.2923370621E-01    0.6947948706E+00    0.8646527997E-01    0.1959246985E+00    0.7541617064E-03
    0.2700000000E+05    0.2874959725E-01    0.6948297653E+00    0.8755787186E-01    0.2035784590E+00    0.7574141765E-03
    0.2900000000E+05    0.2823843898E-01    0.6948596664E+00    0.8845901395E-01    0.2108358329E+00    0.7604450076E-03
    0.3100000000E+05    0.2771067045E-01    0.6948855501E+00    0.8919828584E-01    0.2177400365E+00    0.7632832217E-03
    0.3300000000E+05    0.2717402177E-01    0.6949081548E+00    0.8979963418E-01    0.2243271062E+00    0.7659524464E-03
    0.3500000000E+05    0.2663423955E-01    0.6949280496E+00    0.9028266226E-01    0.2306274301E+00    0.7684721791E-03
    0.3700000000E+05    0.2609560188E-01    0.6949456795E+00    0.9066357841E-01    0.2366668923E+00    0.7708587002E-03
    0.3900000000E+05    0.2556128898E-01    0.6949613982E+00    0.9095590451E-01    0.2424677416E+00    0.7731257467E-03
    0.4100000000E+05    0.2503365364E-01    0.6949754895E+00    0.9117101283E-01    0.2480492596E+00    0.7752850178E-03
    0.4300000000E+05    0.2451442061E-01    0.6949881843E+00    0.9131853807E-01    0.2534282823E+00    0.7773465606E-03
    0.4500000000E+05    0.2400483524E-01    0.6949996720E+00    0.9140669737E-01    0.2586196100E+00    0.7793190683E-03
    0.4700000000E+05    0.2350577534E-01    0.6950101098E+00    0.9144254157E-01    0.2636363355E+00    0.7812101141E-03
    0.4900000000E+05    0.2301783593E-01    0.6950196287E+00    0.9143215434E-01    0.2684901069E+00    0.7830263363E-03
    0.1000000000E+05    0.2907405671E-01    0.6940672250E+00    0.6582482104E-01    0.1175144191E+00    0.7162887476E-03
    0.3000000000E+05    0.2797609411E-01    0.6948730596E+00    0.8884727207E-01    0.2143296806E+00    0.7618866055E-03
    0.5000000000E+05    0.2277816130E-01    0.6950240787E+00    0.9141130053E-01    0.2708591833E+00    0.7839082446E-03
    0.7000000000E+05    0.1859049736E-01    0.6950842721E+00    0.8953961118E-01    0.3117272592E+00    0.7987341601E-03
    0.9000000000E+05    0.1541048168E-01    0.6951151215E+00    0.8630309294E-01    0.3436687585E+00    0.8099813968E-03
    0.1100000000E+06    0.1297510794E-01    0.6951330667E+00    0.8267299441E-01    0.3697000557E+00    0.8190715667E-03
    0.1300000000E+06    0.1107615104E-01    0.6951443022E+00    0.7902175437E-01    0.3914940949E+00    0.8267144221E-03
    0.1500000000E+06    0.9568310038E-02    0.6951516574E+00    0.7550232761E-01    0.4100953026E+00    0.8333167029E-03
    0.1700000000E+06    0.8351133298E-02    0.6951565977E+00    0.7217552698E-01    0.4262063574E+00    0.8391337010E-03
    0.1900000000E+06    0.7354177955E-02    0.6951599521E+00    0.6906047076E-01    0.4403250506E+00    0.8443363963E-03
    0.2100000000E+06    0.6527075496E-02    0.6951622215E+00    0.6615679208E-01    0.4528176534E+00    0.8490450267E-03
    0.2300000000E+06    0.5833096443E-02    0.6951637247E+00    0.6345511695E-01    0.4639616463E+00    0.8533474272E-03
    0.2500000000E+06    0.5244959717E-02    0.6951646731E+00    0.6094222782E-01    0.4739721936E+00    0.8573097542E-03
    0.2700000000E+06    0.4742058992E-02    0.6951652115E+00    0.5860366473E-01    0.4830193533E+00    0.8609831019E-03
    0.2900000000E+06    0.4308591355E-02    0.6951654419E+00    0.5642503441E-01    0.4912397008E+00    0.8644077689E-03
    0.3100000000E+06    0.3932270168E-02    0.6951654378E+00    0.5439264779E-01    0.4987444291E+00    0.8676161102E-03
    0.3300000000E+06    0.3603423358E-02    0.6951652534E+00    0.5249380215E-01    0.5056251433E+00    0.8706345037E-03
    0.3500000000E+06    0.3314350827E-02    0.6951649291E+00    0.5071687451E-01    0.5119580967E+00    0.8734847431E-03
    0.3700000000E+06    0.3058859249E-02    0.6951644956E+00    0.4905131604E-01    0.5178073494E+00    0.8761850453E-03
    0.3900000000E+06    0.2831920368E-02    0.6951639767E+00    0.4748759692E-01    0.5232271609E+00    0.8787507958E-03
    0.4100000000E+06    0.2629416643E-02    0.6951633907E+00    0.4601712853E-01    0.5282638301E+00    0.8811951089E-03
    0.4300000000E+06    0.2447949578E-02    0.6951627520E+00    0.4463217813E-01    0.5329571282E+00    0.8835292551E-03
    0.4500000000E+06    0.2284693650E-02    0.6951620721E+00    0.4332578377E-01    0.5373414281E+00    0.8857629931E-03
    0.4700000000E+06    0.2137283808E-02    0.6951613602E+00    0.4209167372E-01    0.5414466030E+00    0.8879048292E-03
    0.4900000000E+06    0.2003728009E-02    0.6951606234E+00    0.4092419231E-01    0.5452987498E+00    0.8899622240E-03
    0.1000000000E+06    0.1411439804E-01    0.6951252011E+00    0.8450637796E-01    0.3572987933E+00    0.8147418695E-03
    0.3000000000E+06    0.4113944679E-02    0.6951654654E+00    0.5539137941E-01    0.4950753888E+00    0.8660372101E-03
    0.5000000000E+06    0.1941607654E-02    0.6951602477E+00    0.4036382173E-01    0.5471372066E+00    0.8909613427E-03
    0.7000000000E+06    0.1127640999E-02    0.6951523967E+00    0.3164834943E-01    0.5749396981E+00    0.9077664164E-03
    0.9000000000E+06    0.7361439330E-03    0.6951448793E+00    0.2599538658E-01    0.5922817837E+00    0.9205237731E-03
    0.1100000000E+07    0.5181906687E-03    0.6951380621E+00    0.2204056480E-01    0.6041404541E+00    0.9308384453E-03
    0.1300000000E+07    0.3845185737E-03    0.6951319189E+00    0.1912165913E-01    0.6127629461E+00    0.9395130030E-03
    0.1500000000E+07    0.2966756741E-03    0.6951263596E+00    0.1688014089E-01    0.6193150162E+00    0.9470078154E-03
    0.1700000000E+07    0.2358788258E-03    0.6951212953E+00    0.1510543073E-01    0.6244622362E+00    0.9536120212E-03
    0.1900000000E+07    0.1920671387E-03    0.6951166503E+00    0.1366586497E-01    0.6286124355E+00    0.9595193596E-03
    0.2100000000E+07    0.1594569812E-03    0.6951123628E+00    0.1247495209E-01    0.6320295033E+00    0.9648661211E-03
    0.2300000000E+07    0.1345318886E-03    0.6951083827E+00    0.1147355641E-01    0.6348917596E+00    0.9697518952E-03
    0.2500000000E+07    0.1150541062E-03    0.6951046692E+00    0.1061988817E-01    0.6373240424E+00    0.9742517077E-03
    0.2700000000E+07    0.9954467860E-04    0.6951011888E+00    0.9883585043E-02    0.6394163613E+00    0.9784235139E-03
    0.2900000000E+07    0.8699442674E-04    0.6950979139E+00    0.9242059991E-02    0.6412352504E+00    0.9823130302E-03
    0.3100000000E+07    0.7669565142E-04    0.6950948213E+00    0.8678164513E-02    0.6428309531E+00    0.9859569663E-03
    0.3300000000E+07    0.6814019190E-04    0.6950918916E+00    0.8178646229E-02    0.6442421192E+00    0.9893852540E-03
    0.3500000000E+07    0.6095554178E-04    0.6950891083E+00    0.7733102843E-02    0.6454989664E+00    0.9926226250E-03
    0.3700000000E+07    0.5486361093E-04    0.6950864571E+00    0.7333255720E-02    0.6466254599E+00    0.9956897541E-03
    0.3900000000E+07    0.4965340344E-04    0.6950839258E+00    0.6972434721E-02    0.6476408500E+00    0.9986041039E-03
    0.4100000000E+07    0.4516249264E-04    0.6950815040E+00    0.6645205975E-02    0.6485607765E+00    0.1001380560E-02
    0.4300000000E+07    0.4126419940E-04    0.6950791823E+00    0.6347098377E-02    0.6493980776E+00    0.1004031916E-02
    0.4500000000E+07    0.3785855178E-04    0.6950769525E+00    0.6074399577E-02    0.6501633895E+00    0.1006569250E-02
    0.4700000000E+07    0.3486580348E-04    0.6950748076E+00    0.5824001710E-02    0.6508655994E+00    0.1009002218E-02
    0.4900000000E+07    0.3222171571E-04    0.6950727412E+00    0.5593283269E-02    0.6515121903E+00    0.1011339292E-02
    0.1000000000E+07    0.6128743719E-03    0.6951413818E+00    0.2385705409E-01    0.5987198126E+00    0.9259251252E-03
    0.3000000000E+07    0.8159915381E-04    0.6950963461E+00    0.8951313987E-02    0.6420583556E+00    0.9841636872E-03
    0.5000000000E+07    0.3101370898E-04    0.6950717356E+00    0.5484594655E-02    0.6518166502E+00    0.1012474237E-02
    0.7000000000E+07    0.1647403749E-04    0.6950546421E+00    0.3946379715E-02    0.6561162875E+00    0.1031564560E-02
    0.9000000000E+07    0.1035307981E-04    0.6950414793E+00    0.3078947503E-02    0.6585339921E+00    0.1046057375E-02
    0.1100000000E+08    0.7202826877E-05    0.6950307453E+00    0.2522540688E-02    0.6600825702E+00    0.1057775491E-02
    0.1300000000E+08    0.5365027087E-05    0.6950216657E+00    0.2135520911E-02    0.6611588597E+00    0.1067630474E-02
    0.1500000000E+08    0.4196578197E-05    0.6950137878E+00    0.1850866650E-02    0.6619501174E+00    0.1076145252E-02
    0.1700000000E+08    0.3405502920E-05    0.6950068235E+00    0.1632771150E-02    0.6625562087E+00    0.1083648268E-02
    0.1900000000E+08    0.2843584854E-05    0.6950005781E+00    0.1460371802E-02    0.6630352485E+00    0.1090359606E-02
    0.2100000000E+08    0.2429026878E-05    0.6949949133E+00    0.1320693591E-02    0.6634233492E+00    0.1096434090E-02
    0.2300000000E+08    0.2113651793E-05    0.6949897278E+00    0.1205245000E-02    0.6637441294E+00    0.1101984857E-02
    0.2500000000E+08    0.1867563757E-05    0.6949849447E+00    0.1108236301E-02    0.6640136855E+00    0.1107097138E-02
    0.2700000000E+08    0.1671399378E-05    0.6949805043E+00    0.1025584692E-02    0.6642433642E+00    0.1111836774E-02
