  Pressure (Pa) 22mC5-500 (mol/kg) 24mC5-500 (mol/kg) 2mC6-500 (mol/kg) 3mC6-500 (mol/kg) C7-500 (mol/kg)
    0.1000000000E+01    0.1862807806E-04    0.3665817370E-01    0.2102465091E-04    0.1600616990E-05    0.4197630962E-02
    0.3000000000E+01    0.4918862050E-04    0.9947281312E-01    0.5426625836E-04    0.4093815225E-05    0.4266003594E-02
    0.5000000000E+01    0.7335132949E-04    0.1513373389E+00    0.7959295417E-04    0.6387317443E-05    0.4319811416E-02
    0.7000000000E+01    0.9282892077E-04    0.1948862057E+00    0.9931650543E-04    0.8584685017E-05    0.4364809102E-02
    0.9000000000E+01    0.1087742847E-03    0.2319714539E+00    0.1149457700E-03    0.1072087274E-04    0.4403166928E-02
    0.1100000000E+02    0.1220007302E-03    0.2639331047E+00    0.1275217812E-03    0.1281337626E-04    0.4436302479E-02
    0.1300000000E+02    0.1330984482E-03    0.2917646694E+00    0.1377842821E-03    0.1487261081E-04    0.4465235966E-02
    0.1500000000E+02    0.1425053472E-03    0.3162183557E+00    0.1462706807E-03    0.1690544026E-04    0.4490731257E-02
    0.1700000000E+02    0.1505524695E-03    0.3378741372E+00    0.1533785525E-03    0.1891670448E-04    0.4513374640E-02
    0.1900000000E+02    0.1574941335E-03    0.3571863831E+00    0.1594066090E-03    0.2090998562E-04    0.4533624642E-02
    0.2100000000E+02    0.1635284911E-03    0.3745161161E+00    0.1645823118E-03    0.2288803362E-04    0.4551845472E-02
    0.2300000000E+02    0.1688118720E-03    0.3901538147E+00    0.1690809145E-03    0.2485302067E-04    0.4568330305E-02
    0.2500000000E+02    0.1734689920E-03    0.4043358426E+00    0.1730388559E-03    0.2680670256E-04    0.4583317908E-02
    0.2700000000E+02    0.1776003464E-03    0.4172564905E+00    0.1765633402E-03    0.2875052551E-04    0.4597004781E-02
    0.2900000000E+02    0.1812876487E-03    0.4290769394E+00    0.1797392971E-03    0.3068569984E-04    0.4609554153E-02
    0.3100000000E+02    0.1845978876E-03    0.4399320258E+00    0.1826345062E-03    0.3261325213E-04    0.4621102776E-02
    0.3300000000E+02    0.1875863925E-03    0.4499354137E+00    0.1853034173E-03    0.3453406331E-04    0.4631766110E-02
    0.3500000000E+02    0.1902991761E-03    0.4591835934E+00    0.1877900307E-03    0.3644889697E-04    0.4641642325E-02
    0.3700000000E+02    0.1927747440E-03    0.4677590073E+00    0.1901300899E-03    0.3835842092E-04    0.4650815438E-02
    0.3900000000E+02    0.1950455065E-03    0.4757325171E+00    0.1923527682E-03    0.4026322381E-04    0.4659357785E-02
    0.4100000000E+02    0.1971388891E-03    0.4831653685E+00    0.1944819755E-03    0.4216382818E-04    0.4667331995E-02
    0.4300000000E+02    0.1990782142E-03    0.4901107686E+00    0.1965373804E-03    0.4406070080E-04    0.4674792568E-02
    0.4500000000E+02    0.2008834061E-03    0.4966151634E+00    0.1985352141E-03    0.4595426107E-04    0.4681787163E-02
    0.4700000000E+02    0.2025715586E-03    0.5027192788E+00    0.2004889080E-03    0.4784488772E-04    0.4688357641E-02
    0.4900000000E+02    0.2041573955E-03    0.5084589745E+00    0.2024096027E-03    0.4973292445E-04    0.4694540926E-02
    0.1000000000E+02    0.1156862440E-03    0.2485239668E+00    0.1215635247E-03    0.1177182439E-04    0.4420316505E-02
    0.3000000000E+02    0.1829862002E-03    0.4346176044E+00    0.1812183172E-03    0.3165037064E-04    0.4615445895E-02
    0.5000000000E+02    0.2049159926E-03    0.5112022170E+00    0.2033605323E-03    0.5067607055E-04    0.4697497738E-02
    0.7000000000E+02    0.2170379126E-03    0.5529759382E+00    0.2222034492E-03    0.6946659020E-04    0.4742559082E-02
    0.9000000000E+02    0.2265764347E-03    0.5792813995E+00    0.2423702407E-03    0.8823670670E-04    0.4770699155E-02
    0.1100000000E+03    0.2356137010E-03    0.5973692967E+00    0.2644558038E-03    0.1070981648E-03    0.4789580742E-02
    0.1300000000E+03    0.2448558945E-03    0.6105706643E+00    0.2883427402E-03    0.1261211969E-03    0.4802786666E-02
    0.1500000000E+03    0.2545572665E-03    0.6206303368E+00    0.3138141824E-03    0.1453554979E-03    0.4812225432E-02
    0.1700000000E+03    0.2648051394E-03    0.6285507229E+00    0.3406782213E-03    0.1648393064E-03    0.4819011116E-02
    0.1900000000E+03    0.2756214863E-03    0.6349487395E+00    0.3687866653E-03    0.1846039599E-03    0.4823839756E-02
    0.2100000000E+03    0.2870027416E-03    0.6402248783E+00    0.3980304736E-03    0.2046764267E-03    0.4827169583E-02
    0.2300000000E+03    0.2989363623E-03    0.6446504662E+00    0.4283315016E-03    0.2250808229E-03    0.4829315040E-02
    0.2500000000E+03    0.3114079150E-03    0.6484158553E+00    0.4596351503E-03    0.2458393797E-03    0.4830499260E-02
    0.2700000000E+03    0.3244040821E-03    0.6516585351E+00    0.4919046741E-03    0.2669730903E-03    0.4830884981E-02
    0.2900000000E+03    0.3379138504E-03    0.6544802928E+00    0.5251169637E-03    0.2885021622E-03    0.4830593619E-02
    0.3100000000E+03    0.3519288787E-03    0.6569580963E+00    0.5592594674E-03    0.3104463455E-03    0.4829717481E-02
    0.3300000000E+03    0.3664435002E-03    0.6591512247E+00    0.5943279448E-03    0.3328251801E-03    0.4828327842E-02
    0.3500000000E+03    0.3814545753E-03    0.6611060739E+00    0.6303248256E-03    0.3556581873E-03    0.4826480439E-02
    0.3700000000E+03    0.3969612929E-03    0.6628594767E+00    0.6672580023E-03    0.3789650247E-03    0.4824219308E-02
    0.3900000000E+03    0.4129649681E-03    0.6644410459E+00    0.7051399412E-03    0.4027656137E-03    0.4821579506E-02
    0.4100000000E+03    0.4294688568E-03    0.6658748607E+00    0.7439870231E-03    0.4270802486E-03    0.4818589092E-02
    0.4300000000E+03    0.4464779937E-03    0.6671807019E+00    0.7838190568E-03    0.4519296931E-03    0.4815270589E-02
    0.4500000000E+03    0.4639990563E-03    0.6683749701E+00    0.8246589207E-03    0.4773352664E-03    0.4811642077E-02
    0.4700000000E+03    0.4820402540E-03    0.6694713778E+00    0.8665323014E-03    0.5033189236E-03    0.4807718021E-02
    0.4900000000E+03    0.5006112385E-03    0.6704814792E+00    0.9094675079E-03    0.5299033320E-03    0.4803509910E-02
    0.1000000000E+03    0.2310973145E-03    0.5890914225E+00    0.2531751841E-03    0.9765098987E-04    0.4781017738E-02
    0.3000000000E+03    0.3448586226E-03    0.6557581345E+00    0.5420723769E-03    0.2994211412E-03    0.4830223774E-02
    0.5000000000E+03    0.5100987942E-03    0.6709572877E+00    0.9313428271E-03    0.5434281141E-03    0.4801302233E-02
    0.7000000000E+03    0.7311356385E-03    0.6776905950E+00    0.1433575641E-02    0.8517964059E-03    0.4743431204E-02
    0.9000000000E+03    0.1026835442E-02    0.6814900429E+00    0.2094711714E-02    0.1255269712E-02    0.4658146797E-02
    0.1100000000E+04    0.1432021277E-02    0.6839298256E+00    0.2993652615E-02    0.1802917086E-02    0.4537577809E-02
    0.1300000000E+04    0.2007353225E-02    0.6856288085E+00    0.4265511213E-02    0.2577771004E-02    0.4365496801E-02
    0.1500000000E+04    0.2859987995E-02    0.6868797660E+00    0.6148165275E-02    0.3725862779E-02    0.4112987323E-02
    0.1700000000E+04    0.4177432504E-02    0.6878391614E+00    0.9058556826E-02    0.5503782264E-02    0.3731428511E-02
    0.1900000000E+04    0.6242182339E-02    0.6885982057E+00    0.1362907839E-01    0.8303349214E-02    0.3155223726E-02
    0.2100000000E+04    0.9220688421E-02    0.6892136618E+00    0.2024933938E-01    0.1237603935E-01    0.2373647224E-02
    0.2300000000E+04    0.1249834550E-01    0.6897227035E+00    0.2759260012E-01    0.1692880537E-01    0.1605006375E-02
    0.2500000000E+04    0.1496596340E-01    0.6901506949E+00    0.3320897809E-01    0.2046327307E-01    0.1145825183E-02
    0.2700000000E+04    0.1651162587E-01    0.6905155342E+00    0.3682281408E-01    0.2279397276E-01    0.9676410343E-03
    0.2900000000E+04    0.1758910682E-01    0.6908302127E+00    0.3942014475E-01    0.2451447008E-01    0.9133212527E-03
    0.3100000000E+04    0.1847784512E-01    0.6911043882E+00    0.4161439336E-01    0.2599781716E-01    0.8995472441E-03
    0.3300000000E+04    0.1928278449E-01    0.6913453896E+00    0.4363661181E-01    0.2738497515E-01    0.8977683912E-03
    0.3500000000E+04    0.2003888722E-01    0.6915588789E+00    0.4556344692E-01    0.2872254421E-01    0.8993809825E-03
    0.3700000000E+04    0.2075816502E-01    0.6917492998E+00    0.4742069029E-01    0.3002591002E-01    0.9018765853E-03
    0.3900000000E+04    0.2144543555E-01    0.6919201881E+00    0.4921816543E-01    0.3130063657E-01    0.9045315257E-03
    0.4100000000E+04    0.2210323511E-01    0.6920743928E+00    0.5096065525E-01    0.3254919741E-01    0.9071418512E-03
    0.4300000000E+04    0.2273333077E-01    0.6922142347E+00    0.5265127767E-01    0.3377306265E-01    0.9096552505E-03
    0.4500000000E+04    0.2333718978E-01    0.6923416237E+00    0.5429253497E-01    0.3497334894E-01    0.9120634071E-03
    0.4700000000E+04    0.2391612936E-01    0.6924581455E+00    0.5588664693E-01    0.3615102502E-01    0.9143702963E-03
    0.4900000000E+04    0.2447136755E-01    0.6925651278E+00    0.5743566163E-01    0.3730697908E-01    0.9165828335E-03
    0.1000000000E+04    0.1212735266E-02    0.6828298177E+00    0.2507734274E-02    0.1506932749E-02    0.4603059107E-02
    0.3000000000E+04    0.1804795428E-01    0.6909718597E+00    0.4054758463E-01    0.2527354316E-01    0.9038969131E-03
    0.5000000000E+04    0.2474045726E-01    0.6926153987E+00    0.5819386119E-01    0.3787707203E-01    0.9176559688E-03
    0.7000000000E+04    0.2912039177E-01    0.6933179466E+00    0.7140130067E-01    0.4831775186E-01    0.9355852064E-03
    0.9000000000E+04    0.3207953888E-01    0.6937063249E+00    0.8172431058E-01    0.5730092076E-01    0.9490730942E-03
    0.1100000000E+05    0.3410042620E-01    0.6939519991E+00    0.9001857709E-01    0.6521398784E-01    0.9599210670E-03
    0.1300000000E+05    0.3547845683E-01    0.6941209612E+00    0.9682839367E-01    0.7231070012E-01    0.9690128158E-03
    0.1500000000E+05    0.3640310608E-01    0.6942439975E+00    0.1025169776E+00    0.7876520838E-01    0.9768491483E-03
    0.1700000000E+05    0.3700057270E-01    0.6943373929E+00    0.1073363307E+00    0.8470165460E-01    0.9837419864E-03
    0.1900000000E+05    0.3735755704E-01    0.6944105644E+00    0.1114670221E+00    0.9021135494E-01    0.9898990613E-03
    0.2100000000E+05    0.3753518487E-01    0.6944693331E+00    0.1150419960E+00    0.9536327805E-01    0.9954658256E-03
    0.2300000000E+05    0.3757750341E-01    0.6945174897E+00    0.1181614268E+00    0.1002107015E+00    0.1000548172E-02
    0.2500000000E+05    0.3751684984E-01    0.6945576071E+00    0.1209023206E+00    0.1047955897E+00    0.1005225639E-02
    0.2700000000E+05    0.3737734716E-01    0.6945914928E+00    0.1233249145E+00    0.1091515612E+00    0.1009559515E-02
    0.2900000000E+05    0.3717724087E-01    0.6946204530E+00    0.1254770557E+00    0.1133059523E+00    0.1013598047E-02
    0.3100000000E+05    0.3693049693E-01    0.6946454551E+00    0.1273972694E+00    0.1172812858E+00    0.1017379908E-02
    0.3300000000E+05    0.3664791699E-01    0.6946672304E+00    0.1291169525E+00    0.1210963379E+00    0.1020936585E-02
    0.3500000000E+05    0.3633793071E-01    0.6946863417E+00    0.1306619720E+00    0.1247669268E+00    0.1024294059E-02
    0.3700000000E+05    0.3600716788E-01    0.6947032293E+00    0.1320538483E+00    0.1283065058E+00    0.1027474025E-02
    0.3900000000E+05    0.3566087752E-01    0.6947182425E+00    0.1333106451E+00    0.1317266152E+00    0.1030494787E-02
    0.4100000000E+05    0.3530323892E-01    0.6947316617E+00    0.1344476475E+00    0.1350372320E+00    0.1033371937E-02
    0.4300000000E+05    0.3493759531E-01    0.6947437146E+00    0.1354778847E+00    0.1382470431E+00    0.1036118861E-02
    0.4500000000E+05    0.3456663113E-01    0.6947545881E+00    0.1364125385E+00    0.1413636616E+00    0.1038747145E-02
    0.4700000000E+05    0.3419250810E-01    0.6947644367E+00    0.1372612649E+00    0.1443937995E+00    0.1041266879E-02
    0.4900000000E+05    0.3381697037E-01    0.6947733897E+00    0.1380324500E+00    0.1473434072E+00    0.1043686910E-02
    0.1000000000E+05    0.3318562759E-01    0.6938416381E+00    0.8608565201E-01    0.6137302148E-01    0.9547592760E-03
    0.3000000000E+05    0.3705895990E-01    0.6946333985E+00    0.1264640452E+00    0.1153147503E+00    0.1015518947E-02
    0.5000000000E+05    0.3362912244E-01    0.6947775649E+00    0.1383912895E+00    0.1487896917E+00    0.1044862010E-02
    0.7000000000E+05    0.3002187691E-01    0.6948331341E+00    0.1428662195E+00    0.1745184591E+00    0.1064616677E-02
    0.9000000000E+05    0.2688937399E-01    0.6948604718E+00    0.1442618776E+00    0.1958789159E+00    0.1079602785E-02
    0.1100000000E+06    0.2424029783E-01    0.6948755769E+00    0.1441162793E+00    0.2143258522E+00    0.1091714649E-02
    0.1300000000E+06    0.2199685141E-01    0.6948844236E+00    0.1431186143E+00    0.2306431001E+00    0.1101898016E-02
    0.1500000000E+06    0.2008185390E-01    0.6948897147E+00    0.1416244245E+00    0.2453118646E+00    0.1110694863E-02
    0.1700000000E+06    0.1843224649E-01    0.6948928361E+00    0.1398346492E+00    0.2586538843E+00    0.1118445360E-02
    0.1900000000E+06    0.1699865962E-01    0.6948945634E+00    0.1378702072E+00    0.2708975833E+00    0.1125377334E-02
    0.2100000000E+06    0.1574267358E-01    0.6948953601E+00    0.1358071797E+00    0.2822124988E+00    0.1131650998E-02
    0.2300000000E+06    0.1463421870E-01    0.6948955176E+00    0.1336949867E+00    0.2927288304E+00    0.1137383389E-02
    0.2500000000E+06    0.1364953189E-01    0.6948952266E+00    0.1315664524E+00    0.3025493045E+00    0.1142662657E-02
    0.2700000000E+06    0.1276963077E-01    0.6948946159E+00    0.1294436903E+00    0.3117567640E+00    0.1147556883E-02
    0.2900000000E+06    0.1197918866E-01    0.6948937750E+00    0.1273417007E+00    0.3204192351E+00    0.1152119762E-02
    0.3100000000E+06    0.1126570387E-01    0.6948927672E+00    0.1252706482E+00    0.3285934300E+00    0.1156394406E-02
    0.3300000000E+06    0.1061888155E-01    0.6948916386E+00    0.1232373499E+00    0.3363272423E+00    0.1160415962E-02
    0.3500000000E+06    0.1003016930E-01    0.6948904227E+00    0.1212462703E+00    0.3436615691E+00    0.1164213468E-02
    0.3700000000E+06    0.9492404419E-02    0.6948891445E+00    0.1193002020E+00    0.3506316714E+00    0.1167811197E-02
    0.3900000000E+06    0.8999543248E-02    0.6948878230E+00    0.1174007405E+00    0.3572682087E+00    0.1171229649E-02
    0.4100000000E+06    0.8546451177E-02    0.6948864723E+00    0.1155486188E+00    0.3635980389E+00    0.1174486299E-02
    0.4300000000E+06    0.8128738212E-02    0.6948851035E+00    0.1137439476E+00    0.3696448469E+00    0.1177596162E-02
    0.4500000000E+06    0.7742628966E-02    0.6948837248E+00    0.1119863898E+00    0.3754296438E+00    0.1180572243E-02
    0.4700000000E+06    0.7384858976E-02    0.6948823429E+00    0.1102752876E+00    0.3809711685E+00    0.1183425874E-02
    0.4900000000E+06    0.7052591336E-02    0.6948809626E+00    0.1086097564E+00    0.3862862150E+00    0.1186166997E-02
    0.1000000000E+06    0.2550891064E-01    0.6948690642E+00    0.1443274654E+00    0.2054079100E+00    0.1085945715E-02
    0.3000000000E+06    0.1161351567E-01    0.6948932888E+00    0.1263018163E+00    0.3245641911E+00    0.1154290755E-02
    0.5000000000E+06    0.6895234382E-02    0.6948802743E+00    0.1077937588E+00    0.3888635923E+00    0.1187498148E-02
    0.7000000000E+06    0.4624914337E-02    0.6948671673E+00    0.9357719326E-01    0.4315112557E+00    0.1209887803E-02
    0.9000000000E+06    0.3335299019E-02    0.6948556607E+00    0.8256810014E-01    0.4623680614E+00    0.1226884410E-02
    0.1100000000E+07    0.2525843402E-02    0.6948456188E+00    0.7383836469E-01    0.4858897236E+00    0.1240626498E-02
    0.1300000000E+07    0.1982099505E-02    0.6948367642E+00    0.6675956990E-01    0.5044767974E+00    0.1252183392E-02
    0.1500000000E+07    0.1598270177E-02    0.6948288629E+00    0.6090841699E-01    0.5195629324E+00    0.1262168474E-02
    0.1700000000E+07    0.1316810994E-02    0.6948217352E+00    0.5599295040E-01    0.5320660169E+00    0.1270966979E-02
    0.1900000000E+07    0.1104079067E-02    0.6948152448E+00    0.5180627840E-01    0.5426044696E+00    0.1278837035E-02
    0.2100000000E+07    0.9392736072E-03    0.6948092874E+00    0.4819802470E-01    0.5516116895E+00    0.1285960229E-02
    0.2300000000E+07    0.8089445308E-03    0.6948037817E+00    0.4505638751E-01    0.5594011593E+00    0.1292469247E-02
    0.2500000000E+07    0.7040688276E-03    0.6947986632E+00    0.4229656679E-01    0.5662056028E+00    0.1298464048E-02
    0.2700000000E+07    0.6184038932E-03    0.6947938805E+00    0.3985309969E-01    0.5722016136E+00    0.1304021848E-02
    0.2900000000E+07    0.5475159270E-03    0.6947893916E+00    0.3767465703E-01    0.5775257235E+00    0.1309203556E-02
    0.3100000000E+07    0.4881837407E-03    0.6947851618E+00    0.3572042996E-01    0.5822852168E+00    0.1314058081E-02
    0.3300000000E+07    0.4380204629E-03    0.6947811623E+00    0.3395756932E-01    0.5865656016E+00    0.1318625301E-02
    0.3500000000E+07    0.3952264346E-03    0.6947773689E+00    0.3235933704E-01    0.5904358909E+00    0.1322938167E-02
    0.3700000000E+07    0.3584236455E-03    0.6947737609E+00    0.3090374944E-01    0.5939524119E+00    0.1327024224E-02
    0.3900000000E+07    0.3265422885E-03    0.6947703206E+00    0.2957256618E-01    0.5971616024E+00    0.1330906737E-02
    0.4100000000E+07    0.2987414539E-03    0.6947670328E+00    0.2835052660E-01    0.6001020956E+00    0.1334605539E-02
    0.4300000000E+07    0.2743526896E-03    0.6947638843E+00    0.2722476554E-01    0.6028062984E+00    0.1338137674E-02
    0.4500000000E+07    0.2528391779E-03    0.6947608634E+00    0.2618436130E-01    0.6053015992E+00    0.1341517902E-02
    0.4700000000E+07    0.2337657729E-03    0.6947579599E+00    0.2521998228E-01    0.6076113056E+00    0.1344759087E-02
    0.4900000000E+07    0.2167767130E-03    0.6947551649E+00    0.2432360787E-01    0.6097553783E+00    0.1347872516E-02
    0.1000000000E+07    0.2887652797E-02    0.6948504744E+00    0.7796348794E-01    0.4748651244E+00    0.1234080568E-02
    0.3000000000E+07    0.5165707079E-03    0.6947872462E+00    0.3667173167E-01    0.5799702631E+00    0.1311669041E-02
    0.5000000000E+07    0.2089701263E-03    0.6947538055E+00    0.2389871879E-01    0.6107707699E+00    0.1349384477E-02
    0.7000000000E+07    0.1125133452E-03    0.6947307639E+00    0.1769887037E-01    0.6255229220E+00    0.1374816189E-02
    0.9000000000E+07    0.7028232568E-04    0.6947130894E+00    0.1404094608E-01    0.6341739769E+00    0.1394122932E-02
    0.1100000000E+08    0.4810700339E-04    0.6946987101E+00    0.1162938996E-01    0.6398577213E+00    0.1409733164E-02
    0.1300000000E+08    0.3503816355E-04    0.6946865668E+00    0.9920766508E-02    0.6438759033E+00    0.1422861317E-02
    0.1500000000E+08    0.2669379700E-04    0.6946760434E+00    0.8647287619E-02    0.6468662477E+00    0.1434204053E-02
    0.1700000000E+08    0.2104241608E-04    0.6946667491E+00    0.7661767075E-02    0.6491779082E+00    0.1444198931E-02
    0.1900000000E+08    0.1703771247E-04    0.6946584206E+00    0.6876623413E-02    0.6510180679E+00    0.1453139151E-02
    0.2100000000E+08    0.1409627730E-04    0.6946508712E+00    0.6236494233E-02    0.6525174202E+00    0.1461230972E-02
    0.2300000000E+08    0.1187195681E-04    0.6946439643E+00    0.5704674915E-02    0.6537624740E+00    0.1468625114E-02
    0.2500000000E+08    0.1014883102E-04    0.6946375965E+00    0.5255873245E-02    0.6548127643E+00    0.1475435123E-02
    0.2700000000E+08    0.8786552396E-05    0.6946316875E+00    0.4872096029E-02    0.6557106008E+00    0.1481748711E-02
