  Pressure (Pa) 22mC5-500 (mol/kg) 24mC5-500 (mol/kg) 2mC6-500 (mol/kg) 3mC6-500 (mol/kg) C7-500 (mol/kg)
    0.1000000000E+01    0.1659655839E-04    0.9949728188E-01    0.3083791400E-05    0.4001609046E-05    0.4194131247E-02
    0.3000000000E+01    0.3671258588E-04    0.2320988021E+00    0.6540344782E-05    0.1023504955E-04    0.4243833745E-02
    0.5000000000E+01    0.4816583708E-04    0.3164459932E+00    0.8350516196E-05    0.1596968245E-04    0.4273702969E-02
    0.7000000000E+01    0.5535557376E-04    0.3748246393E+00    0.9428589240E-05    0.2146442241E-04    0.4294294066E-02
    0.9000000000E+01    0.6020780311E-04    0.4176279169E+00    0.1014828956E-04    0.2680665539E-04    0.4309416856E-02
    0.1100000000E+02    0.6368180237E-04    0.4503556369E+00    0.1068259759E-04    0.3204011544E-04    0.4321007986E-02
    0.1300000000E+02    0.6629980244E-04    0.4761908744E+00    0.1111844772E-04    0.3719083476E-04    0.4330175865E-02
    0.1500000000E+02    0.6836544705E-04    0.4971036268E+00    0.1150213581E-04    0.4227596743E-04    0.4337604616E-02
    0.1700000000E+02    0.7006446048E-04    0.5143784336E+00    0.1185934529E-04    0.4730760819E-04    0.4343740613E-02
    0.1900000000E+02    0.7151508561E-04    0.5288886512E+00    0.1220472080E-04    0.5229470824E-04    0.4348888040E-02
    0.2100000000E+02    0.7279507431E-04    0.5412487891E+00    0.1254674136E-04    0.5724413885E-04    0.4353261603E-02
    0.2300000000E+02    0.7395692028E-04    0.5519037931E+00    0.1289032820E-04    0.6216132767E-04    0.4357017334E-02
    0.2500000000E+02    0.7503684288E-04    0.5611837567E+00    0.1323829824E-04    0.6705066174E-04    0.4360271455E-02
    0.2700000000E+02    0.7606028509E-04    0.5693387334E+00    0.1359220135E-04    0.7191575478E-04    0.4363112372E-02
    0.2900000000E+02    0.7704538576E-04    0.5765616102E+00    0.1395281614E-04    0.7675963108E-04    0.4365608576E-02
    0.3100000000E+02    0.7800523294E-04    0.5830035612E+00    0.1432044985E-04    0.8158485596E-04    0.4367813983E-02
    0.3300000000E+02    0.7894936106E-04    0.5887847451E+00    0.1469512319E-04    0.8639363090E-04    0.4369771639E-02
    0.3500000000E+02    0.7988476641E-04    0.5940018714E+00    0.1507668558E-04    0.9118786434E-04    0.4371516342E-02
    0.3700000000E+02    0.8081660868E-04    0.5987336546E+00    0.1546488781E-04    0.9596922546E-04    0.4373076544E-02
    0.3900000000E+02    0.8174870346E-04    0.6030448136E+00    0.1585942793E-04    0.1007391857E-03    0.4374475744E-02
    0.4100000000E+02    0.8268387291E-04    0.6069890500E+00    0.1625998035E-04    0.1054990516E-03    0.4375733527E-02
    0.4300000000E+02    0.8362419886E-04    0.6106112968E+00    0.1666621400E-04    0.1102499902E-03    0.4376866353E-02
    0.4500000000E+02    0.8457120738E-04    0.6139494378E+00    0.1707780362E-04    0.1149930503E-03    0.4377888163E-02
    0.4700000000E+02    0.8552600498E-04    0.6170356381E+00    0.1749443642E-04    0.1197291794E-03    0.4378810845E-02
    0.4900000000E+02    0.8648937981E-04    0.6198973838E+00    0.1791581588E-04    0.1244592372E-03    0.4379644603E-02
    0.1000000000E+02    0.6207759444E-04    0.4350149583E+00    0.1043188169E-04    0.2943508080E-04    0.4315571485E-02
    0.3000000000E+02    0.7752780060E-04    0.5798720656E+00    0.1413574923E-04    0.7917442975E-04    0.4366744719E-02
    0.5000000000E+02    0.8697446207E-04    0.6212516018E+00    0.1812819786E-04    0.1268222370E-03    0.4380030937E-02
    0.7000000000E+02    0.9718340478E-04    0.6408521299E+00    0.2256750444E-04    0.1739226403E-03    0.4384705502E-02
    0.9000000000E+02    0.1082912194E-03    0.6522858660E+00    0.2726939556E-04    0.2210137216E-03    0.4385904062E-02
    0.1100000000E+03    0.1201334414E-03    0.6597770105E+00    0.3215034222E-04    0.2683765034E-03    0.4385292281E-02
    0.1300000000E+03    0.1325795436E-03    0.6650649146E+00    0.3717240667E-04    0.3161885565E-03    0.4383582927E-02
    0.1500000000E+03    0.1455437023E-03    0.6689969575E+00    0.4231790597E-04    0.3645763632E-03    0.4381135020E-02
    0.1700000000E+03    0.1589712275E-03    0.6720353504E+00    0.4757890825E-04    0.4136379887E-03    0.4378149955E-02
    0.1900000000E+03    0.1728277432E-03    0.6744536507E+00    0.5295255555E-04    0.4634544576E-03    0.4374749595E-02
    0.2100000000E+03    0.1870922402E-03    0.6764241005E+00    0.5843881710E-04    0.5140960782E-03    0.4371011849E-02
    0.2300000000E+03    0.2017527417E-03    0.6780605564E+00    0.6403933870E-04    0.5656262395E-03    0.4366988587E-02
    0.2500000000E+03    0.2168035694E-03    0.6794412956E+00    0.6975682253E-04    0.6181038346E-03    0.4362715361E-02
    0.2700000000E+03    0.2322435851E-03    0.6806219072E+00    0.7559467928E-04    0.6715848871E-03    0.4358217026E-02
    0.2900000000E+03    0.2480750346E-03    0.6816429566E+00    0.8155682747E-04    0.7261236927E-03    0.4353511141E-02
    0.3100000000E+03    0.2643027739E-03    0.6825347397E+00    0.8764757579E-04    0.7817736532E-03    0.4348610126E-02
    0.3300000000E+03    0.2809337419E-03    0.6833203394E+00    0.9387155403E-04    0.8385879080E-03    0.4343522666E-02
    0.3500000000E+03    0.2979765980E-03    0.6840176516E+00    0.1002336735E-03    0.8966198311E-03    0.4338254657E-02
    0.3700000000E+03    0.3154414709E-03    0.6846407647E+00    0.1067391060E-03    0.9559234343E-03    0.4332809863E-02
    0.3900000000E+03    0.3333397846E-03    0.6852009209E+00    0.1133932744E-03    0.1016553706E-02    0.4327190375E-02
    0.4100000000E+03    0.3516841399E-03    0.6857072006E+00    0.1202018510E-03    0.1078566907E-02    0.4321396939E-02
    0.4300000000E+03    0.3704882354E-03    0.6861670181E+00    0.1271707624E-03    0.1142020830E-02    0.4315429198E-02
    0.4500000000E+03    0.3897668180E-03    0.6865864869E+00    0.1343061967E-03    0.1206975046E-02    0.4309285866E-02
    0.4700000000E+03    0.4095356565E-03    0.6869706932E+00    0.1416146146E-03    0.1273491126E-02    0.4302964863E-02
    0.4900000000E+03    0.4298115316E-03    0.6873239027E+00    0.1491027630E-03    0.1341632866E-02    0.4296463405E-02
    0.1000000000E+03    0.1141298809E-03    0.6563847859E+00    0.2969052255E-04    0.2446484617E-03    0.4385767850E-02
    0.3000000000E+03    0.2561389783E-03    0.6821034223E+00    0.8458584420E-04    0.7538064576E-03    0.4351084407E-02
    0.5000000000E+03    0.4401451295E-03    0.6874900323E+00    0.1529164264E-03    0.1376333955E-02    0.4293143963E-02
    0.7000000000E+03    0.6784503525E-03    0.6898238877E+00    0.2405632953E-03    0.2173743872E-02    0.4216128750E-02
    0.9000000000E+03    0.9963393423E-03    0.6911267642E+00    0.3571235924E-03    0.3234865235E-02    0.4113609308E-02
    0.1100000000E+04    0.1436955581E-02    0.6919580253E+00    0.5185734819E-03    0.4706376379E-02    0.3973244860E-02
    0.1300000000E+04    0.2076340821E-02    0.6925343815E+00    0.7529695720E-03    0.6845920723E-02    0.3773332244E-02
    0.1500000000E+04    0.3053064599E-02    0.6929574171E+00    0.1111493354E-02    0.1012446591E-01    0.3475503126E-02
    0.1700000000E+04    0.4614057737E-02    0.6932810754E+00    0.1685691990E-02    0.1538773656E-01    0.3015389767E-02
    0.1900000000E+04    0.7098003757E-02    0.6935366549E+00    0.2602459257E-02    0.2381999461E-01    0.2318618117E-02
    0.2100000000E+04    0.1047064552E-01    0.6937435626E+00    0.3854513840E-02    0.3540252014E-01    0.1447383586E-02
    0.2300000000E+04    0.1359765503E-01    0.6939144711E+00    0.5028814349E-02    0.4638668543E-01    0.7602109967E-03
    0.2500000000E+04    0.1561386802E-01    0.6940580064E+00    0.5803381868E-02    0.5378754069E-01    0.4497070055E-03
    0.2700000000E+04    0.1689211276E-01    0.6941802435E+00    0.6310697653E-02    0.5877842817E-01    0.3521561313E-03
    0.2900000000E+04    0.1787566783E-01    0.6942855843E+00    0.6712467489E-02    0.6283020787E-01    0.3260389835E-03
    0.3100000000E+04    0.1874397433E-01    0.6943772964E+00    0.7074514995E-02    0.6654505637E-01    0.3199031693E-03
    0.3300000000E+04    0.1955331800E-01    0.6944578565E+00    0.7417462186E-02    0.7011157165E-01    0.3190696745E-03
    0.3500000000E+04    0.2032101082E-01    0.6945291756E+00    0.7747548633E-02    0.7358603697E-01    0.3196044939E-03
    0.3700000000E+04    0.2105311515E-01    0.6945927521E+00    0.8066849494E-02    0.7698629071E-01    0.3204665037E-03
    0.3900000000E+04    0.2175246879E-01    0.6946497773E+00    0.8376248849E-02    0.8031918378E-01    0.3213815454E-03
    0.4100000000E+04    0.2242094156E-01    0.6947012101E+00    0.8676279421E-02    0.8358836850E-01    0.3222791213E-03
    0.4300000000E+04    0.2306007003E-01    0.6947478312E+00    0.8967359418E-02    0.8679650211E-01    0.3231429679E-03
    0.4500000000E+04    0.2367123966E-01    0.6947902826E+00    0.9249860264E-02    0.8994587600E-01    0.3239711510E-03
    0.4700000000E+04    0.2425573996E-01    0.6948290971E+00    0.9524126721E-02    0.9303860008E-01    0.3247653442E-03
    0.4900000000E+04    0.2481478371E-01    0.6948647204E+00    0.9790483497E-02    0.9607666034E-01    0.3255279521E-03
    0.1000000000E+04    0.1197581392E-02    0.6915837629E+00    0.4308625339E-03    0.3906704673E-02    0.4049229705E-02
    0.3000000000E+04    0.1831921608E-01    0.6943329737E+00    0.6896617343E-02    0.6471290528E-01    0.3218113356E-03
    0.5000000000E+04    0.2508511960E-01    0.6948814552E+00    0.9920792432E-02    0.9757578375E-01    0.3258981633E-03
    0.7000000000E+04    0.2940231436E-01    0.6951149888E+00    0.1217850355E-01    0.1251000927E+00    0.3321125951E-03
    0.9000000000E+04    0.3215423714E-01    0.6952437622E+00    0.1391310401E-01    0.1488223168E+00    0.3368175242E-03
    0.1100000000E+05    0.3385995788E-01    0.6953250565E+00    0.1527157228E-01    0.1696800729E+00    0.3406157328E-03
    0.1300000000E+05    0.3484733767E-01    0.6953808694E+00    0.1635049863E-01    0.1883057476E+00    0.3438068293E-03
    0.1500000000E+05    0.3533145986E-01    0.6954214470E+00    0.1721599627E-01    0.2051431257E+00    0.3465620359E-03
    0.1700000000E+05    0.3545785634E-01    0.6954522030E+00    0.1791487752E-01    0.2205141626E+00    0.3489886180E-03
    0.1900000000E+05    0.3532754331E-01    0.6954762643E+00    0.1848125127E-01    0.2346591343E+00    0.3511583169E-03
    0.2100000000E+05    0.3501213899E-01    0.6954955625E+00    0.1894058630E-01    0.2477617927E+00    0.3531215309E-03
    0.2300000000E+05    0.3456332222E-01    0.6955113540E+00    0.1931230620E-01    0.2599656906E+00    0.3549150462E-03
    0.2500000000E+05    0.3401893385E-01    0.6955244914E+00    0.1961149924E-01    0.2713850998E+00    0.3565665517E-03
    0.2700000000E+05    0.3340701851E-01    0.6955355730E+00    0.1985007632E-01    0.2821125104E+00    0.3580974207E-03
    0.2900000000E+05    0.3274856500E-01    0.6955450310E+00    0.2003757446E-01    0.2922239021E+00    0.3595245029E-03
    0.3100000000E+05    0.3205940291E-01    0.6955531852E+00    0.2018172629E-01    0.3017825269E+00    0.3608613215E-03
    0.3300000000E+05    0.3135153925E-01    0.6955602772E+00    0.2028887162E-01    0.3108416749E+00    0.3621188980E-03
    0.3500000000E+05    0.3063411598E-01    0.6955664930E+00    0.2036426020E-01    0.3194467299E+00    0.3633063357E-03
    0.3700000000E+05    0.2991410597E-01    0.6955719780E+00    0.2041227771E-01    0.3276367211E+00    0.3644312421E-03
    0.3900000000E+05    0.2919682534E-01    0.6955768472E+00    0.2043661720E-01    0.3354455101E+00    0.3655000409E-03
    0.4100000000E+05    0.2848631535E-01    0.6955811933E+00    0.2044041061E-01    0.3429027117E+00    0.3665182065E-03
    0.4300000000E+05    0.2778562972E-01    0.6955850912E+00    0.2042633103E-01    0.3500344146E+00    0.3674904427E-03
    0.4500000000E+05    0.2709705323E-01    0.6955886025E+00    0.2039667307E-01    0.3568637541E+00    0.3684208218E-03
    0.4700000000E+05    0.2642226917E-01    0.6955917781E+00    0.2035341666E-01    0.3634113697E+00    0.3693128930E-03
    0.4900000000E+05    0.2576248878E-01    0.6955946605E+00    0.2029827815E-01    0.3696957753E+00    0.3701697688E-03
    0.1000000000E+05    0.3311405104E-01    0.6952885562E+00    0.1463242738E-01    0.1595642665E+00    0.3388070482E-03
    0.3000000000E+05    0.3240699524E-01    0.6955492544E+00    0.2011464377E-01    0.2970687733E+00    0.3602034555E-03
    0.5000000000E+05    0.2543849965E-01    0.6955960031E+00    0.2026672775E-01    0.3727445543E+00    0.3705858789E-03
    0.7000000000E+05    0.1982661473E-01    0.6956137369E+00    0.1928821619E-01    0.4232207959E+00    0.3775840942E-03
    0.9000000000E+05    0.1569528745E-01    0.6956222917E+00    0.1804479782E-01    0.4595363702E+00    0.3828960206E-03
    0.1100000000E+06    0.1265658543E-01    0.6956268985E+00    0.1679885388E-01    0.4868781452E+00    0.3871905711E-03
    0.1300000000E+06    0.1038587616E-01    0.6956295011E+00    0.1563610404E-01    0.5081471315E+00    0.3908021126E-03
    0.1500000000E+06    0.8656538942E-02    0.6956309749E+00    0.1458015187E-01    0.5251195385E+00    0.3939224058E-03
    0.1700000000E+06    0.7314840220E-02    0.6956317663E+00    0.1363134255E-01    0.5389475852E+00    0.3966718716E-03
    0.1900000000E+06    0.6255929454E-02    0.6956321241E+00    0.1278157308E-01    0.5504109115E+00    0.3991311912E-03
    0.2100000000E+06    0.5407190507E-02    0.6956321960E+00    0.1202025528E-01    0.5600549219E+00    0.4013571179E-03
    0.2300000000E+06    0.4717414437E-02    0.6956320744E+00    0.1133673274E-01    0.5682718126E+00    0.4033911199E-03
    0.2500000000E+06    0.4149824030E-02    0.6956318192E+00    0.1072120496E-01    0.5753502897E+00    0.4052644363E-03
    0.2700000000E+06    0.3677542361E-02    0.6956314708E+00    0.1016501061E-01    0.5815072284E+00    0.4070011973E-03
    0.2900000000E+06    0.3280605521E-02    0.6956310570E+00    0.9660639418E-02    0.5869084662E+00    0.4086204369E-03
    0.3100000000E+06    0.2943959949E-02    0.6956305973E+00    0.9201636716E-02    0.5916828244E+00    0.4101374390E-03
    0.3300000000E+06    0.2656096647E-02    0.6956301056E+00    0.8782474245E-02    0.5959317848E+00    0.4115646652E-03
    0.3500000000E+06    0.2408104096E-02    0.6956295922E+00    0.8398418981E-02    0.5997363060E+00    0.4129124119E-03
    0.3700000000E+06    0.2193001025E-02    0.6956290644E+00    0.8045413036E-02    0.6031617127E+00    0.4141892866E-03
    0.3900000000E+06    0.2005259272E-02    0.6956285280E+00    0.7719968776E-02    0.6062612617E+00    0.4154025592E-03
    0.4100000000E+06    0.1840457794E-02    0.6956279870E+00    0.7419079452E-02    0.6090787817E+00    0.4165584269E-03
    0.4300000000E+06    0.1695028478E-02    0.6956274446E+00    0.7140144027E-02    0.6116506537E+00    0.4176622156E-03
    0.4500000000E+06    0.1566067129E-02    0.6956269030E+00    0.6880904365E-02    0.6140073164E+00    0.4187185374E-03
    0.4700000000E+06    0.1451191318E-02    0.6956263641E+00    0.6639392886E-02    0.6161744226E+00    0.4197314123E-03
    0.4900000000E+06    0.1348432333E-02    0.6956258292E+00    0.6413888963E-02    0.6181737374E+00    0.4207043664E-03
    0.1000000000E+06    0.1406214905E-01    0.6956249292E+00    0.1741457883E-01    0.4741126465E+00    0.3851449191E-03
    0.3000000000E+06    0.3105535976E-02    0.6956308319E+00    0.9425832662E-02    0.5893671129E+00    0.4093908814E-03
    0.5000000000E+06    0.1301073740E-02    0.6956255636E+00    0.6306660588E-02    0.6191163880E+00    0.4211768595E-03
    0.7000000000E+06    0.7082659476E-03    0.6956205973E+00    0.4718925341E-02    0.6325026871E+00    0.4291244919E-03
    0.9000000000E+06    0.4439271787E-03    0.6956163206E+00    0.3763793275E-02    0.6400785425E+00    0.4351582078E-03
    0.1100000000E+07    0.3038416793E-03    0.6956126231E+00    0.3127558539E-02    0.6449439074E+00    0.4400368253E-03
    0.1300000000E+07    0.2208564945E-03    0.6956093808E+00    0.2673898116E-02    0.6483298857E+00    0.4441398205E-03
    0.1500000000E+07    0.1677113203E-03    0.6956064982E+00    0.2334319298E-02    0.6508210450E+00    0.4476848830E-03
    0.1700000000E+07    0.1316558257E-03    0.6956039048E+00    0.2070714470E-02    0.6527301701E+00    0.4508087417E-03
    0.1900000000E+07    0.1060837226E-03    0.6956015479E+00    0.1860218663E-02    0.6542396294E+00    0.4536030157E-03
    0.2100000000E+07    0.8729585620E-04    0.6955993878E+00    0.1688291005E-02    0.6554628776E+00    0.4561321588E-03
    0.2300000000E+07    0.7309063448E-04    0.6955973940E+00    0.1545247047E-02    0.6564741751E+00    0.4584432692E-03
    0.2500000000E+07    0.6209161032E-04    0.6955955423E+00    0.1424389676E-02    0.6573241569E+00    0.4605718294E-03
    0.2700000000E+07    0.5340253980E-04    0.6955938136E+00    0.1320940851E-02    0.6580485302E+00    0.4625452489E-03
    0.2900000000E+07    0.4641960755E-04    0.6955921921E+00    0.1231400806E-02    0.6586731949E+00    0.4643851491E-03
    0.3100000000E+07    0.4072402327E-04    0.6955906652E+00    0.1153147751E-02    0.6592173930E+00    0.4661088923E-03
    0.3300000000E+07    0.3601795956E-04    0.6955892222E+00    0.1084179046E-02    0.6596957173E+00    0.4677306349E-03
    0.3500000000E+07    0.3208494150E-04    0.6955878541E+00    0.1022938768E-02    0.6601194353E+00    0.4692620741E-03
    0.3700000000E+07    0.2876457807E-04    0.6955865535E+00    0.9681998360E-03    0.6604973849E+00    0.4707129887E-03
    0.3900000000E+07    0.2593599503E-04    0.6955853137E+00    0.9189815650E-03    0.6608365953E+00    0.4720916379E-03
    0.4100000000E+07    0.2350670683E-04    0.6955841293E+00    0.8744908263E-03    0.6611427272E+00    0.4734050622E-03
    0.4300000000E+07    0.2140497897E-04    0.6955829953E+00    0.8340792904E-03    0.6614203902E+00    0.4746593129E-03
    0.4500000000E+07    0.1957448378E-04    0.6955819076E+00    0.7972118501E-03    0.6616733759E+00    0.4758596296E-03
    0.4700000000E+07    0.1797049508E-04    0.6955808624E+00    0.7634429577E-03    0.6619048315E+00    0.4770105799E-03
    0.4900000000E+07    0.1655713567E-04    0.6955798565E+00    0.7323986549E-03    0.6621173910E+00    0.4781161700E-03
    0.1000000000E+07    0.3640128051E-03    0.6956144078E+00    0.3416637377E-02    0.6427505575E+00    0.4377129111E-03
    0.3000000000E+07    0.4343179364E-04    0.6955914176E+00    0.1191000734E-02    0.6589543494E+00    0.4652605904E-03
    0.5000000000E+07    0.1591264152E-04    0.6955793673E+00    0.7177974717E-03    0.6622172928E+00    0.4786530756E-03
    0.7000000000E+07    0.8226569261E-05    0.6955710814E+00    0.5127489327E-03    0.6636156915E+00    0.4876842360E-03
    0.9000000000E+07    0.5043069864E-05    0.6955647309E+00    0.3984174626E-03    0.6643921905E+00    0.4945406114E-03
    0.1100000000E+08    0.3424289206E-05    0.6955595663E+00    0.3255679761E-03    0.6648860561E+00    0.5000844218E-03
    0.1300000000E+08    0.2489580003E-05    0.6955552055E+00    0.2751190696E-03    0.6652277873E+00    0.5047468650E-03
    0.1500000000E+08    0.1900884732E-05    0.6955514267E+00    0.2381299361E-03    0.6654782732E+00    0.5087753055E-03
    0.1700000000E+08    0.1505902786E-05    0.6955480893E+00    0.2098561213E-03    0.6656697406E+00    0.5123251118E-03
    0.1900000000E+08    0.1227809583E-05    0.6955450985E+00    0.1875469999E-03    0.6658208419E+00    0.5155003942E-03
    0.2100000000E+08    0.1024438895E-05    0.6955423873E+00    0.1694983915E-03    0.6659431202E+00    0.5183743941E-03
    0.2300000000E+08    0.8710774983E-06    0.6955399066E+00    0.1545983542E-03    0.6660441015E+00    0.5210006315E-03
    0.2500000000E+08    0.7524596586E-06    0.6955376193E+00    0.1420905949E-03    0.6661289020E+00    0.5234194268E-03
    0.2700000000E+08    0.6587404045E-06    0.6955354965E+00    0.1314428736E-03    0.6662011210E+00    0.5256619267E-03
