  Pressure (Pa) 22mC5-500 (mol/kg) 24mC5-500 (mol/kg) 2mC6-500 (mol/kg) 3mC6-500 (mol/kg) C7-500 (mol/kg)
    0.1000000000E+01    0.1633638654E-04    0.1741075893E+00    0.2625993469E-05    0.1676053495E-05    0.4180431314E-02
    0.3000000000E+01    0.3028219357E-04    0.3481215894E+00    0.4622980596E-05    0.4256682432E-05    0.4209048366E-02
    0.5000000000E+01    0.3617742749E-04    0.4350951062E+00    0.5429038044E-05    0.6621536210E-05    0.4221649385E-02
    0.7000000000E+01    0.3940314828E-04    0.4872692711E+00    0.5928269501E-05    0.8881855494E-05    0.4229058588E-02
    0.9000000000E+01    0.4153457549E-04    0.5220482387E+00    0.6339511640E-05    0.1107508399E-04    0.4233956655E-02
    0.1100000000E+02    0.4316351881E-04    0.5468886591E+00    0.6729995015E-05    0.1321994116E-04    0.4237428481E-02
    0.1300000000E+02    0.4454785828E-04    0.5655181361E+00    0.7122289855E-05    0.1532756359E-04    0.4240006546E-02
    0.1500000000E+02    0.4581138028E-04    0.5800072861E+00    0.7523778229E-05    0.1740528766E-04    0.4241984970E-02
    0.1700000000E+02    0.4701750985E-04    0.5915983602E+00    0.7936266432E-05    0.1945828509E-04    0.4243540201E-02
    0.1900000000E+02    0.4820017159E-04    0.6010818254E+00    0.8359478709E-05    0.2149038290E-04    0.4244784836E-02
    0.2100000000E+02    0.4937796439E-04    0.6089846310E+00    0.8792415188E-05    0.2350451849E-04    0.4245794271E-02
    0.2300000000E+02    0.5056115175E-04    0.6156715722E+00    0.9233896258E-05    0.2550301177E-04    0.4246620984E-02
    0.2500000000E+02    0.5175530676E-04    0.6214032085E+00    0.9682778043E-05    0.2748773752E-04    0.4247302687E-02
    0.2700000000E+02    0.5296329901E-04    0.6263706113E+00    0.1013803011E-04    0.2946023964E-04    0.4247867213E-02
    0.2900000000E+02    0.5418641666E-04    0.6307170810E+00    0.1059875498E-04    0.3142180981E-04    0.4248335576E-02
    0.3100000000E+02    0.5542501844E-04    0.6345521985E+00    0.1106418368E-04    0.3337354325E-04    0.4248723955E-02
    0.3300000000E+02    0.5667892077E-04    0.6379611919E+00    0.1153366254E-04    0.3531637938E-04    0.4249045022E-02
    0.3500000000E+02    0.5794763151E-04    0.6410113457E+00    0.1200663766E-04    0.3725113212E-04    0.4249308848E-02
    0.3700000000E+02    0.5923049254E-04    0.6437564871E+00    0.1248264003E-04    0.3917851289E-04    0.4249523549E-02
    0.3900000000E+02    0.6052676713E-04    0.6462401900E+00    0.1296127214E-04    0.4109914836E-04    0.4249695739E-02
    0.4100000000E+02    0.6183569338E-04    0.6484981056E+00    0.1344219655E-04    0.4301359442E-04    0.4249830868E-02
    0.4300000000E+02    0.6315651643E-04    0.6505596846E+00    0.1392512615E-04    0.4492234723E-04    0.4249933466E-02
    0.4500000000E+02    0.6448850741E-04    0.6524494692E+00    0.1440981608E-04    0.4682585215E-04    0.4250007338E-02
    0.4700000000E+02    0.6583097397E-04    0.6541880748E+00    0.1489605700E-04    0.4872451100E-04    0.4250055699E-02
    0.4900000000E+02    0.6718326553E-04    0.6557929451E+00    0.1538366949E-04    0.5061868797E-04    0.4250081288E-02
    0.1000000000E+02    0.4239122168E-04    0.5354240160E+00    0.6535392486E-05    0.1215274555E-04    0.4235829782E-02
    0.3000000000E+02    0.5480378410E-04    0.6326927478E+00    0.1083092473E-04    0.3239884415E-04    0.4248538902E-02
    0.5000000000E+02    0.6786290431E-04    0.6565499607E+00    0.1562794103E-04    0.5156420051E-04    0.4250086290E-02
    0.7000000000E+02    0.8184683398E-04    0.6673349586E+00    0.2055774697E-04    0.7030622555E-04    0.4249417132E-02
    0.9000000000E+02    0.9635422529E-04    0.6734813777E+00    0.2553613124E-04    0.8885054674E-04    0.4247885759E-02
    0.1100000000E+03    0.1112018741E-03    0.6774521353E+00    0.3054330983E-04    0.1073117060E-03    0.4245913367E-02
    0.1300000000E+03    0.1263030545E-03    0.6802287079E+00    0.3557595642E-04    0.1257591072E-03    0.4243676523E-02
    0.1500000000E+03    0.1416143556E-03    0.6822793899E+00    0.4063564236E-04    0.1442395531E-03    0.4241262963E-02
    0.1700000000E+03    0.1571135254E-03    0.6838559274E+00    0.4572541968E-04    0.1627870209E-03    0.4238721373E-02
    0.1900000000E+03    0.1727894374E-03    0.6851057182E+00    0.5084868604E-04    0.1814275705E-03    0.4236080921E-02
    0.2100000000E+03    0.1886371710E-03    0.6861208008E+00    0.5600879272E-04    0.2001820704E-03    0.4233360082E-02
    0.2300000000E+03    0.2046554352E-03    0.6869616133E+00    0.6120891807E-04    0.2190678268E-03    0.4230571049E-02
    0.2500000000E+03    0.2208451459E-03    0.6876694835E+00    0.6645204061E-04    0.2380996167E-03    0.4227722110E-02
    0.2700000000E+03    0.2372086060E-03    0.6882736287E+00    0.7174094911E-04    0.2572903714E-03    0.4224819025E-02
    0.2900000000E+03    0.2537490155E-03    0.6887952891E+00    0.7707826519E-04    0.2766516474E-03    0.4221865845E-02
    0.3100000000E+03    0.2704701723E-03    0.6892502761E+00    0.8246646851E-04    0.2961939610E-03    0.4218865439E-02
    0.3300000000E+03    0.2873762839E-03    0.6896506029E+00    0.8790792065E-04    0.3159270320E-03    0.4215819827E-02
    0.3500000000E+03    0.3044718481E-03    0.6900055601E+00    0.9340488652E-04    0.3358599657E-03    0.4212730413E-02
    0.3700000000E+03    0.3217615764E-03    0.6903224455E+00    0.9895955301E-04    0.3560013922E-03    0.4209598138E-02
    0.3900000000E+03    0.3392503451E-03    0.6906070718E+00    0.1045740450E-03    0.3763595738E-03    0.4206423591E-02
    0.4100000000E+03    0.3569431637E-03    0.6908641254E+00    0.1102504390E-03    0.3969424906E-03    0.4203207089E-02
    0.4300000000E+03    0.3748451551E-03    0.6910974272E+00    0.1159907751E-03    0.4177579088E-03    0.4199948734E-02
    0.4500000000E+03    0.3929615449E-03    0.6913101230E+00    0.1217970671E-03    0.4388134363E-03    0.4196648456E-02
    0.4700000000E+03    0.4112976542E-03    0.6915048269E+00    0.1276713111E-03    0.4601165688E-03    0.4193306043E-02
    0.4900000000E+03    0.4298588977E-03    0.6916837285E+00    0.1336154938E-03    0.4816747285E-03    0.4189921167E-02
    0.1000000000E+03    0.1037423510E-03    0.6756595056E+00    0.2803651346E-04    0.9808648495E-04    0.4246940608E-02
    0.3000000000E+03    0.2620867455E-03    0.6890302916E+00    0.7976585585E-04    0.2863995508E-03    0.4220371402E-02
    0.5000000000E+03    0.4392256623E-03    0.6917678425E+00    0.1366144318E-03    0.4925517509E-03    0.4188212677E-02
    0.7000000000E+03    0.6397910685E-03    0.6929474267E+00    0.2007575441E-03    0.7253033870E-03    0.4151668441E-02
    0.9000000000E+03    0.8699900217E-03    0.6936042699E+00    0.2743146715E-03    0.9924704380E-03    0.4109994933E-02
    0.1100000000E+04    0.1137581830E-02    0.6940227518E+00    0.3598206249E-03    0.1303337103E-02    0.4062009746E-02
    0.1300000000E+04    0.1452643931E-02    0.6943126481E+00    0.4605331555E-03    0.1669833740E-02    0.4006120107E-02
    0.1500000000E+04    0.1828627024E-02    0.6945253013E+00    0.5807885761E-03    0.2107852529E-02    0.3940196434E-02
    0.1700000000E+04    0.2283876932E-02    0.6946879335E+00    0.7264988383E-03    0.2639080091E-02    0.3861357922E-02
    0.1900000000E+04    0.2843892337E-02    0.6948163217E+00    0.9058847436E-03    0.3293703094E-02    0.3765651241E-02
    0.2100000000E+04    0.3544692995E-02    0.6949202401E+00    0.1130570005E-02    0.4114453364E-02    0.3647582532E-02
    0.2300000000E+04    0.4437743503E-02    0.6950060673E+00    0.1417184707E-02    0.5162554375E-02    0.3499464569E-02
    0.2500000000E+04    0.5596641269E-02    0.6950781426E+00    0.1789555067E-02    0.6525885417E-02    0.3310607952E-02
    0.2700000000E+04    0.7124289377E-02    0.6951395207E+00    0.2281086135E-02    0.8327986968E-02    0.3066671830E-02
    0.2900000000E+04    0.9153826223E-02    0.6951924143E+00    0.2935201159E-02    0.1073017776E-01    0.2750400861E-02
    0.3100000000E+04    0.1182198718E-01    0.6952384653E+00    0.3796992008E-02    0.1390174310E-01    0.2347147986E-02
    0.3300000000E+04    0.1517271357E-01    0.6952789179E+00    0.4882392489E-02    0.1790759674E-01    0.1860930493E-02
    0.3500000000E+04    0.1898319606E-01    0.6953147321E+00    0.6121886757E-02    0.2250075674E-01    0.1339042770E-02
    0.3700000000E+04    0.2270762272E-01    0.6953466602E+00    0.7341087267E-02    0.2704638392E-01    0.8717920039E-03
    0.3900000000E+04    0.2580697710E-01    0.6953753004E+00    0.8365652523E-02    0.3090212196E-01    0.5337734423E-03
    0.4100000000E+04    0.2813161795E-01    0.6954011342E+00    0.9145249763E-02    0.3387566890E-01    0.3312984501E-03
    0.4300000000E+04    0.2985369060E-01    0.6954245534E+00    0.9733511821E-02    0.3615741110E-01    0.2247838681E-03
    0.4500000000E+04    0.3120284402E-01    0.6954458802E+00    0.1020349178E-01    0.3801222076E-01    0.1727472257E-03
    0.4700000000E+04    0.3234197855E-01    0.6954653821E+00    0.1060732962E-01    0.3963031489E-01    0.1482779701E-03
    0.4900000000E+04    0.3336346907E-01    0.6954832826E+00    0.1097468497E-01    0.4112024688E-01    0.1370146066E-03
    0.1000000000E+04    0.9985469271E-03    0.6938343928E+00    0.3153910596E-03    0.1141771360E-02    0.4086880178E-02
    0.3000000000E+04    0.1040134546E-01    0.6952162095E+00    0.3337875343E-02    0.1221115164E-01    0.2560115772E-02
    0.5000000000E+04    0.3384611686E-01    0.6954916926E+00    0.1114983126E-01    0.4183602569E-01    0.1339642438E-03
    0.7000000000E+04    0.4187220585E-01    0.6956091283E+00    0.1419318801E-01    0.5473802006E-01    0.1295021808E-03
    0.9000000000E+04    0.4800324199E-01    0.6956739863E+00    0.1671630470E-01    0.6614466447E-01    0.1313254278E-03
    0.1100000000E+05    0.5277839639E-01    0.6957150031E+00    0.1885600423E-01    0.7643332510E-01    0.1328020499E-03
    0.1300000000E+05    0.5653116335E-01    0.6957432164E+00    0.2069590753E-01    0.8582644123E-01    0.1340433488E-03
    0.1500000000E+05    0.5949758781E-01    0.6957637688E+00    0.2229648209E-01    0.9448763365E-01    0.1351155148E-03
    0.1700000000E+05    0.6184899883E-01    0.6957793786E+00    0.2370258232E-01    0.1025402724E+00    0.1360600744E-03
    0.1900000000E+05    0.6371245435E-01    0.6957916165E+00    0.2494821435E-01    0.1100793578E+00    0.1369048299E-03
    0.2100000000E+05    0.6518395367E-01    0.6958014533E+00    0.2605965342E-01    0.1171793950E+00    0.1376693273E-03
    0.2300000000E+05    0.6633722229E-01    0.6958095209E+00    0.2705754235E-01    0.1238997605E+00    0.1383678423E-03
    0.2500000000E+05    0.6722970018E-01    0.6958162480E+00    0.2795833979E-01    0.1302884507E+00    0.1390111254E-03
    0.2700000000E+05    0.6790671429E-01    0.6958219359E+00    0.2877534204E-01    0.1363847559E+00    0.1396074782E-03
    0.2900000000E+05    0.6840444322E-01    0.6958268023E+00    0.2951941805E-01    0.1422212065E+00    0.1401634477E-03
    0.3100000000E+05    0.6875206083E-01    0.6958310083E+00    0.3019954775E-01    0.1478250122E+00    0.1406842899E-03
    0.3300000000E+05    0.6897331072E-01    0.6958346758E+00    0.3082322229E-01    0.1532191442E+00    0.1411742893E-03
    0.3500000000E+05    0.6908767923E-01    0.6958378986E+00    0.3139674616E-01    0.1584231598E+00    0.1416369858E-03
    0.3700000000E+05    0.6911128082E-01    0.6958407500E+00    0.3192546807E-01    0.1634538383E+00    0.1420753379E-03
    0.3900000000E+05    0.6905753413E-01    0.6958432884E+00    0.3241395952E-01    0.1683256785E+00    0.1424918443E-03
    0.4100000000E+05    0.6893768398E-01    0.6958455604E+00    0.3286615452E-01    0.1730512904E+00    0.1428886347E-03
    0.4300000000E+05    0.6876120836E-01    0.6958476040E+00    0.3328545987E-01    0.1776417080E+00    0.1432675394E-03
    0.4500000000E+05    0.6853613868E-01    0.6958494503E+00    0.3367484312E-01    0.1821066400E+00    0.1436301429E-03
    0.4700000000E+05    0.6826931402E-01    0.6958511252E+00    0.3403690335E-01    0.1864546745E+00    0.1439778266E-03
    0.4900000000E+05    0.6796658441E-01    0.6958526501E+00    0.3437392840E-01    0.1906934445E+00    0.1443118017E-03
    0.1000000000E+05    0.5053667618E-01    0.6956965777E+00    0.1782819786E-01    0.7141318057E-01    0.1320987650E-03
    0.3000000000E+05    0.6859542008E-01    0.6958289794E+00    0.2986697704E-01    0.1450506657E+00    0.1404279722E-03
    0.5000000000E+05    0.6780335394E-01    0.6958533621E+00    0.3453369431E-01    0.1927740140E+00    0.1444739875E-03
    0.7000000000E+05    0.6356029538E-01    0.6958629167E+00    0.3680192503E-01    0.2299774612E+00    0.1472019130E-03
    0.9000000000E+05    0.5867910371E-01    0.6958677202E+00    0.3792349999E-01    0.2610099649E+00    0.1492727773E-03
    0.1100000000E+06    0.5391702899E-01    0.6958704512E+00    0.3839287653E-01    0.2877589332E+00    0.1509471381E-03
    0.1300000000E+06    0.4949973000E-01    0.6958721136E+00    0.3845587490E-01    0.3112539730E+00    0.1523552751E-03
    0.1500000000E+06    0.4548163837E-01    0.6958731635E+00    0.3825268254E-01    0.3321433599E+00    0.1535719166E-03
    0.1700000000E+06    0.4185608470E-01    0.6958738357E+00    0.3787057513E-01    0.3508762858E+00    0.1546439955E-03
    0.1900000000E+06    0.3859456159E-01    0.6958742626E+00    0.3736714585E-01    0.3677851373E+00    0.1556029594E-03
    0.2100000000E+06    0.3566207321E-01    0.6958745233E+00    0.3678193444E-01    0.3831274153E+00    0.1564709305E-03
    0.2300000000E+06    0.3302339261E-01    0.6958746683E+00    0.3614283392E-01    0.3971092075E+00    0.1572640737E-03
    0.2500000000E+06    0.3064556853E-01    0.6958747305E+00    0.3546988925E-01    0.4098993841E+00    0.1579945673E-03
    0.2700000000E+06    0.2849880410E-01    0.6958747324E+00    0.3477768195E-01    0.4216387503E+00    0.1586718181E-03
    0.2900000000E+06    0.2655661356E-01    0.6958746900E+00    0.3407689531E-01    0.4324462721E+00    0.1593032468E-03
    0.3100000000E+06    0.2479566485E-01    0.6958746143E+00    0.3337537868E-01    0.4424235038E+00    0.1598948121E-03
    0.3300000000E+06    0.2319549738E-01    0.6958745137E+00    0.3267889132E-01    0.4516578531E+00    0.1604513723E-03
    0.3500000000E+06    0.2173820440E-01    0.6958743943E+00    0.3199163413E-01    0.4602250635E+00    0.1609769419E-03
    0.3700000000E+06    0.2040812123E-01    0.6958742606E+00    0.3131663650E-01    0.4681911463E+00    0.1614748769E-03
    0.3900000000E+06    0.1919153738E-01    0.6958741161E+00    0.3065604182E-01    0.4756139153E+00    0.1619480116E-03
    0.4100000000E+06    0.1807643915E-01    0.6958739636E+00    0.3001132073E-01    0.4825442241E+00    0.1623987625E-03
    0.4300000000E+06    0.1705228341E-01    0.6958738051E+00    0.2938343188E-01    0.4890269780E+00    0.1628292060E-03
    0.4500000000E+06    0.1610980100E-01    0.6958736423E+00    0.2877294413E-01    0.4951019694E+00    0.1632411404E-03
    0.4700000000E+06    0.1524082688E-01    0.6958734765E+00    0.2818013001E-01    0.5008045744E+00    0.1636361333E-03
    0.4900000000E+06    0.1443815383E-01    0.6958733086E+00    0.2760503753E-01    0.5061663369E+00    0.1640155594E-03
    0.1000000000E+06    0.5626286315E-01    0.6958692626E+00    0.3822090191E-01    0.2748432857E+00    0.1501495666E-03
    0.3000000000E+06    0.2565482638E-01    0.6958746557E+00    0.3372582638E-01    0.4375329119E+00    0.1596036864E-03
    0.5000000000E+06    0.1405965851E-01    0.6958732241E+00    0.2732410444E-01    0.5087283352E+00    0.1641998196E-03
    0.7000000000E+06    0.8761905662E-02    0.6958715562E+00    0.2255682254E-01    0.5475469461E+00    0.1672992308E-03
    0.9000000000E+06    0.5950155239E-02    0.6958700387E+00    0.1908368156E-01    0.5715806024E+00    0.1696522989E-03
    0.1100000000E+07    0.4292352070E-02    0.6958686931E+00    0.1648858576E-01    0.5877861655E+00    0.1715549189E-03
    0.1300000000E+07    0.3237325855E-02    0.6958674959E+00    0.1449161076E-01    0.5993975034E+00    0.1731550686E-03
    0.1500000000E+07    0.2526105552E-02    0.6958664214E+00    0.1291366170E-01    0.6081010602E+00    0.1745376381E-03
    0.1700000000E+07    0.2024677234E-02    0.6958654483E+00    0.1163830286E-01    0.6148553930E+00    0.1757559468E-03
    0.1900000000E+07    0.1658271321E-02    0.6958645596E+00    0.1058761240E-01    0.6202428917E+00    0.1768457233E-03
    0.2100000000E+07    0.1382588928E-02    0.6958637420E+00    0.9707861578E-02    0.6246366536E+00    0.1778321029E-03
    0.2300000000E+07    0.1170066074E-02    0.6958629852E+00    0.8960963899E-02    0.6282862113E+00    0.1787334526E-03
    0.2500000000E+07    0.1002839406E-02    0.6958622806E+00    0.8319243800E-02    0.6313645076E+00    0.1795636097E-03
    0.2700000000E+07    0.8689281652E-03    0.6958616214E+00    0.7762144286E-02    0.6339950461E+00    0.1803332635E-03
    0.2900000000E+07    0.7600579867E-03    0.6958610022E+00    0.7274096305E-02    0.6362683019E+00    0.1810508459E-03
    0.3100000000E+07    0.6703677294E-03    0.6958604182E+00    0.6843103522E-02    0.6382520259E+00    0.1817231278E-03
    0.3300000000E+07    0.5956129148E-03    0.6958598656E+00    0.6459779585E-02    0.6399979310E+00    0.1823556301E-03
    0.3500000000E+07    0.5326594646E-03    0.6958593412E+00    0.6116678874E-02    0.6415461560E+00    0.1829529144E-03
    0.3700000000E+07    0.4791529686E-03    0.6958588422E+00    0.5807822038E-02    0.6429283219E+00    0.1835187944E-03
    0.3900000000E+07    0.4332972951E-03    0.6958583661E+00    0.5528353579E-02    0.6441696702E+00    0.1840564910E-03
    0.4100000000E+07    0.3937031413E-03    0.6958579110E+00    0.5274290715E-02    0.6452905901E+00    0.1845687500E-03
    0.4300000000E+07    0.3592823879E-03    0.6958574749E+00    0.5042336458E-02    0.6463077282E+00    0.1850579313E-03
    0.4500000000E+07    0.3291730982E-03    0.6958570564E+00    0.4829738585E-02    0.6472348069E+00    0.1855260783E-03
    0.4700000000E+07    0.3026854164E-03    0.6958566541E+00    0.4634181943E-02    0.6480832382E+00    0.1859749724E-03
    0.4900000000E+07    0.2792619698E-03    0.6958562666E+00    0.4453705248E-02    0.6488625891E+00    0.1864061759E-03
    0.1000000000E+07    0.5021518261E-02    0.6958693457E+00    0.1769678228E-01    0.5804083591E+00    0.1706486091E-03
    0.3000000000E+07    0.7131115361E-03    0.6958607060E+00    0.7052106846E-02    0.6372928082E+00    0.1813922790E-03
    0.5000000000E+07    0.2685539941E-03    0.6958560782E+00    0.4368589461E-02    0.6492289344E+00    0.1866155807E-03
    0.7000000000E+07    0.1394330141E-03    0.6958528806E+00    0.3157593082E-02    0.6543590645E+00    0.1901379574E-03
    0.9000000000E+07    0.8509138111E-04    0.6958504247E+00    0.2469592257E-02    0.6572075680E+00    0.1928121497E-03
    0.1100000000E+08    0.5724985686E-04    0.6958484251E+00    0.2026423369E-02    0.6590182477E+00    0.1949744245E-03
    0.1300000000E+08    0.4111920432E-04    0.6958467355E+00    0.1717334063E-02    0.6602703472E+00    0.1967929514E-03
    0.1500000000E+08    0.3095022163E-04    0.6958452708E+00    0.1489568368E-02    0.6611875537E+00    0.1983642050E-03
    0.1700000000E+08    0.2413183836E-04    0.6958439767E+00    0.1314816225E-02    0.6618882461E+00    0.1997487807E-03
    0.1900000000E+08    0.1933981870E-04    0.6958428168E+00    0.1176530722E-02    0.6624409198E+00    0.2009872831E-03
    0.2100000000E+08    0.1584464365E-04    0.6958417651E+00    0.1064396401E-02    0.6628879495E+00    0.2021082774E-03
    0.2300000000E+08    0.1321766934E-04    0.6958408027E+00    0.9716497574E-03    0.6632569528E+00    0.2031326374E-03
    0.2500000000E+08    0.1119367416E-04    0.6958399153E+00    0.8936723930E-03    0.6635666975E+00    0.2040760889E-03
    0.2700000000E+08    0.9601440429E-05    0.6958390917E+00    0.8272035227E-03    0.6638303823E+00    0.2049507798E-03
