  Pressure (Pa) 22mC5-500 (mol/kg) 24mC5-500 (mol/kg) 2mC6-500 (mol/kg) 3mC6-500 (mol/kg) C7-500 (mol/kg)
    0.1000000000E+01    0.1668299457E-04    0.1741095877E+00    0.8194198670E-05    0.2041277297E-05    0.4146199838E-02
    0.3000000000E+01    0.3102184255E-04    0.3481307622E+00    0.1454385255E-04    0.5036266241E-05    0.4171415632E-02
    0.5000000000E+01    0.3724776046E-04    0.4351107979E+00    0.1726389158E-04    0.7750030399E-05    0.4178167648E-02
    0.7000000000E+01    0.4077654945E-04    0.4872902625E+00    0.1903835828E-04    0.1033043831E-04    0.4181353590E-02
    0.9000000000E+01    0.4319433513E-04    0.5220735272E+00    0.2053370559E-04    0.1282637039E-04    0.4183110993E-02
    0.1100000000E+02    0.4509816868E-04    0.5469174796E+00    0.2195639567E-04    0.1526202678E-04    0.4184135410E-02
    0.1300000000E+02    0.4674895772E-04    0.5655499062E+00    0.2337689147E-04    0.1765170624E-04    0.4184730232E-02
    0.1500000000E+02    0.4827243562E-04    0.5800415563E+00    0.2481910785E-04    0.2000477833E-04    0.4185050880E-02
    0.1700000000E+02    0.4973337209E-04    0.5916347777E+00    0.2628968470E-04    0.2232781939E-04    0.4185185734E-02
    0.1900000000E+02    0.5116666924E-04    0.6011201090E+00    0.2778868222E-04    0.2462567806E-04    0.4185188924E-02
    0.2100000000E+02    0.5259166453E-04    0.6090245529E+00    0.2931377132E-04    0.2690206413E-04    0.4185095505E-02
    0.2300000000E+02    0.5401919665E-04    0.6157129455E+00    0.3086193542E-04    0.2915989943E-04    0.4184929196E-02
    0.2500000000E+02    0.5545529774E-04    0.6214458777E+00    0.3243015974E-04    0.3140153936E-04    0.4184706620E-02
    0.2700000000E+02    0.5690321109E-04    0.6264144458E+00    0.3401569247E-04    0.3362891944E-04    0.4184439776E-02
    0.2900000000E+02    0.5836453438E-04    0.6307619702E+00    0.3561612227E-04    0.3584365577E-04    0.4184137534E-02
    0.3100000000E+02    0.5983988627E-04    0.6345980474E+00    0.3722937852E-04    0.3804711626E-04    0.4183806590E-02
    0.3300000000E+02    0.6132930429E-04    0.6380079186E+00    0.3885370110E-04    0.4024047234E-04    0.4183452094E-02
    0.3500000000E+02    0.6283248635E-04    0.6410588791E+00    0.4048760117E-04    0.4242473753E-04    0.4183078064E-02
    0.3700000000E+02    0.6434893930E-04    0.6438047649E+00    0.4212982169E-04    0.4460079650E-04    0.4182687682E-02
    0.3900000000E+02    0.6587807078E-04    0.6462891573E+00    0.4377930149E-04    0.4676942769E-04    0.4182283496E-02
    0.4100000000E+02    0.6741924622E-04    0.6485477138E+00    0.4543514407E-04    0.4893132083E-04    0.4181867570E-02
    0.4300000000E+02    0.6897182380E-04    0.6506098904E+00    0.4709659099E-04    0.5108709103E-04    0.4181441592E-02
    0.4500000000E+02    0.7053517565E-04    0.6525002341E+00    0.4876299962E-04    0.5323728993E-04    0.4181006954E-02
    0.4700000000E+02    0.7210870015E-04    0.6542393640E+00    0.5043382456E-04    0.5538241487E-04    0.4180564813E-02
    0.4900000000E+02    0.7369182864E-04    0.6558447273E+00    0.5210860218E-04    0.5752291634E-04    0.4180116138E-02
    0.1000000000E+02    0.4418963705E-04    0.5354511534E+00    0.2124806302E-04    0.1405068675E-04    0.4183690848E-02
    0.3000000000E+02    0.5910044419E-04    0.6327381278E+00    0.3642126393E-04    0.3694671818E-04    0.4183975297E-02
    0.5000000000E+02    0.7448682650E-04    0.6566019787E+00    0.5294734752E-04    0.5859156279E-04    0.4179889611E-02
    0.7000000000E+02    0.9078130688E-04    0.6673905982E+00    0.6986052235E-04    0.7980462698E-04    0.4175159477E-02
    0.9000000000E+02    0.1076329486E-03    0.6735393789E+00    0.8695414203E-04    0.1008647793E-03    0.4170233720E-02
    0.1100000000E+03    0.1248843019E-03    0.6775118391E+00    0.1041924339E-03    0.1219139412E-03    0.4165223931E-02
    0.1300000000E+03    0.1424649352E-03    0.6802897207E+00    0.1215804012E-03    0.1430389822E-03    0.4160164934E-02
    0.1500000000E+03    0.1603432479E-03    0.6823414544E+00    0.1391336691E-03    0.1642994829E-03    0.4155067611E-02
    0.1700000000E+03    0.1785064042E-03    0.6839188648E+00    0.1568701353E-03    0.1857397062E-03    0.4149934026E-02
    0.1900000000E+03    0.1969513231E-03    0.6851693981E+00    0.1748074960E-03    0.2073945801E-03    0.4144762680E-02
    0.2100000000E+03    0.2156803150E-03    0.6861851244E+00    0.1929625764E-03    0.2292930083E-03    0.4139550588E-02
    0.2300000000E+03    0.2346988343E-03    0.6870265038E+00    0.2113512507E-03    0.2514598461E-03    0.4134294160E-02
    0.2500000000E+03    0.2540142634E-03    0.6877348795E+00    0.2299885495E-03    0.2739171493E-03    0.4128989598E-02
    0.2700000000E+03    0.2736352295E-03    0.6883394801E+00    0.2488888152E-03    0.2966850037E-03    0.4123633067E-02
    0.2900000000E+03    0.2935712111E-03    0.6888615545E+00    0.2680658577E-03    0.3197820969E-03    0.4118220774E-02
    0.3100000000E+03    0.3138323079E-03    0.6893169208E+00    0.2875330929E-03    0.3432261269E-03    0.4112748994E-02
    0.3300000000E+03    0.3344291058E-03    0.6897175972E+00    0.3073036639E-03    0.3670341020E-03    0.4107214075E-02
    0.3500000000E+03    0.3553725990E-03    0.6900728784E+00    0.3273905430E-03    0.3912225685E-03    0.4101612427E-02
    0.3700000000E+03    0.3766741481E-03    0.6903900659E+00    0.3478066196E-03    0.4158077866E-03    0.4095940516E-02
    0.3900000000E+03    0.3983454602E-03    0.6906749747E+00    0.3685647756E-03    0.4408058699E-03    0.4090194845E-02
    0.4100000000E+03    0.4203985829E-03    0.6909322939E+00    0.3896779500E-03    0.4662328996E-03    0.4084371944E-02
    0.4300000000E+03    0.4428459083E-03    0.6911658459E+00    0.4111591968E-03    0.4921050180E-03    0.4078468351E-02
    0.4500000000E+03    0.4657001832E-03    0.6913787785E+00    0.4330217355E-03    0.5184385095E-03    0.4072480602E-02
    0.4700000000E+03    0.4889745238E-03    0.6915737068E+00    0.4552789974E-03    0.5452498695E-03    0.4066405220E-02
    0.4900000000E+03    0.5126824330E-03    0.6917528219E+00    0.4779446677E-03    0.5725558661E-03    0.4060238699E-02
    0.1000000000E+03    0.1162143347E-03    0.6757184195E+00    0.9555531544E-04    0.1113844574E-03    0.4167736286E-02
    0.3000000000E+03    0.3036604688E-03    0.6890967507E+00    0.2777623747E-03    0.3314596686E-03    0.4115492550E-02
    0.5000000000E+03    0.5247033061E-03    0.6918370388E+00    0.4894350116E-03    0.5863996814E-03    0.4057120157E-02
    0.7000000000E+03    0.7915728127E-03    0.6930182901E+00    0.7443405264E-03    0.8937060331E-03    0.3989058801E-02
    0.9000000000E+03    0.1121492532E-02    0.6936763332E+00    0.1059382106E-02    0.1273976368E-02    0.3907234211E-02
    0.1100000000E+04    0.1539331766E-02    0.6940957537E+00    0.1458573820E-02    0.1756423829E-02    0.3806161571E-02
    0.1300000000E+04    0.2082489816E-02    0.6943864218E+00    0.1977938091E-02    0.2384911908E-02    0.3677894239E-02
    0.1500000000E+04    0.2808894465E-02    0.6945997311E+00    0.2673296750E-02    0.3227514284E-02    0.3510500617E-02
    0.1700000000E+04    0.3809750731E-02    0.6947629343E+00    0.3632687279E-02    0.4391804374E-02    0.3285854157E-02
    0.1900000000E+04    0.5226634517E-02    0.6948918282E+00    0.4993165971E-02    0.6045746135E-02    0.2977229047E-02
    0.2100000000E+04    0.7258551825E-02    0.6949962009E+00    0.6948454673E-02    0.8428031207E-02    0.2550544677E-02
    0.2300000000E+04    0.1009300506E-01    0.6950824406E+00    0.9684254700E-02    0.1177124123E-01    0.1983522269E-02
    0.2500000000E+04    0.1363091572E-01    0.6951548937E+00    0.1311461114E-01    0.1598192791E-01    0.1324306703E-02
    0.2700000000E+04    0.1719020879E-01    0.6952166204E+00    0.1659160808E-01    0.2028087335E-01    0.7335988374E-03
    0.2900000000E+04    0.2000239908E-01    0.6952698378E+00    0.1937374760E-01    0.2376241816E-01    0.3531941348E-03
    0.3100000000E+04    0.2196987667E-01    0.6953161912E+00    0.2135802652E-01    0.2629036341E-01    0.1673264601E-03
    0.3300000000E+04    0.2340454331E-01    0.6953569274E+00    0.2283827416E-01    0.2821526884E-01    0.8994677555E-04
    0.3500000000E+04    0.2457119634E-01    0.6953930087E+00    0.2406700132E-01    0.2984211650E-01    0.5994953096E-04
    0.3700000000E+04    0.2560600409E-01    0.6954251893E+00    0.2517462023E-01    0.3132911889E-01    0.4864125409E-04
    0.3900000000E+04    0.2656830864E-01    0.6954540689E+00    0.2621800313E-01    0.3274534505E-01    0.4444160094E-04
    0.4100000000E+04    0.2748288901E-01    0.6954801303E+00    0.2722078205E-01    0.3411938144E-01    0.4291951084E-04
    0.4300000000E+04    0.2836034163E-01    0.6955037665E+00    0.2819290472E-01    0.3546309253E-01    0.4240568709E-04
    0.4500000000E+04    0.2920560060E-01    0.6955253007E+00    0.2913884660E-01    0.3678164270E-01    0.4227203859E-04
    0.4700000000E+04    0.3002133655E-01    0.6955450011E+00    0.3006089913E-01    0.3807752417E-01    0.4228128306E-04
    0.4900000000E+04    0.3080929380E-01    0.6955630922E+00    0.3096046751E-01    0.3935215190E-01    0.4234328228E-04
    0.1000000000E+04    0.1317452959E-02    0.6939069507E+00    0.1246562070E-02    0.1500119152E-02    0.3859528067E-02
    0.3000000000E+04    0.2107437720E-01    0.6952937868E+00    0.2044943807E-01    0.2512648217E-01    0.2413545920E-03
    0.5000000000E+04    0.3119328424E-01    0.6955715945E+00    0.3140215024E-01    0.3998180742E-01    0.4238227076E-04
    0.7000000000E+04    0.3767657487E-01    0.6956905776E+00    0.3925067856E-01    0.5163417088E-01    0.4317071894E-04
    0.9000000000E+04    0.4239361047E-01    0.6957566029E+00    0.4560196190E-01    0.6182599035E-01    0.4378003456E-04
    0.1100000000E+05    0.4587484954E-01    0.6957985602E+00    0.5085550743E-01    0.7091154038E-01    0.4427235434E-04
    0.1300000000E+05    0.4846482561E-01    0.6958275625E+00    0.5527822021E-01    0.7913293990E-01    0.4468621484E-04
    0.1500000000E+05    0.5039601309E-01    0.6958487955E+00    0.5905546756E-01    0.8666202833E-01    0.4504368553E-04
    0.1700000000E+05    0.5183027583E-01    0.6958650042E+00    0.6232017198E-01    0.9362460849E-01    0.4535861152E-04
    0.1900000000E+05    0.5288332637E-01    0.6958777773E+00    0.6517025697E-01    0.1001152221E+00    0.4564026220E-04
    0.2100000000E+05    0.5363976330E-01    0.6958880982E+00    0.6767954778E-01    0.1062065258E+00    0.4589515430E-04
    0.2300000000E+05    0.5416264417E-01    0.6958966078E+00    0.6990482521E-01    0.1119554482E+00    0.4612804741E-04
    0.2500000000E+05    0.5449976571E-01    0.6959037418E+00    0.7189053019E-01    0.1174073553E+00    0.4634252577E-04
    0.2700000000E+05    0.5468789299E-01    0.6959098068E+00    0.7367198498E-01    0.1225989410E+00    0.4654135724E-04
    0.2900000000E+05    0.5475567361E-01    0.6959150246E+00    0.7527765059E-01    0.1275602800E+00    0.4672672460E-04
    0.3100000000E+05    0.5472568707E-01    0.6959195598E+00    0.7673074133E-01    0.1323163148E+00    0.4690038019E-04
    0.3300000000E+05    0.5461591233E-01    0.6959235368E+00    0.7805040116E-01    0.1368879521E+00    0.4706375256E-04
    0.3500000000E+05    0.5444079595E-01    0.6959270519E+00    0.7925257474E-01    0.1412928845E+00    0.4721802187E-04
    0.3700000000E+05    0.5421204113E-01    0.6959301802E+00    0.8035066236E-01    0.1455462163E+00    0.4736417455E-04
    0.3900000000E+05    0.5393919818E-01    0.6959329816E+00    0.8135601877E-01    0.1496609441E+00    0.4750304368E-04
    0.4100000000E+05    0.5363011200E-01    0.6959355041E+00    0.8227833809E-01    0.1536483331E+00    0.4763533930E-04
    0.4300000000E+05    0.5329126478E-01    0.6959377869E+00    0.8312595400E-01    0.1575182129E+00    0.4776167165E-04
    0.4500000000E+05    0.5292804125E-01    0.6959398620E+00    0.8390607634E-01    0.1612792135E+00    0.4788256903E-04
    0.4700000000E+05    0.5254493588E-01    0.6959417563E+00    0.8462497950E-01    0.1649389549E+00    0.4799849197E-04
    0.4900000000E+05    0.5214571609E-01    0.6959434920E+00    0.8528815357E-01    0.1685042009E+00    0.4810984436E-04
    0.1000000000E+05    0.4426389195E-01    0.6957796871E+00    0.4834690454E-01    0.6648989358E-01    0.4403787300E-04
    0.3000000000E+05    0.5475168385E-01    0.6959173690E+00    0.7602198737E-01    0.1299625700E+00    0.4681492050E-04
    0.5000000000E+05    0.5194107429E-01    0.6959443063E+00    0.8560037399E-01    0.1702532991E+00    0.4816391957E-04
    0.7000000000E+05    0.4755170742E-01    0.6959555816E+00    0.8983377995E-01    0.2014492150E+00    0.4907345400E-04
    0.9000000000E+05    0.4325501980E-01    0.6959616906E+00    0.9166449907E-01    0.2274019966E+00    0.4976391637E-04
    0.1100000000E+06    0.3937392687E-01    0.6959654769E+00    0.9219970012E-01    0.2497840565E+00    0.5032217934E-04
    0.1300000000E+06    0.3594194677E-01    0.6959680266E+00    0.9196644967E-01    0.2695064593E+00    0.5079167956E-04
    0.1500000000E+06    0.3292136313E-01    0.6959698430E+00    0.9125262585E-01    0.2871371988E+00    0.5119733238E-04
    0.1700000000E+06    0.3026008419E-01    0.6959711907E+00    0.9022997958E-01    0.3030629949E+00    0.5155478583E-04
    0.1900000000E+06    0.2790783259E-01    0.6959722215E+00    0.8900731616E-01    0.3175637068E+00    0.5187452490E-04
    0.2100000000E+06    0.2582041071E-01    0.6959730290E+00    0.8765653660E-01    0.3308509885E+00    0.5216392548E-04
    0.2300000000E+06    0.2396022564E-01    0.6959736735E+00    0.8622661217E-01    0.3430902749E+00    0.5242837721E-04
    0.2500000000E+06    0.2229567398E-01    0.6959741958E+00    0.8475162436E-01    0.3544141955E+00    0.5267194041E-04
    0.2700000000E+06    0.2080025999E-01    0.6959746243E+00    0.8325564864E-01    0.3649312283E+00    0.5289775157E-04
    0.2900000000E+06    0.1945173907E-01    0.6959749795E+00    0.8175585240E-01    0.3747315404E+00    0.5310828480E-04
    0.3100000000E+06    0.1823137293E-01    0.6959752764E+00    0.8026452996E-01    0.3838910783E+00    0.5330552682E-04
    0.3300000000E+06    0.1712330942E-01    0.6959755263E+00    0.7879047851E-01    0.3924745241E+00    0.5349109750E-04
    0.3500000000E+06    0.1611407573E-01    0.6959757378E+00    0.7733995073E-01    0.4005374866E+00    0.5366633533E-04
    0.3700000000E+06    0.1519216703E-01    0.6959759177E+00    0.7591732770E-01    0.4081281628E+00    0.5383235922E-04
    0.3900000000E+06    0.1434771313E-01    0.6959760712E+00    0.7452560232E-01    0.4152886212E+00    0.5399011424E-04
    0.4100000000E+06    0.1357220790E-01    0.6959762025E+00    0.7316673155E-01    0.4220558099E+00    0.5414040601E-04
    0.4300000000E+06    0.1285828890E-01    0.6959763151E+00    0.7184189612E-01    0.4284623590E+00    0.5428392692E-04
    0.4500000000E+06    0.1219955718E-01    0.6959764116E+00    0.7055169420E-01    0.4345372281E+00    0.5442127653E-04
    0.4700000000E+06    0.1159042926E-01    0.6959764945E+00    0.6929628683E-01    0.4403062342E+00    0.5455297746E-04
    0.4900000000E+06    0.1102601493E-01    0.6959765655E+00    0.6807550815E-01    0.4457924863E+00    0.5467948813E-04
    0.1000000000E+06    0.4125754579E-01    0.6959637857E+00    0.9205320601E-01    0.2389714598E+00    0.5005625401E-04
    0.3000000000E+06    0.1882658860E-01    0.6959751345E+00    0.8100851298E-01    0.3793871282E+00    0.5320845851E-04
    0.5000000000E+06    0.1075921146E-01    0.6959765971E+00    0.6747798443E-01    0.4484361507E+00    0.5474092534E-04
    0.7000000000E+06    0.6961674509E-02    0.6959768806E+00    0.5717677999E-01    0.4905447317E+00    0.5577435404E-04
    0.9000000000E+06    0.4871444995E-02    0.6959768447E+00    0.4941228678E-01    0.5190300707E+00    0.5655893513E-04
    0.1100000000E+07    0.3598507263E-02    0.6959766970E+00    0.4342598153E-01    0.5396084777E+00    0.5719332608E-04
    0.1300000000E+07    0.2766060816E-02    0.6959765072E+00    0.3869475975E-01    0.5551773218E+00    0.5772686586E-04
    0.1500000000E+07    0.2192005973E-02    0.6959763031E+00    0.3487158629E-01    0.5673689361E+00    0.5818785880E-04
    0.1700000000E+07    0.1779510005E-02    0.6959760969E+00    0.3172276046E-01    0.5771748677E+00    0.5859408283E-04
    0.1900000000E+07    0.1473199970E-02    0.6959758943E+00    0.2908685526E-01    0.5852327521E+00    0.5895745075E-04
    0.2100000000E+07    0.1239543974E-02    0.6959756978E+00    0.2684941857E-01    0.5919714648E+00    0.5928634324E-04
    0.2300000000E+07    0.1057271303E-02    0.6959755083E+00    0.2492731363E-01    0.5976901606E+00    0.5958688436E-04
    0.2500000000E+07    0.9123603956E-03    0.6959753263E+00    0.2325881980E-01    0.6026038968E+00    0.5986368785E-04
    0.2700000000E+07    0.7952642758E-03    0.6959751517E+00    0.2179721702E-01    0.6068712547E+00    0.6012031774E-04
    0.2900000000E+07    0.6993004126E-03    0.6959749842E+00    0.2050652357E-01    0.6106117393E+00    0.6035958547E-04
    0.3100000000E+07    0.6196781553E-03    0.6959748235E+00    0.1935859773E-01    0.6139171180E+00    0.6058374867E-04
    0.3300000000E+07    0.5528906976E-03    0.6959746691E+00    0.1833112416E-01    0.6168590263E+00    0.6079464811E-04
    0.3500000000E+07    0.4963233806E-03    0.6959745207E+00    0.1740618717E-01    0.6194942009E+00    0.6099380483E-04
    0.3700000000E+07    0.4479946353E-03    0.6959743779E+00    0.1656924186E-01    0.6218681613E+00    0.6118249034E-04
    0.3900000000E+07    0.4063806106E-03    0.6959742403E+00    0.1580835982E-01    0.6240178500E+00    0.6136177865E-04
    0.4100000000E+07    0.3702939593E-03    0.6959741076E+00    0.1511366809E-01    0.6259735621E+00    0.6153258525E-04
    0.4300000000E+07    0.3387984806E-03    0.6959739796E+00    0.1447692600E-01    0.6277603751E+00    0.6169569701E-04
    0.4500000000E+07    0.3111479901E-03    0.6959738558E+00    0.1389120219E-01    0.6293992255E+00    0.6185179526E-04
    0.4700000000E+07    0.2867418667E-03    0.6959737360E+00    0.1335062517E-01    0.6309077295E+00    0.6200147396E-04
    0.4900000000E+07    0.2650922732E-03    0.6959736200E+00    0.1285018869E-01    0.6323008156E+00    0.6214525403E-04
    0.1000000000E+07    0.4163016897E-02    0.6959767789E+00    0.4623456539E-01    0.5300856971E+00    0.5689113479E-04
    0.3000000000E+07    0.6576904548E-03    0.6959749030E+00    0.1991622693E-01    0.6123139383E+00    0.6047343161E-04
    0.5000000000E+07    0.2551734101E-03    0.6959735634E+00    0.1261365686E-01    0.6329581311E+00    0.6221507781E-04
    0.7000000000E+07    0.1343329830E-03    0.6959725832E+00    0.9211721950E-02    0.6423344026E+00    0.6338958007E-04
    0.9000000000E+07    0.8263580610E-04    0.6959718107E+00    0.7247686294E-02    0.6476844913E+00    0.6428126817E-04
    0.1100000000E+08    0.5588674319E-04    0.6959711723E+00    0.5970192926E-02    0.6511411337E+00    0.6500226444E-04
    0.1300000000E+08    0.4028642394E-04    0.6959706275E+00    0.5073352096E-02    0.6535573673E+00    0.6560864233E-04
    0.1500000000E+08    0.3040512049E-04    0.6959701519E+00    0.4409360994E-02    0.6553409516E+00    0.6613256976E-04
    0.1700000000E+08    0.2375599178E-04    0.6959697294E+00    0.3898108205E-02    0.6567112961E+00    0.6659425146E-04
    0.1900000000E+08    0.1906992753E-04    0.6959693491E+00    0.3492420824E-02    0.6577969229E+00    0.6700722646E-04
    0.2100000000E+08    0.1564441232E-04    0.6959690031E+00    0.3162721858E-02    0.6586780964E+00    0.6738101949E-04
    0.2300000000E+08    0.1306508900E-04    0.6959686856E+00    0.2889529853E-02    0.6594075220E+00    0.6772259067E-04
    0.2500000000E+08    0.1107477621E-04    0.6959683921E+00    0.2659492391E-02    0.6600212349E+00    0.6803718355E-04
    0.2700000000E+08    0.9507016445E-05    0.6959681191E+00    0.2463152812E-02    0.6605447054E+00    0.6832884872E-04
