  Pressure (Pa) 22mC5-500 (mol/kg) 24mC5-500 (mol/kg) 2mC6-500 (mol/kg) 3mC6-500 (mol/kg) C7-500 (mol/kg)
    0.1000000000E+01    0.1645007226E-04    0.1741094069E+00    0.2660556526E-05    0.2693638797E-05    0.4167993905E-02
    0.3000000000E+01    0.3052940396E-04    0.3481289244E+00    0.4698128120E-05    0.6775378210E-05    0.4191796498E-02
    0.5000000000E+01    0.3653832551E-04    0.4351066517E+00    0.5538765178E-05    0.1050250181E-04    0.4200829895E-02
    0.7000000000E+01    0.3986910085E-04    0.4872838453E+00    0.6069978847E-05    0.1405950023E-04    0.4205840712E-02
    0.9000000000E+01    0.4210050903E-04    0.5220650620E+00    0.6511682692E-05    0.1750807296E-04    0.4209000723E-02
    0.1100000000E+02    0.4382607331E-04    0.5469072142E+00    0.6931624263E-05    0.2087895461E-04    0.4211135276E-02
    0.1300000000E+02    0.4530466216E-04    0.5655380666E+00    0.7352671644E-05    0.2419038232E-04    0.4212637326E-02
    0.1500000000E+02    0.4666069623E-04    0.5800283375E+00    0.7782397962E-05    0.2745434542E-04    0.4213719981E-02
    0.1700000000E+02    0.4795803757E-04    0.5916203445E+00    0.8222741173E-05    0.3067928140E-04    0.4214509478E-02
    0.1900000000E+02    0.4923092779E-04    0.6011045999E+00    0.8673521062E-05    0.3387142489E-04    0.4215085599E-02
    0.2100000000E+02    0.5049820486E-04    0.6090080849E+00    0.9133809843E-05    0.3703555530E-04    0.4215501355E-02
    0.2300000000E+02    0.5177031815E-04    0.6156956177E+00    0.9602483982E-05    0.4017544319E-04    0.4215793398E-02
    0.2500000000E+02    0.5305298889E-04    0.6214277745E+00    0.1007844432E-04    0.4329413270E-04    0.4215987911E-02
    0.2700000000E+02    0.5434920715E-04    0.6263956397E+00    0.1056069681E-04    0.4639412862E-04    0.4216104117E-02
    0.2900000000E+02    0.5566036077E-04    0.6307425237E+00    0.1104837409E-04    0.4947752492E-04    0.4216156454E-02
    0.3100000000E+02    0.5698689213E-04    0.6345780148E+00    0.1154073250E-04    0.5254609592E-04    0.4216155988E-02
    0.3300000000E+02    0.5832868883E-04    0.6379873475E+00    0.1203713987E-04    0.5560136269E-04    0.4216111345E-02
    0.3500000000E+02    0.5968531986E-04    0.6410378112E+00    0.1253706083E-04    0.5864464236E-04    0.4216029353E-02
    0.3700000000E+02    0.6105618018E-04    0.6437832370E+00    0.1304004245E-04    0.6167708572E-04    0.4215915488E-02
    0.3900000000E+02    0.6244057956E-04    0.6462672021E+00    0.1354570129E-04    0.6469970607E-04    0.4215774194E-02
    0.4100000000E+02    0.6383779710E-04    0.6485253605E+00    0.1405371235E-04    0.6771340199E-04    0.4215609118E-02
    0.4300000000E+02    0.6524711440E-04    0.6505871653E+00    0.1456379957E-04    0.7071897531E-04    0.4215423279E-02
    0.4500000000E+02    0.6666783521E-04    0.6524771605E+00    0.1507572800E-04    0.7371714566E-04    0.4215219202E-02
    0.4700000000E+02    0.6809929652E-04    0.6542159632E+00    0.1558929720E-04    0.7670856214E-04    0.4214999011E-02
    0.4900000000E+02    0.6954087428E-04    0.6558210185E+00    0.1610433581E-04    0.7969381311E-04    0.4214764508E-02
    0.1000000000E+02    0.4300581288E-04    0.5354417581E+00    0.6722396126E-05    0.1920189217E-04    0.4210165689E-02
    0.3000000000E+02    0.5632170159E-04    0.6327183819E+00    0.1129401010E-04    0.5101356323E-04    0.4216162234E-02
    0.5000000000E+02    0.7026527308E-04    0.6565781224E+00    0.1636235942E-04    0.8118429575E-04    0.4214642379E-02
    0.7000000000E+02    0.8516459329E-04    0.6673644741E+00    0.2157383106E-04    0.1107786329E-03    0.4211725554E-02
    0.9000000000E+02    0.1006349242E-03    0.6735117796E+00    0.2684927420E-04    0.1401614579E-03    0.4208288635E-02
    0.1100000000E+03    0.1165019803E-03    0.6774831833E+00    0.3217164036E-04    0.1695189585E-03    0.4204590940E-02
    0.1300000000E+03    0.1326850885E-03    0.6802602590E+00    0.3753947323E-04    0.1989651325E-03    0.4200735233E-02
    0.1500000000E+03    0.1491455865E-03    0.6823113506E+00    0.4295582132E-04    0.2285780486E-03    0.4196769311E-02
    0.1700000000E+03    0.1658653148E-03    0.6838882323E+00    0.4842501730E-04    0.2584155300E-03    0.4192717634E-02
    0.1900000000E+03    0.1828368982E-03    0.6851383193E+00    0.5395163824E-04    0.2885230107E-03    0.4188593414E-02
    0.2100000000E+03    0.2000589958E-03    0.6861536616E+00    0.5954016511E-04    0.3189378915E-03    0.4184403928E-02
    0.2300000000E+03    0.2175338250E-03    0.6869947050E+00    0.6519488659E-04    0.3496921422E-03    0.4180153103E-02
    0.2500000000E+03    0.2352658018E-03    0.6877027830E+00    0.7091989129E-04    0.3808139495E-03    0.4175842861E-02
    0.2700000000E+03    0.2532607630E-03    0.6883071171E+00    0.7671909082E-04    0.4123288105E-03    0.4171473874E-02
    0.2900000000E+03    0.2715255073E-03    0.6888289505E+00    0.8259625153E-04    0.4442602871E-03    0.4167046005E-02
    0.3100000000E+03    0.2900675178E-03    0.6892840972E+00    0.8855502664E-04    0.4766305436E-03    0.4162558572E-02
    0.3300000000E+03    0.3088947924E-03    0.6896845721E+00    0.9459898567E-04    0.5094607418E-03    0.4158010511E-02
    0.3500000000E+03    0.3280157386E-03    0.6900396675E+00    0.1007316404E-03    0.5427713387E-03    0.4153400488E-02
    0.3700000000E+03    0.3474391107E-03    0.6903566824E+00    0.1069564678E-03    0.5765823163E-03    0.4148726966E-02
    0.3900000000E+03    0.3671739717E-03    0.6906414306E+00    0.1132769290E-03    0.6109133626E-03    0.4143988251E-02
    0.4100000000E+03    0.3872296729E-03    0.6908985993E+00    0.1196964874E-03    0.6457840182E-03    0.4139182521E-02
    0.4300000000E+03    0.4076158451E-03    0.6911320100E+00    0.1262186229E-03    0.6812137966E-03    0.4134307851E-02
    0.4500000000E+03    0.4283423969E-03    0.6913448094E+00    0.1328468459E-03    0.7172222852E-03    0.4129362224E-02
    0.4700000000E+03    0.4494195189E-03    0.6915396118E+00    0.1395847089E-03    0.7538292320E-03    0.4124343541E-02
    0.4900000000E+03    0.4708576912E-03    0.6917186075E+00    0.1464358178E-03    0.7910546212E-03    0.4119249624E-02
    0.1000000000E+03    0.1085252748E-03    0.6756902528E+00    0.2950485457E-04    0.1548351351E-03    0.4206464054E-02
    0.3000000000E+03    0.2807613650E-03    0.6890640344E+00    0.8556521255E-04    0.4603892256E-03    0.4164809793E-02
    0.5000000000E+03    0.4817155280E-03    0.6918027670E+00    0.1499049834E-03    0.8099055579E-03    0.4116673752E-02
    0.7000000000E+03    0.7206715208E-03    0.6929830993E+00    0.2261849008E-03    0.1224634105E-02    0.4060610938E-02
    0.9000000000E+03    0.1010760592E-02    0.6936404931E+00    0.3187410158E-03    0.1728428839E-02    0.3993889730E-02
    0.1100000000E+04    0.1370433234E-02    0.6940594121E+00    0.4335353727E-03    0.2353996787E-02    0.3912730588E-02
    0.1300000000E+04    0.1826644507E-02    0.6943496714E+00    0.5792434635E-03    0.3148961355E-02    0.3811726514E-02
    0.1500000000E+04    0.2420034797E-02    0.6945626356E+00    0.7689427422E-03    0.4185195694E-02    0.3682899015E-02
    0.1700000000E+04    0.3213438750E-02    0.6947255400E+00    0.1022873893E-02    0.5574110505E-02    0.3514215253E-02
    0.1900000000E+04    0.4305247993E-02    0.6948541705E+00    0.1372791590E-02    0.7490847413E-02    0.3287436888E-02
    0.2100000000E+04    0.5846495038E-02    0.6949583074E+00    0.1867590082E-02    0.1020590721E-01    0.2975921644E-02
    0.2300000000E+04    0.8044396698E-02    0.6950443336E+00    0.2574752505E-02    0.1409478758E-01    0.2546517994E-02
    0.2500000000E+04    0.1107972761E-01    0.6951165916E+00    0.3554344822E-02    0.1949809483E-01    0.1980016193E-02
    0.2700000000E+04    0.1481090366E-01    0.6951781388E+00    0.4764115078E-02    0.2620134923E-01    0.1329291626E-02
    0.2900000000E+04    0.1849988378E-01    0.6952311896E+00    0.5969420275E-02    0.3292954464E-01    0.7538123062E-03
    0.3100000000E+04    0.2137468985E-01    0.6952773878E+00    0.6921034662E-02    0.3830782190E-01    0.3859934086E-03
    0.3300000000E+04    0.2336847680E-01    0.6953179786E+00    0.7594288913E-02    0.4218371623E-01    0.2061774318E-03
    0.3500000000E+04    0.2481341233E-01    0.6953539232E+00    0.8093898698E-02    0.4512162598E-01    0.1309298745E-03
    0.3700000000E+04    0.2598344079E-01    0.6953859747E+00    0.8507219032E-02    0.4759782608E-01    0.1016046338E-03
    0.3900000000E+04    0.2701903389E-01    0.6954147320E+00    0.8879237534E-02    0.4985868842E-01    0.9053585383E-04
    0.4100000000E+04    0.2798153360E-01    0.6954406773E+00    0.9229618883E-02    0.5201205229E-01    0.8646488222E-04
    0.4300000000E+04    0.2889656960E-01    0.6954642028E+00    0.9566545559E-02    0.5410264789E-01    0.8504648299E-04
    0.4500000000E+04    0.2977504556E-01    0.6954856314E+00    0.9893449312E-02    0.5614900380E-01    0.8463078693E-04
    0.4700000000E+04    0.3062196203E-01    0.6955052307E+00    0.1021185370E-01    0.5815910047E-01    0.8459284411E-04
    0.4900000000E+04    0.3143995630E-01    0.6955232248E+00    0.1052251895E-01    0.6013669843E-01    0.8469532478E-04
    0.1000000000E+04    0.1180461890E-02    0.6938708456E+00    0.3728956284E-03    0.2023451848E-02    0.3955405748E-02
    0.3000000000E+04    0.2006044731E-01    0.6952550597E+00    0.6484014957E-02    0.3582736767E-01    0.5419613614E-03
    0.5000000000E+04    0.3183865026E-01    0.6955316802E+00    0.1067509654E-01    0.6111398780E-01    0.8476821658E-04
    0.7000000000E+04    0.3857903933E-01    0.6956498783E+00    0.1339265333E-01    0.7925680406E-01    0.8633668371E-04
    0.9000000000E+04    0.4347841021E-01    0.6957153134E+00    0.1559727447E-01    0.9520241771E-01    0.8755517801E-04
    0.1100000000E+05    0.4706919477E-01    0.6957567961E+00    0.1741991993E-01    0.1094601978E+00    0.8853970613E-04
    0.1300000000E+05    0.4970476833E-01    0.6957854008E+00    0.1894982816E-01    0.1223843574E+00    0.8936733259E-04
    0.1500000000E+05    0.5162784045E-01    0.6958062912E+00    0.2024998804E-01    0.1342298283E+00    0.9008219166E-04
    0.1700000000E+05    0.5300988498E-01    0.6958221985E+00    0.2136617032E-01    0.1451853010E+00    0.9071197062E-04
    0.1900000000E+05    0.5397498365E-01    0.6958347026E+00    0.2233246937E-01    0.1553938168E+00    0.9127520627E-04
    0.2100000000E+05    0.5461478702E-01    0.6958447801E+00    0.2317483221E-01    0.1649660766E+00    0.9178493069E-04
    0.2300000000E+05    0.5499820451E-01    0.6958530676E+00    0.2391337848E-01    0.1739893131E+00    0.9225066200E-04
    0.2500000000E+05    0.5517785604E-01    0.6958599972E+00    0.2456396860E-01    0.1825333692E+00    0.9267956793E-04
    0.2700000000E+05    0.5519447254E-01    0.6958658729E+00    0.2513928979E-01    0.1906549615E+00    0.9307718357E-04
    0.2900000000E+05    0.5507996232E-01    0.6958709142E+00    0.2564962457E-01    0.1984007350E+00    0.9344787401E-04
    0.3100000000E+05    0.5485958885E-01    0.6958752842E+00    0.2610340510E-01    0.2058094919E+00    0.9379514358E-04
    0.3300000000E+05    0.5455354392E-01    0.6958791059E+00    0.2650762005E-01    0.2129138462E+00    0.9412184902E-04
    0.3500000000E+05    0.5417810168E-01    0.6958824743E+00    0.2686811783E-01    0.2197414707E+00    0.9443035040E-04
    0.3700000000E+05    0.5374647716E-01    0.6958854637E+00    0.2718983585E-01    0.2263160491E+00    0.9472262038E-04
    0.3900000000E+05    0.5326947287E-01    0.6958881331E+00    0.2747697606E-01    0.2326580127E+00    0.9500032493E-04
    0.4100000000E+05    0.5275597166E-01    0.6958905299E+00    0.2773314095E-01    0.2387851166E+00    0.9526488398E-04
    0.4300000000E+05    0.5221331623E-01    0.6958926927E+00    0.2796144015E-01    0.2447128948E+00    0.9551751782E-04
    0.4500000000E+05    0.5164760435E-01    0.6958946531E+00    0.2816457465E-01    0.2504550247E+00    0.9575928300E-04
    0.4700000000E+05    0.5106392041E-01    0.6958964373E+00    0.2834490415E-01    0.2560236189E+00    0.9599110044E-04
    0.4900000000E+05    0.5046651878E-01    0.6958980673E+00    0.2850450124E-01    0.2614294633E+00    0.9621377785E-04
    0.1000000000E+05    0.4541208312E-01    0.6957381488E+00    0.1655001212E-01    0.1025173157E+00    0.8807079667E-04
    0.3000000000E+05    0.5498164286E-01    0.6958731747E+00    0.2588311746E-01    0.2021450734E+00    0.9362424469E-04
    0.5000000000E+05    0.5016381293E-01    0.6958988303E+00    0.2857710531E-01    0.2640744108E+00    0.9632191495E-04
    0.7000000000E+05    0.4400291918E-01    0.6959092428E+00    0.2928972819E-01    0.3103240213E+00    0.9814075758E-04
    0.9000000000E+05    0.3833961074E-01    0.6959146974E+00    0.2914721169E-01    0.3471614642E+00    0.9952150780E-04
    0.1100000000E+06    0.3346306529E-01    0.6959179548E+00    0.2858457410E-01    0.3774595801E+00    0.1006378909E-03
    0.1300000000E+06    0.2933766057E-01    0.6959200598E+00    0.2780951519E-01    0.4028794396E+00    0.1015767699E-03
    0.1500000000E+06    0.2585899369E-01    0.6959214920E+00    0.2693265818E-01    0.4245114640E+00    0.1023879698E-03
    0.1700000000E+06    0.2291921889E-01    0.6959225012E+00    0.2601642231E-01    0.4431262034E+00    0.1031027828E-03
    0.1900000000E+06    0.2042379452E-01    0.6959232293E+00    0.2509698495E-01    0.4592935591E+00    0.1037421763E-03
    0.2100000000E+06    0.1829418191E-01    0.6959237627E+00    0.2419538674E-01    0.4734479799E+00    0.1043209005E-03
    0.2300000000E+06    0.1646644524E-01    0.6959241568E+00    0.2332361042E-01    0.4859278828E+00    0.1048497332E-03
    0.2500000000E+06    0.1488889019E-01    0.6959244485E+00    0.2248809495E-01    0.4970012504E+00    0.1053367942E-03
    0.2700000000E+06    0.1351974581E-01    0.6959246632E+00    0.2169184640E-01    0.5068831171E+00    0.1057883555E-03
    0.2900000000E+06    0.1232517550E-01    0.6959248191E+00    0.2093574091E-01    0.5157479598E+00    0.1062093649E-03
    0.3100000000E+06    0.1127765763E-01    0.6959249293E+00    0.2021934461E-01    0.5237387189E+00    0.1066037953E-03
    0.3300000000E+06    0.1035469684E-01    0.6959250034E+00    0.1954143636E-01    0.5309735055E+00    0.1069748860E-03
    0.3500000000E+06    0.9537808525E-02    0.6959250490E+00    0.1890034356E-01    0.5375506719E+00    0.1073253136E-03
    0.3700000000E+06    0.8811721034E-02    0.6959250717E+00    0.1829415850E-01    0.5435526970E+00    0.1076573158E-03
    0.3900000000E+06    0.8163748659E-02    0.6959250758E+00    0.1772087723E-01    0.5490492005E+00    0.1079727823E-03
    0.4100000000E+06    0.7583297492E-02    0.6959250648E+00    0.1717848783E-01    0.5540993030E+00    0.1082733243E-03
    0.4300000000E+06    0.7061474578E-02    0.6959250415E+00    0.1666502530E-01    0.5587534928E+00    0.1085603263E-03
    0.4500000000E+06    0.6590777375E-02    0.6959250080E+00    0.1617860455E-01    0.5630551139E+00    0.1088349873E-03
    0.4700000000E+06    0.6164845828E-02    0.6959249661E+00    0.1571743877E-01    0.5670415611E+00    0.1090983525E-03
    0.4900000000E+06    0.5778263440E-02    0.6959249174E+00    0.1527984833E-01    0.5707452471E+00    0.1093513385E-03
    0.1000000000E+06    0.3580218781E-01    0.6959165155E+00    0.2890225901E-01    0.3630062546E+00    0.1001061084E-03
    0.3000000000E+06    0.1178454568E-01    0.6959248792E+00    0.2057264163E-01    0.5198447021E+00    0.1064096851E-03
    0.5000000000E+06    0.5598253398E-02    0.6959248908E+00    0.1506939904E-01    0.5725000179E+00    0.1094741957E-03
    0.7000000000E+06    0.3232394308E-02    0.6959241956E+00    0.1177350088E-01    0.5979811793E+00    0.1115407610E-03
    0.9000000000E+06    0.2095263135E-02    0.6959234164E+00    0.9628042759E-02    0.6128225485E+00    0.1131096977E-03
    0.1100000000E+07    0.1465276710E-02    0.6959226676E+00    0.8131143569E-02    0.6224854942E+00    0.1143782950E-03
    0.1300000000E+07    0.1080994195E-02    0.6959219721E+00    0.7030866064E-02    0.6292595844E+00    0.1154452177E-03
    0.1500000000E+07    0.8297460433E-03    0.6959213311E+00    0.6189434396E-02    0.6342643485E+00    0.1163670668E-03
    0.1700000000E+07    0.6566485439E-03    0.6959207398E+00    0.5525781482E-02    0.6381094089E+00    0.1171793934E-03
    0.1900000000E+07    0.5324155508E-03    0.6959201926E+00    0.4989293189E-02    0.6411542033E+00    0.1179060199E-03
    0.2100000000E+07    0.4402784720E-03    0.6959196841E+00    0.4546810682E-02    0.6436240241E+00    0.1185637054E-03
    0.2300000000E+07    0.3700811556E-03    0.6959192096E+00    0.4175734446E-02    0.6456671002E+00    0.1191646962E-03
    0.2500000000E+07    0.3153838465E-03    0.6959187650E+00    0.3860145715E-02    0.6473848759E+00    0.1197182185E-03
    0.2700000000E+07    0.2719445862E-03    0.6959183469E+00    0.3588515121E-02    0.6488490804E+00    0.1202313994E-03
    0.2900000000E+07    0.2368776642E-03    0.6959179524E+00    0.3352291343E-02    0.6501118449E+00    0.1207098611E-03
    0.3100000000E+07    0.2081651004E-03    0.6959175789E+00    0.3145000155E-02    0.6512119561E+00    0.1211581180E-03
    0.3300000000E+07    0.1843616100E-03    0.6959172243E+00    0.2961651221E-02    0.6521788625E+00    0.1215798514E-03
    0.3500000000E+07    0.1644102295E-03    0.6959168869E+00    0.2798336824E-02    0.6530353206E+00    0.1219781027E-03
    0.3700000000E+07    0.1475236126E-03    0.6959165649E+00    0.2651953919E-02    0.6537991915E+00    0.1223554146E-03
    0.3900000000E+07    0.1331055765E-03    0.6959162571E+00    0.2520007497E-02    0.6544846877E+00    0.1227139350E-03
    0.4100000000E+07    0.1206980307E-03    0.6959159622E+00    0.2400468846E-02    0.6551032588E+00    0.1230554944E-03
    0.4300000000E+07    0.1099443245E-03    0.6959156792E+00    0.2291671641E-02    0.6556642310E+00    0.1233816664E-03
    0.4500000000E+07    0.1005634547E-03    0.6959154072E+00    0.2192234602E-02    0.6561752766E+00    0.1236938135E-03
    0.4700000000E+07    0.9233160997E-04    0.6959151452E+00    0.2101003126E-02    0.6566427652E+00    0.1239931234E-03
    0.4900000000E+07    0.8506875859E-04    0.6959148927E+00    0.2017004679E-02    0.6570720281E+00    0.1242806378E-03
    0.1000000000E+07    0.1738537712E-02    0.6959230359E+00    0.8817972291E-02    0.6181180670E+00    0.1137740006E-03
    0.3000000000E+07    0.2218282768E-03    0.6959177631E+00    0.3245370414E-02    0.6506802089E+00    0.1209375181E-03
    0.5000000000E+07    0.8175392983E-04    0.6959147697E+00    0.1977455060E-02    0.6572737582E+00    0.1244202631E-03
    0.7000000000E+07    0.4207402361E-04    0.6959126732E+00    0.1419195313E-02    0.6600957873E+00    0.1267688896E-03
    0.9000000000E+07    0.2556153914E-04    0.6959110525E+00    0.1105612628E-02    0.6616610083E+00    0.1285519739E-03
    0.1100000000E+08    0.1715550092E-04    0.6959097278E+00    0.9049458011E-03    0.6626556370E+00    0.1299937273E-03
    0.1300000000E+08    0.1230515410E-04    0.6959086055E+00    0.7655910674E-03    0.6633433915E+00    0.1312062799E-03
    0.1500000000E+08    0.9255990081E-05    0.6959076306E+00    0.6632129370E-03    0.6638472203E+00    0.1322539576E-03
    0.1700000000E+08    0.7215599626E-05    0.6959067679E+00    0.5848410535E-03    0.6642321523E+00    0.1331771637E-03
    0.1900000000E+08    0.5783711087E-05    0.6959059937E+00    0.5229317565E-03    0.6645358033E+00    0.1340029720E-03
    0.2100000000E+08    0.4740481528E-05    0.6959052910E+00    0.4727999125E-03    0.6647814407E+00    0.1347504290E-03
    0.2300000000E+08    0.3957041992E-05    0.6959046474E+00    0.4313827030E-03    0.6649842283E+00    0.1354334528E-03
    0.2500000000E+08    0.3353805508E-05    0.6959040535E+00    0.3965937008E-03    0.6651544703E+00    0.1360625289E-03
    0.2700000000E+08    0.2879472395E-05    0.6959035019E+00    0.3669627011E-03    0.6652994137E+00    0.1366457570E-03
