  Pressure (Pa) 22mC5-500 (mol/kg) 24mC5-500 (mol/kg) 2mC6-500 (mol/kg) 3mC6-500 (mol/kg) C7-500 (mol/kg)
    0.1000000000E+01    0.2389206795E-04    0.3665831346E-01    0.6976643239E-05    0.2318774333E-05    0.4208603879E-02
    0.3000000000E+01    0.6311268945E-04    0.9947364787E-01    0.1801834263E-04    0.5957381127E-05    0.4292395817E-02
    0.5000000000E+01    0.9411699741E-04    0.1513388468E+00    0.2642685285E-04    0.9309896646E-05    0.4359608425E-02
    0.7000000000E+01    0.1191013341E-03    0.1948880430E+00    0.3296972542E-04    0.1252384786E-04    0.4416019229E-02
    0.9000000000E+01    0.1395462052E-03    0.2319731712E+00    0.3814896833E-04    0.1564919402E-04    0.4464191090E-02
    0.1100000000E+02    0.1564964800E-03    0.2639342465E+00    0.4231115406E-04    0.1871098836E-04    0.4505857592E-02
    0.1300000000E+02    0.1707105372E-03    0.2917648178E+00    0.4570262022E-04    0.2172416583E-04    0.4542280408E-02
    0.1500000000E+02    0.1827511411E-03    0.3162171470E+00    0.4850235186E-04    0.2469857960E-04    0.4574408673E-02
    0.1700000000E+02    0.1930437488E-03    0.3378712650E+00    0.5084277251E-04    0.2764118363E-04    0.4602972623E-02
    0.1900000000E+02    0.2019152250E-03    0.3571815951E+00    0.5282337983E-04    0.3055712866E-04    0.4628544147E-02
    0.2100000000E+02    0.2096202520E-03    0.3745092091E+00    0.5451993927E-04    0.3345037128E-04    0.4651577896E-02
    0.2300000000E+02    0.2163597600E-03    0.3901446283E+00    0.5599082557E-04    0.3632403856E-04    0.4672440061E-02
    0.2500000000E+02    0.2222940460E-03    0.4043242529E+00    0.5728148317E-04    0.3918065922E-04    0.4691429002E-02
    0.2700000000E+02    0.2275522754E-03    0.4172424046E+00    0.5842761758E-04    0.4202231697E-04    0.4708790335E-02
    0.2900000000E+02    0.2322394715E-03    0.4290602903E+00    0.5945751380E-04    0.4485075616E-04    0.4724728145E-02
    0.3100000000E+02    0.2364417309E-03    0.4399127686E+00    0.6039374351E-04    0.4766745671E-04    0.4739413448E-02
    0.3300000000E+02    0.2402301629E-03    0.4499135210E+00    0.6125443784E-04    0.5047368878E-04    0.4752990649E-02
    0.3500000000E+02    0.2436639012E-03    0.4591590530E+00    0.6205424680E-04    0.5327055352E-04    0.4765582553E-02
    0.3700000000E+02    0.2467924298E-03    0.4677318191E+00    0.6280507002E-04    0.5605901401E-04    0.4777294272E-02
    0.3900000000E+02    0.2496573979E-03    0.4757026911E+00    0.6351661849E-04    0.5883991918E-04    0.4788216315E-02
    0.4100000000E+02    0.2522940473E-03    0.4831329227E+00    0.6419685004E-04    0.6161402258E-04    0.4798427050E-02
    0.4300000000E+02    0.2547323458E-03    0.4900757278E+00    0.6485230973E-04    0.6438199733E-04    0.4807994681E-02
    0.4500000000E+02    0.2569978933E-03    0.4965775575E+00    0.6548839785E-04    0.6714444807E-04    0.4816978858E-02
    0.4700000000E+02    0.2591126520E-03    0.5026791420E+00    0.6610958225E-04    0.6990192078E-04    0.4825431975E-02
    0.4900000000E+02    0.2610955375E-03    0.5084163443E+00    0.6671956779E-04    0.7265491076E-04    0.4833400253E-02
    0.1000000000E+02    0.1484053210E-03    0.2485254515E+00    0.4033990897E-04    0.1718694485E-04    0.4485749913E-02
    0.3000000000E+02    0.2343964618E-03    0.4345996557E+00    0.5993611223E-04    0.4626049000E-04    0.4732217776E-02
    0.5000000000E+02    0.2620427267E-03    0.5111583549E+00    0.6702134415E-04    0.7402986731E-04    0.4837215555E-02
    0.7000000000E+02    0.2770450285E-03    0.5529097369E+00    0.7298619073E-04    0.1013851594E-03    0.4895896120E-02
    0.9000000000E+02    0.2886813941E-03    0.5791971068E+00    0.7936589574E-04    0.1286350669E-03    0.4933388845E-02
    0.1100000000E+03    0.2996219877E-03    0.5972703945E+00    0.8635520563E-04    0.1559388672E-03    0.4959295763E-02
    0.1300000000E+03    0.3107695686E-03    0.6104598332E+00    0.9391232002E-04    0.1833953413E-03    0.4978110090E-02
    0.1500000000E+03    0.3224466462E-03    0.6205096286E+00    0.1019626576E-03    0.2110731576E-03    0.4992227635E-02
    0.1700000000E+03    0.3347614833E-03    0.6284217229E+00    0.1104401096E-03    0.2390240465E-03    0.5003048633E-02
    0.1900000000E+03    0.3477384730E-03    0.6348126895E+00    0.1192931831E-03    0.2672894140E-03    0.5011449230E-02
    0.2100000000E+03    0.3613691947E-03    0.6400827655E+00    0.1284834197E-03    0.2959040161E-03    0.5018007324E-02
    0.2300000000E+03    0.3756336285E-03    0.6445030862E+00    0.1379826074E-03    0.3248981582E-03    0.5023120427E-02
    0.2500000000E+03    0.3905092144E-03    0.6482638576E+00    0.1477703069E-03    0.3542990925E-03    0.5027071459E-02
    0.2700000000E+03    0.4059746809E-03    0.6515024563E+00    0.1578319369E-03    0.3841319478E-03    0.5030067548E-02
    0.2900000000E+03    0.4220115438E-03    0.6543205809E+00    0.1681573549E-03    0.4144203741E-03    0.5032263959E-02
    0.3100000000E+03    0.4386045547E-03    0.6567951290E+00    0.1787398186E-03    0.4451870053E-03    0.5033779434E-02
    0.3300000000E+03    0.4557416833E-03    0.6589853231E+00    0.1895752266E-03    0.4764538010E-03    0.5034706340E-02
    0.3500000000E+03    0.4734139079E-03    0.6609375135E+00    0.2006615609E-03    0.5082423074E-03    0.5035117584E-02
    0.3700000000E+03    0.4916149411E-03    0.6626884953E+00    0.2119984743E-03    0.5405738610E-03    0.5035071430E-02
    0.3900000000E+03    0.5103409504E-03    0.6642678501E+00    0.2235869830E-03    0.5734697517E-03    0.5034614939E-02
    0.4100000000E+03    0.5295902998E-03    0.6656996314E+00    0.2354292367E-03    0.6069513571E-03    0.5033786463E-02
    0.4300000000E+03    0.5493633221E-03    0.6670035981E+00    0.2475283449E-03    0.6410402559E-03    0.5032617492E-02
    0.4500000000E+03    0.5696621222E-03    0.6681961324E+00    0.2598882450E-03    0.6757583248E-03    0.5031134037E-02
    0.4700000000E+03    0.5904904123E-03    0.6692909313E+00    0.2725136035E-03    0.7111278245E-03    0.5029357684E-02
    0.4900000000E+03    0.6118533740E-03    0.6702995352E+00    0.2854097400E-03    0.7471714772E-03    0.5027306405E-02
    0.1000000000E+03    0.2941613425E-03    0.5889994434E+00    0.8278519891E-04    0.1422731229E-03    0.4947440071E-02
    0.3000000000E+03    0.4302393561E-03    0.6555967515E+00    0.1734167669E-03    0.4297425292E-03    0.5033100516E-02
    0.5000000000E+03    0.6227373493E-03    0.6707746332E+00    0.2919611768E-03    0.7654533552E-03    0.5026182455E-02
    0.7000000000E+03    0.8707867828E-03    0.6774974691E+00    0.4389656072E-03    0.1172601885E-02    0.4991772539E-02
    0.9000000000E+03    0.1187417173E-02    0.6812905552E+00    0.6233383839E-03    0.1679731913E-02    0.4936723065E-02
    0.1100000000E+04    0.1596963672E-02    0.6837259838E+00    0.8596983045E-03    0.2328346207E-02    0.4859232794E-02
    0.1300000000E+04    0.2138990813E-02    0.6854217489E+00    0.1171072773E-02    0.3182388037E-02    0.4752905656E-02
    0.1500000000E+04    0.2877812793E-02    0.6866701983E+00    0.1594561502E-02    0.4344410623E-02    0.4606136003E-02
    0.1700000000E+04    0.3919913764E-02    0.6876275611E+00    0.2191483561E-02    0.5983927729E-02    0.4399507591E-02
    0.1900000000E+04    0.5441811444E-02    0.6883849085E+00    0.3063632394E-02    0.8382936054E-02    0.4101701903E-02
    0.2100000000E+04    0.7715586840E-02    0.6889989147E+00    0.4368609199E-02    0.1198003658E-01    0.3667657828E-02
    0.2300000000E+04    0.1103631881E-01    0.6895066947E+00    0.6279767941E-02    0.1726422487E-01    0.3058882494E-02
    0.2500000000E+04    0.1528989242E-01    0.6899335712E+00    0.8739754173E-02    0.2409926666E-01    0.2329912311E-02
    0.2700000000E+04    0.1942882721E-01    0.6902974132E+00    0.1115485209E-01    0.3086755018E-01    0.1702260455E-02
    0.2900000000E+04    0.2242622026E-01    0.6906111901E+00    0.1293276646E-01    0.3592748374E-01    0.1344860464E-02
    0.3100000000E+04    0.2438170011E-01    0.6908845433E+00    0.1412257057E-01    0.3939284622E-01    0.1197470713E-02
    0.3300000000E+04    0.2579308658E-01    0.6911247891E+00    0.1500564271E-01    0.4202836442E-01    0.1147085350E-02
    0.3500000000E+04    0.2696527726E-01    0.6913375795E+00    0.1575577533E-01    0.4431037453E-01    0.1132453734E-02
    0.3700000000E+04    0.2802574570E-01    0.6915273501E+00    0.1644585198E-01    0.4643929080E-01    0.1129921382E-02
    0.3900000000E+04    0.2902224643E-01    0.6916976304E+00    0.1710312423E-01    0.4848995505E-01    0.1131321199E-02
    0.4100000000E+04    0.2997269770E-01    0.6918512642E+00    0.1773769241E-01    0.5048980965E-01    0.1133928124E-02
    0.4300000000E+04    0.3088441068E-01    0.6919905679E+00    0.1835354334E-01    0.5244935372E-01    0.1136843119E-02
    0.4500000000E+04    0.3176094208E-01    0.6921174477E+00    0.1895250113E-01    0.5437309130E-01    0.1139773574E-02
    0.4700000000E+04    0.3260448605E-01    0.6922334862E+00    0.1953561128E-01    0.5626338150E-01    0.1142628262E-02
    0.4900000000E+04    0.3341670855E-01    0.6923400086E+00    0.2010362495E-01    0.5812178937E-01    0.1145382761E-02
    0.1000000000E+04    0.1378541344E-02    0.6826279718E+00    0.7338274209E-03    0.1983028535E-02    0.4901078929E-02
    0.3000000000E+04    0.2350081117E-01    0.6907524170E+00    0.1358239977E-01    0.3780868252E-01    0.1252958628E-02
    0.5000000000E+04    0.3381152736E-01    0.6923900576E+00    0.2038216953E-01    0.5903943412E-01    0.1146721294E-02
    0.7000000000E+04    0.4036097495E-01    0.6930889831E+00    0.2528980292E-01    0.7597095167E-01    0.1169117420E-02
    0.9000000000E+04    0.4494781904E-01    0.6934747045E+00    0.2919821627E-01    0.9071066110E-01    0.1185968031E-02
    0.1100000000E+05    0.4818845636E-01    0.6937182604E+00    0.3238313249E-01    0.1038059721E+00    0.1199520467E-02
    0.1300000000E+05    0.5047591607E-01    0.6938854503E+00    0.3502591669E-01    0.1156255548E+00    0.1210878768E-02
    0.1500000000E+05    0.5207110547E-01    0.6940069572E+00    0.3725091241E-01    0.1264278723E+00    0.1220668621E-02
    0.1700000000E+05    0.5315306544E-01    0.6940990037E+00    0.3914633772E-01    0.1364002240E+00    0.1229279728E-02
    0.1900000000E+05    0.5384811202E-01    0.6941709662E+00    0.4077660946E-01    0.1456821716E+00    0.1236971620E-02
    0.2100000000E+05    0.5424747872E-01    0.6942286378E+00    0.4218993508E-01    0.1543802055E+00    0.1243926017E-02
    0.2300000000E+05    0.5441839542E-01    0.6942757890E+00    0.4342316512E-01    0.1625772658E+00    0.1250275217E-02
    0.2500000000E+05    0.5441126813E-01    0.6943149776E+00    0.4450499497E-01    0.1703391172E+00    0.1256118591E-02
    0.2700000000E+05    0.5426446087E-01    0.6943479997E+00    0.4545813645E-01    0.1777187350E+00    0.1261532710E-02
    0.2900000000E+05    0.5400755777E-01    0.6943761524E+00    0.4630082695E-01    0.1847593938E+00    0.1266577851E-02
    0.3100000000E+05    0.5366363599E-01    0.6944003958E+00    0.4704790077E-01    0.1914968895E+00    0.1271302331E-02
    0.3300000000E+05    0.5325087951E-01    0.6944214552E+00    0.4771156450E-01    0.1979611671E+00    0.1275745485E-02
    0.3500000000E+05    0.5278374445E-01    0.6944398887E+00    0.4830196776E-01    0.2041775334E+00    0.1279939774E-02
    0.3700000000E+05    0.5227381341E-01    0.6944561326E+00    0.4882762998E-01    0.2101675750E+00    0.1283912302E-02
    0.3900000000E+05    0.5173043045E-01    0.6944705327E+00    0.4929576397E-01    0.2159498615E+00    0.1287685937E-02
    0.4100000000E+05    0.5116117898E-01    0.6944833663E+00    0.4971252448E-01    0.2215404913E+00    0.1291280157E-02
    0.4300000000E+05    0.5057224553E-01    0.6944948587E+00    0.5008320125E-01    0.2269535208E+00    0.1294711688E-02
    0.4500000000E+05    0.4996869955E-01    0.6945051947E+00    0.5041237072E-01    0.2322013041E+00    0.1297995001E-02
    0.4700000000E+05    0.4935471071E-01    0.6945145269E+00    0.5070401638E-01    0.2372947658E+00    0.1301142706E-02
    0.4900000000E+05    0.4873371908E-01    0.6945229827E+00    0.5096162508E-01    0.2422436212E+00    0.1304165853E-02
    0.1000000000E+05    0.4670795382E-01    0.6936089063E+00    0.3086811026E-01    0.9743763111E-01    0.1193071822E-02
    0.3000000000E+05    0.5384523849E-01    0.6943887128E+00    0.4668549896E-01    0.1881640443E+00    0.1268977532E-02
    0.5000000000E+05    0.4842150643E-01    0.6945269162E+00    0.5107863888E-01    0.2446665717E+00    0.1305633807E-02
    0.7000000000E+05    0.4228415709E-01    0.6945783847E+00    0.5221403397E-01    0.2872353308E+00    0.1330311437E-02
    0.9000000000E+05    0.3683775086E-01    0.6946025672E+00    0.5196589015E-01    0.3214921628E+00    0.1349031882E-02
    0.1100000000E+06    0.3222086264E-01    0.6946150961E+00    0.5104152613E-01    0.3499881314E+00    0.1364161690E-02
    0.1300000000E+06    0.2834348580E-01    0.6946217595E+00    0.4977376482E-01    0.3741829790E+00    0.1376882354E-02
    0.1500000000E+06    0.2508310048E-01    0.6946251529E+00    0.4833841916E-01    0.3950257391E+00    0.1387870946E-02
    0.1700000000E+06    0.2232815783E-01    0.6946265935E+00    0.4683448077E-01    0.4131823513E+00    0.1397552424E-02
    0.1900000000E+06    0.1998605323E-01    0.6946268110E+00    0.4531956078E-01    0.4291435151E+00    0.1406211399E-02
    0.2100000000E+06    0.1798212188E-01    0.6946262362E+00    0.4382754335E-01    0.4432830823E+00    0.1414048014E-02
    0.2300000000E+06    0.1625666334E-01    0.6946251365E+00    0.4237813233E-01    0.4558928632E+00    0.1421208476E-02
    0.2500000000E+06    0.1476193985E-01    0.6946236843E+00    0.4098232344E-01    0.4672048864E+00    0.1427802902E-02
    0.2700000000E+06    0.1345963582E-01    0.6946219943E+00    0.3964567611E-01    0.4774063950E+00    0.1433916342E-02
    0.2900000000E+06    0.1231883085E-01    0.6946201449E+00    0.3837033142E-01    0.4866503534E+00    0.1439615871E-02
    0.3100000000E+06    0.1131441879E-01    0.6946181905E+00    0.3715628546E-01    0.4950630342E+00    0.1444955345E-02
    0.3300000000E+06    0.1042588422E-01    0.6946161695E+00    0.3600220640E-01    0.5027496282E+00    0.1449978669E-02
    0.3500000000E+06    0.9636356261E-02    0.6946141095E+00    0.3490596465E-01    0.5097984737E+00    0.1454722119E-02
    0.3700000000E+06    0.8931874956E-02    0.6946120304E+00    0.3386497916E-01    0.5162842958E+00    0.1459216015E-02
    0.3900000000E+06    0.8300819741E-02    0.6946099467E+00    0.3287644392E-01    0.5222707211E+00    0.1463485967E-02
    0.4100000000E+06    0.7733461894E-02    0.6946078690E+00    0.3193747553E-01    0.5278122534E+00    0.1467553802E-02
    0.4300000000E+06    0.7221611929E-02    0.6946058050E+00    0.3104520827E-01    0.5329558409E+00    0.1471438280E-02
    0.4500000000E+06    0.6758340124E-02    0.6946037603E+00    0.3019685400E-01    0.5377421327E+00    0.1475155643E-02
    0.4700000000E+06    0.6337753680E-02    0.6946017390E+00    0.2938973844E-01    0.5422064916E+00    0.1478720049E-02
    0.4900000000E+06    0.5954817969E-02    0.6945997440E+00    0.2862132170E-01    0.5463798199E+00    0.1482143916E-02
    0.1000000000E+06    0.3442947309E-01    0.6946098133E+00    0.5156227937E-01    0.3363529752E+00    0.1356955315E-02
    0.3000000000E+06    0.1180095325E-01    0.6946191781E+00    0.3775570552E-01    0.4909535901E+00    0.1442327668E-02
    0.5000000000E+06    0.5776094396E-02    0.6945987569E+00    0.2825087098E-01    0.5483659535E+00    0.1483806621E-02
    0.7000000000E+06    0.3398273927E-02    0.6945806044E+00    0.2237027598E-01    0.5779088023E+00    0.1511772686E-02
    0.9000000000E+06    0.2230817439E-02    0.6945652442E+00    0.1845875577E-01    0.5958028910E+00    0.1533002192E-02
    0.1100000000E+07    0.1574342531E-02    0.6945520736E+00    0.1568849569E-01    0.6077702430E+00    0.1550166471E-02
    0.1300000000E+07    0.1169516502E-02    0.6945405798E+00    0.1362993066E-01    0.6163246359E+00    0.1564601246E-02
    0.1500000000E+07    0.9026281943E-03    0.6945303927E+00    0.1204259116E-01    0.6227384372E+00    0.1577072703E-02
    0.1700000000E+07    0.7175471563E-03    0.6945212468E+00    0.1078250310E-01    0.6277230856E+00    0.1588062041E-02
    0.1900000000E+07    0.5840074078E-03    0.6945129484E+00    0.9758558948E-02    0.6317069216E+00    0.1597891689E-02
    0.2100000000E+07    0.4845325556E-03    0.6945053522E+00    0.8910428148E-02    0.6349630165E+00    0.1606788464E-02
    0.2300000000E+07    0.4084639610E-03    0.6944983471E+00    0.8196631088E-02    0.6376735697E+00    0.1614918102E-02
    0.2500000000E+07    0.3490037870E-03    0.6944918464E+00    0.7587736988E-02    0.6399647513E+00    0.1622405462E-02
    0.2700000000E+07    0.3016519741E-03    0.6944857810E+00    0.7062298982E-02    0.6419266731E+00    0.1629346989E-02
    0.2900000000E+07    0.2633341504E-03    0.6944800952E+00    0.6604326182E-02    0.6436253949E+00    0.1635818765E-02
    0.3100000000E+07    0.2318924096E-03    0.6944747432E+00    0.6201656686E-02    0.6451104387E+00    0.1641881879E-02
    0.3300000000E+07    0.2057762023E-03    0.6944696873E+00    0.5844878777E-02    0.6464196527E+00    0.1647586142E-02
    0.3500000000E+07    0.1838483000E-03    0.6944648956E+00    0.5526596702E-02    0.6475824569E+00    0.1652972711E-02
    0.3700000000E+07    0.1652593771E-03    0.6944603412E+00    0.5240919340E-02    0.6486220624E+00    0.1658075991E-02
    0.3900000000E+07    0.1493648258E-03    0.6944560013E+00    0.4983096741E-02    0.6495570266E+00    0.1662925042E-02
    0.4100000000E+07    0.1356683076E-03    0.6944518560E+00    0.4749257018E-02    0.6504023619E+00    0.1667544635E-02
    0.4300000000E+07    0.1237826555E-03    0.6944478882E+00    0.4536212723E-02    0.6511703437E+00    0.1671956060E-02
    0.4500000000E+07    0.1134022908E-03    0.6944440829E+00    0.4341316228E-02    0.6518711059E+00    0.1676177752E-02
    0.4700000000E+07    0.1042834387E-03    0.6944404271E+00    0.4162350249E-02    0.6525130883E+00    0.1680225780E-02
    0.4900000000E+07    0.9622971983E-04    0.6944369090E+00    0.3997443940E-02    0.6531033760E+00    0.1684114239E-02
    0.1000000000E+07    0.1860089596E-02    0.6945584210E+00    0.1696387780E-01    0.6023282910E+00    0.1541990430E-02
    0.3000000000E+07    0.2468622198E-03    0.6944773800E+00    0.6396721284E-02    0.6443920316E+00    0.1638898062E-02
    0.5000000000E+07    0.9255120008E-04    0.6944351984E+00    0.3919756941E-02    0.6533810435E+00    0.1686002573E-02
    0.7000000000E+07    0.4835331858E-04    0.6944062406E+00    0.2820228643E-02    0.6572831690E+00    0.1717764700E-02
    0.9000000000E+07    0.2983080356E-04    0.6943840645E+00    0.2200183931E-02    0.6594617638E+00    0.1741876877E-02
    0.1100000000E+08    0.2034661796E-04    0.6943660397E+00    0.1802486599E-02    0.6608513966E+00    0.1761372253E-02
    0.1300000000E+08    0.1484465529E-04    0.6943508267E+00    0.1525878277E-02    0.6618146078E+00    0.1777767640E-02
    0.1500000000E+08    0.1136758350E-04    0.6943376486E+00    0.1322443577E-02    0.6625214003E+00    0.1791933153E-02
    0.1700000000E+08    0.9028487284E-05    0.6943260132E+00    0.1166584148E-02    0.6630620468E+00    0.1804415289E-02
    0.1900000000E+08    0.7378083222E-05    0.6943155890E+00    0.1043385961E-02    0.6634889145E+00    0.1815580239E-02
    0.2100000000E+08    0.6168970192E-05    0.6943061419E+00    0.9435740452E-03    0.6638344659E+00    0.1825685614E-02
    0.2300000000E+08    0.5255770761E-05    0.6942974998E+00    0.8610786712E-03    0.6641198925E+00    0.1834919652E-02
    0.2500000000E+08    0.4548490988E-05    0.6942895331E+00    0.7917615281E-03    0.6643596147E+00    0.1843424166E-02
    0.2700000000E+08    0.3988989008E-05    0.6942821412E+00    0.7327044776E-03    0.6645637850E+00    0.1851308700E-02
