  Pressure (Pa) 22mC5-500 (mol/kg) 24mC5-500 (mol/kg) 2mC6-500 (mol/kg) 3mC6-500 (mol/kg) C7-500 (mol/kg)
    0.1000000000E+01    0.2127899361E-04    0.9949475592E-01    0.6135557836E-05    0.7727197804E-06    0.4204482979E-02
    0.3000000000E+01    0.4706558547E-04    0.2320854917E+00    0.1300759550E-04    0.1984363756E-05    0.4265244332E-02
    0.5000000000E+01    0.6172221152E-04    0.3164219365E+00    0.1659109158E-04    0.3099748725E-05    0.4302795464E-02
    0.7000000000E+01    0.7090002469E-04    0.3747917119E+00    0.1871177909E-04    0.4168138039E-05    0.4328940254E-02
    0.9000000000E+01    0.7707356926E-04    0.4175879250E+00    0.2011616201E-04    0.5206231049E-05    0.4348298977E-02
    0.1100000000E+02    0.8147529404E-04    0.4503100306E+00    0.2114972877E-04    0.6222408516E-05    0.4363257738E-02
    0.1300000000E+02    0.8477609574E-04    0.4761407715E+00    0.2198607320E-04    0.7221669766E-05    0.4375190503E-02
    0.1500000000E+02    0.8736602177E-04    0.4970498842E+00    0.2271761222E-04    0.8207315009E-05    0.4384947995E-02
    0.1700000000E+02    0.8948361988E-04    0.5143217125E+00    0.2339559456E-04    0.9181674621E-05    0.4393086408E-02
    0.1900000000E+02    0.9128074503E-04    0.5288294668E+00    0.2404922589E-04    0.1014647550E-04    0.4399985308E-02
    0.2100000000E+02    0.9285723729E-04    0.5411875478E+00    0.2469540276E-04    0.1110304473E-04    0.4405912914E-02
    0.2300000000E+02    0.9428049240E-04    0.5518408187E+00    0.2534392105E-04    0.1205243154E-04    0.4411064340E-02
    0.2500000000E+02    0.9559700329E-04    0.5611193102E+00    0.2600037825E-04    0.1299548462E-04    0.4415585034E-02
    0.2700000000E+02    0.9683942280E-04    0.5692730274E+00    0.2666784519E-04    0.1393290350E-04    0.4419585727E-02
    0.2900000000E+02    0.9803102402E-04    0.5764948194E+00    0.2734785545E-04    0.1486527386E-04    0.4423152266E-02
    0.3100000000E+02    0.9918859456E-04    0.5829358302E+00    0.2804100397E-04    0.1579309264E-04    0.4426352278E-02
    0.3300000000E+02    0.1003243595E-03    0.5887161949E+00    0.2874731564E-04    0.1671678638E-04    0.4429239791E-02
    0.3500000000E+02    0.1014472855E-03    0.5939326038E+00    0.2946647514E-04    0.1763672485E-04    0.4431858513E-02
    0.3700000000E+02    0.1025639820E-03    0.5986637558E+00    0.3019797172E-04    0.1855323139E-04    0.4434244205E-02
    0.3900000000E+02    0.1036793330E-03    0.6029743570E+00    0.3094119066E-04    0.1946659102E-04    0.4436426419E-02
    0.4100000000E+02    0.1047969481E-03    0.6069180987E+00    0.3169547107E-04    0.2037705664E-04    0.4438429805E-02
    0.4300000000E+02    0.1059194868E-03    0.6105399049E+00    0.3246014211E-04    0.2128485409E-04    0.4440275093E-02
    0.4500000000E+02    0.1070488957E-03    0.6138776525E+00    0.3323454527E-04    0.2219018615E-04    0.4441979851E-02
    0.4700000000E+02    0.1081865834E-03    0.6169635003E+00    0.3401804767E-04    0.2309323587E-04    0.4443559070E-02
    0.4900000000E+02    0.1093335502E-03    0.6198249293E+00    0.3481004946E-04    0.2399416918E-04    0.4445025627E-02
    0.1000000000E+02    0.7944517981E-04    0.4349720003E+00    0.2066584585E-04    0.5716694323E-05    0.4356226340E-02
    0.3000000000E+02    0.9861320979E-04    0.5798047882E+00    0.2769277572E-04    0.1532972407E-04    0.4424794436E-02
    0.5000000000E+02    0.1099107388E-03    0.6211790009E+00    0.3520906016E-04    0.2444388992E-04    0.4445720194E-02
    0.7000000000E+02    0.1220123377E-03    0.6407776990E+00    0.4351903811E-04    0.3335778063E-04    0.4455740765E-02
    0.9000000000E+02    0.1350839142E-03    0.6522106643E+00    0.5224892756E-04    0.4217430994E-04    0.4461355419E-02
    0.1100000000E+03    0.1489063528E-03    0.6597014479E+00    0.6122738843E-04    0.5094578177E-04    0.4464689959E-02
    0.1300000000E+03    0.1633044015E-03    0.6649891739E+00    0.7037433789E-04    0.5970386641E-04    0.4466662858E-02
    0.1500000000E+03    0.1781600485E-03    0.6689211269E+00    0.7965004959E-04    0.6846987380E-04    0.4467742045E-02
    0.1700000000E+03    0.1933949200E-03    0.6719594752E+00    0.8903406866E-04    0.7725921913E-04    0.4468193661E-02
    0.1900000000E+03    0.2089563031E-03    0.6743777543E+00    0.9851582475E-04    0.8608366883E-04    0.4468181522E-02
    0.2100000000E+03    0.2248081809E-03    0.6763481949E+00    0.1080901208E-03    0.9495258946E-04    0.4467812638E-02
    0.2300000000E+03    0.2409256349E-03    0.6779846473E+00    0.1177548189E-03    0.1038736954E-03    0.4467160230E-02
    0.2500000000E+03    0.2572913094E-03    0.6793653855E+00    0.1275095885E-03    0.1128535226E-03    0.4466276284E-02
    0.2700000000E+03    0.2738931292E-03    0.6805459965E+00    0.1373551986E-03    0.1218977434E-03    0.4465198846E-02
    0.2900000000E+03    0.2907227908E-03    0.6815670446E+00    0.1472931029E-03    0.1310113822E-03    0.4463956458E-02
    0.3100000000E+03    0.3077747422E-03    0.6824588252E+00    0.1573251913E-03    0.1401989698E-03    0.4462570988E-02
    0.3300000000E+03    0.3250454783E-03    0.6832444208E+00    0.1674536352E-03    0.1494646548E-03    0.4461059488E-02
    0.3500000000E+03    0.3425330447E-03    0.6839417273E+00    0.1776807918E-03    0.1588122878E-03    0.4459435452E-02
    0.3700000000E+03    0.3602366824E-03    0.6845648330E+00    0.1880091434E-03    0.1682454849E-03    0.4457709699E-02
    0.3900000000E+03    0.3781565697E-03    0.6851249802E+00    0.1984412584E-03    0.1777676770E-03    0.4455890994E-02
    0.4100000000E+03    0.3962936314E-03    0.6856312494E+00    0.2089797670E-03    0.1873821484E-03    0.4453986504E-02
    0.4300000000E+03    0.4146493965E-03    0.6860910550E+00    0.2196273461E-03    0.1970920687E-03    0.4452002134E-02
    0.4500000000E+03    0.4332258914E-03    0.6865105106E+00    0.2303867097E-03    0.2069005172E-03    0.4449942782E-02
    0.4700000000E+03    0.4520255578E-03    0.6868947025E+00    0.2412606045E-03    0.2168105041E-03    0.4447812526E-02
    0.4900000000E+03    0.4710511902E-03    0.6872478965E+00    0.2522518069E-03    0.2268249874E-03    0.4445614778E-02
    0.1000000000E+03    0.1419137609E-03    0.6563093715E+00    0.5671341860E-04    0.4656337860E-04    0.4463234959E-02
    0.3000000000E+03    0.2992212407E-03    0.6820275092E+00    0.1522972437E-03    0.1355956653E-03    0.4463280447E-02
    0.5000000000E+03    0.4806497013E-03    0.6874140180E+00    0.2577922739E-03    0.2318723291E-03    0.4444491507E-02
    0.7000000000E+03    0.6853792437E-03    0.6897476748E+00    0.3754673842E-03    0.3390149674E-03    0.4418967272E-02
    0.9000000000E+03    0.9176438259E-03    0.6910503190E+00    0.5083675249E-03    0.4600081362E-03    0.4388078635E-02
    0.1100000000E+04    0.1183378036E-02    0.6918813411E+00    0.6601150137E-03    0.5982236936E-03    0.4351694604E-02
    0.1300000000E+04    0.1490288374E-02    0.6924574619E+00    0.8352260256E-03    0.7578221890E-03    0.4309091135E-02
    0.1500000000E+04    0.1848405322E-02    0.6928802700E+00    0.1039501718E-02    0.9441356176E-03    0.4259102975E-02
    0.1700000000E+04    0.2270951373E-02    0.6932037102E+00    0.1280553851E-02    0.1164158571E-02    0.4200091301E-02
    0.1900000000E+04    0.2775611850E-02    0.6934590811E+00    0.1568548009E-02    0.1427236646E-02    0.4129820074E-02
    0.2100000000E+04    0.3386386045E-02    0.6936657895E+00    0.1917277002E-02    0.1746059697E-02    0.4045249885E-02
    0.2300000000E+04    0.4136274881E-02    0.6938365075E+00    0.2345717449E-02    0.2138103948E-02    0.3942233679E-02
    0.2500000000E+04    0.5071113163E-02    0.6939798606E+00    0.2880253019E-02    0.2627696835E-02    0.3815094159E-02
    0.2700000000E+04    0.6254744292E-02    0.6941019232E+00    0.3557689118E-02    0.3248829025E-02    0.3656089663E-02
    0.2900000000E+04    0.7775014930E-02    0.6942070966E+00    0.4428779629E-02    0.4048475018E-02    0.3454893581E-02
    0.3100000000E+04    0.9747488871E-02    0.6942986480E+00    0.5560520998E-02    0.5088849271E-02    0.3198579913E-02
    0.3300000000E+04    0.1230664616E-01    0.6943790534E+00    0.7031382094E-02    0.6443273114E-02    0.2873528605E-02
    0.3500000000E+04    0.1556041355E-01    0.6944502235E+00    0.8905586782E-02    0.8172867690E-02    0.2472233035E-02
    0.3700000000E+04    0.1947764585E-01    0.6945136563E+00    0.1116870199E-01    0.1026747339E-01    0.2007905463E-02
    0.3900000000E+04    0.2374519665E-01    0.6945705426E+00    0.1364473694E-01    0.1256863654E-01    0.1529804418E-02
    0.4100000000E+04    0.2779889579E-01    0.6946218412E+00    0.1601164189E-01    0.1478181160E-01    0.1112490791E-02
    0.4300000000E+04    0.3115983900E-01    0.6946683324E+00    0.1799278219E-01    0.1665105334E-01    0.8091194823E-03
    0.4500000000E+04    0.3371754858E-01    0.6947106579E+00    0.1952101688E-01    0.1811129865E-01    0.6209396290E-03
    0.4700000000E+04    0.3564039946E-01    0.6947493502E+00    0.2068984805E-01    0.1924574094E-01    0.5165298028E-03
    0.4900000000E+04    0.3715195374E-01    0.6947848549E+00    0.2162589378E-01    0.2016931655E-01    0.4624012692E-03
    0.1000000000E+04    0.1045892082E-02    0.6915071982E+00    0.5816281412E-03    0.5267257393E-03    0.4370608027E-02
    0.3000000000E+04    0.8696493630E-02    0.6942544049E+00    0.4957282110E-02    0.4534113412E-02    0.3334507653E-02
    0.5000000000E+04    0.3780870180E-01    0.6948015316E+00    0.2203807076E-01    0.2058074177E-01    0.4465460139E-03
    0.7000000000E+04    0.4723677120E-01    0.6950340486E+00    0.2826887541E-01    0.2707820785E-01    0.4151385459E-03
    0.9000000000E+04    0.5431858092E-01    0.6951620044E+00    0.3331924282E-01    0.3267586235E-01    0.4209753425E-03
    0.1100000000E+05    0.5993372469E-01    0.6952426127E+00    0.3762744341E-01    0.3771975800E-01    0.4257221131E-03
    0.1300000000E+05    0.6444613491E-01    0.6952978330E+00    0.4135889757E-01    0.4232303421E-01    0.4297102010E-03
    0.1500000000E+05    0.6811099373E-01    0.6953378886E+00    0.4463200115E-01    0.4656805546E-01    0.4331535217E-03
    0.1700000000E+05    0.7111237451E-01    0.6953681771E+00    0.4753397283E-01    0.5051653089E-01    0.4361861346E-03
    0.1900000000E+05    0.7358615645E-01    0.6953918149E+00    0.5013057003E-01    0.5421574568E-01    0.4388977018E-03
    0.2100000000E+05    0.7563465958E-01    0.6954107256E+00    0.5247237156E-01    0.5770264230E-01    0.4413512103E-03
    0.2300000000E+05    0.7733628158E-01    0.6954261599E+00    0.5459896644E-01    0.6100657485E-01    0.4435926350E-03
    0.2500000000E+05    0.7875201391E-01    0.6954389657E+00    0.5654182158E-01    0.6415121716E-01    0.4456565810E-03
    0.2700000000E+05    0.7992995169E-01    0.6954497377E+00    0.5832629138E-01    0.6715591511E-01    0.4475697601E-03
    0.2900000000E+05    0.8090848014E-01    0.6954589053E+00    0.5997305530E-01    0.7003666465E-01    0.4493532307E-03
    0.3100000000E+05    0.8171856763E-01    0.6954667860E+00    0.6149916534E-01    0.7280683211E-01    0.4510238937E-03
    0.3300000000E+05    0.8238544332E-01    0.6954736194E+00    0.6291882193E-01    0.7547769318E-01    0.4525955234E-03
    0.3500000000E+05    0.8292984296E-01    0.6954795900E+00    0.6424395737E-01    0.7805884235E-01    0.4540794969E-03
    0.3700000000E+05    0.8336894657E-01    0.6954848417E+00    0.6548468040E-01    0.8055850791E-01    0.4554853218E-03
    0.3900000000E+05    0.8371709293E-01    0.6954894885E+00    0.6664961927E-01    0.8298379733E-01    0.4568210263E-03
    0.4100000000E+05    0.8398633013E-01    0.6954936219E+00    0.6774618939E-01    0.8534089055E-01    0.4580934518E-03
    0.4300000000E+05    0.8418684430E-01    0.6954973161E+00    0.6878080434E-01    0.8763519370E-01    0.4593084773E-03
    0.4500000000E+05    0.8432729658E-01    0.6955006319E+00    0.6975904388E-01    0.8987146254E-01    0.4604711920E-03
    0.4700000000E+05    0.8441509026E-01    0.6955036196E+00    0.7068578879E-01    0.9205390251E-01    0.4615860315E-03
    0.4900000000E+05    0.8445658450E-01    0.6955063210E+00    0.7156533013E-01    0.9418625035E-01    0.4626568858E-03
    0.1000000000E+05    0.5728360106E-01    0.6952064417E+00    0.3555442403E-01    0.3525907746E-01    0.4234616979E-03
    0.3000000000E+05    0.8133288403E-01    0.6954629900E+00    0.6075024532E-01    0.7143482274E-01    0.4502017387E-03
    0.5000000000E+05    0.8446171409E-01    0.6955075756E+00    0.7198860142E-01    0.9523469607E-01    0.4631769063E-03
    0.7000000000E+05    0.8313380003E-01    0.6955238143E+00    0.7869931241E-01    0.1142229976E+00    0.4719226782E-03
    0.9000000000E+05    0.8048144471E-01    0.6955312186E+00    0.8321570995E-01    0.1305199409E+00    0.4785610357E-03
    0.1100000000E+06    0.7743252250E-01    0.6955348866E+00    0.8644419264E-01    0.1450298324E+00    0.4839279493E-03
    0.1300000000E+06    0.7432392951E-01    0.6955366946E+00    0.8882778091E-01    0.1582299969E+00    0.4884412901E-03
    0.1500000000E+06    0.7129014269E-01    0.6955374785E+00    0.9061592075E-01    0.1704076752E+00    0.4923407081E-03
    0.1700000000E+06    0.6838538845E-01    0.6955376596E+00    0.9196321062E-01    0.1817518290E+00    0.4957766967E-03
    0.1900000000E+06    0.6562905467E-01    0.6955374698E+00    0.9297232003E-01    0.1923950488E+00    0.4988500856E-03
    0.2100000000E+06    0.6302460575E-01    0.6955370447E+00    0.9371506071E-01    0.2024350209E+00    0.5016318007E-03
    0.2300000000E+06    0.6056811663E-01    0.6955364679E+00    0.9424371679E-01    0.2119465101E+00    0.5041736657E-03
    0.2500000000E+06    0.5825234342E-01    0.6955357927E+00    0.9459758387E-01    0.2209885090E+00    0.5065147207E-03
    0.2700000000E+06    0.5606873562E-01    0.6955350543E+00    0.9480696304E-01    0.2296087362E+00    0.5086851216E-03
    0.2900000000E+06    0.5400844720E-01    0.6955342763E+00    0.9489571629E-01    0.2378465944E+00    0.5107086556E-03
    0.3100000000E+06    0.5206284103E-01    0.6955334749E+00    0.9488296600E-01    0.2457351852E+00    0.5126044231E-03
    0.3300000000E+06    0.5022372985E-01    0.6955326614E+00    0.9478426285E-01    0.2533027273E+00    0.5143879975E-03
    0.3500000000E+06    0.4848347781E-01    0.6955318438E+00    0.9461241131E-01    0.2605735789E+00    0.5160722465E-03
    0.3700000000E+06    0.4683502832E-01    0.6955310276E+00    0.9437806727E-01    0.2675689937E+00    0.5176679268E-03
    0.3900000000E+06    0.4527189320E-01    0.6955302168E+00    0.9409018020E-01    0.2743076911E+00    0.5191841237E-03
    0.4100000000E+06    0.4378812281E-01    0.6955294142E+00    0.9375632620E-01    0.2808062930E+00    0.5206285818E-03
    0.4300000000E+06    0.4237826756E-01    0.6955286218E+00    0.9338296321E-01    0.2870796651E+00    0.5220079572E-03
    0.4500000000E+06    0.4103733674E-01    0.6955278409E+00    0.9297562938E-01    0.2931411868E+00    0.5233280133E-03
    0.4700000000E+06    0.3976075791E-01    0.6955270723E+00    0.9253909927E-01    0.2990029672E+00    0.5245937743E-03
    0.4900000000E+06    0.3854433824E-01    0.6955263167E+00    0.9207750838E-01    0.3046760208E+00    0.5258096465E-03
    0.1000000000E+06    0.7897834922E-01    0.6955333654E+00    0.8495688779E-01    0.1379623182E+00    0.4813714937E-03
    0.3000000000E+06    0.5302183275E-01    0.6955338777E+00    0.9490098446E-01    0.2418326836E+00    0.5116714651E-03
    0.5000000000E+06    0.3795747280E-01    0.6955259439E+00    0.9183845782E-01    0.3074449536E+00    0.5264001070E-03
    0.7000000000E+06    0.2859520155E-01    0.6955191698E+00    0.8640498996E-01    0.3549673630E+00    0.5363319964E-03
    0.9000000000E+06    0.2234013581E-01    0.6955135167E+00    0.8066918810E-01    0.3913422246E+00    0.5438720930E-03
    0.1100000000E+07    0.1794103577E-01    0.6955087043E+00    0.7523003199E-01    0.4201637671E+00    0.5499686865E-03
    0.1300000000E+07    0.1472547811E-01    0.6955045233E+00    0.7025721976E-01    0.4435830853E+00    0.5550960038E-03
    0.1500000000E+07    0.1230246887E-01    0.6955008291E+00    0.6577287897E-01    0.4629917605E+00    0.5595260883E-03
    0.1700000000E+07    0.1043091945E-01    0.6954975200E+00    0.6174702465E-01    0.4793371936E+00    0.5634298073E-03
    0.1900000000E+07    0.8955208493E-02    0.6954945227E+00    0.5813349318E-01    0.4932890569E+00    0.5669216554E-03
    0.2100000000E+07    0.7771090353E-02    0.6954917829E+00    0.5488399920E-01    0.5053348947E+00    0.5700821788E-03
    0.2300000000E+07    0.6806549055E-02    0.6954892592E+00    0.5195348262E-01    0.5158383578E+00    0.5729702350E-03
    0.2500000000E+07    0.6010516322E-02    0.6954869194E+00    0.4930184427E-01    0.5250762855E+00    0.5756301654E-03
    0.2700000000E+07    0.5345953667E-02    0.6954847381E+00    0.4689417853E-01    0.5332631652E+00    0.5780962227E-03
    0.2900000000E+07    0.4785465168E-02    0.6954826947E+00    0.4470041002E-01    0.5405677437E+00    0.5803954269E-03
    0.3100000000E+07    0.4308433316E-02    0.6954807725E+00    0.4269473119E-01    0.5471245900E+00    0.5825494746E-03
    0.3300000000E+07    0.3899101322E-02    0.6954789576E+00    0.4085501237E-01    0.5530423184E+00    0.5845760569E-03
    0.3500000000E+07    0.3545260159E-02    0.6954772384E+00    0.3916225415E-01    0.5584095468E+00    0.5864897914E-03
    0.3700000000E+07    0.3237331629E-02    0.6954756050E+00    0.3760010600E-01    0.5632992873E+00    0.5883028979E-03
    0.3900000000E+07    0.2967716507E-02    0.6954740491E+00    0.3615445446E-01    0.5677722291E+00    0.5900256980E-03
    0.4100000000E+07    0.2730323623E-02    0.6954725636E+00    0.3481307591E-01    0.5718792278E+00    0.5916669898E-03
    0.4300000000E+07    0.2520224668E-02    0.6954711421E+00    0.3356534593E-01    0.5756632147E+00    0.5932343354E-03
    0.4500000000E+07    0.2333397773E-02    0.6954697793E+00    0.3240199672E-01    0.5791606796E+00    0.5947342825E-03
    0.4700000000E+07    0.2166534682E-02    0.6954684703E+00    0.3131491477E-01    0.5824028322E+00    0.5961725390E-03
    0.4900000000E+07    0.2016894138E-02    0.6954672110E+00    0.3029697202E-01    0.5854165217E+00    0.5975541112E-03
    0.1000000000E+07    0.1995949638E-01    0.6955110203E+00    0.7789661874E-01    0.4065395992E+00    0.5470645956E-03
    0.3000000000E+07    0.4537598159E-02    0.6954817194E+00    0.4367552199E-01    0.5439323156E+00    0.5814894082E-03
    0.5000000000E+07    0.1947802442E-02    0.6954665988E+00    0.2981193451E-01    0.5868450746E+00    0.5982250412E-03
    0.7000000000E+07    0.1074881444E-02    0.6954562448E+00    0.2255137146E-01    0.6076889755E+00    0.6095105608E-03
    0.9000000000E+07    0.6794182855E-03    0.6954483263E+00    0.1810897480E-01    0.6199812616E+00    0.6180783848E-03
    0.1100000000E+08    0.4676403488E-03    0.6954418957E+00    0.1511690306E-01    0.6280807249E+00    0.6250059836E-03
    0.1300000000E+08    0.3412590583E-03    0.6954364717E+00    0.1296685661E-01    0.6338166214E+00    0.6308322002E-03
    0.1500000000E+08    0.2598816468E-03    0.6954317754E+00    0.1134825961E-01    0.6380901305E+00    0.6358661506E-03
    0.1700000000E+08    0.2044425609E-03    0.6954276304E+00    0.1008627031E-01    0.6413963555E+00    0.6403019888E-03
    0.1900000000E+08    0.1649939847E-03    0.6954239182E+00    0.9075035172E-02    0.6440297645E+00    0.6442698145E-03
    0.2100000000E+08    0.1359346974E-03    0.6954205547E+00    0.8246758811E-02    0.6461764167E+00    0.6478611521E-03
    0.2300000000E+08    0.1139160345E-03    0.6954174786E+00    0.7556029214E-02    0.6479596190E+00    0.6511428818E-03
    0.2500000000E+08    0.9683658906E-04    0.6954146434E+00    0.6971293841E-02    0.6494643097E+00    0.6541653888E-03
    0.2700000000E+08    0.8332379295E-04    0.6954120133E+00    0.6469952221E-02    0.6507508967E+00    0.6569675950E-03
