  Pressure (Pa) 22mC5-500 (mol/kg) 24mC5-500 (mol/kg) 2mC6-500 (mol/kg) 3mC6-500 (mol/kg) C7-500 (mol/kg)
    0.1000000000E+01    0.2304566958E-04    0.6965150951E-01    0.1022773918E-04    0.5105695262E-05    0.4147006133E-02
    0.3000000000E+01    0.5514430002E-04    0.1740899495E+00    0.2364371853E-04    0.1260739554E-04    0.4177368890E-02
    0.5000000000E+01    0.7642135412E-04    0.2486617290E+00    0.3203873630E-04    0.1941593375E-04    0.4189336539E-02
    0.7000000000E+01    0.9134868134E-04    0.3045768102E+00    0.3767304810E-04    0.2589997137E-04    0.4196940733E-02
    0.9000000000E+01    0.1022863141E-03    0.3480588494E+00    0.4168508645E-04    0.3218119220E-04    0.4202335100E-02
    0.1100000000E+02    0.1105921502E-03    0.3828402268E+00    0.4470133435E-04    0.3831976772E-04    0.4206352055E-02
    0.1300000000E+02    0.1170961476E-03    0.4112952132E+00    0.4708733035E-04    0.4435121370E-04    0.4209425629E-02
    0.1500000000E+02    0.1223298387E-03    0.4350061974E+00    0.4906598585E-04    0.5029878205E-04    0.4211816209E-02
    0.1700000000E+02    0.1266466374E-03    0.4550684263E+00    0.5077802478E-04    0.5617878109E-04    0.4213693167E-02
    0.1900000000E+02    0.1302888793E-03    0.4722640730E+00    0.5231477478E-04    0.6200322783E-04    0.4215172742E-02
    0.2100000000E+02    0.1334270709E-03    0.4871666435E+00    0.5373683501E-04    0.6778131298E-04    0.4216337886E-02
    0.2300000000E+02    0.1361838293E-03    0.5002062131E+00    0.5508513334E-04    0.7352027338E-04    0.4217249612E-02
    0.2500000000E+02    0.1386489997E-03    0.5117116282E+00    0.5638769774E-04    0.7922594261E-04    0.4217953905E-02
    0.2700000000E+02    0.1408894881E-03    0.5219386360E+00    0.5766392235E-04    0.8490311473E-04    0.4218486137E-02
    0.2900000000E+02    0.1429558265E-03    0.5310891270E+00    0.5892732190E-04    0.9055579386E-04    0.4218873988E-02
    0.3100000000E+02    0.1448866537E-03    0.5393246037E+00    0.6018734805E-04    0.9618737074E-04    0.4219139446E-02
    0.3300000000E+02    0.1467118376E-03    0.5467757991E+00    0.6145060974E-04    0.1018007511E-03    0.4219300207E-02
    0.3500000000E+02    0.1484546882E-03    0.5535496721E+00    0.6272170641E-04    0.1073984509E-03    0.4219370678E-02
    0.3700000000E+02    0.1501335523E-03    0.5597345764E+00    0.6400380519E-04    0.1129826688E-03    0.4219362709E-02
    0.3900000000E+02    0.1517629786E-03    0.5654041378E+00    0.6529904561E-04    0.1185553416E-03    0.4219286139E-02
    0.4100000000E+02    0.1533545806E-03    0.5706202004E+00    0.6660882675E-04    0.1241181881E-03    0.4219149206E-02
    0.4300000000E+02    0.1549176826E-03    0.5754350926E+00    0.6793401271E-04    0.1296727435E-03    0.4218958859E-02
    0.4500000000E+02    0.1564598093E-03    0.5798933893E+00    0.6927508099E-04    0.1352203872E-03    0.4218721002E-02
    0.4700000000E+02    0.1579870596E-03    0.5840332974E+00    0.7063223039E-04    0.1407623655E-03    0.4218440682E-02
    0.4900000000E+02    0.1595043957E-03    0.5878877531E+00    0.7200545990E-04    0.1462998098E-03    0.4218122238E-02
    0.1000000000E+02    0.1067073871E-03    0.3663652812E+00    0.4329050206E-04    0.3526571103E-04    0.4204483054E-02
    0.3000000000E+02    0.1439361362E-03    0.5353124426E+00    0.5955728824E-04    0.9337402835E-04    0.4219020823E-02
    0.5000000000E+02    0.1602606421E-03    0.5897170076E+00    0.7269806435E-04    0.1490671576E-03    0.4217949913E-02
    0.7000000000E+02    0.1755282807E-03    0.6165790044E+00    0.8732381737E-04    0.2043860516E-03    0.4213190970E-02
    0.9000000000E+02    0.1917319730E-03    0.6325902640E+00    0.1031744381E-03    0.2600436834E-03    0.4206924505E-02
    0.1100000000E+03    0.2090944936E-03    0.6432211971E+00    0.1199718852E-03    0.3164213105E-03    0.4199845505E-02
    0.1300000000E+03    0.2275710636E-03    0.6507939157E+00    0.1375572323E-03    0.3737694496E-03    0.4192237701E-02
    0.1500000000E+03    0.2470884597E-03    0.6564622627E+00    0.1558466051E-03    0.4322757734E-03    0.4184233807E-02
    0.1700000000E+03    0.2675882805E-03    0.6608644488E+00    0.1747991610E-03    0.4920943697E-03    0.4175900546E-02
    0.1900000000E+03    0.2890319192E-03    0.6643821484E+00    0.1943993818E-03    0.5533604202E-03    0.4167272091E-02
    0.2100000000E+03    0.3113979523E-03    0.6672576302E+00    0.2146474206E-03    0.6161984096E-03    0.4158365014E-02
    0.2300000000E+03    0.3346786957E-03    0.6696520807E+00    0.2355537084E-03    0.6807271237E-03    0.4149185627E-02
    0.2500000000E+03    0.3588773429E-03    0.6716769070E+00    0.2571358548E-03    0.7470629205E-03    0.4139733850E-02
    0.2700000000E+03    0.3840058342E-03    0.6734115768E+00    0.2794168241E-03    0.8153220150E-03    0.4130005365E-02
    0.2900000000E+03    0.4100833358E-03    0.6749142993E+00    0.3024238520E-03    0.8856221753E-03    0.4119992861E-02
    0.3100000000E+03    0.4371351770E-03    0.6762286884E+00    0.3261878047E-03    0.9580840568E-03    0.4109686780E-02
    0.3300000000E+03    0.4651921247E-03    0.6773880678E+00    0.3507428151E-03    0.1032832312E-02    0.4099075765E-02
    0.3500000000E+03    0.4942899031E-03    0.6784183365E+00    0.3761260982E-03    0.1109996561E-02    0.4088146936E-02
    0.3700000000E+03    0.5244688966E-03    0.6793399279E+00    0.4023778872E-03    0.1189712280E-02    0.4076886041E-02
    0.3900000000E+03    0.5557739896E-03    0.6801691794E+00    0.4295414549E-03    0.1272121646E-02    0.4065277550E-02
    0.4100000000E+03    0.5882545135E-03    0.6809193095E+00    0.4576631990E-03    0.1357374364E-02    0.4053304680E-02
    0.4300000000E+03    0.6219642786E-03    0.6816011287E+00    0.4867927763E-03    0.1445628504E-02    0.4040949405E-02
    0.4500000000E+03    0.6569616771E-03    0.6822235636E+00    0.5169832789E-03    0.1537051354E-02    0.4028192419E-02
    0.4700000000E+03    0.6933098457E-03    0.6827940501E+00    0.5482914463E-03    0.1631820312E-02    0.4015013094E-02
    0.4900000000E+03    0.7310768833E-03    0.6833188324E+00    0.5807779118E-03    0.1730123825E-02    0.4001389411E-02
    0.1000000000E+03    0.2002694275E-03    0.6383931985E+00    0.1114670045E-03    0.2881248600E-03    0.4203463657E-02
    0.3000000000E+03    0.4234856618E-03    0.6755927506E+00    0.3142091531E-03    0.9215752157E-03    0.4114877189E-02
    0.5000000000E+03    0.7505151803E-03    0.6835657675E+00    0.5974830868E-03    0.1780663195E-02    0.3994403656E-02
    0.7000000000E+03    0.1235482577E-02    0.6870423767E+00    0.1012404301E-02    0.3035267916E-02    0.3824548678E-02
    0.9000000000E+03    0.1999185172E-02    0.6889898442E+00    0.1663528603E-02    0.5005433642E-02    0.3568515062E-02
    0.1100000000E+04    0.3294234730E-02    0.6902352491E+00    0.2767738988E-02    0.8353191213E-02    0.3154117313E-02
    0.1300000000E+04    0.5607612960E-02    0.6911002910E+00    0.4744906189E-02    0.1436689588E-01    0.2456757950E-02
    0.1500000000E+04    0.9340624501E-02    0.6917361554E+00    0.7952489717E-02    0.2417759024E-01    0.1432724234E-02
    0.1700000000E+04    0.1319424453E-01    0.6922232731E+00    0.1130293480E-01    0.3454338491E-01    0.5586809951E-03
    0.1900000000E+04    0.1559216989E-01    0.6926083775E+00    0.1344205180E-01    0.4132287271E-01    0.2164669516E-03
    0.2100000000E+04    0.1709739197E-01    0.6929204792E+00    0.1483359827E-01    0.4587626815E-01    0.1349248369E-03
    0.2300000000E+04    0.1830690696E-01    0.6931785404E+00    0.1598312983E-01    0.4972874357E-01    0.1185730864E-03
    0.2500000000E+04    0.1940210679E-01    0.6933954791E+00    0.1704482358E-01    0.5334736509E-01    0.1157071979E-03
    0.2700000000E+04    0.2042738522E-01    0.6935803994E+00    0.1805595943E-01    0.5684393509E-01    0.1155235471E-03
    0.2900000000E+04    0.2139512913E-01    0.6937399025E+00    0.1902638056E-01    0.6024646437E-01    0.1158559229E-03
    0.3100000000E+04    0.2231057795E-01    0.6938788915E+00    0.1995982091E-01    0.6356433178E-01    0.1162707051E-03
    0.3300000000E+04    0.2317724372E-01    0.6940010846E+00    0.2085857970E-01    0.6680264124E-01    0.1166820217E-03
    0.3500000000E+04    0.2399809144E-01    0.6941093524E+00    0.2172454082E-01    0.6996536001E-01    0.1170743883E-03
    0.3700000000E+04    0.2477580868E-01    0.6942059466E+00    0.2255940288E-01    0.7305602022E-01    0.1174465164E-03
    0.3900000000E+04    0.2551287785E-01    0.6942926584E+00    0.2336473746E-01    0.7607788837E-01    0.1177998013E-03
    0.4100000000E+04    0.2621160419E-01    0.6943709301E+00    0.2414200906E-01    0.7903401647E-01    0.1181359653E-03
    0.4300000000E+04    0.2687413297E-01    0.6944419366E+00    0.2489258594E-01    0.8192726567E-01    0.1184566018E-03
    0.4500000000E+04    0.2750246317E-01    0.6945066441E+00    0.2561774835E-01    0.8476032257E-01    0.1187631121E-03
    0.4700000000E+04    0.2809845950E-01    0.6945658550E+00    0.2631869553E-01    0.8753571282E-01    0.1190567192E-03
    0.4900000000E+04    0.2866386315E-01    0.6946202408E+00    0.2699655206E-01    0.9025581325E-01    0.1193384940E-03
    0.1000000000E+04    0.2556256569E-02    0.6896742220E+00    0.2138349624E-02    0.6443989684E-02    0.3387708610E-02
    0.3000000000E+04    0.2185915203E-01    0.6938117057E+00    0.1949756467E-01    0.6191561910E-01    0.1160613662E-03
    0.5000000000E+04    0.2893560550E-01    0.6946458048E+00    0.2732715376E-01    0.9159583458E-01    0.1194752432E-03
    0.7000000000E+04    0.3310765997E-01    0.6950038551E+00    0.3295174125E-01    0.1159740128E+00    0.1217679890E-03
    0.9000000000E+04    0.3554750281E-01    0.6952028384E+00    0.3714719333E-01    0.1367219131E+00    0.1235011258E-03
    0.1100000000E+05    0.3690120970E-01    0.6953294350E+00    0.4036182544E-01    0.1548386745E+00    0.1248990011E-03
    0.1300000000E+05    0.3754884156E-01    0.6954170301E+00    0.4287302969E-01    0.1709625268E+00    0.1260727517E-03
    0.1500000000E+05    0.3772551727E-01    0.6954812169E+00    0.4486190563E-01    0.1855230502E+00    0.1270857585E-03
    0.1700000000E+05    0.3758259256E-01    0.6955302554E+00    0.4645191885E-01    0.1988219003E+00    0.1279776707E-03
    0.1900000000E+05    0.3722065961E-01    0.6955689293E+00    0.4773029778E-01    0.2110784624E+00    0.1287749786E-03
    0.2100000000E+05    0.3670832030E-01    0.6956002008E+00    0.4876053563E-01    0.2224570718E+00    0.1294962769E-03
    0.2300000000E+05    0.3609334900E-01    0.6956260020E+00    0.4959003292E-01    0.2330839717E+00    0.1301551295E-03
    0.2500000000E+05    0.3540958237E-01    0.6956476469E+00    0.5025495182E-01    0.2430582791E+00    0.1307617406E-03
    0.2700000000E+05    0.3468130937E-01    0.6956660600E+00    0.5078340279E-01    0.2524593060E+00    0.1313239837E-03
    0.2900000000E+05    0.3392614633E-01    0.6956819109E+00    0.5119759708E-01    0.2613515854E+00    0.1318480636E-03
    0.3100000000E+05    0.3315696534E-01    0.6956956964E+00    0.5151533781E-01    0.2697884059E+00    0.1323389588E-03
    0.3300000000E+05    0.3238321516E-01    0.6957077927E+00    0.5175107597E-01    0.2778143523E+00    0.1328007257E-03
    0.3500000000E+05    0.3161184265E-01    0.6957184900E+00    0.5191667341E-01    0.2854671675E+00    0.1332367140E-03
    0.3700000000E+05    0.3084794625E-01    0.6957280157E+00    0.5202196385E-01    0.2927791390E+00    0.1336497223E-03
    0.3900000000E+05    0.3009524611E-01    0.6957365507E+00    0.5207517228E-01    0.2997781505E+00    0.1340421135E-03
    0.4100000000E+05    0.2935642674E-01    0.6957442403E+00    0.5208323285E-01    0.3064884880E+00    0.1344159008E-03
    0.4300000000E+05    0.2863338960E-01    0.6957512029E+00    0.5205203324E-01    0.3129314680E+00    0.1347728141E-03
    0.4500000000E+05    0.2792744119E-01    0.6957575357E+00    0.5198660467E-01    0.3191259314E+00    0.1351143505E-03
    0.4700000000E+05    0.2723943450E-01    0.6957633196E+00    0.5189127141E-01    0.3250886371E+00    0.1354418149E-03
    0.4900000000E+05    0.2656987608E-01    0.6957686220E+00    0.5176976952E-01    0.3308345782E+00    0.1357563513E-03
    0.1000000000E+05    0.3633196295E-01    0.6952724732E+00    0.3885688765E-01    0.1460631041E+00    0.1242334631E-03
    0.3000000000E+05    0.3354264966E-01    0.6956890360E+00    0.5136755249E-01    0.2656239620E+00    0.1320973871E-03
    0.5000000000E+05    0.2624209907E-01    0.6957711108E+00    0.5170023585E-01    0.3336305288E+00    0.1359090916E-03
    0.7000000000E+05    0.2063149897E-01    0.6958056526E+00    0.4953344616E-01    0.3808411914E+00    0.1384776708E-03
    0.9000000000E+05    0.1652846742E-01    0.6958244626E+00    0.4674516917E-01    0.4161371232E+00    0.1404270958E-03
    0.1100000000E+06    0.1349440890E-01    0.6958361785E+00    0.4390797762E-01    0.4436701583E+00    0.1420030507E-03
    0.1300000000E+06    0.1120504093E-01    0.6958441074E+00    0.4121838188E-01    0.4657871207E+00    0.1433283101E-03
    0.1500000000E+06    0.9441903215E-02    0.6958497846E+00    0.3873880319E-01    0.4839530743E+00    0.1444732738E-03
    0.1700000000E+06    0.8058332117E-02    0.6958540187E+00    0.3647932723E-01    0.4991413089E+00    0.1454821459E-03
    0.1900000000E+06    0.6954283513E-02    0.6958572750E+00    0.3442938383E-01    0.5120274229E+00    0.1463845407E-03
    0.2100000000E+06    0.6060109028E-02    0.6958598401E+00    0.3257097019E-01    0.5230963435E+00    0.1472012880E-03
    0.2300000000E+06    0.5326314033E-02    0.6958618996E+00    0.3088434623E-01    0.5327056198E+00    0.1479476072E-03
    0.2500000000E+06    0.4717036913E-02    0.6958635790E+00    0.2935045826E-01    0.5411248325E+00    0.1486349628E-03
    0.2700000000E+06    0.4205825518E-02    0.6958649661E+00    0.2795188777E-01    0.5485611318E+00    0.1492722102E-03
    0.2900000000E+06    0.3772847512E-02    0.6958661240E+00    0.2667312734E-01    0.5551763317E+00    0.1498663345E-03
    0.3100000000E+06    0.3403011391E-02    0.6958670992E+00    0.2550055516E-01    0.5610986654E+00    0.1504229444E-03
    0.3300000000E+06    0.3084676971E-02    0.6958679267E+00    0.2442228410E-01    0.5664310589E+00    0.1509466127E-03
    0.3500000000E+06    0.2808754771E-02    0.6958686333E+00    0.2342796846E-01    0.5712570722E+00    0.1514411178E-03
    0.3700000000E+06    0.2568066668E-02    0.6958692399E+00    0.2250860751E-01    0.5756452423E+00    0.1519096182E-03
    0.3900000000E+06    0.2356885126E-02    0.6958697629E+00    0.2165636264E-01    0.5796523080E+00    0.1523547815E-03
    0.4100000000E+06    0.2170596472E-02    0.6958702156E+00    0.2086439452E-01    0.5833256392E+00    0.1527788817E-03
    0.4300000000E+06    0.2005451614E-02    0.6958706084E+00    0.2012672136E-01    0.5867050900E+00    0.1531838733E-03
    0.4500000000E+06    0.1858379289E-02    0.6958709501E+00    0.1943809726E-01    0.5898244299E+00    0.1535714483E-03
    0.4700000000E+06    0.1726844580E-02    0.6958712479E+00    0.1879390845E-01    0.5927124593E+00    0.1539430820E-03
    0.4900000000E+06    0.1608740636E-02    0.6958715076E+00    0.1819008518E-01    0.5953938899E+00    0.1543000682E-03
    0.1000000000E+06    0.1490098578E-01    0.6958309383E+00    0.4531569090E-01    0.4306998707E+00    0.1412523753E-03
    0.3000000000E+06    0.3580833036E-02    0.6958666320E+00    0.2607434913E-01    0.5582171597E+00    0.1501490219E-03
    0.5000000000E+06    0.1554162868E-02    0.6958716248E+00    0.1790216891E-01    0.5966639100E+00    0.1544734304E-03
    0.7000000000E+06    0.8619057646E-03    0.6958728336E+00    0.1357775643E-01    0.6151203444E+00    0.1573894896E-03
    0.9000000000E+06    0.5464593444E-03    0.6958729760E+00    0.1091947711E-01    0.6259416328E+00    0.1596033181E-03
    0.1100000000E+07    0.3769671539E-03    0.6958727231E+00    0.9124231800E-02    0.6330477685E+00    0.1613933353E-03
    0.1300000000E+07    0.2755960550E-03    0.6958723064E+00    0.7831925466E-02    0.6380693300E+00    0.1628987736E-03
    0.1500000000E+07    0.2102172067E-03    0.6958718211E+00    0.6857834414E-02    0.6418051276E+00    0.1641995042E-03
    0.1700000000E+07    0.1656211172E-03    0.6958713110E+00    0.6097642815E-02    0.6446923378E+00    0.1653456934E-03
    0.1900000000E+07    0.1338552590E-03    0.6958707974E+00    0.5488055438E-02    0.6469902516E+00    0.1663709566E-03
    0.2100000000E+07    0.1104347485E-03    0.6958702910E+00    0.4988466559E-02    0.6488623575E+00    0.1672989419E-03
    0.2300000000E+07    0.9267494682E-04    0.6958697973E+00    0.4571641580E-02    0.6504168276E+00    0.1681469298E-03
    0.2500000000E+07    0.7888941883E-04    0.6958693187E+00    0.4218637994E-02    0.6517280784E+00    0.1689279389E-03
    0.2700000000E+07    0.6797569644E-04    0.6958688562E+00    0.3915876000E-02    0.6528489795E+00    0.1696520258E-03
    0.2900000000E+07    0.5918850276E-04    0.6958684101E+00    0.3653368034E-02    0.6538181225E+00    0.1703271235E-03
    0.3100000000E+07    0.5200941799E-04    0.6958679799E+00    0.3423605736E-02    0.6546643340E+00    0.1709596022E-03
    0.3300000000E+07    0.4606881933E-04    0.6958675651E+00    0.3220836328E-02    0.6554095793E+00    0.1715546560E-03
    0.3500000000E+07    0.4109744271E-04    0.6958671649E+00    0.3040578285E-02    0.6560708883E+00    0.1721165768E-03
    0.3700000000E+07    0.3689538560E-04    0.6958667788E+00    0.2879288865E-02    0.6566616673E+00    0.1726489522E-03
    0.3900000000E+07    0.3331172759E-04    0.6958664058E+00    0.2734130724E-02    0.6571926140E+00    0.1731548127E-03
    0.4100000000E+07    0.3023080768E-04    0.6958660452E+00    0.2602804821E-02    0.6576723679E+00    0.1736367415E-03
    0.4300000000E+07    0.2756278493E-04    0.6958656964E+00    0.2483428638E-02    0.6581079829E+00    0.1740969588E-03
    0.4500000000E+07    0.2523702027E-04    0.6958653586E+00    0.2374446017E-02    0.6585052745E+00    0.1745373871E-03
    0.4700000000E+07    0.2319735556E-04    0.6958650312E+00    0.2274559427E-02    0.6588690803E+00    0.1749597022E-03
    0.4900000000E+07    0.2139869299E-04    0.6958647137E+00    0.2182678422E-02    0.6592034573E+00    0.1753653741E-03
    0.1000000000E+07    0.4499988745E-03    0.6958728796E+00    0.9942379537E-02    0.6298285769E+00    0.1605406655E-03
    0.3000000000E+07    0.5542386066E-04    0.6958681930E+00    0.3534787788E-02    0.6542550873E+00    0.1706483417E-03
    0.5000000000E+07    0.2057803604E-04    0.6958645585E+00    0.2139445915E-02    0.6593607021E+00    0.1755623800E-03
    0.7000000000E+07    0.1076327547E-04    0.6958618572E+00    0.1531115667E-02    0.6615676393E+00    0.1788761919E-03
    0.9000000000E+07    0.6676090385E-05    0.6958597122E+00    0.1190941994E-02    0.6627976009E+00    0.1813920374E-03
    0.1100000000E+08    0.4588437705E-05    0.6958579310E+00    0.9738236544E-03    0.6635813876E+00    0.1834262756E-03
    0.1300000000E+08    0.3377938937E-05    0.6958564060E+00    0.8232994042E-03    0.6641243419E+00    0.1851371193E-03
    0.1500000000E+08    0.2612410263E-05    0.6958550710E+00    0.7128475958E-03    0.6645225996E+00    0.1866153308E-03
    0.1700000000E+08    0.2096659848E-05    0.6958538829E+00    0.6283703144E-03    0.6648271560E+00    0.1879179181E-03
    0.1900000000E+08    0.1732013311E-05    0.6958528115E+00    0.5616839356E-03    0.6650675717E+00    0.1890830813E-03
    0.2100000000E+08    0.1464203750E-05    0.6958518353E+00    0.5077133262E-03    0.6652621615E+00    0.1901376945E-03
    0.2300000000E+08    0.1261365666E-05    0.6958509383E+00    0.4631445469E-03    0.6654228764E+00    0.1911013953E-03
    0.2500000000E+08    0.1103779167E-05    0.6958501081E+00    0.4257222124E-03    0.6655578458E+00    0.1919889785E-03
    0.2700000000E+08    0.9787038383E-06    0.6958493352E+00    0.3938582869E-03    0.6656727919E+00    0.1928118726E-03
