  Pressure (Pa) 22mC5-500 (mol/kg) 24mC5-500 (mol/kg) 2mC6-500 (mol/kg) 3mC6-500 (mol/kg) C7-500 (mol/kg)
    0.1000000000E+01    0.1942349973E-04    0.1514012258E+00    0.8411875818E-05    0.8978008821E-06    0.4168721375E-02
    0.3000000000E+01    0.3788993678E-04    0.3164818650E+00    0.1562420976E-04    0.2257911504E-05    0.4194665927E-02
    0.5000000000E+01    0.4640678935E-04    0.4047472914E+00    0.1874266270E-04    0.3499467422E-05    0.4205416653E-02
    0.7000000000E+01    0.5121728822E-04    0.4596945433E+00    0.2060291940E-04    0.4683997205E-05    0.4211712099E-02
    0.9000000000E+01    0.5437053389E-04    0.4971942214E+00    0.2202219729E-04    0.5832085031E-05    0.4215857789E-02
    0.1100000000E+02    0.5669948045E-04    0.5244182938E+00    0.2328684811E-04    0.6953987471E-05    0.4218773961E-02
    0.1300000000E+02    0.5859094585E-04    0.5450815571E+00    0.2450831271E-04    0.8055792017E-05    0.4220914363E-02
    0.1500000000E+02    0.6024161561E-04    0.5613007343E+00    0.2573194919E-04    0.9141501538E-05    0.4222531498E-02
    0.1700000000E+02    0.6175817592E-04    0.5743703842E+00    0.2697586813E-04    0.1021393359E-04    0.4223777912E-02
    0.1900000000E+02    0.6320127527E-04    0.5851267504E+00    0.2824634230E-04    0.1127517048E-04    0.4224751531E-02
    0.2100000000E+02    0.6460657318E-04    0.5941340946E+00    0.2954439626E-04    0.1232680871E-04    0.4225518241E-02
    0.2300000000E+02    0.6599552195E-04    0.6017869587E+00    0.3086877319E-04    0.1337010796E-04    0.4226124082E-02
    0.2500000000E+02    0.6738119532E-04    0.6083695136E+00    0.3221731372E-04    0.1440608530E-04    0.4226602235E-02
    0.2700000000E+02    0.6877158085E-04    0.6140916315E+00    0.3358760361E-04    0.1543557769E-04    0.4226977245E-02
    0.2900000000E+02    0.7017150804E-04    0.6191116791E+00    0.3497727308E-04    0.1645928484E-04    0.4227267675E-02
    0.3100000000E+02    0.7158381197E-04    0.6235514049E+00    0.3638412653E-04    0.1747779966E-04    0.4227487836E-02
    0.3300000000E+02    0.7301005332E-04    0.6275059440E+00    0.3780618906E-04    0.1849163046E-04    0.4227648942E-02
    0.3500000000E+02    0.7445097335E-04    0.6310507142E+00    0.3924171283E-04    0.1950121736E-04    0.4227759913E-02
    0.3700000000E+02    0.7590678623E-04    0.6342462720E+00    0.4068916475E-04    0.2050694489E-04    0.4227827934E-02
    0.3900000000E+02    0.7737736952E-04    0.6371418016E+00    0.4214720655E-04    0.2150915163E-04    0.4227858863E-02
    0.4100000000E+02    0.7886238963E-04    0.6397776646E+00    0.4361467278E-04    0.2250813778E-04    0.4227857522E-02
    0.4300000000E+02    0.8036138503E-04    0.6421872938E+00    0.4509054918E-04    0.2350417119E-04    0.4227827921E-02
    0.4500000000E+02    0.8187382163E-04    0.6443986185E+00    0.4657395293E-04    0.2449749223E-04    0.4227773419E-02
    0.4700000000E+02    0.8339912972E-04    0.6464351522E+00    0.4806411492E-04    0.2548831765E-04    0.4227696857E-02
    0.4900000000E+02    0.8493672839E-04    0.6483168323E+00    0.4956036429E-04    0.2647684389E-04    0.4227600652E-02
    0.1000000000E+02    0.5560758421E-04    0.5118073045E+00    0.2266459943E-04    0.6395864505E-05    0.4217434643E-02
    0.3000000000E+02    0.7087599182E-04    0.6213976054E+00    0.3567868061E-04    0.1696915775E-04    0.4227385776E-02
    0.5000000000E+02    0.8570995619E-04    0.6492050190E+00    0.5031058563E-04    0.2697030131E-04    0.4227545841E-02
    0.7000000000E+02    0.1016916302E-03    0.6619007784E+00    0.6552641492E-04    0.3675489567E-04    0.4225792933E-02
    0.9000000000E+02    0.1184007513E-03    0.6691715352E+00    0.8099268987E-04    0.4644454727E-04    0.4223314519E-02
    0.1100000000E+03    0.1356054853E-03    0.6738824585E+00    0.9661395138E-04    0.5610097149E-04    0.4220472664E-02
    0.1300000000E+03    0.1531869034E-03    0.6771830990E+00    0.1123634358E-03    0.6576163158E-04    0.4217415467E-02
    0.1500000000E+03    0.1710817644E-03    0.6796243072E+00    0.1282375267E-03    0.7545188436E-04    0.4214214494E-02
    0.1700000000E+03    0.1892555736E-03    0.6815030976E+00    0.1442411136E-03    0.8519023756E-04    0.4210908213E-02
    0.1900000000E+03    0.2076896005E-03    0.6829937583E+00    0.1603822509E-03    0.9499098524E-04    0.4207518848E-02
    0.2100000000E+03    0.2263742412E-03    0.6842053044E+00    0.1766700510E-03    0.1048656691E-03    0.4204059875E-02
    0.2300000000E+03    0.2453054261E-03    0.6852094196E+00    0.1931138244E-03    0.1148239515E-03    0.4200539733E-02
    0.2500000000E+03    0.2644825786E-03    0.6860551760E+00    0.2097227360E-03    0.1248741679E-03    0.4196963787E-02
    0.2700000000E+03    0.2839074070E-03    0.6867772979E+00    0.2265056845E-03    0.1350236929E-03    0.4193335447E-02
    0.2900000000E+03    0.3035831642E-03    0.6874010487E+00    0.2434712800E-03    0.1452791921E-03    0.4189656828E-02
    0.3100000000E+03    0.3235141819E-03    0.6879452476E+00    0.2606278637E-03    0.1556468009E-03    0.4185929166E-02
    0.3300000000E+03    0.3437055702E-03    0.6884242010E+00    0.2779835451E-03    0.1661322554E-03    0.4182153075E-02
    0.3500000000E+03    0.3641630207E-03    0.6888489788E+00    0.2955462435E-03    0.1767409901E-03    0.4178328726E-02
    0.3700000000E+03    0.3848926758E-03    0.6892282809E+00    0.3133237295E-03    0.1874782125E-03    0.4174455960E-02
    0.3900000000E+03    0.4059010408E-03    0.6895690386E+00    0.3313236638E-03    0.1983489614E-03    0.4170534368E-02
    0.4100000000E+03    0.4271949256E-03    0.6898768431E+00    0.3495536323E-03    0.2093581536E-03    0.4166563355E-02
    0.4300000000E+03    0.4487814054E-03    0.6901562538E+00    0.3680211782E-03    0.2205106204E-03    0.4162542169E-02
    0.4500000000E+03    0.4706677951E-03    0.6904110262E+00    0.3867338303E-03    0.2318111391E-03    0.4158469942E-02
    0.4700000000E+03    0.4928616332E-03    0.6906442813E+00    0.4056991291E-03    0.2432644579E-03    0.4154345702E-02
    0.4900000000E+03    0.5153706728E-03    0.6908586345E+00    0.4249246498E-03    0.2548753179E-03    0.4150168393E-02
    0.1000000000E+03    0.1269503723E-03    0.6717543251E+00    0.8878645099E-04    0.5127419653E-04    0.4221927126E-02
    0.3000000000E+03    0.3135164617E-03    0.6876821097E+00    0.2520251865E-03    0.1504486162E-03    0.4187799077E-02
    0.5000000000E+03    0.5267458734E-03    0.6909594265E+00    0.4346373752E-03    0.2607413102E-03    0.4148059487E-02
    0.7000000000E+03    0.7728781003E-03    0.6923735970E+00    0.6444847688E-03    0.3875259256E-03    0.4102783865E-02
    0.9000000000E+03    0.1061288043E-02    0.6931617028E+00    0.8900712534E-03    0.5360366894E-03    0.4050534335E-02
    0.1100000000E+04    0.1404345935E-02    0.6936641046E+00    0.1182147318E-02    0.7128343889E-03    0.3989334082E-02
    0.1300000000E+04    0.1818838823E-02    0.6940122983E+00    0.1535160741E-02    0.9267313152E-03    0.3916522272E-02
    0.1500000000E+04    0.2328136145E-02    0.6942678196E+00    0.1969177979E-02    0.1189975381E-02    0.3828449116E-02
    0.1700000000E+04    0.2965482783E-02    0.6944633084E+00    0.2512743085E-02    0.1520007007E-02    0.3720011599E-02
    0.1900000000E+04    0.3779016412E-02    0.6946176878E+00    0.3207222300E-02    0.1942133384E-02    0.3583970557E-02
    0.2100000000E+04    0.4839163719E-02    0.6947426845E+00    0.4113224945E-02    0.2493494846E-02    0.3410005636E-02
    0.2300000000E+04    0.6248327044E-02    0.6948459527E+00    0.5319074716E-02    0.3228336288E-02    0.3183639614E-02
    0.2500000000E+04    0.8148830876E-02    0.6949327007E+00    0.6947969663E-02    0.4222586882E-02    0.2885873598E-02
    0.2700000000E+04    0.1071149217E-01    0.6950065957E+00    0.9148840738E-02    0.5568673373E-02    0.2496518999E-02
    0.2900000000E+04    0.1405682447E-01    0.6950702943E+00    0.1202970053E-01    0.7335367983E-02    0.2008279670E-02
    0.3100000000E+04    0.1805550887E-01    0.6951257685E+00    0.1548661903E-01    0.9463393588E-02    0.1456723404E-02
    0.3300000000E+04    0.2215432740E-01    0.6951745125E+00    0.1905118439E-01    0.1167031301E-01    0.9377191969E-03
    0.3500000000E+04    0.2565775696E-01    0.6952176793E+00    0.2212656539E-01    0.1359145114E-01    0.5513107534E-03
    0.3700000000E+04    0.2828666746E-01    0.6952561729E+00    0.2446712504E-01    0.1507309168E-01    0.3201863775E-03
    0.3900000000E+04    0.3020887889E-01    0.6952907120E+00    0.2621063623E-01    0.1619573943E-01    0.2015866398E-03
    0.4100000000E+04    0.3169760651E-01    0.6953218752E+00    0.2758818278E-01    0.1709862834E-01    0.1457223216E-03
    0.4300000000E+04    0.3294812609E-01    0.6953501333E+00    0.2876606268E-01    0.1788264774E-01    0.1204834608E-03
    0.4500000000E+04    0.3406813476E-01    0.6953758737E+00    0.2983628673E-01    0.1860380301E-01    0.1093174854E-03
    0.4700000000E+04    0.3511127293E-01    0.6953994178E+00    0.3084472110E-01    0.1929004245E-01    0.1044618454E-03
    0.4900000000E+04    0.3610340243E-01    0.6954210346E+00    0.3181342463E-01    0.1995478126E-01    0.1024131613E-03
    0.1000000000E+04    0.1225061399E-02    0.6934379416E+00    0.1029500859E-02    0.6204134905E-03    0.4021200410E-02
    0.3000000000E+04    0.1599924251E-01    0.6950989568E+00    0.1370690524E-01    0.8366606835E-02    0.1735640247E-02
    0.5000000000E+04    0.3658455634E-01    0.6954311925E+00    0.3228644945E-01    0.2028124694E-01    0.1019125397E-03
    0.7000000000E+04    0.4480258169E-01    0.6955732148E+00    0.4071135185E-01    0.2630092387E-01    0.1025532385E-03
    0.9000000000E+04    0.5103819499E-01    0.6956518643E+00    0.4765678392E-01    0.3159338570E-01    0.1040010431E-03
    0.1100000000E+05    0.5586464614E-01    0.6957017381E+00    0.5351086208E-01    0.3633498714E-01    0.1051711980E-03
    0.1300000000E+05    0.5965383027E-01    0.6957361375E+00    0.5853005312E-01    0.4064358917E-01    0.1061547613E-03
    0.1500000000E+05    0.6266075537E-01    0.6957612657E+00    0.6289454159E-01    0.4460365234E-01    0.1070042453E-03
    0.1700000000E+05    0.6506565966E-01    0.6957804042E+00    0.6673483542E-01    0.4827752126E-01    0.1077525844E-03
    0.1900000000E+05    0.6699923434E-01    0.6957954514E+00    0.7014792721E-01    0.5171238025E-01    0.1084218241E-03
    0.2100000000E+05    0.6855834003E-01    0.6958075810E+00    0.7320750939E-01    0.5494471221E-01    0.1090274608E-03
    0.2300000000E+05    0.6981613540E-01    0.6958175581E+00    0.7597065240E-01    0.5800325300E-01    0.1095808112E-03
    0.2500000000E+05    0.7082879770E-01    0.6958259021E+00    0.7848229953E-01    0.6091100593E-01    0.1100903965E-03
    0.2700000000E+05    0.7164009640E-01    0.6958329784E+00    0.8077837025E-01    0.6368664994E-01    0.1105627967E-03
    0.2900000000E+05    0.7228457636E-01    0.6958390511E+00    0.8288795111E-01    0.6634554587E-01    0.1110032004E-03
    0.3100000000E+05    0.7278981741E-01    0.6958443160E+00    0.8483487367E-01    0.6890046968E-01    0.1114157729E-03
    0.3300000000E+05    0.7317806721E-01    0.6958489213E+00    0.8663887123E-01    0.7136215606E-01    0.1118039096E-03
    0.3500000000E+05    0.7346743990E-01    0.6958529810E+00    0.8831644045E-01    0.7373970784E-01    0.1121704153E-03
    0.3700000000E+05    0.7367280897E-01    0.6958565847E+00    0.8988149248E-01    0.7604090870E-01    0.1125176346E-03
    0.3900000000E+05    0.7380648091E-01    0.6958598032E+00    0.9134585152E-01    0.7827246513E-01    0.1128475473E-03
    0.4100000000E+05    0.7387870972E-01    0.6958626936E+00    0.9271964111E-01    0.8044019587E-01    0.1131618408E-03
    0.4300000000E+05    0.7389809402E-01    0.6958653023E+00    0.9401158683E-01    0.8254918174E-01    0.1134619653E-03
    0.4500000000E+05    0.7387188678E-01    0.6958676673E+00    0.9522925574E-01    0.8460388541E-01    0.1137491762E-03
    0.4700000000E+05    0.7380623902E-01    0.6958698201E+00    0.9637924774E-01    0.8660824802E-01    0.1140245680E-03
    0.4900000000E+05    0.7370639325E-01    0.6958717872E+00    0.9746734967E-01    0.8856576765E-01    0.1142891003E-03
    0.1000000000E+05    0.5360092433E-01    0.6956793173E+00    0.5070201205E-01    0.3402472087E-01    0.1046138973E-03
    0.3000000000E+05    0.7255310210E-01    0.6958417743E+00    0.8388042659E-01    0.6763529087E-01    0.1112127377E-03
    0.5000000000E+05    0.7364507472E-01    0.6958727082E+00    0.9798980923E-01    0.8952794945E-01    0.1144175627E-03
    0.7000000000E+05    0.7142988720E-01    0.6958852870E+00    0.1061590025E+00    0.1069189255E+00    0.1165782336E-03
    0.9000000000E+05    0.6841694011E-01    0.6958918896E+00    0.1115095440E+00    0.1217904220E+00    0.1182184402E-03
    0.1100000000E+06    0.6528516635E-01    0.6958958412E+00    0.1152340844E+00    0.1349880996E+00    0.1195445848E-03
    0.1300000000E+06    0.6225312221E-01    0.6958984009E+00    0.1179091979E+00    0.1469605169E+00    0.1206598638E-03
    0.1500000000E+06    0.5939196613E-01    0.6959001474E+00    0.1198564237E+00    0.1579791164E+00    0.1216234690E-03
    0.1700000000E+06    0.5671912013E-01    0.6959013819E+00    0.1212731324E+00    0.1682233413E+00    0.1224725746E-03
    0.1900000000E+06    0.5423126490E-01    0.6959022760E+00    0.1222890844E+00    0.1778195648E+00    0.1232320891E-03
    0.2100000000E+06    0.5191723072E-01    0.6959029340E+00    0.1229940828E+00    0.1868611029E+00    0.1239195345E-03
    0.2300000000E+06    0.4976335542E-01    0.6959034229E+00    0.1234527913E+00    0.1954194380E+00    0.1245477143E-03
    0.2500000000E+06    0.4775576645E-01    0.6959037872E+00    0.1237132584E+00    0.2035509490E+00    0.1251262739E-03
    0.2700000000E+06    0.4588133082E-01    0.6959040579E+00    0.1238121064E+00    0.2113011687E+00    0.1256626641E-03
    0.2900000000E+06    0.4412800692E-01    0.6959042568E+00    0.1237778386E+00    0.2187075982E+00    0.1261627624E-03
    0.3100000000E+06    0.4248492479E-01    0.6959044000E+00    0.1236330307E+00    0.2258016345E+00    0.1266312880E-03
    0.3300000000E+06    0.4094234548E-01    0.6959044992E+00    0.1233958287E+00    0.2326099334E+00    0.1270720890E-03
    0.3500000000E+06    0.3949157093E-01    0.6959045634E+00    0.1230810033E+00    0.2391553973E+00    0.1274883451E-03
    0.3700000000E+06    0.3812483822E-01    0.6959045995E+00    0.1227007084E+00    0.2454579085E+00    0.1278827140E-03
    0.3900000000E+06    0.3683521409E-01    0.6959046128E+00    0.1222650393E+00    0.2515348844E+00    0.1282574408E-03
    0.4100000000E+06    0.3561649672E-01    0.6959046075E+00    0.1217824500E+00    0.2574017045E+00    0.1286144393E-03
    0.4300000000E+06    0.3446312727E-01    0.6959045869E+00    0.1212600716E+00    0.2630720449E+00    0.1289553542E-03
    0.4500000000E+06    0.3337011183E-01    0.6959045538E+00    0.1207039570E+00    0.2685581432E+00    0.1292816096E-03
    0.4700000000E+06    0.3233295314E-01    0.6959045103E+00    0.1201192727E+00    0.2738710116E+00    0.1295944471E-03
    0.4900000000E+06    0.3134759119E-01    0.6959044581E+00    0.1195104510E+00    0.2790206093E+00    0.1298949556E-03
    0.1000000000E+06    0.6684691211E-01    0.6958940940E+00    0.1135306219E+00    0.1285647615E+00    0.1189128855E-03
    0.3000000000E+06    0.4329331991E-01    0.6959043346E+00    0.1237180283E+00    0.2222919015E+00    0.1264007135E-03
    0.5000000000E+06    0.3087317197E-01    0.6959044293E+00    0.1191982030E+00    0.2815370417E+00    0.1300408911E-03
    0.7000000000E+06    0.2337428072E-01    0.6959036455E+00    0.1123786066E+00    0.3251189417E+00    0.1324956483E-03
    0.9000000000E+06    0.1840919678E-01    0.6959027472E+00    0.1054073211E+00    0.3591629417E+00    0.1343592959E-03
    0.1100000000E+07    0.1491798364E-01    0.6959018775E+00    0.9885492812E-01    0.3867189555E+00    0.1358661857E-03
    0.1300000000E+07    0.1235554345E-01    0.6959010668E+00    0.9286507935E-01    0.4095792224E+00    0.1371335171E-03
    0.1500000000E+07    0.1041263060E-01    0.6959003180E+00    0.8744282248E-01    0.4288983283E+00    0.1382285237E-03
    0.1700000000E+07    0.8901086311E-02    0.6958996262E+00    0.8254699015E-01    0.4454658610E+00    0.1391934348E-03
    0.1900000000E+07    0.7700221948E-02    0.6958989855E+00    0.7812356391E-01    0.4598453279E+00    0.1400565476E-03
    0.2100000000E+07    0.6729345185E-02    0.6958983896E+00    0.7411826323E-01    0.4724521384E+00    0.1408377694E-03
    0.2300000000E+07    0.5932657634E-02    0.6958978332E+00    0.7048112375E-01    0.4836005076E+00    0.1415516471E-03
    0.2500000000E+07    0.5270479973E-02    0.6958973117E+00    0.6716783835E-01    0.4935331724E+00    0.1422091398E-03
    0.2700000000E+07    0.4713918704E-02    0.6958968211E+00    0.6413978493E-01    0.5024410001E+00    0.1428187134E-03
    0.2900000000E+07    0.4241501052E-02    0.6958963580E+00    0.6136355253E-01    0.5104763614E+00    0.1433870462E-03
    0.3100000000E+07    0.3836983304E-02    0.6958959195E+00    0.5881031476E-01    0.5177625042E+00    0.1439195006E-03
    0.3300000000E+07    0.3487883946E-02    0.6958955032E+00    0.5645519852E-01    0.5244002776E+00    0.1444204493E-03
    0.3500000000E+07    0.3184478336E-02    0.6958951069E+00    0.5427670657E-01    0.5304730531E+00    0.1448935052E-03
    0.3700000000E+07    0.2919095139E-02    0.6958947287E+00    0.5225621219E-01    0.5360503883E+00    0.1453416885E-03
    0.3900000000E+07    0.2685614739E-02    0.6958943672E+00    0.5037752688E-01    0.5411907977E+00    0.1457675505E-03
    0.4100000000E+07    0.2479105646E-02    0.6958940208E+00    0.4862653478E-01    0.5459438768E+00    0.1461732657E-03
    0.4300000000E+07    0.2295556984E-02    0.6958936883E+00    0.4699088533E-01    0.5503519497E+00    0.1465607031E-03
    0.4500000000E+07    0.2131678962E-02    0.6958933686E+00    0.4545973541E-01    0.5544513629E+00    0.1469314812E-03
    0.4700000000E+07    0.1984752219E-02    0.6958930609E+00    0.4402353299E-01    0.5582735098E+00    0.1472870109E-03
    0.4900000000E+07    0.1852512767E-02    0.6958927641E+00    0.4267383544E-01    0.5618456507E+00    0.1476285294E-03
    0.1000000000E+07    0.1652099676E-01    0.6959023058E+00    0.1020647163E+00    0.3736203007E+00    0.1351483813E-03
    0.3000000000E+07    0.4031609398E-02    0.6958961358E+00    0.6006069944E-01    0.5142063220E+00    0.1436574648E-03
    0.5000000000E+07    0.1791295521E-02    0.6958926196E+00    0.4202905287E-01    0.5635455230E+00    0.1477943807E-03
    0.7000000000E+07    0.1007625365E-02    0.6958901560E+00    0.3224290895E-01    0.5888552882E+00    0.1505841501E-03
    0.9000000000E+07    0.6446354751E-03    0.6958882519E+00    0.2612368052E-01    0.6042567569E+00    0.1527021495E-03
    0.1100000000E+08    0.4473781638E-03    0.6958866959E+00    0.2194209329E-01    0.6146134950E+00    0.1544147049E-03
    0.1300000000E+08    0.3284331966E-03    0.6958853780E+00    0.1890613191E-01    0.6220533293E+00    0.1558550082E-03
    0.1500000000E+08    0.2512489526E-03    0.6958842336E+00    0.1660291171E-01    0.6276551435E+00    0.1570994681E-03
    0.1700000000E+08    0.1983507462E-03    0.6958832213E+00    0.1479636750E-01    0.6320243391E+00    0.1581960767E-03
    0.1900000000E+08    0.1605303477E-03    0.6958823131E+00    0.1334185917E-01    0.6355268719E+00    0.1591769934E-03
    0.2100000000E+08    0.1325620770E-03    0.6958814891E+00    0.1214586336E-01    0.6383969580E+00    0.1600648421E-03
    0.2300000000E+08    0.1113017232E-03    0.6958807345E+00    0.1114524632E-01    0.6407914454E+00    0.1608761551E-03
    0.2500000000E+08    0.9476566252E-04    0.6958800384E+00    0.1029585855E-01    0.6428193128E+00    0.1616233874E-03
    0.2700000000E+08    0.8165243181E-04    0.6958793921E+00    0.9565904054E-02    0.6445586308E+00    0.1623161602E-03
