  Pressure (Pa) 22mC5-500 (mol/kg) 24mC5-500 (mol/kg) 2mC6-500 (mol/kg) 3mC6-500 (mol/kg) C7-500 (mol/kg)
    0.1000000000E+01    0.1929580131E-04    0.1514003325E+00    0.5538879041E-05    0.8380052766E-06    0.4181404729E-02
    0.3000000000E+01    0.3761279898E-04    0.3164774460E+00    0.1026632615E-04    0.2128184732E-05    0.4213100364E-02
    0.5000000000E+01    0.4600287105E-04    0.4047394151E+00    0.1227675857E-04    0.3310368718E-05    0.4228164328E-02
    0.7000000000E+01    0.5069669342E-04    0.4596837213E+00    0.1345382572E-04    0.4440186442E-05    0.4237396994E-02
    0.9000000000E+01    0.5373937718E-04    0.4971809332E+00    0.1434018191E-04    0.5536365153E-05    0.4243676002E-02
    0.1100000000E+02    0.5596194491E-04    0.5244029302E+00    0.1512568696E-04    0.6608268228E-05    0.4248226820E-02
    0.1300000000E+02    0.5775009369E-04    0.5450644289E+00    0.1588403195E-04    0.7661466603E-05    0.4251672093E-02
    0.1500000000E+02    0.5929978614E-04    0.5612820891E+00    0.1664506752E-04    0.8699630479E-05    0.4254364374E-02
    0.1700000000E+02    0.6071720834E-04    0.5743504211E+00    0.1742059920E-04    0.9725347306E-05    0.4256519118E-02
    0.1900000000E+02    0.6206264487E-04    0.5851056312E+00    0.1821461385E-04    0.1074053188E-04    0.4258275796E-02
    0.2100000000E+02    0.6337148013E-04    0.5941119526E+00    0.1902764710E-04    0.1174665398E-04    0.4259728870E-02
    0.2300000000E+02    0.6466495213E-04    0.6017639048E+00    0.1985874633E-04    0.1274487444E-04    0.4260944698E-02
    0.2500000000E+02    0.6595596360E-04    0.6083456408E+00    0.2070638033E-04    0.1373613142E-04    0.4261971329E-02
    0.2700000000E+02    0.6725236290E-04    0.6140670190E+00    0.2156886505E-04    0.1472119752E-04    0.4262844453E-02
    0.2900000000E+02    0.6855886424E-04    0.6190863946E+00    0.2244455885E-04    0.1570071914E-04    0.4263591161E-02
    0.3100000000E+02    0.6987820594E-04    0.6235255065E+00    0.2333194612E-04    0.1667524437E-04    0.4264232409E-02
    0.3300000000E+02    0.7121186639E-04    0.6274794827E+00    0.2422966613E-04    0.1764524337E-04    0.4264784674E-02
    0.3500000000E+02    0.7256051612E-04    0.6310237342E+00    0.2513651572E-04    0.1861112345E-04    0.4265261101E-02
    0.3700000000E+02    0.7392430796E-04    0.6342188122E+00    0.2605143989E-04    0.1957324064E-04    0.4265672311E-02
    0.3900000000E+02    0.7530306577E-04    0.6371138965E+00    0.2697351765E-04    0.2053190858E-04    0.4266026985E-02
    0.4100000000E+02    0.7669640865E-04    0.6397493450E+00    0.2790194659E-04    0.2148740546E-04    0.4266332295E-02
    0.4300000000E+02    0.7810383306E-04    0.6421585871E+00    0.2883602800E-04    0.2243997956E-04    0.4266594215E-02
    0.4500000000E+02    0.7952476741E-04    0.6443695492E+00    0.2977515314E-04    0.2338985377E-04    0.4266817769E-02
    0.4700000000E+02    0.8095860828E-04    0.6464057424E+00    0.3071879115E-04    0.2433722914E-04    0.4267007215E-02
    0.4900000000E+02    0.8240474436E-04    0.6482871021E+00    0.3166647843E-04    0.2528228793E-04    0.4267166183E-02
    0.1000000000E+02    0.5492279764E-04    0.5117929351E+00    0.1473941742E-04    0.6074944243E-05    0.4246119799E-02
    0.3000000000E+02    0.6921681440E-04    0.6213720071E+00    0.2288687959E-04    0.1618857529E-04    0.4263923848E-02
    0.5000000000E+02    0.8313223388E-04    0.6491751356E+00    0.3214171177E-04    0.2575400102E-04    0.4267235229E-02
    0.7000000000E+02    0.9819383232E-04    0.6618685343E+00    0.4178385027E-04    0.3510019791E-04    0.4267583451E-02
    0.9000000000E+02    0.1139626581E-03    0.6691377502E+00    0.5158089748E-04    0.4434001985E-04    0.4266771266E-02
    0.1100000000E+03    0.1301973492E-03    0.6738475647E+00    0.6146405114E-04    0.5353068291E-04    0.4265365323E-02
    0.1300000000E+03    0.1467729573E-03    0.6771473555E+00    0.7141218973E-04    0.6270678054E-04    0.4263604955E-02
    0.1500000000E+03    0.1636218817E-03    0.6795878833E+00    0.8142051481E-04    0.7189156992E-04    0.4261609983E-02
    0.1700000000E+03    0.1807061553E-03    0.6814661110E+00    0.9149037407E-04    0.8110186899E-04    0.4259447452E-02
    0.1900000000E+03    0.1980040845E-03    0.6829562946E+00    0.1016254974E-03    0.9035051584E-04    0.4257157941E-02
    0.2100000000E+03    0.2155034070E-03    0.6841674285E+00    0.1118304821E-03    0.9964773464E-04    0.4254767468E-02
    0.2300000000E+03    0.2331975791E-03    0.6851711818E+00    0.1221101549E-03    0.1090019526E-03    0.4252293462E-02
    0.2500000000E+03    0.2510836594E-03    0.6860166165E+00    0.1324693024E-03    0.1184203173E-03    0.4249747999E-02
    0.2700000000E+03    0.2691610513E-03    0.6867384493E+00    0.1429125637E-03    0.1279090396E-03    0.4247139667E-02
    0.2900000000E+03    0.2874307283E-03    0.6873619379E+00    0.1534443970E-03    0.1374736296E-03    0.4244474696E-02
    0.3100000000E+03    0.3058947441E-03    0.6879058973E+00    0.1640690802E-03    0.1471190637E-03    0.4241757671E-02
    0.3300000000E+03    0.3245559139E-03    0.6883846303E+00    0.1747907249E-03    0.1568499073E-03    0.4238991997E-02
    0.3500000000E+03    0.3434176031E-03    0.6888092043E+00    0.1856132970E-03    0.1666704054E-03    0.4236180216E-02
    0.3700000000E+03    0.3624835855E-03    0.6891883168E+00    0.1965406379E-03    0.1765845522E-03    0.4233324226E-02
    0.3900000000E+03    0.3817579463E-03    0.6895288975E+00    0.2075764853E-03    0.1865961446E-03    0.4230425428E-02
    0.4100000000E+03    0.4012450151E-03    0.6898365359E+00    0.2187244923E-03    0.1967088247E-03    0.4227484844E-02
    0.4300000000E+03    0.4209493203E-03    0.6901157903E+00    0.2299882448E-03    0.2069261137E-03    0.4224503193E-02
    0.4500000000E+03    0.4408755567E-03    0.6903704151E+00    0.2413712770E-03    0.2172514397E-03    0.4221480956E-02
    0.4700000000E+03    0.4610285636E-03    0.6906035304E+00    0.2528770852E-03    0.2276881597E-03    0.4218418416E-02
    0.4900000000E+03    0.4814133103E-03    0.6908177509E+00    0.2645091404E-03    0.2382395789E-03    0.4215315701E-02
    0.1000000000E+03    0.1220314048E-03    0.6717199454E+00    0.5651361326E-04    0.4893898371E-04    0.4266123463E-02
    0.3000000000E+03    0.2966382828E-03    0.6876428765E+00    0.1587448717E-03    0.1422859473E-03    0.4243122454E-02
    0.5000000000E+03    0.4916941720E-03    0.6909184790E+00    0.2703735909E-03    0.2435593234E-03    0.4213749279E-02
    0.7000000000E+03    0.7107914160E-03    0.6923316195E+00    0.3951427929E-03    0.3567736082E-03    0.4180256292E-02
    0.9000000000E+03    0.9597087052E-03    0.6931189899E+00    0.5366778490E-03    0.4853012745E-03    0.4142245914E-02
    0.1100000000E+04    0.1245624381E-02    0.6936208195E+00    0.6991900070E-03    0.6330063617E-03    0.4098853025E-02
    0.1300000000E+04    0.1577668779E-02    0.6939685445E+00    0.8879463319E-03    0.8047136441E-03    0.4048879516E-02
    0.1500000000E+04    0.1967730761E-02    0.6942236686E+00    0.1109771127E-02    0.1006676326E-02    0.3990738275E-02
    0.1700000000E+04    0.2431591681E-02    0.6944188124E+00    0.1373710705E-02    0.1247189731E-02    0.3922325706E-02
    0.1900000000E+04    0.2990555210E-02    0.6945728867E+00    0.1691976738E-02    0.1537461581E-02    0.3840826792E-02
    0.2100000000E+04    0.3673811856E-02    0.6946976099E+00    0.2081311965E-02    0.1892873581E-02    0.3742433884E-02
    0.2300000000E+04    0.4521843407E-02    0.6948006300E+00    0.2564958994E-02    0.2334804226E-02    0.3621954242E-02
    0.2500000000E+04    0.5591148064E-02    0.6948871510E+00    0.3175402066E-02    0.2893176427E-02    0.3472296168E-02
    0.2700000000E+04    0.6960144092E-02    0.6949608366E+00    0.3957817078E-02    0.3609685348E-02    0.3283902737E-02
    0.2900000000E+04    0.8734378743E-02    0.6950243410E+00    0.4973186660E-02    0.4540775809E-02    0.3044467408E-02
    0.3100000000E+04    0.1104392226E-01    0.6950796339E+00    0.6297044784E-02    0.5756703999E-02    0.2739985393E-02
    0.3300000000E+04    0.1401389864E-01    0.6951282079E+00    0.8002956412E-02    0.7326699368E-02    0.2359650754E-02
    0.3500000000E+04    0.1767600806E-01    0.6951712148E+00    0.1011214013E-01    0.9273001821E-02    0.1908172819E-02
    0.3700000000E+04    0.2182195162E-01    0.6952095573E+00    0.1250908460E-01    0.1149303445E-01    0.1423243961E-02
    0.3900000000E+04    0.2594963886E-01    0.6952439531E+00    0.1490882741E-01    0.1372765828E-01    0.9763098909E-03
    0.4100000000E+04    0.2951561418E-01    0.6952749801E+00    0.1699941406E-01    0.1569000409E-01    0.6333337449E-03
    0.4300000000E+04    0.3228971162E-01    0.6953031085E+00    0.1864563557E-01    0.1725298737E-01    0.4114231251E-03
    0.4500000000E+04    0.3437688585E-01    0.6953287250E+00    0.1990416854E-01    0.1846556562E-01    0.2848895900E-03
    0.4700000000E+04    0.3599783869E-01    0.6953521504E+00    0.2089935314E-01    0.1944001584E-01    0.2181579166E-03
    0.4900000000E+04    0.3733761210E-01    0.6953736534E+00    0.2173627360E-01    0.2027198799E-01    0.1844443362E-03
    0.1000000000E+04    0.1097525024E-02    0.6933949269E+00    0.6150126873E-03    0.5564826399E-03    0.4121289120E-02
    0.3000000000E+04    0.9813636104E-02    0.6950529113E+00    0.5591534794E-02    0.5108443601E-02    0.2901207928E-02
    0.5000000000E+04    0.3794103346E-01    0.6953837561E+00    0.2211760020E-01    0.2065483985E-01    0.1746531466E-03
    0.7000000000E+04    0.4723289782E-01    0.6955248550E+00    0.2826891573E-01    0.2707831528E-01    0.1538447771E-03
    0.9000000000E+04    0.5431496437E-01    0.6956028088E+00    0.3331918420E-01    0.3267586068E-01    0.1559912559E-03
    0.1100000000E+05    0.5993043019E-01    0.6956521225E+00    0.3762739438E-01    0.3771975592E-01    0.1577462067E-03
    0.1300000000E+05    0.6444308697E-01    0.6956860522E+00    0.4135885547E-01    0.4232303198E-01    0.1592213521E-03
    0.1500000000E+05    0.6810814237E-01    0.6957107754E+00    0.4463196420E-01    0.4656805308E-01    0.1604954044E-03
    0.1700000000E+05    0.7110968472E-01    0.6957295577E+00    0.4753393988E-01    0.5051652837E-01    0.1616177589E-03
    0.1900000000E+05    0.7358360258E-01    0.6957442864E+00    0.5013054025E-01    0.5421574305E-01    0.1626214797E-03
    0.2100000000E+05    0.7563222216E-01    0.6957561282E+00    0.5247234439E-01    0.5770263955E-01    0.1635298085E-03
    0.2300000000E+05    0.7733394542E-01    0.6957658425E+00    0.5459894143E-01    0.6100657199E-01    0.1643597181E-03
    0.2500000000E+05    0.7874976687E-01    0.6957739446E+00    0.5654179840E-01    0.6415121419E-01    0.1651239888E-03
    0.2700000000E+05    0.7992778390E-01    0.6957807967E+00    0.5832626978E-01    0.6715591204E-01    0.1658324892E-03
    0.2900000000E+05    0.8090638344E-01    0.6957866605E+00    0.5997303507E-01    0.7003666149E-01    0.1664930013E-03
    0.3100000000E+05    0.8171653518E-01    0.6957917298E+00    0.6149914630E-01    0.7280682885E-01    0.1671117721E-03
    0.3300000000E+05    0.8238346931E-01    0.6957961510E+00    0.6291880395E-01    0.7547768983E-01    0.1676938940E-03
    0.3500000000E+05    0.8292792242E-01    0.6958000371E+00    0.6424394032E-01    0.7805883892E-01    0.1682435740E-03
    0.3700000000E+05    0.8336707521E-01    0.6958034763E+00    0.6548466420E-01    0.8055850439E-01    0.1687643281E-03
    0.3900000000E+05    0.8371526699E-01    0.6958065385E+00    0.6664960383E-01    0.8298379373E-01    0.1692591259E-03
    0.4100000000E+05    0.8398454633E-01    0.6958092801E+00    0.6774617464E-01    0.8534088687E-01    0.1697304981E-03
    0.4300000000E+05    0.8418509973E-01    0.6958117466E+00    0.6878079022E-01    0.8763518994E-01    0.1701806196E-03
    0.4500000000E+05    0.8432558864E-01    0.6958139756E+00    0.6975903033E-01    0.8987145870E-01    0.1706113735E-03
    0.4700000000E+05    0.8441341665E-01    0.6958159980E+00    0.7068577577E-01    0.9205389860E-01    0.1710244011E-03
    0.4900000000E+05    0.8445494314E-01    0.6958178399E+00    0.7156531760E-01    0.9418624637E-01    0.1714211418E-03
    0.1000000000E+05    0.5728015715E-01    0.6956299682E+00    0.3555437056E-01    0.3525907547E-01    0.1569103703E-03
    0.3000000000E+05    0.8133082023E-01    0.6957892844E+00    0.6075022570E-01    0.7143481953E-01    0.1668072626E-03
    0.5000000000E+05    0.8446008814E-01    0.6958187001E+00    0.7198858912E-01    0.9523469206E-01    0.1716138071E-03
    0.7000000000E+05    0.8313241050E-01    0.6958302567E+00    0.7869930336E-01    0.1142229930E+00    0.1748543354E-03
    0.9000000000E+05    0.8048020907E-01    0.6958360838E+00    0.8321570276E-01    0.1305199357E+00    0.1773142764E-03
    0.1100000000E+06    0.7743139742E-01    0.6958394085E+00    0.8644418665E-01    0.1450298267E+00    0.1793031913E-03
    0.1300000000E+06    0.7432288889E-01    0.6958414413E+00    0.8882777577E-01    0.1582299908E+00    0.1809758533E-03
    0.1500000000E+06    0.7128916937E-01    0.6958427326E+00    0.9061591624E-01    0.1704076688E+00    0.1824210374E-03
    0.1700000000E+06    0.6838447041E-01    0.6958435660E+00    0.9196320660E-01    0.1817518222E+00    0.1836944973E-03
    0.1900000000E+06    0.6562818312E-01    0.6958441013E+00    0.9297231640E-01    0.1923950416E+00    0.1848335903E-03
    0.2100000000E+06    0.6302377402E-01    0.6958444346E+00    0.9371505739E-01    0.2024350133E+00    0.1858645957E-03
    0.2300000000E+06    0.6056731951E-01    0.6958446268E+00    0.9424371374E-01    0.2119465023E+00    0.1868067159E-03
    0.2500000000E+06    0.5825157675E-01    0.6958447179E+00    0.9459758104E-01    0.2209885008E+00    0.1876744170E-03
    0.2700000000E+06    0.5606799604E-01    0.6958447353E+00    0.9480696041E-01    0.2296087278E+00    0.1884788735E-03
    0.2900000000E+06    0.5400773191E-01    0.6958446981E+00    0.9489571382E-01    0.2378465857E+00    0.1892289002E-03
    0.3100000000E+06    0.5206214768E-01    0.6958446200E+00    0.9488296367E-01    0.2457351763E+00    0.1899315752E-03
    0.3300000000E+06    0.5022305646E-01    0.6958445111E+00    0.9478426066E-01    0.2533027181E+00    0.1905926697E-03
    0.3500000000E+06    0.4848282269E-01    0.6958443788E+00    0.9461240923E-01    0.2605735694E+00    0.1912169523E-03
    0.3700000000E+06    0.4683438998E-01    0.6958442286E+00    0.9437806530E-01    0.2675689841E+00    0.1918084092E-03
    0.3900000000E+06    0.4527127038E-01    0.6958440650E+00    0.9409017832E-01    0.2743076812E+00    0.1923704076E-03
    0.4100000000E+06    0.4378751438E-01    0.6958438911E+00    0.9375632440E-01    0.2808062829E+00    0.1929058175E-03
    0.4300000000E+06    0.4237767251E-01    0.6958437096E+00    0.9338296149E-01    0.2870796548E+00    0.1934171056E-03
    0.4500000000E+06    0.4103675420E-01    0.6958435224E+00    0.9297562772E-01    0.2931411763E+00    0.1939064081E-03
    0.4700000000E+06    0.3976018709E-01    0.6958433312E+00    0.9253909768E-01    0.2990029565E+00    0.1943755868E-03
    0.4900000000E+06    0.3854377843E-01    0.6958431372E+00    0.9207750685E-01    0.3046760099E+00    0.1948262749E-03
    0.1000000000E+06    0.7897717292E-01    0.6958379600E+00    0.8495688126E-01    0.1379623128E+00    0.1783557866E-03
    0.3000000000E+06    0.5302112870E-01    0.6958446635E+00    0.9490098207E-01    0.2418326749E+00    0.1895857694E-03
    0.5000000000E+06    0.3795691825E-01    0.6958430395E+00    0.9183845632E-01    0.3074449426E+00    0.1950451418E-03
    0.7000000000E+06    0.2859472768E-01    0.6958410968E+00    0.8640498885E-01    0.3549673502E+00    0.1987266604E-03
    0.9000000000E+06    0.2233971445E-01    0.6958393188E+00    0.8066918722E-01    0.3913422103E+00    0.2015216556E-03
    0.1100000000E+07    0.1794065213E-01    0.6958377378E+00    0.7523003126E-01    0.4201637515E+00    0.2037816003E-03
    0.1300000000E+07    0.1472512328E-01    0.6958363290E+00    0.7025721913E-01    0.4435830685E+00    0.2056822661E-03
    0.1500000000E+07    0.1230213699E-01    0.6958350632E+00    0.6577287842E-01    0.4629917427E+00    0.2073244872E-03
    0.1700000000E+07    0.1043060643E-01    0.6958339161E+00    0.6174702416E-01    0.4793371747E+00    0.2087715975E-03
    0.1900000000E+07    0.8954911324E-02    0.6958328680E+00    0.5813349273E-01    0.4932890370E+00    0.2100660360E-03
    0.2100000000E+07    0.7770806764E-02    0.6958319034E+00    0.5488399880E-01    0.5053348739E+00    0.2112376585E-03
    0.2300000000E+07    0.6806277270E-02    0.6958310100E+00    0.5195348225E-01    0.5158383362E+00    0.2123082820E-03
    0.2500000000E+07    0.6010254923E-02    0.6958301782E+00    0.4930184393E-01    0.5250762631E+00    0.2132943424E-03
    0.2700000000E+07    0.5345701503E-02    0.6958293999E+00    0.4689417821E-01    0.5332631421E+00    0.2142085364E-03
    0.2900000000E+07    0.4785221285E-02    0.6958286685E+00    0.4470040972E-01    0.5405677198E+00    0.2150608798E-03
    0.3100000000E+07    0.4308196917E-02    0.6958279788E+00    0.4269473091E-01    0.5471245654E+00    0.2158594150E-03
    0.3300000000E+07    0.3898871731E-02    0.6958273260E+00    0.4085501210E-01    0.5530422931E+00    0.2166106997E-03
    0.3500000000E+07    0.3545036795E-02    0.6958267064E+00    0.3916225389E-01    0.5584095209E+00    0.2173201524E-03
    0.3700000000E+07    0.3237113991E-02    0.6958261168E+00    0.3760010576E-01    0.5632992607E+00    0.2179923029E-03
    0.3900000000E+07    0.2967504158E-02    0.6958255542E+00    0.3615445423E-01    0.5677722019E+00    0.2186309771E-03
    0.4100000000E+07    0.2730116179E-02    0.6958250163E+00    0.3481307569E-01    0.5718791999E+00    0.2192394364E-03
    0.4300000000E+07    0.2520021791E-02    0.6958245010E+00    0.3356534572E-01    0.5756631863E+00    0.2198204840E-03
    0.4500000000E+07    0.2333199161E-02    0.6958240064E+00    0.3240199652E-01    0.5791606506E+00    0.2203765469E-03
    0.4700000000E+07    0.2166340066E-02    0.6958235308E+00    0.3131491458E-01    0.5824028026E+00    0.2209097412E-03
    0.4900000000E+07    0.2016703275E-02    0.6958230728E+00    0.3029697183E-01    0.5854164915E+00    0.2214219226E-03
    0.1000000000E+07    0.1995909527E-01    0.6958385049E+00    0.7789661795E-01    0.4065395842E+00    0.2027050800E-03
    0.3000000000E+07    0.4537358110E-02    0.6958283188E+00    0.4367552170E-01    0.5439322913E+00    0.2154664334E-03
    0.5000000000E+07    0.1947613372E-02    0.6958228501E+00    0.2981193432E-01    0.5868450442E+00    0.2216706526E-03
    0.7000000000E+07    0.1074719885E-02    0.6958190699E+00    0.2255137133E-01    0.6076889402E+00    0.2258545096E-03
    0.9000000000E+07    0.6792746302E-03    0.6958161661E+00    0.1810897470E-01    0.6199812222E+00    0.2290308935E-03
    0.1100000000E+08    0.4675095534E-03    0.6958138019E+00    0.1511690297E-01    0.6280806819E+00    0.2315992230E-03
    0.1300000000E+08    0.3411380860E-03    0.6958118043E+00    0.1296685654E-01    0.6338165751E+00    0.2337592500E-03
    0.1500000000E+08    0.2597685002E-03    0.6958100726E+00    0.1134825955E-01    0.6380900812E+00    0.2356255668E-03
    0.1700000000E+08    0.2043358430E-03    0.6958085428E+00    0.1008627025E-01    0.6413963033E+00    0.2372701487E-03
    0.1900000000E+08    0.1648926724E-03    0.6958071717E+00    0.9075035118E-02    0.6440297097E+00    0.2387412256E-03
    0.2100000000E+08    0.1358380148E-03    0.6958059287E+00    0.8246758762E-02    0.6461763594E+00    0.2400727272E-03
    0.2300000000E+08    0.1138233763E-03    0.6958047913E+00    0.7556029169E-02    0.6479595594E+00    0.2412894474E-03
    0.2500000000E+08    0.9674747213E-04    0.6958037425E+00    0.6971293799E-02    0.6494642478E+00    0.2424100650E-03
    0.2700000000E+08    0.8323782441E-04    0.6958027693E+00    0.6469952182E-02    0.6507508326E+00    0.2434490094E-03
