  Pressure (Pa) 22mC5-500 (mol/kg) 24mC5-500 (mol/kg) 2mC6-500 (mol/kg) 3mC6-500 (mol/kg) C7-500 (mol/kg)
    0.1000000000E+01    0.2394059118E-04    0.9949679522E-01    0.1256032389E-04    0.8979053077E-06    0.4170035822E-02
    0.3000000000E+01    0.5294774878E-04    0.2320973377E+00    0.2664961280E-04    0.2258613436E-05    0.4201471362E-02
    0.5000000000E+01    0.6953644360E-04    0.3164451416E+00    0.3411121910E-04    0.3501180032E-05    0.4217433320E-02
    0.7000000000E+01    0.8001417075E-04    0.3748256974E+00    0.3862454002E-04    0.4687090305E-05    0.4227984757E-02
    0.9000000000E+01    0.8713952842E-04    0.4176316567E+00    0.4169151302E-04    0.5836906737E-05    0.4235555164E-02
    0.1100000000E+02    0.9228637030E-04    0.4503624577E+00    0.4400747376E-04    0.6960872037E-05    0.4241253166E-02
    0.1300000000E+02    0.9620276098E-04    0.4762009437E+00    0.4592215685E-04    0.8065063774E-05    0.4245685661E-02
    0.1500000000E+02    0.9932379530E-04    0.4971169738E+00    0.4762204687E-04    0.9153477251E-05    0.4249218621E-02
    0.1700000000E+02    0.1019157173E-03    0.5143950067E+00    0.4921078682E-04    0.1022892402E-04    0.4252087495E-02
    0.1900000000E+02    0.1041481257E-03    0.5289083536E+00    0.5074762303E-04    0.1129348149E-04    0.4254451218E-02
    0.2100000000E+02    0.1061326148E-03    0.5412715002E+00    0.5226698033E-04    0.1234874212E-04    0.4256421208E-02
    0.2300000000E+02    0.1079445848E-03    0.5519293811E+00    0.5378894263E-04    0.1339596214E-04    0.4258078016E-02
    0.2500000000E+02    0.1096361067E-03    0.5612120870E+00    0.5532509754E-04    0.1443615574E-04    0.4259481387E-02
    0.2700000000E+02    0.1112437975E-03    0.5693696728E+00    0.5688190624E-04    0.1547015738E-04    0.4260676610E-02
    0.2900000000E+02    0.1127937941E-03    0.5765950300E+00    0.5846270026E-04    0.1649866462E-04    0.4261698667E-02
    0.3100000000E+02    0.1143049831E-03    0.5830393382E+00    0.6006889138E-04    0.1752226853E-04    0.4262575025E-02
    0.3300000000E+02    0.1157911463E-03    0.5888227630E+00    0.6170071791E-04    0.1854147578E-04    0.4263327560E-02
    0.3500000000E+02    0.1172624174E-03    0.5940420204E+00    0.6335771118E-04    0.1955672512E-04    0.4263973919E-02
    0.3700000000E+02    0.1187262879E-03    0.5987758317E+00    0.6503899018E-04    0.2056839986E-04    0.4264528503E-02
    0.3900000000E+02    0.1201883138E-03    0.6030889224E+00    0.6674344834E-04    0.2157683751E-04    0.4265003183E-02
    0.4100000000E+02    0.1216526197E-03    0.6070350002E+00    0.6846987223E-04    0.2258233738E-04    0.4265407834E-02
    0.4300000000E+02    0.1231222616E-03    0.6106590039E+00    0.7021701630E-04    0.2358516655E-04    0.4265750743E-02
    0.4500000000E+02    0.1245994928E-03    0.6139988231E+00    0.7198364942E-04    0.2458556468E-04    0.4266038918E-02
    0.4700000000E+02    0.1260859592E-03    0.6170866278E+00    0.7376858297E-04    0.2558374798E-04    0.4266278323E-02
    0.4900000000E+02    0.1275828454E-03    0.6199499089E+00    0.7557068694E-04    0.2657991242E-04    0.4266474070E-02
    0.1000000000E+02    0.8990370561E-04    0.4350202059E+00    0.4291627980E-04    0.6401676547E-05    0.4238592708E-02
    0.3000000000E+02    0.1135532782E-03    0.5799066790E+00    0.5926258530E-04    0.1701104606E-04    0.4262153579E-02
    0.5000000000E+02    0.1283354675E-03    0.6213048701E+00    0.7647784288E-04    0.2707729393E-04    0.4266556974E-02
    0.7000000000E+02    0.1440268180E-03    0.6409175391E+00    0.9530225395E-04    0.3695503095E-04    0.4266729432E-02
    0.9000000000E+02    0.1608566344E-03    0.6523598650E+00    0.1150313138E-03    0.4676580194E-04    0.4265229785E-02
    0.1100000000E+03    0.1786045492E-03    0.6598574727E+00    0.1353446743E-03    0.5657165504E-04    0.4262875044E-02
    0.1300000000E+03    0.1970906624E-03    0.6651504617E+00    0.1560966395E-03    0.6641061425E-04    0.4260009513E-02
    0.1500000000E+03    0.2161948084E-03    0.6690866401E+00    0.1772185442E-03    0.7630875312E-04    0.4256803901E-02
    0.1700000000E+03    0.2358388315E-03    0.6721284837E+00    0.1986783294E-03    0.8628541556E-04    0.4253352401E-02
    0.1900000000E+03    0.2559719469E-03    0.6745497223E+00    0.2204626206E-03    0.9635583085E-04    0.4249711027E-02
    0.2100000000E+03    0.2765612611E-03    0.6765227153E+00    0.2425681676E-03    0.1065325631E-03    0.4245914936E-02
    0.2300000000E+03    0.2975858365E-03    0.6781614023E+00    0.2649974884E-03    0.1168263773E-03    0.4241987077E-02
    0.2500000000E+03    0.3190329406E-03    0.6795441212E+00    0.2877565368E-03    0.1272467876E-03    0.4237942849E-02
    0.2700000000E+03    0.3408956272E-03    0.6807265064E+00    0.3108534006E-03    0.1378024209E-03    0.4233792766E-02
    0.2900000000E+03    0.3631711432E-03    0.6817491579E+00    0.3342975526E-03    0.1485012685E-03    0.4229544059E-02
    0.3100000000E+03    0.3858598539E-03    0.6826423985E+00    0.3580994098E-03    0.1593508647E-03    0.4225201681E-02
    0.3300000000E+03    0.4089645062E-03    0.6834293327E+00    0.3822700706E-03    0.1703584187E-03    0.4220768958E-02
    0.3500000000E+03    0.4324897138E-03    0.6841278733E+00    0.4068211579E-03    0.1815309137E-03    0.4216248022E-02
    0.3700000000E+03    0.4564415918E-03    0.6847521228E+00    0.4317647269E-03    0.1928751836E-03    0.4211640113E-02
    0.3900000000E+03    0.4808274957E-03    0.6853133350E+00    0.4571132134E-03    0.2043979735E-03    0.4206945779E-02
    0.4100000000E+03    0.5056558321E-03    0.6858205998E+00    0.4828794075E-03    0.2161059890E-03    0.4202165032E-02
    0.4300000000E+03    0.5309359218E-03    0.6862813395E+00    0.5090764438E-03    0.2280059364E-03    0.4197297454E-02
    0.4500000000E+03    0.5566778998E-03    0.6867016745E+00    0.5357178027E-03    0.2401045568E-03    0.4192342269E-02
    0.4700000000E+03    0.5828926437E-03    0.6870866967E+00    0.5628173193E-03    0.2524086550E-03    0.4187298411E-02
    0.4900000000E+03    0.6095917218E-03    0.6874406769E+00    0.5903891966E-03    0.2649251258E-03    0.4182164561E-02
    0.1000000000E+03    0.1696286526E-03    0.6564622254E+00    0.1251265992E-03    0.5166659617E-04    0.4264131839E-02
    0.3000000000E+03    0.3744637264E-03    0.6822103690E+00    0.3461530882E-03    0.1539067661E-03    0.4227384339E-02
    0.5000000000E+03    0.6231266813E-03    0.6876071763E+00    0.6043568138E-03    0.2712651855E-03    0.4179563416E-02
    0.7000000000E+03    0.9226203887E-03    0.6899468464E+00    0.9123483075E-03    0.4110306037E-03    0.4122337823E-02
    0.9000000000E+03    0.1289002870E-02    0.6912536940E+00    0.1287841982E-02    0.5814861355E-03    0.4053283601E-02
    0.1100000000E+04    0.1746082256E-02    0.6920879347E+00    0.1755736646E-02    0.7940635609E-03    0.3968483093E-02
    0.1300000000E+04    0.2329179197E-02    0.6926666594E+00    0.2352546867E-02    0.1065488354E-02    0.3862134158E-02
    0.1500000000E+04    0.3091888283E-02    0.6930916525E+00    0.3133543044E-02    0.1421088731E-02    0.3725578532E-02
    0.1700000000E+04    0.4117210353E-02    0.6934169744E+00    0.4184352626E-02    0.1900158294E-02    0.3545732221E-02
    0.1900000000E+04    0.5534455088E-02    0.6936739976E+00    0.5638616349E-02    0.2564154153E-02    0.3302912158E-02
    0.2100000000E+04    0.7538139234E-02    0.6938821790E+00    0.7698048238E-02    0.3506157431E-02    0.2969138541E-02
    0.2300000000E+04    0.1037896069E-01    0.6940542258E+00    0.1062451885E-01    0.4847862508E-02    0.2512538841E-02
    0.2500000000E+04    0.1422191436E-01    0.6941987895E+00    0.1459623591E-01    0.6674686791E-02    0.1924483138E-02
    0.2700000000E+04    0.1875477424E-01    0.6943219638E+00    0.1930469403E-01    0.8851095392E-02    0.1280457575E-02
    0.2900000000E+04    0.2301324620E-01    0.6944281653E+00    0.2376546882E-01    0.1092978148E-01    0.7457504789E-03
    0.3100000000E+04    0.2622791286E-01    0.6945206727E+00    0.2718042791E-01    0.1254238845E-01    0.4215005719E-03
    0.3300000000E+04    0.2846275646E-01    0.6946019718E+00    0.2960361097E-01    0.1370843338E-01    0.2668619434E-03
    0.3500000000E+04    0.3011534397E-01    0.6946739810E+00    0.3143726343E-01    0.1460911743E-01    0.2022679773E-03
    0.3700000000E+04    0.3147616454E-01    0.6947382046E+00    0.3297797938E-01    0.1537927429E-01    0.1768837151E-03
    0.3900000000E+04    0.3269042852E-01    0.6947958388E+00    0.3437455579E-01    0.1608679935E-01    0.1672427770E-03
    0.4100000000E+04    0.3382197338E-01    0.6948478467E+00    0.3569241945E-01    0.1676156245E-01    0.1637462658E-03
    0.4300000000E+04    0.3489808757E-01    0.6948950126E+00    0.3695939074E-01    0.1741620752E-01    0.1626288789E-03
    0.4500000000E+04    0.3593079907E-01    0.6949379815E+00    0.3818754182E-01    0.1805614286E-01    0.1624298925E-03
    0.4700000000E+04    0.3692588889E-01    0.6949772887E+00    0.3938248994E-01    0.1868380633E-01    0.1625823142E-03
    0.4900000000E+04    0.3788656656E-01    0.6950133822E+00    0.4054720062E-01    0.1930041690E-01    0.1628651310E-03
    0.1000000000E+04    0.1504329968E-02    0.6917122766E+00    0.1508296033E-02    0.6816194286E-03    0.4013161294E-02
    0.3000000000E+04    0.2476362224E-01    0.6944759599E+00    0.2561740191E-01    0.1180098435E-01    0.5574575510E-03
    0.5000000000E+04    0.3835468705E-01    0.6950303443E+00    0.4111881947E-01    0.1960481017E-01    0.1630258456E-03
    0.7000000000E+04    0.4627701171E-01    0.6952676053E+00    0.5126938062E-01    0.2522213593E-01    0.1660906127E-03
    0.9000000000E+04    0.5209988554E-01    0.6953991049E+00    0.5949814448E-01    0.3011904490E-01    0.1684441685E-03
    0.1100000000E+05    0.5647265267E-01    0.6954825495E+00    0.6633840561E-01    0.3447818495E-01    0.1703441637E-03
    0.1300000000E+05    0.5980807750E-01    0.6955401384E+00    0.7213893150E-01    0.3842184336E-01    0.1719404624E-03
    0.1500000000E+05    0.6238022914E-01    0.6955822297E+00    0.7713807531E-01    0.4203550176E-01    0.1733187156E-03
    0.1700000000E+05    0.6437759887E-01    0.6956143048E+00    0.8150460378E-01    0.4538100471E-01    0.1745325805E-03
    0.1900000000E+05    0.6593367545E-01    0.6956395355E+00    0.8536159724E-01    0.4850439720E-01    0.1756179446E-03
    0.2100000000E+05    0.6714536588E-01    0.6956598841E+00    0.8880109364E-01    0.5144080314E-01    0.1766000184E-03
    0.2300000000E+05    0.6808452809E-01    0.6956766294E+00    0.9189341323E-01    0.5421757888E-01    0.1774972037E-03
    0.2500000000E+05    0.6880543253E-01    0.6956906403E+00    0.9469329451E-01    0.5685641854E-01    0.1783233512E-03
    0.2700000000E+05    0.6934972865E-01    0.6957025277E+00    0.9724404860E-01    0.5937479943E-01    0.1790891524E-03
    0.2900000000E+05    0.6974983388E-01    0.6957127338E+00    0.9958044273E-01    0.6178699882E-01    0.1798030362E-03
    0.3100000000E+05    0.7003129713E-01    0.6957215861E+00    0.1017307459E+00    0.6410482478E-01    0.1804717672E-03
    0.3300000000E+05    0.7021447953E-01    0.6957293326E+00    0.1037182091E+00    0.6633815158E-01    0.1811008587E-03
    0.3500000000E+05    0.7031577044E-01    0.6957361646E+00    0.1055621542E+00    0.6849531871E-01    0.1816948645E-03
    0.3700000000E+05    0.7034848119E-01    0.6957422315E+00    0.1072787896E+00    0.7058343284E-01    0.1822575900E-03
    0.3900000000E+05    0.7032351117E-01    0.6957476524E+00    0.1088818270E+00    0.7260859952E-01    0.1827922487E-03
    0.4100000000E+05    0.7024985074E-01    0.6957525226E+00    0.1103829571E+00    0.7457610321E-01    0.1833015789E-03
    0.4300000000E+05    0.7013496531E-01    0.6957569200E+00    0.1117922182E+00    0.7649054884E-01    0.1837879337E-03
    0.4500000000E+05    0.6998509192E-01    0.6957609082E+00    0.1131182863E+00    0.7835597425E-01    0.1842533501E-03
    0.4700000000E+05    0.6980547045E-01    0.6957645403E+00    0.1143687054E+00    0.8017594033E-01    0.1846996036E-03
    0.4900000000E+05    0.6960052549E-01    0.6957678604E+00    0.1155500716E+00    0.8195360410E-01    0.1851282511E-03
    0.1000000000E+05    0.5443763602E-01    0.6954450304E+00    0.6306680552E-01    0.3235712362E-01    0.1694393969E-03
    0.3000000000E+05    0.6990401770E-01    0.6957173121E+00    0.1006772992E+00    0.6295705124E-01    0.1801426758E-03
    0.5000000000E+05    0.6948975262E-01    0.6957694153E+00    0.1161166994E+00    0.8282746362E-01    0.1853364081E-03
    0.7000000000E+05    0.6660789048E-01    0.6957906952E+00    0.1249216045E+00    0.9863015815E-01    0.1888372417E-03
    0.9000000000E+05    0.6330758862E-01    0.6958019149E+00    0.1306239051E+00    0.1121518293E+00    0.1914945307E-03
    0.1100000000E+06    0.6008267141E-01    0.6958086621E+00    0.1345534072E+00    0.1241548962E+00    0.1936428883E-03
    0.1300000000E+06    0.5706518834E-01    0.6958130561E+00    0.1373480263E+00    0.1350455523E+00    0.1954495767E-03
    0.1500000000E+06    0.5428114687E-01    0.6958160719E+00    0.1393614384E+00    0.1450707318E+00    0.1970105216E-03
    0.1700000000E+06    0.5172247161E-01    0.6958182183E+00    0.1408095676E+00    0.1543942793E+00    0.1983859624E-03
    0.1900000000E+06    0.4937060193E-01    0.6958197851E+00    0.1418335999E+00    0.1631318773E+00    0.1996162589E-03
    0.2100000000E+06    0.4720487337E-01    0.6958209491E+00    0.1425307001E+00    0.1713690739E+00    0.2007298014E-03
    0.2300000000E+06    0.4520553138E-01    0.6958218237E+00    0.1429704334E+00    0.1791714350E+00    0.2017473341E-03
    0.2500000000E+06    0.4335471477E-01    0.6958224848E+00    0.1432041924E+00    0.1865906585E+00    0.2026844839E-03
    0.2700000000E+06    0.4163664836E-01    0.6958229847E+00    0.1432709220E+00    0.1936684579E+00    0.2035533221E-03
    0.2900000000E+06    0.4003753434E-01    0.6958233610E+00    0.1432007610E+00    0.2004391388E+00    0.2043633701E-03
    0.3100000000E+06    0.3854534241E-01    0.6958236406E+00    0.1430174463E+00    0.2069313691E+00    0.2051222738E-03
    0.3300000000E+06    0.3714958114E-01    0.6958238440E+00    0.1427399542E+00    0.2131694349E+00    0.2058362668E-03
    0.3500000000E+06    0.3584108279E-01    0.6958239864E+00    0.1423836499E+00    0.2191741521E+00    0.2065105000E-03
    0.3700000000E+06    0.3461181279E-01    0.6958240795E+00    0.1419611126E+00    0.2249635455E+00    0.2071492793E-03
    0.3900000000E+06    0.3345470566E-01    0.6958241326E+00    0.1414827406E+00    0.2305533627E+00    0.2077562414E-03
    0.4100000000E+06    0.3236352571E-01    0.6958241529E+00    0.1409572016E+00    0.2359574710E+00    0.2083344864E-03
    0.4300000000E+06    0.3133274952E-01    0.6958241462E+00    0.1403917749E+00    0.2411881673E+00    0.2088866786E-03
    0.4500000000E+06    0.3035746692E-01    0.6958241170E+00    0.1397926140E+00    0.2462564253E+00    0.2094151253E-03
    0.4700000000E+06    0.2943329765E-01    0.6958240692E+00    0.1391649511E+00    0.2511720924E+00    0.2099218373E-03
    0.4900000000E+06    0.2855632099E-01    0.6958240058E+00    0.1385132581E+00    0.2559440511E+00    0.2104085788E-03
    0.1000000000E+06    0.6167348848E-01    0.6958056747E+00    0.1327609985E+00    0.1183126909E+00    0.1926195455E-03
    0.3000000000E+06    0.3927876227E-01    0.6958235115E+00    0.1431219656E+00    0.2037184517E+00    0.2047487967E-03
    0.5000000000E+06    0.2813441547E-01    0.6958239691E+00    0.1381796220E+00    0.2582786845E+00    0.2106449539E-03
    0.7000000000E+06    0.2148355720E-01    0.6958228464E+00    0.1309380827E+00    0.2990420570E+00    0.2146209531E-03
    0.9000000000E+06    0.1708004436E-01    0.6958214807E+00    0.1235463663E+00    0.3314126786E+00    0.2176394938E-03
    0.1100000000E+07    0.1396954521E-01    0.6958201333E+00    0.1165662874E+00    0.3580357968E+00    0.2200801795E-03
    0.1300000000E+07    0.1167159225E-01    0.6958188654E+00    0.1101413398E+00    0.3804554157E+00    0.2221328465E-03
    0.1500000000E+07    0.9916440705E-02    0.6958176874E+00    0.1042803127E+00    0.3996665256E+00    0.2239063966E-03
    0.1700000000E+07    0.8540676219E-02    0.6958165951E+00    0.9894658437E-01    0.4163528278E+00    0.2254692302E-03
    0.1900000000E+07    0.7439547259E-02    0.6958155804E+00    0.9409020993E-01    0.4310059224E+00    0.2268671813E-03
    0.2100000000E+07    0.6542897951E-02    0.6958146349E+00    0.8966012949E-01    0.4439915011E+00    0.2281324939E-03
    0.2300000000E+07    0.5802061805E-02    0.6958137505E+00    0.8560873538E-01    0.4555889186E+00    0.2292887299E-03
    0.2500000000E+07    0.5182289141E-02    0.6958129204E+00    0.8189333273E-01    0.4660162044E+00    0.2303536399E-03
    0.2700000000E+07    0.4658157902E-02    0.6958121386E+00    0.7847631561E-01    0.4754465764E+00    0.2313409363E-03
    0.2900000000E+07    0.4210680743E-02    0.6958113999E+00    0.7532483124E-01    0.4840197336E+00    0.2322614356E-03
    0.3100000000E+07    0.3825419972E-02    0.6958107000E+00    0.7241026933E-01    0.4918498053E+00    0.2331238236E-03
    0.3300000000E+07    0.3491223942E-02    0.6958100349E+00    0.6970772320E-01    0.4990310858E+00    0.2339351825E-03
    0.3500000000E+07    0.3199359027E-02    0.6958094014E+00    0.6719548376E-01    0.5056422559E+00    0.2347013642E-03
    0.3700000000E+07    0.2942900394E-02    0.6958087967E+00    0.6485458860E-01    0.5117495493E+00    0.2354272606E-03
    0.3900000000E+07    0.2716296250E-02    0.6958082181E+00    0.6266843047E-01    0.5174091636E+00    0.2361170037E-03
    0.4100000000E+07    0.2515050861E-02    0.6958076636E+00    0.6062242210E-01    0.5226691219E+00    0.2367741157E-03
    0.4300000000E+07    0.2335490439E-02    0.6958071312E+00    0.5870371119E-01    0.5275707288E+00    0.2374016240E-03
    0.4500000000E+07    0.2174587873E-02    0.6958066191E+00    0.5690093895E-01    0.5321497212E+00    0.2380021497E-03
    0.4700000000E+07    0.2029829851E-02    0.6958061259E+00    0.5520403548E-01    0.5364371870E+00    0.2385779780E-03
    0.4900000000E+07    0.1899114994E-02    0.6958056501E+00    0.5360404653E-01    0.5404603061E+00    0.2391311130E-03
    0.1000000000E+07    0.1540001806E-01    0.6958207989E+00    0.1199909801E+00    0.3453291874E+00    0.2189175646E-03
    0.3000000000E+07    0.4011035603E-02    0.6958110454E+00    0.7383957228E-01    0.4880213524E+00    0.2326994183E-03
    0.5000000000E+07    0.1838459914E-02    0.6958054185E+00    0.5283786517E-01    0.5423803110E+00    0.2393997313E-03
    0.7000000000E+07    0.1052586604E-02    0.6958014641E+00    0.4105897208E-01    0.5714063593E+00    0.2439181220E-03
    0.9000000000E+07    0.6810847764E-03    0.6957984032E+00    0.3354354224E-01    0.5894943467E+00    0.2473484791E-03
    0.1100000000E+08    0.4764249305E-03    0.6957958997E+00    0.2833761618E-01    0.6018506898E+00    0.2501221611E-03
    0.1300000000E+08    0.3518014236E-03    0.6957937780E+00    0.2452090211E-01    0.6108268980E+00    0.2524548928E-03
    0.1500000000E+08    0.2703342190E-03    0.6957919348E+00    0.2160403392E-01    0.6176423205E+00    0.2544704295E-03
    0.1700000000E+08    0.2141789593E-03    0.6957903038E+00    0.1930304294E-01    0.6229926966E+00    0.2562465018E-03
    0.1900000000E+08    0.1738444868E-03    0.6957888401E+00    0.1744192660E-01    0.6273040579E+00    0.2578351959E-03
    0.2100000000E+08    0.1439041667E-03    0.6957875118E+00    0.1590583303E-01    0.6308518927E+00    0.2592731547E-03
    0.2300000000E+08    0.1210728284E-03    0.6957862953E+00    0.1461664630E-01    0.6338222453E+00    0.2605871545E-03
    0.2500000000E+08    0.1032673041E-03    0.6957851728E+00    0.1351939723E-01    0.6363452875E+00    0.2617973678E-03
    0.2700000000E+08    0.8911488895E-04    0.6957841305E+00    0.1257428768E-01    0.6385148248E+00    0.2629193775E-03
