  Pressure (Pa) 22mC5-500 (mol/kg) 24mC5-500 (mol/kg) 2mC6-500 (mol/kg) 3mC6-500 (mol/kg) C7-500 (mol/kg)
    0.1000000000E+01    0.2299469730E-04    0.1266314685E+00    0.6068032365E-05    0.3062335526E-05    0.4146681430E-02
    0.3000000000E+01    0.4754460929E-04    0.2785201450E+00    0.1199506080E-04    0.7557184613E-05    0.4173970502E-02
    0.5000000000E+01    0.6012553940E-04    0.3664234379E+00    0.1483786410E-04    0.1163181990E-04    0.4182479763E-02
    0.7000000000E+01    0.6763117292E-04    0.4237401964E+00    0.1654597721E-04    0.1550787633E-04    0.4186985157E-02
    0.9000000000E+01    0.7264033535E-04    0.4640694255E+00    0.1778104267E-04    0.1925858898E-04    0.4189736474E-02
    0.1100000000E+02    0.7630189828E-04    0.4939889154E+00    0.1880810062E-04    0.2292020296E-04    0.4191523969E-02
    0.1300000000E+02    0.7918939748E-04    0.5170686006E+00    0.1974459196E-04    0.2651412705E-04    0.4192715979E-02
    0.1500000000E+02    0.8161320007E-04    0.5354134658E+00    0.2064593798E-04    0.3005438579E-04    0.4193511696E-02
    0.1700000000E+02    0.8375162061E-04    0.5503450788E+00    0.2153920488E-04    0.3355082029E-04    0.4194029497E-02
    0.1900000000E+02    0.8571189834E-04    0.5627350292E+00    0.2243769305E-04    0.3701068471E-04    0.4194344573E-02
    0.2100000000E+02    0.8756085721E-04    0.5731814234E+00    0.2334773482E-04    0.4043952831E-04    0.4194507128E-02
    0.2300000000E+02    0.8934130524E-04    0.5821083490E+00    0.2427204175E-04    0.4384172109E-04    0.4194552032E-02
    0.2500000000E+02    0.9108125752E-04    0.5898248730E+00    0.2521142403E-04    0.4722078552E-04    0.4194504282E-02
    0.2700000000E+02    0.9279934320E-04    0.5965615613E+00    0.2616570190E-04    0.5057961590E-04    0.4194382277E-02
    0.2900000000E+02    0.9450808770E-04    0.6024939142E+00    0.2713419937E-04    0.5392062884E-04    0.4194199868E-02
    0.3100000000E+02    0.9621596493E-04    0.6077578796E+00    0.2811601508E-04    0.5724586985E-04    0.4193967678E-02
    0.3300000000E+02    0.9792871328E-04    0.6124604015E+00    0.2911017084E-04    0.6055709074E-04    0.4193693997E-02
    0.3500000000E+02    0.9965019830E-04    0.6166867630E+00    0.3011569218E-04    0.6385580726E-04    0.4193385379E-02
    0.3700000000E+02    0.1013829888E-03    0.6205058065E+00    0.3113165019E-04    0.6714334271E-04    0.4193047082E-02
    0.3900000000E+02    0.1031287479E-03    0.6239737129E+00    0.3215718160E-04    0.7042086163E-04    0.4192683366E-02
    0.4100000000E+02    0.1048885028E-03    0.6271367854E+00    0.3319149642E-04    0.7368939616E-04    0.4192297721E-02
    0.4300000000E+02    0.1066628319E-03    0.6300335282E+00    0.3423387862E-04    0.7694986693E-04    0.4191893030E-02
    0.4500000000E+02    0.1084519978E-03    0.6326962226E+00    0.3528368322E-04    0.8020309989E-04    0.4191471697E-02
    0.4700000000E+02    0.1102560407E-03    0.6351521354E+00    0.3634033138E-04    0.8344983993E-04    0.4191035740E-02
    0.4900000000E+02    0.1120748459E-03    0.6374244559E+00    0.3740330490E-04    0.8669076205E-04    0.4190586865E-02
    0.1000000000E+02    0.7459522324E-04    0.4800610884E+00    0.1831116317E-04    0.2109896659E-04    0.4190722061E-02
    0.3000000000E+02    0.9536172379E-04    0.6052021801E+00    0.2762350297E-04    0.5558510522E-04    0.4194089431E-02
    0.5000000000E+02    0.1129897185E-03    0.6384980850E+00    0.3793701686E-04    0.8830923554E-04    0.4190358046E-02
    0.7000000000E+02    0.1319840130E-03    0.6539188560E+00    0.4885455531E-04    0.1204976314E-03    0.4185362909E-02
    0.9000000000E+02    0.1520683301E-03    0.6628133208E+00    0.6009994371E-04    0.1525695459E-03    0.4179920076E-02
    0.1100000000E+03    0.1729862028E-03    0.6686011325E+00    0.7157979804E-04    0.1847404506E-03    0.4174256424E-02
    0.1300000000E+03    0.1945895711E-03    0.6726680289E+00    0.8326263087E-04    0.2171442253E-03    0.4168454132E-02
    0.1500000000E+03    0.2167959459E-03    0.6756822529E+00    0.9514037658E-04    0.2498745283E-03    0.4162546724E-02
    0.1700000000E+03    0.2395601145E-03    0.6780057102E+00    0.1072147990E-03    0.2830026186E-03    0.4156548102E-02
    0.1900000000E+03    0.2628587132E-03    0.6798514618E+00    0.1194921165E-03    0.3165862606E-03    0.4150463252E-02
    0.2100000000E+03    0.2866817725E-03    0.6813531124E+00    0.1319806900E-03    0.3506746539E-03    0.4144292760E-02
    0.2300000000E+03    0.3110279216E-03    0.6825986914E+00    0.1446899705E-03    0.3853113800E-03    0.4138034892E-02
    0.2500000000E+03    0.3359015665E-03    0.6836485595E+00    0.1576300066E-03    0.4205362719E-03    0.4131686634E-02
    0.2700000000E+03    0.3613111743E-03    0.6845454880E+00    0.1708112135E-03    0.4563866615E-03    0.4125244228E-02
    0.2900000000E+03    0.3872682006E-03    0.6853206305E+00    0.1842442716E-03    0.4928982479E-03    0.4118703461E-02
    0.3100000000E+03    0.4137864047E-03    0.6859972172E+00    0.1979400911E-03    0.5301057241E-03    0.4112059827E-02
    0.3300000000E+03    0.4408814058E-03    0.6865929229E+00    0.2119098096E-03    0.5680432462E-03    0.4105308609E-02
    0.3500000000E+03    0.4685703939E-03    0.6871214342E+00    0.2261648084E-03    0.6067447957E-03    0.4098444931E-02
    0.3700000000E+03    0.4968719430E-03    0.6875935147E+00    0.2407167373E-03    0.6462444683E-03    0.4091463777E-02
    0.3900000000E+03    0.5258058920E-03    0.6880177451E+00    0.2555775450E-03    0.6865767111E-03    0.4084360002E-02
    0.4100000000E+03    0.5553932737E-03    0.6884010506E+00    0.2707595116E-03    0.7277765231E-03    0.4077128330E-02
    0.4300000000E+03    0.5856562780E-03    0.6887490813E+00    0.2862752830E-03    0.7698796303E-03    0.4069763348E-02
    0.4500000000E+03    0.6166182392E-03    0.6890664928E+00    0.3021379057E-03    0.8129226408E-03    0.4062259504E-02
    0.4700000000E+03    0.6483036417E-03    0.6893571563E+00    0.3183608625E-03    0.8569431885E-03    0.4054611086E-02
    0.4900000000E+03    0.6807381404E-03    0.6896243163E+00    0.3349581091E-03    0.9019800662E-03    0.4046812218E-02
    0.1000000000E+03    0.1624343153E-03    0.6659840877E+00    0.6581333868E-04    0.1686330050E-03    0.4177109000E-02
    0.3000000000E+03    0.4004562188E-03    0.6856700299E+00    0.1910586455E-03    0.5114128571E-03    0.4115394793E-02
    0.5000000000E+03    0.6972446458E-03    0.6897499559E+00    0.3434015905E-03    0.9248921002E-03    0.4042854480E-02
    0.7000000000E+03    0.1074084932E-02    0.6915139467E+00    0.5358345278E-03    0.1447281171E-02    0.3954185298E-02
    0.9000000000E+03    0.1567181937E-02    0.6924980605E+00    0.7873242391E-03    0.2130743028E-02    0.3841707088E-02
    0.1100000000E+04    0.2234868365E-02    0.6931258766E+00    0.1127920463E-02    0.3057618741E-02    0.3693728565E-02
    0.1300000000E+04    0.3174323470E-02    0.6935612400E+00    0.1607583342E-02    0.4364940626E-02    0.3491510001E-02
    0.1500000000E+04    0.4550676981E-02    0.6938808851E+00    0.2311330621E-02    0.6286421848E-02    0.3204577489E-02
    0.1700000000E+04    0.6634729607E-02    0.6941255365E+00    0.3379112477E-02    0.9208294246E-02    0.2786349551E-02
    0.1900000000E+04    0.9779264087E-02    0.6943188150E+00    0.4995015202E-02    0.1364336519E-01    0.2186162731E-02
    0.2100000000E+04    0.1405483554E-01    0.6944753637E+00    0.7202406196E-02    0.1972983131E-01    0.1428823025E-02
    0.2300000000E+04    0.1852484082E-01    0.6946047434E+00    0.9529121635E-02    0.2619640571E-01    0.7322295534E-03
    0.2500000000E+04    0.2191690116E-01    0.6947134613E+00    0.1132139622E-01    0.3124915605E-01    0.3190513478E-03
    0.2700000000E+04    0.2416217624E-01    0.6948061002E+00    0.1253604421E-01    0.3474887055E-01    0.1476990120E-03
    0.2900000000E+04    0.2579216270E-01    0.6948859810E+00    0.1344112397E-01    0.3741791731E-01    0.8856289546E-04
    0.3100000000E+04    0.2715376851E-01    0.6949555688E+00    0.1421333210E-01    0.3973721940E-01    0.6953425549E-04
    0.3300000000E+04    0.2839002278E-01    0.6950167321E+00    0.1492573867E-01    0.4190630694E-01    0.6359885010E-04
    0.3500000000E+04    0.2955295664E-01    0.6950709129E+00    0.1560484151E-01    0.4399737103E-01    0.6183293349E-04
    0.3700000000E+04    0.3066165055E-01    0.6951192421E+00    0.1626020190E-01    0.4603609192E-01    0.6138926120E-04
    0.3900000000E+04    0.3172390476E-01    0.6951626185E+00    0.1689557042E-01    0.4803215184E-01    0.6136379676E-04
    0.4100000000E+04    0.3274366458E-01    0.6952017662E+00    0.1751271630E-01    0.4998978407E-01    0.6146827473E-04
    0.4300000000E+04    0.3372350938E-01    0.6952372744E+00    0.1811271578E-01    0.5191133550E-01    0.6161027202E-04
    0.4500000000E+04    0.3466548729E-01    0.6952696278E+00    0.1869638515E-01    0.5379846700E-01    0.6176012831E-04
    0.4700000000E+04    0.3557139936E-01    0.6952992287E+00    0.1926442784E-01    0.5565256112E-01    0.6190846226E-04
    0.4900000000E+04    0.3644289968E-01    0.6953264139E+00    0.1981748581E-01    0.5747486316E-01    0.6205248545E-04
    0.1000000000E+04    0.1874308111E-02    0.6928432076E+00    0.9439685634E-03    0.2556859677E-02    0.3773114983E-02
    0.3000000000E+04    0.2649436649E-01    0.6949219330E+00    0.1383763149E-01    0.3860434340E-01    0.7637919878E-04
    0.5000000000E+04    0.3686623211E-01    0.6953391911E+00    0.2008858425E-01    0.5837445706E-01    0.6212264398E-04
    0.7000000000E+04    0.4385735523E-01    0.6955180595E+00    0.2485296273E-01    0.7494776949E-01    0.6330396048E-04
    0.9000000000E+04    0.4871544838E-01    0.6956173804E+00    0.2863329694E-01    0.8934707012E-01    0.6419922968E-04
    0.1100000000E+05    0.5212567763E-01    0.6956805303E+00    0.3170730005E-01    0.1021284592E+00    0.6492228586E-04
    0.1300000000E+05    0.5451907989E-01    0.6957242023E+00    0.3425546594E-01    0.1136622670E+00    0.6552994334E-04
    0.1500000000E+05    0.5617875682E-01    0.6957561892E+00    0.3640037688E-01    0.1242058206E+00    0.6605470425E-04
    0.1700000000E+05    0.5729730773E-01    0.6957806170E+00    0.3822834803E-01    0.1339442749E+00    0.6651694449E-04
    0.1900000000E+05    0.5800965012E-01    0.6957998745E+00    0.3980202372E-01    0.1430148002E+00    0.6693029903E-04
    0.2100000000E+05    0.5841265267E-01    0.6958154404E+00    0.4116805228E-01    0.1515215676E+00    0.6730435011E-04
    0.2300000000E+05    0.5857734136E-01    0.6958282790E+00    0.4236194702E-01    0.1595453926E+00    0.6764609413E-04
    0.2500000000E+05    0.5855674261E-01    0.6958390460E+00    0.4341126903E-01    0.1671501450E+00    0.6796079855E-04
    0.2700000000E+05    0.5839106891E-01    0.6958482025E+00    0.4433777175E-01    0.1743871307E+00    0.6825253023E-04
    0.2900000000E+05    0.5811123383E-01    0.6958560824E+00    0.4515888294E-01    0.1812981621E+00    0.6852449583E-04
    0.3100000000E+05    0.5774128763E-01    0.6958629336E+00    0.4588875164E-01    0.1879177555E+00    0.6877926932E-04
    0.3300000000E+05    0.5730013798E-01    0.6958689435E+00    0.4653900265E-01    0.1942747356E+00    0.6901894878E-04
    0.3500000000E+05    0.5680278719E-01    0.6958742568E+00    0.4711928985E-01    0.2003934263E+00    0.6924526732E-04
    0.3700000000E+05    0.5626123569E-01    0.6958789869E+00    0.4763770860E-01    0.2062945488E+00    0.6945967343E-04
    0.3900000000E+05    0.5568515117E-01    0.6958832238E+00    0.4810110752E-01    0.2119959080E+00    0.6966339029E-04
    0.4100000000E+05    0.5508237066E-01    0.6958870401E+00    0.4851532724E-01    0.2175129248E+00    0.6985746038E-04
    0.4300000000E+05    0.5445928162E-01    0.6958904946E+00    0.4888538567E-01    0.2228590523E+00    0.7004277955E-04
    0.4500000000E+05    0.5382111431E-01    0.6958936359E+00    0.4921562306E-01    0.2280461061E+00    0.7022012336E-04
    0.4700000000E+05    0.5317216825E-01    0.6958965041E+00    0.4950981695E-01    0.2330845277E+00    0.7039016784E-04
    0.4900000000E+05    0.5251598938E-01    0.6958991329E+00    0.4977127406E-01    0.2379835978E+00    0.7055350583E-04
    0.1000000000E+05    0.5057021888E-01    0.6956521206E+00    0.3024560795E-01    0.9591356662E-01    0.6457793956E-04
    0.3000000000E+05    0.5793623879E-01    0.6958596237E+00    0.4553444419E-01    0.1846424692E+00    0.6865389078E-04
    0.5000000000E+05    0.5218612465E-01    0.6959003665E+00    0.4989064947E-01    0.2403835022E+00    0.7063282571E-04
    0.7000000000E+05    0.4569834353E-01    0.6959174678E+00    0.5111195685E-01    0.2826894175E+00    0.7196691152E-04
    0.9000000000E+05    0.3992360048E-01    0.6959267573E+00    0.5097983071E-01    0.3169261927E+00    0.7297960818E-04
    0.1100000000E+06    0.3500914765E-01    0.6959325292E+00    0.5017205556E-01    0.3455295736E+00    0.7379838157E-04
    0.1300000000E+06    0.3086576930E-01    0.6959364258E+00    0.4901145545E-01    0.3698988290E+00    0.7448695674E-04
    0.1500000000E+06    0.2736913783E-01    0.6959392087E+00    0.4767099992E-01    0.3909488407E+00    0.7508188352E-04
    0.1700000000E+06    0.2440496917E-01    0.6959412789E+00    0.4624963504E-01    0.4093256088E+00    0.7560611575E-04
    0.1900000000E+06    0.2187769503E-01    0.6959428667E+00    0.4480598995E-01    0.4255080960E+00    0.7607503303E-04
    0.2100000000E+06    0.1970977748E-01    0.6959441139E+00    0.4337529675E-01    0.4398633325E+00    0.7649945415E-04
    0.2300000000E+06    0.1783887371E-01    0.6959451124E+00    0.4197862406E-01    0.4526793161E+00    0.7688728437E-04
    0.2500000000E+06    0.1621488493E-01    0.6959459240E+00    0.4062822244E-01    0.4641861214E+00    0.7724447902E-04
    0.2700000000E+06    0.1479742088E-01    0.6959465921E+00    0.3933075401E-01    0.4745701854E+00    0.7757563836E-04
    0.2900000000E+06    0.1355375604E-01    0.6959471479E+00    0.3808930626E-01    0.4839843691E+00    0.7788439114E-04
    0.3100000000E+06    0.1245722263E-01    0.6959476142E+00    0.3690467719E-01    0.4925552612E+00    0.7817365118E-04
    0.3300000000E+06    0.1148595817E-01    0.6959480083E+00    0.3577620993E-01    0.5003886088E+00    0.7844579427E-04
    0.3500000000E+06    0.1062193124E-01    0.6959483433E+00    0.3470234120E-01    0.5075734321E+00    0.7870278347E-04
    0.3700000000E+06    0.9850181898E-02    0.6959486296E+00    0.3368096468E-01    0.5141851917E+00    0.7894625980E-04
    0.3900000000E+06    0.9158227216E-02    0.6959488752E+00    0.3270967256E-01    0.5202882581E+00    0.7917760934E-04
    0.4100000000E+06    0.8535593642E-02    0.6959490865E+00    0.3178591598E-01    0.5259378603E+00    0.7939801359E-04
    0.4300000000E+06    0.7973447165E-02    0.6959492688E+00    0.3090711086E-01    0.5311816374E+00    0.7960848803E-04
    0.4500000000E+06    0.7464299129E-02    0.6959494264E+00    0.3007070677E-01    0.5360608859E+00    0.7980991195E-04
    0.4700000000E+06    0.7001770878E-02    0.6959495626E+00    0.2927423067E-01    0.5406115700E+00    0.8000305184E-04
    0.4900000000E+06    0.6580404410E-02    0.6959496805E+00    0.2851531348E-01    0.5448651456E+00    0.8018857998E-04
    0.1000000000E+06    0.3736255192E-01    0.6959299493E+00    0.5063531831E-01    0.3318293851E+00    0.7340836624E-04
    0.3000000000E+06    0.1298856433E-01    0.6959473910E+00    0.3748990387E-01    0.4883681825E+00    0.7803129833E-04
    0.5000000000E+06    0.6383664648E-02    0.6959497333E+00    0.2814923142E-01    0.5468892841E+00    0.8027867771E-04
    0.7000000000E+06    0.3761260641E-02    0.6959502445E+00    0.2232195267E-01    0.5769742603E+00    0.8179419607E-04
    0.9000000000E+06    0.2470364543E-02    0.6959502497E+00    0.1843227649E-01    0.5951630577E+00    0.8294477457E-04
    0.1100000000E+07    0.1743520777E-02    0.6959500725E+00    0.1567249669E-01    0.6073062659E+00    0.8387509810E-04
    0.1300000000E+07    0.1294975112E-02    0.6959498231E+00    0.1361955384E-01    0.6159733939E+00    0.8465752336E-04
    0.1500000000E+07    0.9991414760E-03    0.6959495460E+00    0.1203549010E-01    0.6224635733E+00    0.8533355904E-04
    0.1700000000E+07    0.7939398261E-03    0.6959492614E+00    0.1077743567E-01    0.6275022686E+00    0.8592927657E-04
    0.1900000000E+07    0.6458651166E-03    0.6959489787E+00    0.9754818996E-02    0.6315257102E+00    0.8646214610E-04
    0.2100000000E+07    0.5355583910E-03    0.6959487026E+00    0.8907590707E-02    0.6348116717E+00    0.8694445787E-04
    0.2300000000E+07    0.4512075930E-03    0.6959484351E+00    0.8194428217E-02    0.6375452916E+00    0.8738519282E-04
    0.2500000000E+07    0.3852768437E-03    0.6959481770E+00    0.7585993077E-02    0.6398546514E+00    0.8779111693E-04
    0.2700000000E+07    0.3327763437E-03    0.6959479287E+00    0.7060895106E-02    0.6418311485E+00    0.8816745681E-04
    0.2900000000E+07    0.2902965538E-03    0.6959476898E+00    0.6603179514E-02    0.6435417332E+00    0.8851833545E-04
    0.3100000000E+07    0.2554440144E-03    0.6959474601E+00    0.6200708123E-02    0.6450365589E+00    0.8884706359E-04
    0.3300000000E+07    0.2264987659E-03    0.6959472391E+00    0.5844085238E-02    0.6463539325E+00    0.8915634073E-04
    0.3500000000E+07    0.2021992503E-03    0.6959470263E+00    0.5525926195E-02    0.6475236127E+00    0.8944839742E-04
    0.3700000000E+07    0.1816032488E-03    0.6959468212E+00    0.5240347705E-02    0.6485690660E+00    0.8972509834E-04
    0.3900000000E+07    0.1639956349E-03    0.6959466234E+00    0.4982605463E-02    0.6495090441E+00    0.8998801848E-04
    0.4100000000E+07    0.1488257668E-03    0.6959464325E+00    0.4748831717E-02    0.6503587106E+00    0.9023850041E-04
    0.4300000000E+07    0.1356641191E-03    0.6959462480E+00    0.4535842091E-02    0.6511304590E+00    0.9047769804E-04
    0.4500000000E+07    0.1241716860E-03    0.6959460695E+00    0.4340991279E-02    0.6518345170E+00    0.9070661055E-04
    0.4700000000E+07    0.1140780313E-03    0.6959458967E+00    0.4162063768E-02    0.6524793994E+00    0.9092610894E-04
    0.4900000000E+07    0.1051653047E-03    0.6959457292E+00    0.3997190079E-02    0.6530722521E+00    0.9113695717E-04
    0.1000000000E+07    0.2059980287E-02    0.6959501747E+00    0.1694350508E-01    0.6017867745E+00    0.8343194001E-04
    0.3000000000E+07    0.2720371741E-03    0.6959475738E+00    0.6395679914E-02    0.6443134890E+00    0.8868528719E-04
    0.5000000000E+07    0.1010951205E-03    0.6959456473E+00    0.3919517542E-02    0.6533510923E+00    0.9123935117E-04
    0.7000000000E+07    0.5224401693E-04    0.6959442275E+00    0.2820138785E-02    0.6572673593E+00    0.9296171364E-04
    0.9000000000E+07    0.3182875295E-04    0.6959431044E+00    0.2200140734E-02    0.6594518936E+00    0.9426933776E-04
    0.1100000000E+08    0.2140900164E-04    0.6959421742E+00    0.1802462463E-02    0.6608445549E+00    0.9532664793E-04
    0.1300000000E+08    0.1538586930E-04    0.6959413792E+00    0.1525863350E-02    0.6618095080E+00    0.9621587422E-04
    0.1500000000E+08    0.1159422759E-04    0.6959406842E+00    0.1322433640E-02    0.6625173879E+00    0.9698418989E-04
    0.1700000000E+08    0.9054165562E-05    0.6959400662E+00    0.1166577154E-02    0.6630587543E+00    0.9766122454E-04
    0.1900000000E+08    0.7269926938E-05    0.6959395095E+00    0.1043380816E-02    0.6634861203E+00    0.9826683267E-04
    0.2100000000E+08    0.5968893741E-05    0.6959390027E+00    0.9435701235E-03    0.6638320285E+00    0.9881498199E-04
    0.2300000000E+08    0.4991103136E-05    0.6959385372E+00    0.8610755925E-03    0.6641177174E+00    0.9931587925E-04
    0.2500000000E+08    0.4237683647E-05    0.6959381067E+00    0.7917590508E-03    0.6643576366E+00    0.9977721394E-04
    0.2700000000E+08    0.3644860283E-05    0.6959377062E+00    0.7327024418E-03    0.6645619573E+00    0.1002049261E-03
