  Pressure (Pa) 22mC5-500 (mol/kg) 24mC5-500 (mol/kg) 2mC6-500 (mol/kg) 3mC6-500 (mol/kg) C7-500 (mol/kg)
    0.1000000000E+01    0.2270323947E-04    0.1266306993E+00    0.2963111326E-05    0.2693823891E-05    0.4169240042E-02
    0.3000000000E+01    0.4692732522E-04    0.2785160026E+00    0.5847338984E-05    0.6776604480E-05    0.4197491091E-02
    0.5000000000E+01    0.5923494504E-04    0.3664156805E+00    0.7202229579E-05    0.1050547135E-04    0.4210288595E-02
    0.7000000000E+01    0.6649046057E-04    0.4237291780E+00    0.7995401736E-05    0.1406484160E-04    0.4218164967E-02
    0.9000000000E+01    0.7126353778E-04    0.4640555648E+00    0.8555445743E-05    0.1751637907E-04    0.4223525495E-02
    0.1100000000E+02    0.7469864834E-04    0.4939725899E+00    0.9013811702E-05    0.2089079557E-04    0.4227389208E-02
    0.1300000000E+02    0.7736678511E-04    0.5170501297E+00    0.9428602652E-05    0.2420631189E-04    0.4230281413E-02
    0.1500000000E+02    0.7957667886E-04    0.5353931155E+00    0.9827132450E-05    0.2747490483E-04    0.4232504330E-02
    0.1700000000E+02    0.8150551341E-04    0.5503230705E+00    0.1022266029E-04    0.3070500193E-04    0.4234245278E-02
    0.1900000000E+02    0.8325970576E-04    0.5627115479E+00    0.1062163735E-04    0.3390282976E-04    0.4235626950E-02
    0.2100000000E+02    0.8490545853E-04    0.5731566247E+00    0.1102707945E-04    0.3707316101E-04    0.4236733250E-02
    0.2300000000E+02    0.8648509575E-04    0.5820823648E+00    0.1144022535E-04    0.4021976063E-04    0.4237623592E-02
    0.2500000000E+02    0.8802624633E-04    0.5897978161E+00    0.1186138673E-04    0.4334566802E-04    0.4238341274E-02
    0.2700000000E+02    0.8954722494E-04    0.5965335286E+00    0.1229039769E-04    0.4645338391E-04    0.4238918626E-02
    0.2900000000E+02    0.9106029661E-04    0.6024649897E+00    0.1272685727E-04    0.4954499884E-04    0.4239380294E-02
    0.3100000000E+02    0.9257371650E-04    0.6077281365E+00    0.1317026187E-04    0.5262228416E-04    0.4239745406E-02
    0.3300000000E+02    0.9409303697E-04    0.6124299040E+00    0.1362007742E-04    0.5568675838E-04    0.4240029045E-02
    0.3500000000E+02    0.9562196357E-04    0.6166555677E+00    0.1407577796E-04    0.5873973648E-04    0.4240243266E-02
    0.3700000000E+02    0.9716292622E-04    0.6204739635E+00    0.1453686545E-04    0.6178236737E-04    0.4240397827E-02
    0.3900000000E+02    0.9871746657E-04    0.6239412670E+00    0.1500287881E-04    0.6481566277E-04    0.4240500714E-02
    0.4100000000E+02    0.1002865044E-03    0.6271037765E+00    0.1547339708E-04    0.6784051992E-04    0.4240558525E-02
    0.4300000000E+02    0.1018705229E-03    0.6299999922E+00    0.1594803916E-04    0.7085773953E-04    0.4240576763E-02
    0.4500000000E+02    0.1034696995E-03    0.6326621920E+00    0.1642646193E-04    0.7386804029E-04    0.4240560055E-02
    0.4700000000E+02    0.1050839978E-03    0.6351176393E+00    0.1690835741E-04    0.7687207057E-04    0.4240512321E-02
    0.4900000000E+02    0.1067132340E-03    0.6373895211E+00    0.1739344971E-04    0.7987041812E-04    0.4240436902E-02
    0.1000000000E+02    0.7310418257E-04    0.4800459517E+00    0.8792679238E-05    0.1921189557E-04    0.4225604456E-02
    0.3000000000E+02    0.9181656440E-04    0.6051728377E+00    0.1294772468E-04    0.5108533251E-04    0.4239573896E-02
    0.5000000000E+02    0.1075333680E-03    0.6384629400E+00    0.1763711646E-04    0.8136762994E-04    0.4240389723E-02
    0.7000000000E+02    0.1246294233E-03    0.6538804574E+00    0.2263081503E-04    0.1111218566E-03    0.4238513732E-02
    0.9000000000E+02    0.1427856086E-03    0.6627727880E+00    0.2778032302E-04    0.1407130181E-03    0.4235597215E-02
    0.1100000000E+03    0.1617231688E-03    0.6685590638E+00    0.3303350673E-04    0.1703281131E-03    0.4232150008E-02
    0.1300000000E+03    0.1812795783E-03    0.6726247856E+00    0.3837107173E-04    0.2000823564E-03    0.4228381791E-02
    0.1500000000E+03    0.2013615432E-03    0.6756380717E+00    0.4378631855E-04    0.2300553187E-03    0.4224394123E-02
    0.1700000000E+03    0.2219149584E-03    0.6779607559E+00    0.4927792304E-04    0.2603065485E-03    0.4220241605E-02
    0.1900000000E+03    0.2429086226E-03    0.6798058545E+00    0.5484704099E-04    0.2908833964E-03    0.4215955701E-02
    0.2100000000E+03    0.2643253138E-03    0.6813069427E+00    0.6049603820E-04    0.3218253519E-03    0.4211555374E-02
    0.2300000000E+03    0.2861567135E-03    0.6825520297E+00    0.6622789637E-04    0.3531666355E-03    0.4207052352E-02
    0.2500000000E+03    0.3084004062E-03    0.6836014619E+00    0.7204592284E-04    0.3849378420E-03    0.4202453924E-02
    0.2700000000E+03    0.3310580413E-03    0.6844979999E+00    0.7795360567E-04    0.4171670316E-03    0.4197764536E-02
    0.2900000000E+03    0.3541341725E-03    0.6852727893E+00    0.8395454137E-04    0.4498804856E-03    0.4192986736E-02
    0.3100000000E+03    0.3776355062E-03    0.6859490543E+00    0.9005240059E-04    0.4831032468E-03    0.4188121756E-02
    0.3300000000E+03    0.4015704038E-03    0.6865444649E+00    0.9625091380E-04    0.5168595180E-03    0.4183169893E-02
    0.3500000000E+03    0.4259485477E-03    0.6870727039E+00    0.1025538681E-03    0.5511729652E-03    0.4178130756E-02
    0.3700000000E+03    0.4507807139E-03    0.6875445317E+00    0.1089651097E-03    0.5860669535E-03    0.4173003429E-02
    0.3900000000E+03    0.4760786175E-03    0.6879685267E+00    0.1154885501E-03    0.6215647352E-03    0.4167786592E-02
    0.4100000000E+03    0.5018548065E-03    0.6883516119E+00    0.1221281737E-03    0.6576896038E-03    0.4162478595E-02
    0.4300000000E+03    0.5281225921E-03    0.6886994355E+00    0.1288880465E-03    0.6944650235E-03    0.4157077518E-02
    0.4500000000E+03    0.5548960023E-03    0.6890166521E+00    0.1357723249E-03    0.7319147391E-03    0.4151581213E-02
    0.4700000000E+03    0.5821897548E-03    0.6893071311E+00    0.1427852655E-03    0.7700628734E-03    0.4145987329E-02
    0.4900000000E+03    0.6100192428E-03    0.6895741164E+00    0.1499312342E-03    0.8089340129E-03    0.4140293334E-02
    0.1000000000E+03    0.1521689806E-03    0.6659427308E+00    0.3039559349E-04    0.1555092668E-03    0.4233923120E-02
    0.3000000000E+03    0.3658312007E-03    0.6856220242E+00    0.8699112371E-04    0.4664266744E-03    0.4190565106E-02
    0.5000000000E+03    0.6241398818E-03    0.6896996719E+00    0.1535555008E-03    0.8286485395E-03    0.4137407957E-02
    0.7000000000E+03    0.9390363182E-03    0.6914623175E+00    0.2342105464E-03    0.1267490620E-02    0.4073692937E-02
    0.9000000000E+03    0.1331265169E-02    0.6924454812E+00    0.3344957504E-03    0.1813616090E-02    0.3995809631E-02
    0.1100000000E+04    0.1831895791E-02    0.6930725636E+00    0.4624641235E-03    0.2511268718E-02    0.3898300570E-02
    0.1300000000E+04    0.2488674840E-02    0.6935073292E+00    0.6304219949E-03    0.3428050209E-02    0.3772920244E-02
    0.1500000000E+04    0.3377207684E-02    0.6938264695E+00    0.8578477406E-03    0.4671087404E-02    0.3606915010E-02
    0.1700000000E+04    0.4619710536E-02    0.6940706840E+00    0.1176271603E-02    0.6414116481E-02    0.3380305238E-02
    0.1900000000E+04    0.6411979459E-02    0.6942635771E+00    0.1636347579E-02    0.8937059748E-02    0.3062564651E-02
    0.2100000000E+04    0.9038212046E-02    0.6944197810E+00    0.2312008606E-02    0.1265070438E-01    0.2613264202E-02
    0.2300000000E+04    0.1276521393E-01    0.6945488484E+00    0.3273948647E-02    0.1795471994E-01    0.2005982468E-02
    0.2500000000E+04    0.1739299070E-01    0.6946572810E+00    0.4474420327E-02    0.2460671018E-01    0.1305939311E-02
    0.2700000000E+04    0.2184799710E-01    0.6947496572E+00    0.5640149015E-02    0.3112050161E-01    0.7126373296E-03
    0.2900000000E+04    0.2515220606E-01    0.6948292945E+00    0.6517978200E-02    0.3609658213E-01    0.3654016761E-03
    0.3100000000E+04    0.2738467707E-01    0.6948986552E+00    0.7124731566E-02    0.3960872952E-01    0.2123171721E-03
    0.3300000000E+04    0.2902467912E-01    0.6949596059E+00    0.7581778662E-02    0.4231382169E-01    0.1541543489E-03
    0.3500000000E+04    0.3038933233E-01    0.6950135867E+00    0.7970131806E-02    0.4465418399E-01    0.1334246333E-03
    0.3700000000E+04    0.3162133058E-01    0.6950617270E+00    0.8326362934E-02    0.4683018978E-01    0.1263035770E-03
    0.3900000000E+04    0.3277763946E-01    0.6951049245E+00    0.8665055991E-02    0.4892170339E-01    0.1240026931E-03
    0.4100000000E+04    0.3388071621E-01    0.6951439022E+00    0.8991906199E-02    0.5095966336E-01    0.1233969458E-03
    0.4300000000E+04    0.3493995255E-01    0.6951792485E+00    0.9309233895E-02    0.5295637629E-01    0.1233841321E-03
    0.4500000000E+04    0.3595985206E-01    0.6952114474E+00    0.9618096337E-02    0.5491716902E-01    0.1235749106E-03
    0.4700000000E+04    0.3694306227E-01    0.6952409004E+00    0.9919073665E-02    0.5684474129E-01    0.1238312675E-03
    0.4900000000E+04    0.3789149329E-01    0.6952679438E+00    0.1021255971E-01    0.5874078123E-01    0.1241042588E-03
    0.1000000000E+04    0.1565538594E-02    0.6927902408E+00    0.3943767747E-03    0.2139971808E-02    0.3949942438E-02
    0.3000000000E+04    0.2637123770E-01    0.6948651311E+00    0.6847386580E-02    0.3799336954E-01    0.2715004720E-03
    0.5000000000E+04    0.3835317024E-01    0.6952806522E+00    0.1035659383E-01    0.5967738448E-01    0.1242410593E-03
    0.7000000000E+04    0.4608510804E-01    0.6954583720E+00    0.1290750453E-01    0.7700408429E-01    0.1265976929E-03
    0.9000000000E+04    0.5161061595E-01    0.6955568291E+00    0.1495865576E-01    0.9215525467E-01    0.1283879380E-03
    0.1100000000E+05    0.5560329624E-01    0.6956192843E+00    0.1664490955E-01    0.1056658060E+00    0.1298338112E-03
    0.1300000000E+05    0.5849748014E-01    0.6956623742E+00    0.1805575719E-01    0.1178985754E+00    0.1310489232E-03
    0.1500000000E+05    0.6058443002E-01    0.6956938595E+00    0.1925300448E-01    0.1291093649E+00    0.1320982682E-03
    0.1700000000E+05    0.6206588990E-01    0.6957178461E+00    0.2028077252E-01    0.1394843549E+00    0.1330225919E-03
    0.1900000000E+05    0.6308544428E-01    0.6957367095E+00    0.2117144994E-01    0.1491627423E+00    0.1338491599E-03
    0.2100000000E+05    0.6374766992E-01    0.6957519193E+00    0.2194938784E-01    0.1582510141E+00    0.1345971336E-03
    0.2300000000E+05    0.6413025767E-01    0.6957644327E+00    0.2263327723E-01    0.1668322694E+00    0.1352805038E-03
    0.2500000000E+05    0.6429192451E-01    0.6957749004E+00    0.2323772674E-01    0.1749724920E+00    0.1359098035E-03
    0.2700000000E+05    0.6427771777E-01    0.6957837796E+00    0.2377433806E-01    0.1827248857E+00    0.1364931653E-03
    0.2900000000E+05    0.6412265569E-01    0.6957914012E+00    0.2425245664E-01    0.1901329381E+00    0.1370370014E-03
    0.3100000000E+05    0.6385427846E-01    0.6957980104E+00    0.2467970669E-01    0.1972326326E+00    0.1375464589E-03
    0.3300000000E+05    0.6349446939E-01    0.6958037928E+00    0.2506237972E-01    0.2040540729E+00    0.1380257334E-03
    0.3500000000E+05    0.6306077669E-01    0.6958088914E+00    0.2540572149E-01    0.2106226968E+00    0.1384782905E-03
    0.3700000000E+05    0.6256738734E-01    0.6958134181E+00    0.2571414709E-01    0.2169601963E+00    0.1389070268E-03
    0.3900000000E+05    0.6202585445E-01    0.6958174618E+00    0.2599140446E-01    0.2230852242E+00    0.1393143881E-03
    0.4100000000E+05    0.6144564716E-01    0.6958210941E+00    0.2624070031E-01    0.2290139432E+00    0.1397024590E-03
    0.4300000000E+05    0.6083457125E-01    0.6958243729E+00    0.2646479804E-01    0.2347604585E+00    0.1400730311E-03
    0.4500000000E+05    0.6019909408E-01    0.6958273461E+00    0.2666609496E-01    0.2403371602E+00    0.1404276552E-03
    0.4700000000E+05    0.5954459811E-01    0.6958300532E+00    0.2684668350E-01    0.2457549988E+00    0.1407676831E-03
    0.4900000000E+05    0.5887558038E-01    0.6958325272E+00    0.2700840038E-01    0.2510237074E+00    0.1410943002E-03
    0.1000000000E+05    0.5376721376E-01    0.6955912051E+00    0.1584099581E-01    0.9908983951E-01    0.1291452328E-03
    0.3000000000E+05    0.6400114867E-01    0.6957948196E+00    0.2447201955E-01    0.1937193267E+00    0.1372957459E-03
    0.5000000000E+05    0.5853682872E-01    0.6958336857E+00    0.2708269594E-01    0.2536048921E+00    0.1412529114E-03
    0.7000000000E+05    0.5164677605E-01    0.6958495238E+00    0.2788716939E-01    0.2991022886E+00    0.1439205970E-03
    0.9000000000E+05    0.4528057412E-01    0.6958578552E+00    0.2788630493E-01    0.3358427041E+00    0.1459456153E-03
    0.1100000000E+06    0.3975303545E-01    0.6958628527E+00    0.2747190716E-01    0.3663974945E+00    0.1475828551E-03
    0.1300000000E+06    0.3503608971E-01    0.6958660983E+00    0.2683569540E-01    0.3922636570E+00    0.1489597447E-03
    0.1500000000E+06    0.3102571703E-01    0.6958683190E+00    0.2608293156E-01    0.4144364036E+00    0.1501493710E-03
    0.1700000000E+06    0.2761101785E-01    0.6958698937E+00    0.2527510623E-01    0.4336296735E+00    0.1511976337E-03
    0.1900000000E+06    0.2469281264E-01    0.6958710384E+00    0.2444930228E-01    0.4503796933E+00    0.1521352866E-03
    0.2100000000E+06    0.2218736490E-01    0.6958718846E+00    0.2362814025E-01    0.4651012731E+00    0.1529839635E-03
    0.2300000000E+06    0.2002554546E-01    0.6958725166E+00    0.2282533168E-01    0.4781218934E+00    0.1537594720E-03
    0.2500000000E+06    0.1815076522E-01    0.6958729908E+00    0.2204896264E-01    0.4897040101E+00    0.1544737207E-03
    0.2700000000E+06    0.1651679210E-01    0.6958733461E+00    0.2130351421E-01    0.5000604738E+00    0.1551359084E-03
    0.2900000000E+06    0.1508580624E-01    0.6958736102E+00    0.2059114161E-01    0.5093656101E+00    0.1557532914E-03
    0.3100000000E+06    0.1382677480E-01    0.6958738033E+00    0.1991250050E-01    0.5177634085E+00    0.1563316962E-03
    0.3300000000E+06    0.1271413201E-01    0.6958739403E+00    0.1926728865E-01    0.5253736998E+00    0.1568758735E-03
    0.3500000000E+06    0.1172672130E-01    0.6958740326E+00    0.1865460437E-01    0.5322968918E+00    0.1573897488E-03
    0.3700000000E+06    0.1084695195E-01    0.6958740889E+00    0.1807318518E-01    0.5386176466E+00    0.1578766034E-03
    0.3900000000E+06    0.1006012783E-01    0.6958741160E+00    0.1752156693E-01    0.5444077651E+00    0.1583392091E-03
    0.4100000000E+06    0.9353912266E-02    0.6958741192E+00    0.1699818963E-01    0.5497284732E+00    0.1587799283E-03
    0.4300000000E+06    0.8717900616E-02    0.6958741027E+00    0.1650146732E-01    0.5546322452E+00    0.1592007918E-03
    0.4500000000E+06    0.8143277452E-02    0.6958740700E+00    0.1602983347E-01    0.5591642716E+00    0.1596035576E-03
    0.4700000000E+06    0.7622540683E-02    0.6958740239E+00    0.1558176971E-01    0.5633636468E+00    0.1599897585E-03
    0.4900000000E+06    0.7149278528E-02    0.6958739665E+00    0.1515582327E-01    0.5672643372E+00    0.1603607389E-03
    0.1000000000E+06    0.4241046059E-01    0.6958606417E+00    0.2771601115E-01    0.3517840051E+00    0.1468029711E-03
    0.3000000000E+06    0.1443650866E-01    0.6958737146E+00    0.2024760597E-01    0.5136699323E+00    0.1560470473E-03
    0.5000000000E+06    0.6928699603E-02    0.6958739342E+00    0.1495071048E-01    0.5691120859E+00    0.1605408975E-03
    0.7000000000E+06    0.4017179853E-02    0.6958730144E+00    0.1171878911E-01    0.5958945321E+00    0.1635713070E-03
    0.9000000000E+06    0.2609317221E-02    0.6958719332E+00    0.9598693359E-02    0.6114204863E+00    0.1658719799E-03
    0.1100000000E+07    0.1826900380E-02    0.6958708776E+00    0.8113680546E-02    0.6214825063E+00    0.1677322306E-03
    0.1300000000E+07    0.1348766168E-02    0.6958698895E+00    0.7019670026E-02    0.6285080581E+00    0.1692967445E-03
    0.1500000000E+07    0.1035794747E-02    0.6958689741E+00    0.6181841715E-02    0.6336809601E+00    0.1706485223E-03
    0.1700000000E+07    0.8200044873E-03    0.6958681271E+00    0.5520402519E-02    0.6376437737E+00    0.1718396969E-03
    0.1900000000E+07    0.6650449868E-03    0.6958673413E+00    0.4985347085E-02    0.6407741418E+00    0.1729052014E-03
    0.2100000000E+07    0.5500728854E-03    0.6958666098E+00    0.4543831945E-02    0.6433080543E+00    0.1738696113E-03
    0.2300000000E+07    0.4624509539E-03    0.6958659262E+00    0.4173431895E-02    0.6454003486E+00    0.1747508850E-03
    0.2500000000E+07    0.3941600180E-03    0.6958652850E+00    0.3858329779E-02    0.6471567254E+00    0.1755625517E-03
    0.2700000000E+07    0.3399145798E-03    0.6958646813E+00    0.3587058150E-02    0.6486517537E+00    0.1763150623E-03
    0.2900000000E+07    0.2961173466E-03    0.6958641112E+00    0.3351104873E-02    0.6499395166E+00    0.1770166613E-03
    0.3100000000E+07    0.2602517840E-03    0.6958635712E+00    0.3144021333E-02    0.6510601780E+00    0.1776739687E-03
    0.3300000000E+07    0.2305149916E-03    0.6958630582E+00    0.2960834407E-02    0.6520441800E+00    0.1782923824E-03
    0.3500000000E+07    0.2055881427E-03    0.6958625697E+00    0.2797648241E-02    0.6529150108E+00    0.1788763626E-03
    0.3700000000E+07    0.1844886190E-03    0.6958621034E+00    0.2651368138E-02    0.6536910791E+00    0.1794296378E-03
    0.3900000000E+07    0.1664722444E-03    0.6958616574E+00    0.2519505083E-02    0.6543870145E+00    0.1799553574E-03
    0.4100000000E+07    0.1509671283E-03    0.6958612300E+00    0.2400034740E-02    0.6550145884E+00    0.1804562060E-03
    0.4300000000E+07    0.1375279608E-03    0.6958608197E+00    0.2291294032E-02    0.6555833784E+00    0.1809344909E-03
    0.4500000000E+07    0.1258038455E-03    0.6958604251E+00    0.2191904121E-02    0.6561012557E+00    0.1813922100E-03
    0.4700000000E+07    0.1155152750E-03    0.6958600451E+00    0.2100712266E-02    0.6565747487E+00    0.1818311050E-03
    0.4900000000E+07    0.1064373966E-03    0.6958596786E+00    0.2016747367E-02    0.6570093169E+00    0.1822527034E-03
    0.1000000000E+07    0.2166495658E-02    0.6958713982E+00    0.8795576921E-02    0.6169400779E+00    0.1668461038E-03
    0.3000000000E+07    0.2773193223E-03    0.6958638376E+00    0.3244294395E-02    0.6505186423E+00    0.1773504892E-03
    0.5000000000E+07    0.1022940420E-03    0.6958595001E+00    0.1977212604E-02    0.6572134709E+00    0.1824574437E-03
    0.7000000000E+07    0.5268859700E-04    0.6958564543E+00    0.1419105702E-02    0.6600646492E+00    0.1859013585E-03
    0.9000000000E+07    0.3203950290E-04    0.6958540969E+00    0.1105570232E-02    0.6616420880E+00    0.1885159816E-03
    0.1100000000E+08    0.2152481983E-04    0.6958521686E+00    0.9049225334E-03    0.6626429632E+00    0.1906300900E-03
    0.1300000000E+08    0.1545612820E-04    0.6958505342E+00    0.7655769669E-03    0.6633343329E+00    0.1924081076E-03
    0.1500000000E+08    0.1163997318E-04    0.6958491139E+00    0.6632037639E-03    0.6638404397E+00    0.1939443600E-03
    0.1700000000E+08    0.9085576430E-05    0.6958478569E+00    0.5848347595E-03    0.6642268993E+00    0.1952980927E-03
    0.1900000000E+08    0.7292406499E-05    0.6958467285E+00    0.5229272552E-03    0.6645316244E+00    0.1965090060E-03
    0.2100000000E+08    0.5985523710E-05    0.6958457042E+00    0.4727965845E-03    0.6647780460E+00    0.1976050288E-03
    0.2300000000E+08    0.5003744129E-05    0.6958447660E+00    0.4313801747E-03    0.6649814235E+00    0.1986065699E-03
    0.2500000000E+08    0.4247512363E-05    0.6958439000E+00    0.3965917361E-03    0.6651521207E+00    0.1995290047E-03
    0.2700000000E+08    0.3652650115E-05    0.6958430957E+00    0.3669611448E-03    0.6652974229E+00    0.2003842106E-03
