  Pressure (Pa) 22mC5-500 (mol/kg) 24mC5-500 (mol/kg) 2mC6-500 (mol/kg) 3mC6-500 (mol/kg) C7-500 (mol/kg)
    0.1000000000E+01    0.2517149894E-04    0.6964906209E-01    0.1321413471E-04    0.8381661802E-06    0.4184618659E-02
    0.3000000000E+01    0.6033663094E-04    0.1740748418E+00    0.3061694860E-04    0.2129279601E-05    0.4230576821E-02
    0.5000000000E+01    0.8355155925E-04    0.2486312360E+00    0.4139728738E-04    0.3313052888E-05    0.4260399037E-02
    0.7000000000E+01    0.9974317749E-04    0.3045315018E+00    0.4852756578E-04    0.4445046818E-05    0.4282494837E-02
    0.9000000000E+01    0.1115206210E-03    0.3480001939E+00    0.5351275775E-04    0.5543954206E-05    0.4299649668E-02
    0.1100000000E+02    0.1203862477E-03    0.3827698186E+00    0.5718189513E-04    0.6619116538E-05    0.4313385804E-02
    0.1300000000E+02    0.1272584550E-03    0.4112145271E+00    0.6001869801E-04    0.7676089150E-05    0.4324642984E-02
    0.1500000000E+02    0.1327253666E-03    0.4349165234E+00    0.6231800675E-04    0.8718530378E-05    0.4334040016E-02
    0.1700000000E+02    0.1371779414E-03    0.4549708688E+00    0.6426580544E-04    0.9749018256E-05    0.4342003051E-02
    0.1900000000E+02    0.1408841792E-03    0.4721595705E+00    0.6598266382E-04    0.1076945991E-04    0.4348835893E-02
    0.2100000000E+02    0.1440325741E-03    0.4870559927E+00    0.6754847325E-04    0.1178131871E-04    0.4354761298E-02
    0.2300000000E+02    0.1467586200E-03    0.5000900917E+00    0.6901709779E-04    0.1278575012E-04    0.4359946484E-02
    0.2500000000E+02    0.1491615475E-03    0.5115906150E+00    0.7042534477E-04    0.1378368767E-04    0.4364519523E-02
    0.2700000000E+02    0.1513152103E-03    0.5218132275E+00    0.7179861488E-04    0.1477590001E-04    0.4368580225E-02
    0.2900000000E+02    0.1532753524E-03    0.5309597515E+00    0.7315454855E-04    0.1576303010E-04    0.4372207566E-02
    0.3100000000E+02    0.1550845674E-03    0.5391916321E+00    0.7450542948E-04    0.1674562305E-04    0.4375464887E-02
    0.3300000000E+02    0.1567757540E-03    0.5466395547E+00    0.7585979853E-04    0.1772414639E-04    0.4378403597E-02
    0.3500000000E+02    0.1583745644E-03    0.5534104375E+00    0.7722355493E-04    0.1869900516E-04    0.4381065874E-02
    0.3700000000E+02    0.1599011688E-03    0.5595926003E+00    0.7860071843E-04    0.1967055341E-04    0.4383486661E-02
    0.3900000000E+02    0.1613715435E-03    0.5652596398E+00    0.7999396348E-04    0.2063910301E-04    0.4385695159E-02
    0.4100000000E+02    0.1627984252E-03    0.5704733752E+00    0.8140499754E-04    0.2160493060E-04    0.4387715971E-02
    0.4300000000E+02    0.1641920255E-03    0.5752861133E+00    0.8283483175E-04    0.2256828318E-04    0.4389569975E-02
    0.4500000000E+02    0.1655605713E-03    0.5797424110E+00    0.8428397599E-04    0.2352938243E-04    0.4391275010E-02
    0.4700000000E+02    0.1669107183E-03    0.5838804589E+00    0.8575258059E-04    0.2448842844E-04    0.4392846411E-02
    0.4900000000E+02    0.1682478704E-03    0.5877331794E+00    0.8724053968E-04    0.2544560257E-04    0.4394297441E-02
    0.1000000000E+02    0.1162501108E-03    0.3663005548E+00    0.5547585948E-04    0.6084097685E-05    0.4306876702E-02
    0.3000000000E+02    0.1541965751E-03    0.5351812259E+00    0.7383001398E-04    0.1625486287E-04    0.4373879022E-02
    0.5000000000E+02    0.1689129817E-03    0.5895616094E+00    0.8799169313E-04    0.2592353987E-04    0.4394981478E-02
    0.7000000000E+02    0.1822492065E-03    0.6164114111E+00    0.1039170476E-03    0.3541745221E-04    0.4404480448E-02
    0.9000000000E+02    0.1963478130E-03    0.6324152886E+00    0.1211902722E-03    0.4484923213E-04    0.4409176964E-02
    0.1100000000E+03    0.2114131891E-03    0.6430412231E+00    0.1393984076E-03    0.5427648123E-04    0.4411371742E-02
    0.1300000000E+03    0.2273621938E-03    0.6506102924E+00    0.1582964072E-03    0.6373452685E-04    0.4412070389E-02
    0.1500000000E+03    0.2440838478E-03    0.6562758282E+00    0.1777427623E-03    0.7324759544E-04    0.4411786240E-02
    0.1700000000E+03    0.2614849292E-03    0.6606757607E+00    0.1976544636E-03    0.8283365161E-04    0.4410810333E-02
    0.1900000000E+03    0.2794942695E-03    0.6641915971E+00    0.2179822202E-03    0.9250682485E-04    0.4409320665E-02
    0.2100000000E+03    0.2980591500E-03    0.6670655009E+00    0.2386969130E-03    0.1022787559E-03    0.4407432492E-02
    0.2300000000E+03    0.3171410198E-03    0.6694585886E+00    0.2597819618E-03    0.1121594019E-03    0.4405223832E-02
    0.2500000000E+03    0.3367119841E-03    0.6714822190E+00    0.2812288661E-03    0.1221575459E-03    0.4402749376E-02
    0.2700000000E+03    0.3567521689E-03    0.6732158255E+00    0.3030345091E-03    0.1322811363E-03    0.4400048558E-02
    0.2900000000E+03    0.3772477959E-03    0.6747175920E+00    0.3251994766E-03    0.1425375196E-03    0.4397150459E-02
    0.3100000000E+03    0.3981897808E-03    0.6760311135E+00    0.3477269811E-03    0.1529336074E-03    0.4394076915E-02
    0.3300000000E+03    0.4195727100E-03    0.6771896991E+00    0.3706221561E-03    0.1634759989E-03    0.4390844552E-02
    0.3500000000E+03    0.4413940862E-03    0.6782192364E+00    0.3938915851E-03    0.1741710728E-03    0.4387466166E-02
    0.3700000000E+03    0.4636537683E-03    0.6791401498E+00    0.4175429829E-03    0.1850250587E-03    0.4383951675E-02
    0.3900000000E+03    0.4863535515E-03    0.6799687695E+00    0.4415849762E-03    0.1960440932E-03    0.4380308792E-02
    0.4100000000E+03    0.5094968498E-03    0.6807183081E+00    0.4660269525E-03    0.2072342651E-03    0.4376543515E-02
    0.4300000000E+03    0.5330884547E-03    0.6813995711E+00    0.4908789560E-03    0.2186016525E-03    0.4372660487E-02
    0.4500000000E+03    0.5571343506E-03    0.6820214811E+00    0.5161516152E-03    0.2301523543E-03    0.4368663261E-02
    0.4700000000E+03    0.5816415724E-03    0.6825914707E+00    0.5418560950E-03    0.2418925168E-03    0.4364554504E-02
    0.4900000000E+03    0.6066180971E-03    0.6831157811E+00    0.5680040648E-03    0.2538283568E-03    0.4360336152E-02
    0.1000000000E+03    0.2037630375E-03    0.6382155084E+00    0.1301959315E-03    0.4956087109E-04    0.4410507527E-02
    0.3000000000E+03    0.3876634081E-03    0.6753955995E+00    0.3364176295E-03    0.1477176819E-03    0.4395634475E-02
    0.5000000000E+03    0.6192850773E-03    0.6833624889E+00    0.5812481381E-03    0.2598716230E-03    0.4358186314E-02
    0.7000000000E+03    0.8998675012E-03    0.6868354160E+00    0.8726779453E-03    0.3926375842E-03    0.4309510545E-02
    0.9000000000E+03    0.1242383172E-02    0.6887802131E+00    0.1225933214E-02    0.5534041000E-03    0.4249077265E-02
    0.1100000000E+04    0.1667243597E-02    0.6900235042E+00    0.1662736242E-02    0.7522349739E-03    0.4174046924E-02
    0.1300000000E+04    0.2204857734E-02    0.6908867869E+00    0.2214733505E-02    0.1003674600E-02    0.4079712879E-02
    0.1500000000E+04    0.2901069180E-02    0.6915211394E+00    0.2929350068E-02    0.1329494452E-02    0.3958883160E-02
    0.1700000000E+04    0.3826363412E-02    0.6920069281E+00    0.3879427613E-02    0.1763159144E-02    0.3800629147E-02
    0.1900000000E+04    0.5090459295E-02    0.6923908444E+00    0.5178467404E-02    0.2356900542E-02    0.3588369258E-02
    0.2100000000E+04    0.6861697242E-02    0.6927018707E+00    0.7001055192E-02    0.3191281484E-02    0.3297725474E-02
    0.2300000000E+04    0.9375913973E-02    0.6929589486E+00    0.9593030313E-02    0.4380318332E-02    0.2897233766E-02
    0.2500000000E+04    0.1286580069E-01    0.6931749807E+00    0.1320064349E-01    0.6039866855E-02    0.2363338089E-02
    0.2700000000E+04    0.1726481561E-01    0.6933590593E+00    0.1776694331E-01    0.8149045172E-02    0.1729191551E-02
    0.2900000000E+04    0.2182123986E-01    0.6935177765E+00    0.2252880934E-01    0.1036305550E-01    0.1132455741E-02
    0.3100000000E+04    0.2553321605E-01    0.6936560283E+00    0.2645305623E-01    0.1220772939E-01    0.7214953009E-03
    0.3300000000E+04    0.2813646087E-01    0.6937775267E+00    0.2925570942E-01    0.1354765965E-01    0.5076107653E-03
    0.3500000000E+04    0.2997990286E-01    0.6938851376E+00    0.3128690441E-01    0.1453925265E-01    0.4143047056E-03
    0.3700000000E+04    0.3142534242E-01    0.6939811086E+00    0.3291566206E-01    0.1535008638E-01    0.3771065346E-03
    0.3900000000E+04    0.3267487238E-01    0.6940672273E+00    0.3434918254E-01    0.1607474799E-01    0.3630683828E-03
    0.4100000000E+04    0.3382076261E-01    0.6941449332E+00    0.3568223887E-01    0.1675658851E-01    0.3581622034E-03
    0.4300000000E+04    0.3490263056E-01    0.6942153987E+00    0.3695543019E-01    0.1741414615E-01    0.3567989200E-03
    0.4500000000E+04    0.3593759920E-01    0.6942795878E+00    0.3818613017E-01    0.1805528367E-01    0.3567976703E-03
    0.4700000000E+04    0.3693352474E-01    0.6943383009E+00    0.3938212390E-01    0.1868344616E-01    0.3573105602E-03
    0.4900000000E+04    0.3789446050E-01    0.6943922080E+00    0.4054726198E-01    0.1930026530E-01    0.3580073577E-03
    0.1000000000E+04    0.1442902989E-02    0.6894634802E+00    0.1432200322E-02    0.6472833666E-03    0.4213632991E-02
    0.3000000000E+04    0.2382183427E-01    0.6935892055E+00    0.2463651966E-01    0.1135059625E-01    0.8994253700E-03
    0.5000000000E+04    0.3836261081E-01    0.6944175394E+00    0.4111898637E-01    0.1960471178E-01    0.3583806450E-03
    0.7000000000E+04    0.4628396285E-01    0.6947716555E+00    0.5126965847E-01    0.2522213767E-01    0.3651890233E-03
    0.9000000000E+04    0.5210607251E-01    0.6949676264E+00    0.5949836558E-01    0.3011904687E-01    0.3703853197E-03
    0.1100000000E+05    0.5647828934E-01    0.6950917719E+00    0.6633858979E-01    0.3447818710E-01    0.3745763981E-03
    0.1300000000E+05    0.5981329313E-01    0.6951772955E+00    0.7213908967E-01    0.3842184567E-01    0.3780954791E-03
    0.1500000000E+05    0.6238510894E-01    0.6952396854E+00    0.7713821414E-01    0.4203550421E-01    0.3811326031E-03
    0.1700000000E+05    0.6438220255E-01    0.6952871354E+00    0.8150472763E-01    0.4538100730E-01    0.3838066528E-03
    0.1900000000E+05    0.6593804680E-01    0.6953243845E+00    0.8536170914E-01    0.4850439991E-01    0.3861970555E-03
    0.2100000000E+05    0.6714953814E-01    0.6953543633E+00    0.8880119578E-01    0.5144080598E-01    0.3883595637E-03
    0.2300000000E+05    0.6808852722E-01    0.6953789809E+00    0.9189350723E-01    0.5421758182E-01    0.3903348461E-03
    0.2500000000E+05    0.6880927924E-01    0.6953995336E+00    0.9469338162E-01    0.5685642159E-01    0.3921534979E-03
    0.2700000000E+05    0.6935343982E-01    0.6954169326E+00    0.9724412981E-01    0.5937480258E-01    0.3938391258E-03
    0.2900000000E+05    0.6975342345E-01    0.6954318367E+00    0.9958051881E-01    0.6178700208E-01    0.3954103338E-03
    0.3100000000E+05    0.7003477679E-01    0.6954447340E+00    0.1017308175E+00    0.6410482813E-01    0.3968820484E-03
    0.3300000000E+05    0.7021785920E-01    0.6954559937E+00    0.1037182767E+00    0.6633815502E-01    0.3982664315E-03
    0.3500000000E+05    0.7031905863E-01    0.6954659001E+00    0.1055622183E+00    0.6849532224E-01    0.3995735263E-03
    0.3700000000E+05    0.7035168524E-01    0.6954746758E+00    0.1072788505E+00    0.7058343646E-01    0.4008117241E-03
    0.3900000000E+05    0.7032663750E-01    0.6954824974E+00    0.1088818850E+00    0.7260860322E-01    0.4019881090E-03
    0.4100000000E+05    0.7025290498E-01    0.6954895069E+00    0.1103830126E+00    0.7457610699E-01    0.4031087171E-03
    0.4300000000E+05    0.7013795242E-01    0.6954958195E+00    0.1117922713E+00    0.7649055270E-01    0.4041787347E-03
    0.4500000000E+05    0.6998801634E-01    0.6955015299E+00    0.1131183373E+00    0.7835597818E-01    0.4052026508E-03
    0.4700000000E+05    0.6980833612E-01    0.6955067165E+00    0.1143687543E+00    0.8017594434E-01    0.4061843773E-03
    0.4900000000E+05    0.6960333597E-01    0.6955114448E+00    0.1155501188E+00    0.8195360819E-01    0.4071273446E-03
    0.1000000000E+05    0.5444352777E-01    0.6950359793E+00    0.6306700640E-01    0.3235712568E-01    0.3725810021E-03
    0.3000000000E+05    0.6990755098E-01    0.6954385108E+00    0.1006773730E+00    0.6295705455E-01    0.3961578114E-03
    0.5000000000E+05    0.6949253673E-01    0.6955136546E+00    0.1161167457E+00    0.8282746774E-01    0.4075852529E-03
    0.7000000000E+05    0.6661026993E-01    0.6955434931E+00    0.1249216386E+00    0.9863016292E-01    0.4152856763E-03
    0.9000000000E+05    0.6330970462E-01    0.6955587194E+00    0.1306239321E+00    0.1121518347E+00    0.4211298425E-03
    0.1100000000E+06    0.6008459812E-01    0.6955675307E+00    0.1345534297E+00    0.1241549020E+00    0.4258543386E-03
    0.1300000000E+06    0.5706697044E-01    0.6955730124E+00    0.1373480456E+00    0.1350455585E+00    0.4298272522E-03
    0.1500000000E+06    0.5428281375E-01    0.6955765724E+00    0.1393614553E+00    0.1450707385E+00    0.4332596451E-03
    0.1700000000E+06    0.5172404383E-01    0.6955789387E+00    0.1408095827E+00    0.1543942863E+00    0.4362840426E-03
    0.1900000000E+06    0.4937209454E-01    0.6955805229E+00    0.1418336136E+00    0.1631318847E+00    0.4389892280E-03
    0.2100000000E+06    0.4720629780E-01    0.6955815735E+00    0.1425307125E+00    0.1713690816E+00    0.4414376494E-03
    0.2300000000E+06    0.4520689654E-01    0.6955822482E+00    0.1429704449E+00    0.1791714430E+00    0.4436749339E-03
    0.2500000000E+06    0.4335602777E-01    0.6955826515E+00    0.1432042030E+00    0.1865906668E+00    0.4457354520E-03
    0.2700000000E+06    0.4163791500E-01    0.6955828549E+00    0.1432709319E+00    0.1936684665E+00    0.4476457517E-03
    0.2900000000E+06    0.4003875938E-01    0.6955829088E+00    0.1432007703E+00    0.2004391477E+00    0.4494267739E-03
    0.3100000000E+06    0.3854652987E-01    0.6955828493E+00    0.1430174550E+00    0.2069313783E+00    0.4510953329E-03
    0.3300000000E+06    0.3715073441E-01    0.6955827030E+00    0.1427399625E+00    0.2131694443E+00    0.4526651379E-03
    0.3500000000E+06    0.3584220479E-01    0.6955824898E+00    0.1423836577E+00    0.2191741618E+00    0.4541475161E-03
    0.3700000000E+06    0.3461290603E-01    0.6955822247E+00    0.1419611201E+00    0.2249635554E+00    0.4555519363E-03
    0.3900000000E+06    0.3345577234E-01    0.6955819193E+00    0.1414827476E+00    0.2305533729E+00    0.4568863960E-03
    0.4100000000E+06    0.3236456776E-01    0.6955815824E+00    0.1409572083E+00    0.2359574813E+00    0.4581577123E-03
    0.4300000000E+06    0.3133376863E-01    0.6955812212E+00    0.1403917814E+00    0.2411881779E+00    0.4593717442E-03
    0.4500000000E+06    0.3035846461E-01    0.6955808413E+00    0.1397926202E+00    0.2462564361E+00    0.4605335648E-03
    0.4700000000E+06    0.2943427527E-01    0.6955804469E+00    0.1391649571E+00    0.2511721034E+00    0.4616475963E-03
    0.4900000000E+06    0.2855727976E-01    0.6955800416E+00    0.1385132638E+00    0.2559440622E+00    0.4627177175E-03
    0.1000000000E+06    0.6167550289E-01    0.6955636748E+00    0.1327610231E+00    0.1183126965E+00    0.4236039222E-03
    0.3000000000E+06    0.3927996806E-01    0.6955828914E+00    0.1431219746E+00    0.2037184608E+00    0.4502741913E-03
    0.5000000000E+06    0.2813536524E-01    0.6955798358E+00    0.1381796276E+00    0.2582786958E+00    0.4632373967E-03
    0.7000000000E+06    0.2148436878E-01    0.6955756090E+00    0.1309380869E+00    0.2990420701E+00    0.4719786517E-03
    0.9000000000E+06    0.1708076602E-01    0.6955716215E+00    0.1235463696E+00    0.3314126933E+00    0.4786147933E-03
    0.1100000000E+07    0.1397020228E-01    0.6955680281E+00    0.1165662901E+00    0.3580358128E+00    0.4839804685E-03
    0.1300000000E+07    0.1167219997E-01    0.6955648011E+00    0.1101413422E+00    0.3804554329E+00    0.4884930645E-03
    0.1500000000E+07    0.9917009117E-02    0.6955618874E+00    0.1042803148E+00    0.3996665439E+00    0.4923920154E-03
    0.1700000000E+07    0.8541212339E-02    0.6955592372E+00    0.9894658621E-01    0.4163528471E+00    0.4958277056E-03
    0.1900000000E+07    0.7440056225E-02    0.6955568092E+00    0.9409021160E-01    0.4310059427E+00    0.4989009043E-03
    0.2100000000E+07    0.6543383660E-02    0.6955545700E+00    0.8966013101E-01    0.4439915224E+00    0.5016825013E-03
    0.2300000000E+07    0.5802527298E-02    0.6955524929E+00    0.8560873677E-01    0.4555889407E+00    0.5042242981E-03
    0.2500000000E+07    0.5182736844E-02    0.6955505560E+00    0.8189333403E-01    0.4660162274E+00    0.5065653200E-03
    0.2700000000E+07    0.4658589789E-02    0.6955487416E+00    0.7847631682E-01    0.4754466002E+00    0.5087357132E-03
    0.2900000000E+07    0.4211098446E-02    0.6955470350E+00    0.7532483237E-01    0.4840197580E+00    0.5107592581E-03
    0.3100000000E+07    0.3825824857E-02    0.6955454240E+00    0.7241027040E-01    0.4918498305E+00    0.5126550501E-03
    0.3300000000E+07    0.3491617170E-02    0.6955438983E+00    0.6970772421E-01    0.4990311117E+00    0.5144386593E-03
    0.3500000000E+07    0.3199741589E-02    0.6955424493E+00    0.6719548472E-01    0.5056422825E+00    0.5161229507E-03
    0.3700000000E+07    0.2943273149E-02    0.6955410694E+00    0.6485458951E-01    0.5117495766E+00    0.5177186791E-03
    0.3900000000E+07    0.2716659946E-02    0.6955397522E+00    0.6266843134E-01    0.5174091915E+00    0.5192349284E-03
    0.4100000000E+07    0.2515406155E-02    0.6955384922E+00    0.6062242292E-01    0.5226691505E+00    0.5206794420E-03
    0.4300000000E+07    0.2335837913E-02    0.6955372845E+00    0.5870371198E-01    0.5275707580E+00    0.5220588753E-03
    0.4500000000E+07    0.2174928042E-02    0.6955361248E+00    0.5690093970E-01    0.5321497509E+00    0.5233789909E-03
    0.4700000000E+07    0.2030163177E-02    0.6955350095E+00    0.5520403621E-01    0.5364372173E+00    0.5246448125E-03
    0.4900000000E+07    0.1899441892E-02    0.6955339351E+00    0.5360404723E-01    0.5404603369E+00    0.5258607461E-03
    0.1000000000E+07    0.1540070505E-01    0.6955697759E+00    0.1199909831E+00    0.3453292027E+00    0.4814245497E-03
    0.3000000000E+07    0.4011446741E-02    0.6955462182E+00    0.7383957338E-01    0.4880213772E+00    0.5117220784E-03
    0.5000000000E+07    0.1838783740E-02    0.6955334123E+00    0.5283786586E-01    0.5423803422E+00    0.5264512374E-03
    0.7000000000E+07    0.1052863311E-02    0.6955245307E+00    0.4105897258E-01    0.5714063954E+00    0.5363837324E-03
    0.9000000000E+07    0.6813308211E-03    0.6955176970E+00    0.3354354264E-01    0.5894943871E+00    0.5439243725E-03
    0.1100000000E+08    0.4766489498E-03    0.6955121274E+00    0.2833761652E-01    0.6018507339E+00    0.5500214422E-03
    0.1300000000E+08    0.3520086189E-03    0.6955074182E+00    0.2452090239E-01    0.6108269454E+00    0.5551491789E-03
    0.1500000000E+08    0.2705280109E-03    0.6955033337E+00    0.2160403417E-01    0.6176423710E+00    0.5595796368E-03
    0.1700000000E+08    0.2143617407E-03    0.6954997239E+00    0.1930304316E-01    0.6229927500E+00    0.5634836915E-03
    0.1900000000E+08    0.1740180098E-03    0.6954964876E+00    0.1744192680E-01    0.6273041140E+00    0.5669758444E-03
    0.2100000000E+08    0.1440697604E-03    0.6954935529E+00    0.1590583321E-01    0.6308519514E+00    0.5701366466E-03
    0.2300000000E+08    0.1212315294E-03    0.6954908671E+00    0.1461664647E-01    0.6338223064E+00    0.5730249599E-03
    0.2500000000E+08    0.1034199398E-03    0.6954883902E+00    0.1351939739E-01    0.6363453508E+00    0.5756851285E-03
    0.2700000000E+08    0.8926213225E-04    0.6954860912E+00    0.1257428782E-01    0.6385148904E+00    0.5781514080E-03
