  Pressure (Pa) 22mC5-400 (mol/kg) 2mC6-400 (mol/kg) 3mC6-400 (mol/kg) 33mC5-400 (mol/kg) 23mC5-400 (mol/kg)
    0.1000000000E+01    0.5299160244E-03    0.3973147992E-02    0.3690498000E-02    0.1941015490E-03    0.3721894108E-03
    0.3000000000E+01    0.1572931954E-02    0.1165552741E-01    0.1084539879E-01    0.5694523459E-03    0.1104764102E-02
    0.5000000000E+01    0.2594286800E-02    0.1900436550E-01    0.1771493242E-01    0.9285604798E-03    0.1822133661E-02
    0.7000000000E+01    0.3594848652E-02    0.2604009496E-01    0.2431697686E-01    0.1272421212E-02    0.2524907374E-02
    0.9000000000E+01    0.4575438024E-02    0.3278150366E-01    0.3066792539E-01    0.1601949632E-02    0.3213661141E-02
    0.1100000000E+02    0.5536831115E-02    0.3924589850E-01    0.3678283832E-01    0.1917988647E-02    0.3888939760E-02
    0.1300000000E+02    0.6479762798E-02    0.4544924982E-01    0.4267557652E-01    0.2221316027E-02    0.4551259024E-02
    0.1500000000E+02    0.7404929373E-02    0.5140631913E-01    0.4835891905E-01    0.2512650633E-02    0.5201107655E-02
    0.1700000000E+02    0.8312991098E-02    0.5713077236E-01    0.5384466733E-01    0.2792657940E-02    0.5838949082E-02
    0.1900000000E+02    0.9204574526E-02    0.6263528049E-01    0.5914373732E-01    0.3061954943E-02    0.6465223076E-02
    0.2100000000E+02    0.1008027466E-01    0.6793160922E-01    0.6426624160E-01    0.3321114529E-02    0.7080347263E-02
    0.2300000000E+02    0.1094065693E-01    0.7303069899E-01    0.6922156230E-01    0.3570669379E-02    0.7684718523E-02
    0.2500000000E+02    0.1178625905E-01    0.7794273665E-01    0.7401841634E-01    0.3811115462E-02    0.8278714278E-02
    0.2700000000E+02    0.1261759274E-01    0.8267721972E-01    0.7866491371E-01    0.4042915167E-02    0.8862693693E-02
    0.2900000000E+02    0.1343514523E-01    0.8724301411E-01    0.8316860976E-01    0.4266500116E-02    0.9436998776E-02
    0.3100000000E+02    0.1423938083E-01    0.9164840608E-01    0.8753655206E-01    0.4482273699E-02    0.1000195541E-01
    0.3300000000E+02    0.1503074219E-01    0.9590114922E-01    0.9177532274E-01    0.4690613358E-02    0.1055787432E-01
    0.3500000000E+02    0.1580965164E-01    0.1000085067E+00    0.9589107648E-01    0.4891872656E-02    0.1110505192E-01
    0.3700000000E+02    0.1657651231E-01    0.1039772899E+00    0.9988957494E-01    0.5086383145E-02    0.1164377120E-01
    0.3900000000E+02    0.1733170926E-01    0.1078138929E+00    0.1037762179E+00    0.5274456061E-02    0.1217430242E-01
    0.4100000000E+02    0.1807561049E-01    0.1115243241E+00    0.1075560713E+00    0.5456383866E-02    0.1269690389E-01
    0.4300000000E+02    0.1880856787E-01    0.1151142355E+00    0.1112338931E+00    0.5632441648E-02    0.1321182261E-01
    0.4500000000E+02    0.1953091807E-01    0.1185889482E+00    0.1148141562E+00    0.5802888399E-02    0.1371929489E-01
    0.4700000000E+02    0.2024298334E-01    0.1219534767E+00    0.1183010700E+00    0.5967968181E-02    0.1421954692E-01
    0.4900000000E+02    0.2094507233E-01    0.1252125509E+00    0.1216985994E+00    0.6127911190E-02    0.1471279537E-01
    0.1000000000E+02    0.5058487240E-02    0.3604729992E-01    0.3375399334E-01    0.1761605255E-02    0.3552951951E-02
    0.3000000000E+02    0.1383889949E-01    0.8946526383E-01    0.8536912830E-01    0.4375339155E-02    0.9720625886E-02
    0.5000000000E+02    0.2129246862E-01    0.1268039477E+00    0.1233650216E+00    0.6206024790E-02    0.1495685845E-01
    0.7000000000E+02    0.2778238544E-01    0.1540574791E+00    0.1528041670E+00    0.7545431392E-02    0.1951658126E-01
    0.9000000000E+02    0.3354575576E-01    0.1745824276E+00    0.1764842468E+00    0.8556909397E-02    0.2356623030E-01
    0.1100000000E+03    0.3874456375E-01    0.1904062972E+00    0.1960830670E+00    0.9339122362E-02    0.2721951390E-01
    0.1300000000E+03    0.4349363593E-01    0.2028258058E+00    0.2126712710E+00    0.9955174554E-02    0.3055703955E-01
    0.1500000000E+03    0.4787690174E-01    0.2127082653E+00    0.2269662338E+00    0.1044727905E-01    0.3363772687E-01
    0.1700000000E+03    0.5195731150E-01    0.2206551061E+00    0.2394679533E+00    0.1084471448E-01    0.3650576901E-01
    0.1900000000E+03    0.5578313322E-01    0.2270959896E+00    0.2505364381E+00    0.1116840355E-01    0.3919505248E-01
    0.2100000000E+03    0.5939208904E-01    0.2323456361E+00    0.2604380728E+00    0.1143367729E-01    0.4173206069E-01
    0.2300000000E+03    0.6281415368E-01    0.2366395371E+00    0.2693745982E+00    0.1165201213E-01    0.4413783827E-01
    0.2500000000E+03    0.6607349672E-01    0.2401571695E+00    0.2775018872E+00    0.1183215892E-01    0.4642935454E-01
    0.2700000000E+03    0.6918986141E-01    0.2430375287E+00    0.2849424896E+00    0.1198089845E-01    0.4862047136E-01
    0.2900000000E+03    0.7217956322E-01    0.2453897875E+00    0.2917942415E+00    0.1210355988E-01    0.5072264412E-01
    0.3100000000E+03    0.7505622593E-01    0.2473007728E+00    0.2981363138E+00    0.1220438443E-01    0.5274543847E-01
    0.3300000000E+03    0.7783133303E-01    0.2488403143E+00    0.3040335513E+00    0.1228678555E-01    0.5469691743E-01
    0.3500000000E+03    0.8051464678E-01    0.2500651369E+00    0.3095396426E+00    0.1235353827E-01    0.5658393554E-01
    0.3700000000E+03    0.8311453087E-01    0.2510217385E+00    0.3146994753E+00    0.1240691929E-01    0.5841236544E-01
    0.3900000000E+03    0.8563820185E-01    0.2517485475E+00    0.3195509118E+00    0.1244881191E-01    0.6018727434E-01
    0.4100000000E+03    0.8809192718E-01    0.2522775618E+00    0.3241261470E+00    0.1248078582E-01    0.6191306309E-01
    0.4300000000E+03    0.9048118291E-01    0.2526356065E+00    0.3284527583E+00    0.1250415836E-01    0.6359357684E-01
    0.4500000000E+03    0.9281078022E-01    0.2528453123E+00    0.3325545278E+00    0.1252004211E-01    0.6523219394E-01
    0.4700000000E+03    0.9508496795E-01    0.2529258811E+00    0.3364520922E+00    0.1252938223E-01    0.6683189790E-01
    0.4900000000E+03    0.9730751637E-01    0.2528936927E+00    0.3401634619E+00    0.1253298595E-01    0.6839533618E-01
    0.1000000000E+03    0.3620767884E-01    0.1829882753E+00    0.1867164354E+00    0.8972113202E-02    0.2543676593E-01
    0.3000000000E+03    0.7363126203E-01    0.2463957280E+00    0.2950246408E+00    0.1215647153E-01    0.5174342827E-01
    0.5000000000E+03    0.9840049038E-01    0.2528397825E+00    0.3419543382E+00    0.1253285713E-01    0.6916420321E-01
    0.7000000000E+03    0.1182012301E+00    0.2483736102E+00    0.3709794294E+00    0.1235441954E-01    0.8309566115E-01
    0.9000000000E+03    0.1351591909E+00    0.2409093188E+00    0.3916877469E+00    0.1201356138E-01    0.9503048795E-01
    0.1100000000E+04    0.1501691786E+00    0.2326725442E+00    0.4076434499E+00    0.1162324194E-01    0.1055970246E+00
    0.1300000000E+04    0.1637000997E+00    0.2244386844E+00    0.4205412368E+00    0.1122432792E-01    0.1151245279E+00
    0.1500000000E+04    0.1760347123E+00    0.2165032867E+00    0.4313142187E+00    0.1083342091E-01    0.1238115322E+00
    0.1700000000E+04    0.1873614493E+00    0.2089769434E+00    0.4405290350E+00    0.1045753276E-01    0.1317903345E+00
    0.1900000000E+04    0.1978156879E+00    0.2018920115E+00    0.4485547802E+00    0.1009946669E-01    0.1391559776E+00
    0.2100000000E+04    0.2075004824E+00    0.1952460686E+00    0.4556448865E+00    0.9760047895E-02    0.1459808103E+00
    0.2300000000E+04    0.2164978730E+00    0.1890211337E+00    0.4619806644E+00    0.9439134525E-02    0.1523224291E+00
    0.2500000000E+04    0.2248754631E+00    0.1831926719E+00    0.4676961649E+00    0.9136107481E-02    0.1582282970E+00
    0.2700000000E+04    0.2326904479E+00    0.1777339707E+00    0.4728932053E+00    0.8850119950E-02    0.1637385723E+00
    0.2900000000E+04    0.2399921970E+00    0.1726182991E+00    0.4776508772E+00    0.8580229218E-02    0.1688879215E+00
    0.3100000000E+04    0.2468239754E+00    0.1678199612E+00    0.4820317994E+00    0.8325467946E-02    0.1737067275E+00
    0.3300000000E+04    0.2532241344E+00    0.1633147800E+00    0.4860863648E+00    0.8084883009E-02    0.1782219255E+00
    0.3500000000E+04    0.2592269648E+00    0.1590802824E+00    0.4898557049E+00    0.7857556418E-02    0.1824576016E+00
    0.3700000000E+04    0.2648633286E+00    0.1550957281E+00    0.4933738113E+00    0.7642616048E-02    0.1864354357E+00
    0.3900000000E+04    0.2701611410E+00    0.1513420567E+00    0.4966690837E+00    0.7439240497E-02    0.1901750403E+00
    0.4100000000E+04    0.2751457501E+00    0.1478017947E+00    0.4997654821E+00    0.7246660500E-02    0.1936942262E+00
    0.4300000000E+04    0.2798402426E+00    0.1444589445E+00    0.5026833976E+00    0.7064158331E-02    0.1970092169E+00
    0.4500000000E+04    0.2842656963E+00    0.1412988686E+00    0.5054403209E+00    0.6891066057E-02    0.2001348261E+00
    0.4700000000E+04    0.2884413927E+00    0.1383081762E+00    0.5080513618E+00    0.6726763139E-02    0.2030846065E+00
    0.4900000000E+04    0.2923849992E+00    0.1354746141E+00    0.5105296579E+00    0.6570673721E-02    0.2058709775E+00
    0.1000000000E+04    0.1428723400E+00    0.2368219112E+00    0.4001285347E+00    0.1182117049E-01    0.1004599761E+00
    0.3000000000E+04    0.2434643317E+00    0.1701810133E+00    0.4798850356E+00    0.8451017612E-02    0.1713368861E+00
    0.5000000000E+04    0.2942748875E+00    0.1341132138E+00    0.5117226743E+00    0.6495540640E-02    0.2072064831E+00
    0.7000000000E+04    0.3231796547E+00    0.1128722762E+00    0.5307739172E+00    0.5313937229E-02    0.2276522740E+00
    0.9000000000E+04    0.3410136464E+00    0.9907186355E-01    0.5439873226E+00    0.4541840186E-02    0.2402945054E+00
    0.1100000000E+05    0.3527732128E+00    0.8939429388E-01    0.5539117854E+00    0.4002909007E-02    0.2486503046E+00
    0.1300000000E+05    0.3609543452E+00    0.8220208940E-01    0.5617516185E+00    0.3606391099E-02    0.2544781337E+00
    0.1500000000E+05    0.3668969020E+00    0.7661432564E-01    0.5681652100E+00    0.3302234213E-02    0.2587226832E+00
    0.1700000000E+05    0.3713671854E+00    0.7212117137E-01    0.5735489543E+00    0.3061041876E-02    0.2619246697E+00
    0.1900000000E+05    0.3748279651E+00    0.6840903378E-01    0.5781585694E+00    0.2864586021E-02    0.2644108899E+00
    0.2100000000E+05    0.3775719495E+00    0.6527498241E-01    0.5821678383E+00    0.2701029248E-02    0.2663882140E+00
    0.2300000000E+05    0.3797917291E+00    0.6258199401E-01    0.5856997746E+00    0.2562376024E-02    0.2679928670E+00
    0.2500000000E+05    0.3816183751E+00    0.6023416616E-01    0.5888443595E+00    0.2443041275E-02    0.2693176380E+00
    0.2700000000E+05    0.3831437273E+00    0.5816229459E-01    0.5916692145E+00    0.2339009324E-02    0.2704275999E+00
    0.2900000000E+05    0.3844337867E+00    0.5631511420E-01    0.5942263221E+00    0.2247319746E-02    0.2713695590E+00
    0.3100000000E+05    0.3855370471E+00    0.5465377799E-01    0.5965564201E+00    0.2165741925E-02    0.2721779377E+00
    0.3300000000E+05    0.3864898415E+00    0.5314826180E-01    0.5986919689E+00    0.2092562645E-02    0.2728785501E+00
    0.3500000000E+05    0.3873198665E+00    0.5177495493E-01    0.6006592097E+00    0.2026443621E-02    0.2734910932E+00
    0.3700000000E+05    0.3880485639E+00    0.5051500408E-01    0.6024796275E+00    0.1966323621E-02    0.2740308306E+00
    0.3900000000E+05    0.3886927642E+00    0.4935314895E-01    0.6041710126E+00    0.1911349729E-02    0.2745097553E+00
    0.4100000000E+05    0.3892658449E+00    0.4827688690E-01    0.6057482441E+00    0.1860828145E-02    0.2749374093E+00
    0.4300000000E+05    0.3897785590E+00    0.4727586261E-01    0.6072238797E+00    0.1814188324E-02    0.2753214704E+00
    0.4500000000E+05    0.3902396398E+00    0.4634141484E-01    0.6086086040E+00    0.1770956443E-02    0.2756681811E+00
    0.4700000000E+05    0.3906562468E+00    0.4546623467E-01    0.6099115756E+00    0.1730735457E-02    0.2759826641E+00
    0.4900000000E+05    0.3910343001E+00    0.4464410445E-01    0.6111406982E+00    0.1693189931E-02    0.2762691601E+00
    0.1000000000E+05    0.3474593254E+00    0.9384470656E-01    0.5492673078E+00    0.4250205993E-02    0.2448719813E+00
    0.3000000000E+05    0.3850062591E+00    0.5546326614E-01    0.5954175522E+00    0.2205384133E-02    0.2717886648E+00
    0.5000000000E+05    0.3912104439E+00    0.4425123779E-01    0.6117297464E+00    0.1675329553E-02    0.2764030420E+00
    0.7000000000E+05    0.3935636686E+00    0.3821037038E-01    0.6209071682E+00    0.1407296791E-02    0.2782252770E+00
    0.9000000000E+05    0.3947672142E+00    0.3424647308E-01    0.6270247460E+00    0.1238038424E-02    0.2791973043E+00
    0.1100000000E+06    0.3954863467E+00    0.3137289493E-01    0.6314906666E+00    0.1118508276E-02    0.2798036728E+00
    0.1300000000E+06    0.3959590545E+00    0.2915928669E-01    0.6349425668E+00    0.1028195457E-02    0.2802200695E+00
    0.1500000000E+06    0.3962904538E+00    0.2738254882E-01    0.6377178546E+00    0.9567933079E-03    0.2805251692E+00
    0.1700000000E+06    0.3965338020E+00    0.2591343041E-01    0.6400144319E+00    0.8984730929E-03    0.2807593961E+00
    0.1900000000E+06    0.3967188292E+00    0.2467097445E-01    0.6419572377E+00    0.8496538134E-03    0.2809456399E+00
    0.2100000000E+06    0.3968633768E+00    0.2360144380E-01    0.6436296411E+00    0.8079959902E-03    0.2810978361E+00
    0.2300000000E+06    0.3969787691E+00    0.2266752936E-01    0.6450897336E+00    0.7718969338E-03    0.2812249594E+00
    0.2500000000E+06    0.3970725234E+00    0.2184238121E-01    0.6463794271E+00    0.7402163910E-03    0.2813330549E+00
    0.2700000000E+06    0.3971498158E+00    0.2110610076E-01    0.6475298382E+00    0.7121176947E-03    0.2814263467E+00
    0.2900000000E+06    0.3972143207E+00    0.2044357569E-01    0.6485646289E+00    0.6869709755E-03    0.2815078782E+00
    0.3100000000E+06    0.3972687147E+00    0.1984308829E-01    0.6495021627E+00    0.6642916478E-03    0.2815798993E+00
    0.3300000000E+06    0.3973149908E+00    0.1929538983E-01    0.6503569427E+00    0.6436999064E-03    0.2816441107E+00
    0.3500000000E+06    0.3973546624E+00    0.1879306680E-01    0.6511405992E+00    0.6248932381E-03    0.2817018227E+00
    0.3700000000E+06    0.3973888972E+00    0.1833009577E-01    0.6518625842E+00    0.6076272740E-03    0.2817540620E+00
    0.3900000000E+06    0.3974186102E+00    0.1790152393E-01    0.6525306709E+00    0.5917021448E-03    0.2818016451E+00
    0.4100000000E+06    0.3974445277E+00    0.1750323520E-01    0.6531513200E+00    0.5769525604E-03    0.2818452300E+00
    0.4300000000E+06    0.3974672330E+00    0.1713177609E-01    0.6537299518E+00    0.5632404687E-03    0.2818853529E+00
    0.4500000000E+06    0.3974871994E+00    0.1678422409E-01    0.6542711533E+00    0.5504495352E-03    0.2819224559E+00
    0.4700000000E+06    0.3975048148E+00    0.1645808662E-01    0.6547788362E+00    0.5384809338E-03    0.2819569064E+00
    0.4900000000E+06    0.3975203999E+00    0.1615122274E-01    0.6552563598E+00    0.5272500933E-03    0.2819890131E+00
    0.1000000000E+06    0.3951676940E+00    0.3270732773E-01    0.6294142318E+00    0.1173689973E-02    0.2795317488E+00
    0.3000000000E+06    0.3972426438E+00    0.2013620465E-01    0.6490445693E+00    0.6753487096E-03    0.2815449606E+00
    0.5000000000E+06    0.3975275163E+00    0.1600443007E-01    0.6554847350E+00    0.5218881656E-03    0.2820042706E+00
    0.7000000000E+06    0.3976094533E+00    0.1373943342E-01    0.6590037072E+00    0.4400368808E-03    0.2822327568E+00
    0.9000000000E+06    0.3976343504E+00    0.1225187864E-01    0.6613094441E+00    0.3872218629E-03    0.2823779954E+00
    0.1100000000E+07    0.3976374817E+00    0.1117675110E-01    0.6629730170E+00    0.3495461759E-03    0.2824822427E+00
    0.1300000000E+07    0.3976309903E+00    0.1035182030E-01    0.6642477211E+00    0.3209373739E-03    0.2825626600E+00
    0.1500000000E+07    0.3976199393E+00    0.9692352350E-02    0.6652656273E+00    0.2982636559E-03    0.2826277058E+00
    0.1700000000E+07    0.3976067068E+00    0.9149134203E-02    0.6661033314E+00    0.2797243691E-03    0.2826821037E+00
    0.1900000000E+07    0.3975925000E+00    0.8691337861E-02    0.6668087560E+00    0.2642010055E-03    0.2827287327E+00
    0.2100000000E+07    0.3975779641E+00    0.8298523408E-02    0.6674136417E+00    0.2509572945E-03    0.2827694657E+00
    0.2300000000E+07    0.3975634540E+00    0.7956524461E-02    0.6679399671E+00    0.2394861621E-03    0.2828055836E+00
    0.2500000000E+07    0.3975491671E+00    0.7655167024E-02    0.6684035038E+00    0.2294254813E-03    0.2828379980E+00
    0.2700000000E+07    0.3975352114E+00    0.7386927696E-02    0.6688159061E+00    0.2205088224E-03    0.2828673794E+00
    0.2900000000E+07    0.3975216429E+00    0.7146105492E-02    0.6691859994E+00    0.2125352228E-03    0.2828942339E+00
    0.3100000000E+07    0.3975084869E+00    0.6928289829E-02    0.6695206076E+00    0.2053498632E-03    0.2829189528E+00
    0.3300000000E+07    0.3974957503E+00    0.6730007021E-02    0.6698251021E+00    0.1988312870E-03    0.2829418440E+00
    0.3500000000E+07    0.3974834288E+00    0.6548478517E-02    0.6701037773E+00    0.1928826948E-03    0.2829631545E+00
    0.3700000000E+07    0.3974715119E+00    0.6381451342E-02    0.6703601138E+00    0.1874258630E-03    0.2829830848E+00
    0.3900000000E+07    0.3974599850E+00    0.6227076568E-02    0.6705969667E+00    0.1823968006E-03    0.2830018000E+00
    0.4100000000E+07    0.3974488321E+00    0.6083820496E-02    0.6708167035E+00    0.1777425854E-03    0.2830194377E+00
    0.4300000000E+07    0.3974380358E+00    0.5950398619E-02    0.6710213062E+00    0.1734190193E-03    0.2830361135E+00
    0.4500000000E+07    0.3974275793E+00    0.5825725771E-02    0.6712124486E+00    0.1693888630E-03    0.2830519256E+00
    0.4700000000E+07    0.3974174454E+00    0.5708877951E-02    0.6713915556E+00    0.1656204891E-03    0.2830669579E+00
    0.4900000000E+07    0.3974076180E+00    0.5599062744E-02    0.6715598489E+00    0.1620868396E-03    0.2830812830E+00
    0.1000000000E+07    0.3976376221E+00    0.1167551709E-01    0.6622015752E+00    0.3669708943E-03    0.2824338686E+00
    0.3000000000E+07    0.3975150126E+00    0.7034557645E-02    0.6693573744E+00    0.2088522684E-03    0.2829068394E+00
    0.5000000000E+07    0.3974028144E+00    0.5546574906E-02    0.6716402755E+00    0.1604006263E-03    0.2830882002E+00
    0.7000000000E+07    0.3973194932E+00    0.4740329992E-02    0.6728747092E+00    0.1347342154E-03    0.2832010970E+00
    0.9000000000E+07    0.3972539191E+00    0.4214590665E-02    0.6736786605E+00    0.1182543484E-03    0.2832830985E+00
    0.1100000000E+08    0.3971999901E+00    0.3836497387E-02    0.6742563270E+00    0.1065418341E-03    0.2833474873E+00
    0.1300000000E+08    0.3971542328E+00    0.3547469481E-02    0.6746976212E+00    0.9767374730E-04    0.2834004930E+00
    0.1500000000E+08    0.3971145116E+00    0.3317089293E-02    0.6750491834E+00    0.9066188495E-04    0.2834455361E+00
    0.1700000000E+08    0.3970794261E+00    0.3127771283E-02    0.6753379571E+00    0.8493977960E-04    0.2834846968E+00
    0.1900000000E+08    0.3970480107E+00    0.2968540441E-02    0.6755807471E+00    0.8015646341E-04    0.2835193342E+00
    0.2100000000E+08    0.3970195721E+00    0.2832142517E-02    0.6757886551E+00    0.7608142144E-04    0.2835503851E+00
    0.2300000000E+08    0.3969935960E+00    0.2713563020E-02    0.6759693518E+00    0.7255620575E-04    0.2835785226E+00
    0.2500000000E+08    0.3969696906E+00    0.2609208852E-02    0.6761283314E+00    0.6946785570E-04    0.2836042467E+00
    0.2700000000E+08    0.3969475504E+00    0.2516428318E-02    0.6762696470E+00    0.6673339002E-04    0.2836279387E+00
