  Pressure (Pa) 22mC5-400 (mol/kg) 2mC6-400 (mol/kg) 3mC6-400 (mol/kg) 33mC5-400 (mol/kg) 23mC5-400 (mol/kg)
    0.1000000000E+01    0.5304306402E-03    0.3176684326E-02    0.5265347847E-02    0.1293297489E-03    0.2794129972E-03
    0.3000000000E+01    0.1577447325E-02    0.9308875797E-02    0.1543485824E-01    0.3790319435E-03    0.8309503747E-03
    0.5000000000E+01    0.2606519248E-02    0.1516277080E-01    0.2515100840E-01    0.6174643219E-03    0.1373040531E-02
    0.7000000000E+01    0.3618239296E-02    0.2075672211E-01    0.3444491823E-01    0.8453708425E-03    0.1905995562E-02
    0.9000000000E+01    0.4613173534E-02    0.2610746443E-01    0.4334489180E-01    0.1063429773E-02    0.2430113441E-02
    0.1100000000E+02    0.5591862715E-02    0.3123029184E-01    0.5187672985E-01    0.1272260905E-02    0.2945678825E-02
    0.1300000000E+02    0.6554823707E-02    0.3613921219E-01    0.6006400162E-01    0.1472431827E-02    0.3452963793E-02
    0.1500000000E+02    0.7502550804E-02    0.4084708182E-01    0.6792828186E-01    0.1664463397E-02    0.3952228544E-02
    0.1700000000E+02    0.8435516967E-02    0.4536572359E-01    0.7548935833E-01    0.1848834546E-02    0.4443722050E-02
    0.1900000000E+02    0.9354174977E-02    0.4970603051E-01    0.8276541377E-01    0.2025986477E-02    0.4927682657E-02
    0.2100000000E+02    0.1025895851E-01    0.5387805699E-01    0.8977318611E-01    0.2196326381E-02    0.5404338660E-02
    0.2300000000E+02    0.1115028316E-01    0.5789109949E-01    0.9652810985E-01    0.2360230707E-02    0.5873908828E-02
    0.2500000000E+02    0.1202854736E-01    0.6175376787E-01    0.1030444410E+00    0.2518048062E-02    0.6336602907E-02
    0.2700000000E+02    0.1289413330E-01    0.6547404882E-01    0.1093353683E+00    0.2670101787E-02    0.6792622087E-02
    0.2900000000E+02    0.1374740774E-01    0.6905936221E-01    0.1154131111E+00    0.2816692241E-02    0.7242159436E-02
    0.3100000000E+02    0.1458872279E-01    0.7251661143E-01    0.1212890080E+00    0.2958098850E-02    0.7685400316E-02
    0.3300000000E+02    0.1541841666E-01    0.7585222838E-01    0.1269735949E+00    0.3094581928E-02    0.8122522765E-02
    0.3500000000E+02    0.1623681435E-01    0.7907221376E-01    0.1324766750E+00    0.3226384317E-02    0.8553697867E-02
    0.3700000000E+02    0.1704422826E-01    0.8218217328E-01    0.1378073821E+00    0.3353732850E-02    0.8979090084E-02
    0.3900000000E+02    0.1784095886E-01    0.8518735019E-01    0.1429742368E+00    0.3476839678E-02    0.9398857589E-02
    0.4100000000E+02    0.1862729522E-01    0.8809265465E-01    0.1479851977E+00    0.3595903458E-02    0.9813152557E-02
    0.4300000000E+02    0.1940351557E-01    0.9090269025E-01    0.1528477070E+00    0.3711110427E-02    0.1022212146E-01
    0.4500000000E+02    0.2016988783E-01    0.9362177795E-01    0.1575687323E+00    0.3822635378E-02    0.1062590533E-01
    0.4700000000E+02    0.2092667004E-01    0.9625397786E-01    0.1621548035E+00    0.3930642536E-02    0.1102464003E-01
    0.4900000000E+02    0.2167411089E-01    0.9880310896E-01    0.1666120477E+00    0.4035286365E-02    0.1141845645E-01
    0.1000000000E+02    0.5104515908E-02    0.2869646353E-01    0.4765530532E-01    0.1168962184E-02    0.2688947904E-02
    0.3000000000E+02    0.1416953873E-01    0.7080358229E-01    0.1183756139E+00    0.2888026829E-02    0.7464555640E-02
    0.5000000000E+02    0.2204440354E-01    0.1000476556E+00    0.1687941717E+00    0.4086392812E-02    0.1161355992E-01
    0.7000000000E+02    0.2901380984E-01    0.1213483389E+00    0.2069003843E+00    0.4963119531E-02    0.1528583492E-01
    0.9000000000E+02    0.3527519986E-01    0.1373846592E+00    0.2369361319E+00    0.5626532376E-02    0.1858532335E-01
    0.1100000000E+03    0.4097017599E-01    0.1497501759E+00    0.2613702547E+00    0.6141043522E-02    0.2158657341E-01
    0.1300000000E+03    0.4620318807E-01    0.1594560043E+00    0.2817417097E+00    0.6547519024E-02    0.2434457543E-01
    0.1500000000E+03    0.5105314333E-01    0.1671760927E+00    0.2990623329E+00    0.6873201409E-02    0.2690087322E-01
    0.1700000000E+03    0.5558088988E-01    0.1733774454E+00    0.3140263723E+00    0.7136974134E-02    0.2928750339E-01
    0.1900000000E+03    0.5983419523E-01    0.1783940018E+00    0.3271270947E+00    0.7352346681E-02    0.3152961618E-01
    0.2100000000E+03    0.6385115030E-01    0.1824708386E+00    0.3387253226E+00    0.7529239817E-02    0.3364726735E-01
    0.2300000000E+03    0.6766255329E-01    0.1857917926E+00    0.3490915839E+00    0.7675100939E-02    0.3565667323E-01
    0.2500000000E+03    0.7129361499E-01    0.1884973615E+00    0.3584330420E+00    0.7795626734E-02    0.3757110839E-01
    0.2700000000E+03    0.7476520180E-01    0.1906966676E+00    0.3669112723E+00    0.7895246099E-02    0.3940156008E-01
    0.2900000000E+03    0.7809475720E-01    0.1924756667E+00    0.3746543325E+00    0.7977451518E-02    0.4115721337E-01
    0.3100000000E+03    0.8129699541E-01    0.1939029124E+00    0.3817651623E+00    0.8045031745E-02    0.4284581630E-01
    0.3300000000E+03    0.8438443066E-01    0.1950336855E+00    0.3883275586E+00    0.8100238529E-02    0.4447395858E-01
    0.3500000000E+03    0.8736778625E-01    0.1959130053E+00    0.3944105065E+00    0.8144908218E-02    0.4604728690E-01
    0.3700000000E+03    0.9025631424E-01    0.1965778613E+00    0.4000713762E+00    0.8180551888E-02    0.4757067332E-01
    0.3900000000E+03    0.9305804799E-01    0.1970588900E+00    0.4053583167E+00    0.8208423097E-02    0.4904834816E-01
    0.4100000000E+03    0.9578000357E-01    0.1973816517E+00    0.4103120757E+00    0.8229569483E-02    0.5048400608E-01
    0.4300000000E+03    0.9842834185E-01    0.1975676138E+00    0.4149674002E+00    0.8244872521E-02    0.5188089146E-01
    0.4500000000E+03    0.1010085000E+00    0.1976349163E+00    0.4193541261E+00    0.8255078486E-02    0.5324186754E-01
    0.4700000000E+03    0.1035252990E+00    0.1975989734E+00    0.4234980374E+00    0.8260822795E-02    0.5456947315E-01
    0.4900000000E+03    0.1059830321E+00    0.1974729510E+00    0.4274215471E+00    0.8262649336E-02    0.5586596924E-01
    0.1000000000E+03    0.3818625228E-01    0.1439530724E+00    0.2497414486E+00    0.5899442369E-02    0.2011941790E-01
    0.3000000000E+03    0.7971096254E-01    0.1932295324E+00    0.3782831475E+00    0.8012918066E-02    0.4200945991E-01
    0.5000000000E+03    0.1071909648E+00    0.1973797549E+00    0.4293068708E+00    0.8262242249E-02    0.5650319145E-01
    0.7000000000E+03    0.1289976199E+00    0.1928269890E+00    0.4591148173E+00    0.8133293748E-02    0.6800880880E-01
    0.9000000000E+03    0.1475741248E+00    0.1859422610E+00    0.4794731178E+00    0.7892004666E-02    0.7781297427E-01
    0.1100000000E+04    0.1639631670E+00    0.1785189200E+00    0.4946126709E+00    0.7616046347E-02    0.8646481147E-01
    0.1300000000E+04    0.1787115895E+00    0.1711743808E+00    0.5064916231E+00    0.7333776458E-02    0.9425230536E-01
    0.1500000000E+04    0.1921473321E+00    0.1641376627E+00    0.5161629002E+00    0.7056807350E-02    0.1013481521E+00
    0.1700000000E+04    0.2044869157E+00    0.1574893487E+00    0.5242523500E+00    0.6790095186E-02    0.1078663679E+00
    0.1900000000E+04    0.2158841129E+00    0.1512481899E+00    0.5311597035E+00    0.6535661542E-02    0.1138879237E+00
    0.2100000000E+04    0.2264545206E+00    0.1454061234E+00    0.5371544886E+00    0.6294142182E-02    0.1194736867E+00
    0.2300000000E+04    0.2362890146E+00    0.1399435886E+00    0.5424263021E+00    0.6065490962E-02    0.1246715076E+00
    0.2500000000E+04    0.2454615993E+00    0.1348365869E+00    0.5471131290E+00    0.5849321668E-02    0.1295203541E+00
    0.2700000000E+04    0.2540342281E+00    0.1300600364E+00    0.5513182381E+00    0.5645082594E-02    0.1340528499E+00
    0.2900000000E+04    0.2620598952E+00    0.1255893716E+00    0.5551207433E+00    0.5452149080E-02    0.1382969027E+00
    0.3100000000E+04    0.2695846958E+00    0.1214012830E+00    0.5585824674E+00    0.5269873806E-02    0.1422767888E+00
    0.3300000000E+04    0.2766492472E+00    0.1174740229E+00    0.5617525523E+00    0.5097614451E-02    0.1460139016E+00
    0.3500000000E+04    0.2832897005E+00    0.1137874904E+00    0.5646706427E+00    0.4934748813E-02    0.1495272839E+00
    0.3700000000E+04    0.2895384834E+00    0.1103232045E+00    0.5673691403E+00    0.4780682805E-02    0.1528340188E+00
    0.3900000000E+04    0.2954248607E+00    0.1070642240E+00    0.5698748331E+00    0.4634854310E-02    0.1559495248E+00
    0.4100000000E+04    0.3009753691E+00    0.1039950424E+00    0.5722100959E+00    0.4496734611E-02    0.1588877847E+00
    0.4300000000E+04    0.3062141632E+00    0.1011014753E+00    0.5743937896E+00    0.4365828377E-02    0.1616615272E+00
    0.4500000000E+04    0.3111632956E+00    0.9837054943E-01    0.5764419456E+00    0.4241672809E-02    0.1642823746E+00
    0.4700000000E+04    0.3158429503E+00    0.9579039573E-01    0.5783682926E+00    0.4123836305E-02    0.1667609655E+00
    0.4900000000E+04    0.3202716384E+00    0.9335014998E-01    0.5801846681E+00    0.4011916859E-02    0.1691070579E+00
    0.1000000000E+04    0.1560008214E+00    0.1822454468E+00    0.4875426498E+00    0.7755994880E-02    0.8226120621E-01
    0.3000000000E+04    0.2658822503E+00    0.1234614028E+00    0.5568908772E+00    0.5359719647E-02    0.1403184690E+00
    0.5000000000E+04    0.3223972393E+00    0.9217934959E-01    0.5810548800E+00    0.3958058078E-02    0.1702332477E+00
    0.7000000000E+04    0.3551998677E+00    0.7409808439E-01    0.5945893689E+00    0.3113827434E-02    0.1876286410E+00
    0.9000000000E+04    0.3757573520E+00    0.6263902095E-01    0.6035851118E+00    0.2568646332E-02    0.1985522043E+00
    0.1100000000E+05    0.3894717999E+00    0.5482445582E-01    0.6101372528E+00    0.2194422280E-02    0.2058553603E+00
    0.1300000000E+05    0.3990974979E+00    0.4917988384E-01    0.6151921290E+00    0.1924322450E-02    0.2109930444E+00
    0.1500000000E+05    0.4061373443E+00    0.4491398911E-01    0.6192496003E+00    0.1721264386E-02    0.2147597398E+00
    0.1700000000E+05    0.4114619745E+00    0.4157192753E-01    0.6226024207E+00    0.1563453828E-02    0.2176160295E+00
    0.1900000000E+05    0.4156025111E+00    0.3887668873E-01    0.6254351745E+00    0.1437416315E-02    0.2198430941E+00
    0.2100000000E+05    0.4188976334E+00    0.3665114346E-01    0.6278708884E+00    0.1334448792E-02    0.2216203668E+00
    0.2300000000E+05    0.4215716586E+00    0.3477726051E-01    0.6299951966E+00    0.1248714554E-02    0.2230667822E+00
    0.2500000000E+05    0.4237780899E+00    0.3317357475E-01    0.6318698223E+00    0.1176170167E-02    0.2242637921E+00
    0.2700000000E+05    0.4256249832E+00    0.3178213509E-01    0.6335405490E+00    0.1113934632E-02    0.2252687788E+00
    0.2900000000E+05    0.4271902991E+00    0.3056062582E-01    0.6350421618E+00    0.1059904254E-02    0.2261231768E+00
    0.3100000000E+05    0.4285315141E+00    0.2947743602E-01    0.6364016348E+00    0.1012509517E-02    0.2268575589E+00
    0.3300000000E+05    0.4296918186E+00    0.2850847455E-01    0.6376402556E+00    0.9705569923E-03    0.2274949188E+00
    0.3500000000E+05    0.4307042231E+00    0.2763505403E-01    0.6387750829E+00    0.9331237782E-03    0.2280528455E+00
    0.3700000000E+05    0.4315943423E+00    0.2684244953E-01    0.6398199707E+00    0.8994853491E-03    0.2285449998E+00
    0.3900000000E+05    0.4323823244E+00    0.2611889459E-01    0.6407863054E+00    0.8690651724E-03    0.2289821365E+00
    0.4100000000E+05    0.4330842132E+00    0.2545486782E-01    0.6416835443E+00    0.8413988522E-03    0.2293728277E+00
    0.4300000000E+05    0.4337129274E+00    0.2484257667E-01    0.6425196177E+00    0.8161081659E-03    0.2297239822E+00
    0.4500000000E+05    0.4342789754E+00    0.2427557765E-01    0.6433012326E+00    0.7928819653E-03    0.2300412247E+00
    0.4700000000E+05    0.4347909840E+00    0.2374849283E-01    0.6440341054E+00    0.7714619249E-03    0.2303291778E+00
    0.4900000000E+05    0.4352560961E+00    0.2325679523E-01    0.6447231432E+00    0.7516317662E-03    0.2305916723E+00
    0.1000000000E+05    0.3832576308E+00    0.5839052955E-01    0.6070924867E+00    0.2365289886E-02    0.2025441980E+00
    0.3000000000E+05    0.4278859410E+00    0.3000339409E-01    0.6357382216E+00    0.1035459398E-02    0.2265037848E+00
    0.5000000000E+05    0.4354729681E+00    0.2302299336E-01    0.6450525717E+00    0.7422547329E-03    0.2307143937E+00
    0.7000000000E+05    0.4383824043E+00    0.1951840625E-01    0.6501199353E+00    0.6059012017E-03    0.2323883990E+00
    0.9000000000E+05    0.4398823627E+00    0.1730397112E-01    0.6534309587E+00    0.5239672976E-03    0.2332843550E+00
    0.1100000000E+06    0.4407849416E+00    0.1573611693E-01    0.6558150476E+00    0.4679707970E-03    0.2338444285E+00
    0.1300000000E+06    0.4413822229E+00    0.1454785444E-01    0.6576390364E+00    0.4266343781E-03    0.2342295853E+00
    0.1500000000E+06    0.4418037325E+00    0.1360546180E-01    0.6590937813E+00    0.3945168039E-03    0.2345120942E+00
    0.1700000000E+06    0.4421153126E+00    0.1283339701E-01    0.6602897785E+00    0.3686358878E-03    0.2347291559E+00
    0.1900000000E+06    0.4423538261E+00    0.1218524757E-01    0.6612960603E+00    0.3472045936E-03    0.2349018645E+00
    0.2100000000E+06    0.4425414537E+00    0.1163067253E-01    0.6621582931E+00    0.3290789204E-03    0.2350430760E+00
    0.2300000000E+06    0.4426923095E+00    0.1114886610E-01    0.6629080643E+00    0.3134882663E-03    0.2351610776E+00
    0.2500000000E+06    0.4428157849E+00    0.1072500851E-01    0.6635680200E+00    0.2998921283E-03    0.2352614554E+00
    0.2700000000E+06    0.4429183614E+00    0.1034821191E-01    0.6641548805E+00    0.2878987123E-03    0.2353481153E+00
    0.2900000000E+06    0.4430046507E+00    0.1001026881E-01    0.6646812981E+00    0.2772161589E-03    0.2354238728E+00
    0.3100000000E+06    0.4430780194E+00    0.9704856467E-02    0.6651570493E+00    0.2676219903E-03    0.2354908106E+00
    0.3300000000E+06    0.4431409801E+00    0.9427012670E-02    0.6655898249E+00    0.2589432488E-03    0.2355505034E+00
    0.3500000000E+06    0.4431954444E+00    0.9172779864E-02    0.6659857704E+00    0.2510431684E-03    0.2356041652E+00
    0.3700000000E+06    0.4432428911E+00    0.8938957020E-02    0.6663498639E+00    0.2438119845E-03    0.2356527473E+00
    0.3900000000E+06    0.4432844810E+00    0.8722922701E-02    0.6666861872E+00    0.2371604438E-03    0.2356970065E+00
    0.4100000000E+06    0.4433211378E+00    0.8522506318E-02    0.6669981234E+00    0.2310151249E-03    0.2357375529E+00
    0.4300000000E+06    0.4433536045E+00    0.8335892782E-02    0.6672885036E+00    0.2253150004E-03    0.2357748838E+00
    0.4500000000E+06    0.4433824859E+00    0.8161550743E-02    0.6675597182E+00    0.2200088702E-03    0.2358094093E+00
    0.4700000000E+06    0.4434082784E+00    0.7998177821E-02    0.6678138007E+00    0.2150534156E-03    0.2358414704E+00
    0.4900000000E+06    0.4434313934E+00    0.7844658251E-02    0.6680524944E+00    0.2104117049E-03    0.2358713535E+00
    0.1000000000E+06    0.4403842495E+00    0.1646049945E-01    0.6547099934E+00    0.4936354167E-03    0.2335931505E+00
    0.3000000000E+06    0.4430427765E+00    0.9853833511E-02    0.6649249848E+00    0.2722948161E-03    0.2354583359E+00
    0.5000000000E+06    0.4434420563E+00    0.7771287519E-02    0.6681665485E+00    0.2081984175E-03    0.2358855554E+00
    0.7000000000E+06    0.4435743844E+00    0.6644571827E-02    0.6699157759E+00    0.1746287170E-03    0.2360983157E+00
    0.9000000000E+06    0.4436282816E+00    0.5909891353E-02    0.6710536470E+00    0.1531728071E-03    0.2362336347E+00
    0.1100000000E+07    0.4436505677E+00    0.5381402919E-02    0.6718705933E+00    0.1379594398E-03    0.2363307958E+00
    0.1300000000E+07    0.4436578431E+00    0.4977282456E-02    0.6724943147E+00    0.1264563791E-03    0.2364057647E+00
    0.1500000000E+07    0.4436572674E+00    0.4655064700E-02    0.6729909856E+00    0.1173688730E-03    0.2364664141E+00
    0.1700000000E+07    0.4436523398E+00    0.4390202158E-02    0.6733988047E+00    0.1099571283E-03    0.2365171420E+00
    0.1900000000E+07    0.4436449242E+00    0.4167374351E-02    0.6737415817E+00    0.1037638017E-03    0.2365606298E+00
    0.2100000000E+07    0.4436360771E+00    0.3976453593E-02    0.6740350382E+00    0.9848898749E-04    0.2365986220E+00
    0.2300000000E+07    0.4436264252E+00    0.3810438050E-02    0.6742900322E+00    0.9392678370E-04    0.2366323122E+00
    0.2500000000E+07    0.4436163529E+00    0.3664309755E-02    0.6745143382E+00    0.8993053105E-04    0.2366625497E+00
    0.2700000000E+07    0.4436061016E+00    0.3534364814E-02    0.6747136897E+00    0.8639256882E-04    0.2366899592E+00
    0.2900000000E+07    0.4435958252E+00    0.3417801018E-02    0.6748924213E+00    0.8323184842E-04    0.2367150126E+00
    0.3100000000E+07    0.4435856227E+00    0.3312453491E-02    0.6750538794E+00    0.8038603749E-04    0.2367380745E+00
    0.3300000000E+07    0.4435755572E+00    0.3216619376E-02    0.6752006944E+00    0.7780630980E-04    0.2367594321E+00
    0.3500000000E+07    0.4435656688E+00    0.3128938129E-02    0.6753349669E+00    0.7545380408E-04    0.2367793154E+00
    0.3700000000E+07    0.4435559818E+00    0.3048307704E-02    0.6754583973E+00    0.7329715486E-04    0.2367979115E+00
    0.3900000000E+07    0.4435465101E+00    0.2973824543E-02    0.6755723792E+00    0.7131073188E-04    0.2368153744E+00
    0.4100000000E+07    0.4435372603E+00    0.2904739789E-02    0.6756780668E+00    0.6947335960E-04    0.2368318322E+00
    0.4300000000E+07    0.4435282343E+00    0.2840426759E-02    0.6757764258E+00    0.6776736958E-04    0.2368473929E+00
    0.4500000000E+07    0.4435194308E+00    0.2780356413E-02    0.6758682711E+00    0.6617788797E-04    0.2368621478E+00
    0.4700000000E+07    0.4435108461E+00    0.2724078593E-02    0.6759542957E+00    0.6469229222E-04    0.2368761754E+00
    0.4900000000E+07    0.4435024752E+00    0.2671207495E-02    0.6760350933E+00    0.6329979149E-04    0.2368895433E+00
    0.1000000000E+07    0.4436419998E+00    0.5626319553E-02    0.6714921709E+00    0.1449862134E-03    0.2362857066E+00
    0.3000000000E+07    0.4435907101E+00    0.3363840862E-02    0.6749751309E+00    0.8177289959E-04    0.2367267730E+00
    0.5000000000E+07    0.4434983681E+00    0.2645943646E-02    0.6760736948E+00    0.6263549829E-04    0.2368959984E+00
    0.7000000000E+07    0.4434258425E+00    0.2258416804E-02    0.6766652615E+00    0.5253918808E-04    0.2370013593E+00
    0.9000000000E+07    0.4433675194E+00    0.2006260422E-02    0.6770496215E+00    0.4607139565E-04    0.2370778944E+00
    0.1100000000E+08    0.4433189978E+00    0.1825181576E-02    0.6773253609E+00    0.4148162706E-04    0.2371379944E+00
    0.1300000000E+08    0.4432775313E+00    0.1686906201E-02    0.6775357630E+00    0.3801035464E-04    0.2371874717E+00
    0.1500000000E+08    0.4432413572E+00    0.1576780116E-02    0.6777032341E+00    0.3526801920E-04    0.2372295178E+00
    0.1700000000E+08    0.4432092900E+00    0.1486342991E-02    0.6778406981E+00    0.3303164215E-04    0.2372660737E+00
    0.1900000000E+08    0.4431804987E+00    0.1410320630E-02    0.6779562058E+00    0.3116323196E-04    0.2372984079E+00
    0.2100000000E+08    0.4431543793E+00    0.1345230056E-02    0.6780550703E+00    0.2957224163E-04    0.2373273946E+00
    0.2300000000E+08    0.4431304801E+00    0.1288665506E-02    0.6781409598E+00    0.2819648142E-04    0.2373536620E+00
    0.2500000000E+08    0.4431084544E+00    0.1238904270E-02    0.6782164996E+00    0.2699164492E-04    0.2373776766E+00
    0.2700000000E+08    0.4430880306E+00    0.1194675719E-02    0.6782836254E+00    0.2592520345E-04    0.2373997945E+00
