  Pressure (Pa) 22mC5-400 (mol/kg) 2mC6-400 (mol/kg) 3mC6-400 (mol/kg) 33mC5-400 (mol/kg) 23mC5-400 (mol/kg)
    0.1000000000E+01    0.5282193359E-03    0.7141092339E-02    0.1054474483E-02    0.1938060029E-03    0.4637478846E-03
    0.3000000000E+01    0.1558206683E-02    0.2088923080E-01    0.3099171081E-02    0.5669147912E-03    0.1368033330E-02
    0.5000000000E+01    0.2554813072E-02    0.3396742046E-01    0.5062925929E-02    0.9218298139E-03    0.2243027690E-02
    0.7000000000E+01    0.3520130411E-02    0.4642213618E-01    0.6950974136E-02    0.1259813399E-02    0.3090566357E-02
    0.9000000000E+01    0.4456072127E-02    0.5829567933E-01    0.8768098729E-02    0.1582014507E-02    0.3912328140E-02
    0.1100000000E+02    0.5364392093E-02    0.6962663452E-01    0.1051867883E-01    0.1889481135E-02    0.4709851865E-02
    0.1300000000E+02    0.6246701173E-02    0.8045026775E-01    0.1220673180E-01    0.2183171134E-02    0.5484550898E-02
    0.1500000000E+02    0.7104481741E-02    0.9079887449E-01    0.1383595014E-01    0.2463961666E-02    0.6237725872E-02
    0.1700000000E+02    0.7939100449E-02    0.1007020850E+00    0.1540973401E-01    0.2732657495E-02    0.6970575897E-02
    0.1900000000E+02    0.8751819490E-02    0.1101871328E+00    0.1693121987E-01    0.2989998284E-02    0.7684208437E-02
    0.2100000000E+02    0.9543806564E-02    0.1192790914E+00    0.1840330576E-01    0.3236665020E-02    0.8379648052E-02
    0.2300000000E+02    0.1031614371E-01    0.1280010836E+00    0.1982867382E-01    0.3473285705E-02    0.9057844150E-02
    0.2500000000E+02    0.1106983517E-01    0.1363744668E+00    0.2120981017E-01    0.3700440388E-02    0.9719677873E-02
    0.2700000000E+02    0.1180581436E-01    0.1444189979E+00    0.2254902273E-01    0.3918665643E-02    0.1036596824E-01
    0.2900000000E+02    0.1252495016E-01    0.1521529799E+00    0.2384845703E-01    0.4128458554E-02    0.1099747763E-01
    0.3100000000E+02    0.1322805245E-01    0.1595933927E+00    0.2511011043E-01    0.4330280266E-02    0.1161491669E-01
    0.3300000000E+02    0.1391587720E-01    0.1667560103E+00    0.2633584480E-01    0.4524559166E-02    0.1221894872E-01
    0.3500000000E+02    0.1458913090E-01    0.1736555053E+00    0.2752739800E-01    0.4711693730E-02    0.1281019364E-01
    0.3700000000E+02    0.1524847468E-01    0.1803055433E+00    0.2868639408E-01    0.4892055079E-02    0.1338923158E-01
    0.3900000000E+02    0.1589452794E-01    0.1867188673E+00    0.2981435263E-01    0.5065989278E-02    0.1395660601E-01
    0.4100000000E+02    0.1652787166E-01    0.1929073743E+00    0.3091269708E-01    0.5233819408E-02    0.1451282675E-01
    0.4300000000E+02    0.1714905141E-01    0.1988821838E+00    0.3198276232E-01    0.5395847436E-02    0.1505837251E-01
    0.4500000000E+02    0.1775858006E-01    0.2046537000E+00    0.3302580155E-01    0.5552355903E-02    0.1559369333E-01
    0.4700000000E+02    0.1835694024E-01    0.2102316685E+00    0.3404299251E-01    0.5703609460E-02    0.1611921269E-01
    0.4900000000E+02    0.1894458659E-01    0.2156252274E+00    0.3503544316E-01    0.5849856252E-02    0.1663532956E-01
    0.1000000000E+02    0.4913580977E-02    0.6402670282E-01    0.9651447735E-02    0.1737527769E-02    0.4314028641E-02
    0.3000000000E+02    0.1287845703E-01    0.1559088696E+00    0.2448388694E-01    0.4230338303E-02    0.1130791344E-01
    0.5000000000E+02    0.1923452702E-01    0.2182555541E+00    0.3552271929E-01    0.5921175456E-02    0.1688998046E-01
    0.7000000000E+02    0.2456305372E-01    0.2630065987E+00    0.4419307749E-01    0.7134289265E-02    0.2157026743E-01
    0.9000000000E+02    0.2918554331E-01    0.2964600174E+00    0.5127244066E-01    0.8040695341E-02    0.2563089958E-01
    0.1100000000E+03    0.3329603433E-01    0.3222458383E+00    0.5722352916E-01    0.8738951953E-02    0.2924215569E-01
    0.1300000000E+03    0.3701954283E-01    0.3426002829E+00    0.6234033567E-01    0.9289767779E-02    0.3251374828E-01
    0.1500000000E+03    0.4044081548E-01    0.3589742971E+00    0.6681942092E-01    0.9732528928E-02    0.3552005271E-01
    0.1700000000E+03    0.4361968693E-01    0.3723493292E+00    0.7079769238E-01    0.1009387445E-01    0.3831358282E-01
    0.1900000000E+03    0.4659983395E-01    0.3834123236E+00    0.7437376481E-01    0.1039244829E-01    0.4093267265E-01
    0.2100000000E+03    0.4941403629E-01    0.3926580219E+00    0.7762069226E-01    0.1064167693E-01    0.4340609298E-01
    0.2300000000E+03    0.5208748009E-01    0.4004514786E+00    0.8059389709E-01    0.1085146681E-01    0.4575595026E-01
    0.2500000000E+03    0.5463991028E-01    0.4070677238E+00    0.8333629392E-01    0.1102928104E-01    0.4799957545E-01
    0.2700000000E+03    0.5708707808E-01    0.4127177446E+00    0.8588170746E-01    0.1118084470E-01    0.5015079439E-01
    0.2900000000E+03    0.5944174158E-01    0.4175659856E+00    0.8825721579E-01    0.1131061986E-01    0.5222080582E-01
    0.3100000000E+03    0.6171437395E-01    0.4217424245E+00    0.9048479587E-01    0.1142213338E-01    0.5421880305E-01
    0.3300000000E+03    0.6391367561E-01    0.4253510861E+00    0.9258250380E-01    0.1151820793E-01    0.5615242337E-01
    0.3500000000E+03    0.6604695145E-01    0.4284761605E+00    0.9456533755E-01    0.1160112803E-01    0.5802807916E-01
    0.3700000000E+03    0.6812039346E-01    0.4311864747E+00    0.9644587813E-01    0.1167276143E-01    0.5985120596E-01
    0.3900000000E+03    0.7013929568E-01    0.4335388118E+00    0.9823477358E-01    0.1173464911E-01    0.6162645109E-01
    0.4100000000E+03    0.7210821986E-01    0.4355804086E+00    0.9994110922E-01    0.1178807312E-01    0.6335781911E-01
    0.4300000000E+03    0.7403112484E-01    0.4373508599E+00    0.1015726945E+00    0.1183410818E-01    0.6504878531E-01
    0.4500000000E+03    0.7591146858E-01    0.4388835863E+00    0.1031362878E+00    0.1187366156E-01    0.6670238535E-01
    0.4700000000E+03    0.7775228966E-01    0.4402069781E+00    0.1046377743E+00    0.1190750404E-01    0.6832128670E-01
    0.4900000000E+03    0.7955627283E-01    0.4413452951E+00    0.1060823085E+00    0.1193629439E-01    0.6990784625E-01
    0.1000000000E+03    0.3129578444E-01    0.3101480636E+00    0.5436775150E-01    0.8411408558E-02    0.2748479776E-01
    0.3000000000E+03    0.6058773129E-01    0.4197311517E+00    0.8938828784E-01    0.1136846861E-01    0.5322829677E-01
    0.5000000000E+03    0.8044520573E-01    0.4418516814E+00    0.1067846581E+00    0.1194897510E-01    0.7068966112E-01
    0.7000000000E+03    0.9675029387E-01    0.4460459210E+00    0.1187043290E+00    0.1204013802E-01    0.8503221266E-01
    0.9000000000E+03    0.1110035788E+00    0.4442275855E+00    0.1279330172E+00    0.1196580260E-01    0.9757329123E-01
    0.1100000000E+04    0.1238289270E+00    0.4399702888E+00    0.1355454282E+00    0.1182350819E-01    0.1088605697E+00
    0.1300000000E+04    0.1355529714E+00    0.4346631573E+00    0.1420703174E+00    0.1165144115E-01    0.1191807661E+00
    0.1500000000E+04    0.1463727305E+00    0.4289333633E+00    0.1478081780E+00    0.1146702983E-01    0.1287068047E+00
    0.1700000000E+04    0.1564194484E+00    0.4230915863E+00    0.1529469541E+00    0.1127904225E-01    0.1375538655E+00
    0.1900000000E+04    0.1657873692E+00    0.4173005232E+00    0.1576125082E+00    0.1109217005E-01    0.1458046488E+00
    0.2100000000E+04    0.1745482722E+00    0.4116475415E+00    0.1618935507E+00    0.1090901023E-01    0.1535221373E+00
    0.2300000000E+04    0.1827594413E+00    0.4061791818E+00    0.1658551381E+00    0.1073100968E-01    0.1607565931E+00
    0.2500000000E+04    0.1904683120E+00    0.4009188070E+00    0.1695465155E+00    0.1055895107E-01    0.1675496369E+00
    0.2700000000E+04    0.1977153147E+00    0.3958761795E+00    0.1730059349E+00    0.1039321845E-01    0.1739367445E+00
    0.2900000000E+04    0.2045356853E+00    0.3910529124E+00    0.1762637545E+00    0.1023394988E-01    0.1799488361E+00
    0.3100000000E+04    0.2109606583E+00    0.3864456934E+00    0.1793445087E+00    0.1008112893E-01    0.1856133228E+00
    0.3300000000E+04    0.2170182768E+00    0.3820482539E+00    0.1822683345E+00    0.9934641469E-02    0.1909548179E+00
    0.3500000000E+04    0.2227339603E+00    0.3778526016E+00    0.1850519828E+00    0.9794311933E-02    0.1959956343E+00
    0.3700000000E+04    0.2281309140E+00    0.3738498059E+00    0.1877095516E+00    0.9659927105E-02    0.2007561438E+00
    0.3900000000E+04    0.2332304324E+00    0.3700305068E+00    0.1902530293E+00    0.9531251947E-02    0.2052550433E+00
    0.4100000000E+04    0.2380521318E+00    0.3663852446E+00    0.1926927034E+00    0.9408040323E-02    0.2095095583E+00
    0.4300000000E+04    0.2426141344E+00    0.3629046750E+00    0.1950374745E+00    0.9290042306E-02    0.2135356042E+00
    0.4500000000E+04    0.2469332161E+00    0.3595797060E+00    0.1972950997E+00    0.9177009182E-02    0.2173479161E+00
    0.4700000000E+04    0.2510249312E+00    0.3564015848E+00    0.1994723848E+00    0.9068696857E-02    0.2209601576E+00
    0.4900000000E+04    0.2549037177E+00    0.3533619478E+00    0.2015753363E+00    0.8964868137E-02    0.2243850131E+00
    0.1000000000E+04    0.1175701304E+00    0.4422903882E+00    0.1319007194E+00    0.1190003986E-01    0.1033520481E+00
    0.3000000000E+04    0.2077957766E+00    0.3887226365E+00    0.1778249167E+00    0.1015673880E-01    0.1828229329E+00
    0.5000000000E+04    0.2567674922E+00    0.3518915608E+00    0.2026006263E+00    0.8914563273E-02    0.2260308872E+00
    0.7000000000E+04    0.2856523413E+00    0.3280544956E+00    0.2202332377E+00    0.8093609927E-02    0.2515609361E+00
    0.9000000000E+04    0.3037795287E+00    0.3115149142E+00    0.2340831773E+00    0.7522203897E-02    0.2676136286E+00
    0.1100000000E+05    0.3158125494E+00    0.2992557156E+00    0.2455490204E+00    0.7101941508E-02    0.2782920470E+00
    0.1300000000E+05    0.3241935959E+00    0.2896717116E+00    0.2553598712E+00    0.6777876301E-02    0.2857466045E+00
    0.1500000000E+05    0.3302702030E+00    0.2818627777E+00    0.2639481922E+00    0.6518198345E-02    0.2911647159E+00
    0.1700000000E+05    0.3348255499E+00    0.2752943074E+00    0.2715932258E+00    0.6303606931E-02    0.2952369987E+00
    0.1900000000E+05    0.3383369812E+00    0.2696314124E+00    0.2784865208E+00    0.6121841432E-02    0.2983846867E+00
    0.2100000000E+05    0.3411079323E+00    0.2646542000E+00    0.2847655766E+00    0.5964782447E-02    0.3008757449E+00
    0.2300000000E+05    0.3433385063E+00    0.2602122529E+00    0.2905326538E+00    0.5826851702E-02    0.3028870183E+00
    0.2500000000E+05    0.3451649558E+00    0.2561989703E+00    0.2958659992E+00    0.5704091392E-02    0.3045390166E+00
    0.2700000000E+05    0.3466826874E+00    0.2525364525E+00    0.3008268996E+00    0.5593613309E-02    0.3059161899E+00
    0.2900000000E+05    0.3479601650E+00    0.2491662407E+00    0.3054643053E+00    0.5493257204E-02    0.3070791893E+00
    0.3100000000E+05    0.3490475914E+00    0.2460434377E+00    0.3098179668E+00    0.5401371945E-02    0.3080725264E+00
    0.3300000000E+05    0.3499824915E+00    0.2431328578E+00    0.3139206280E+00    0.5316671203E-02    0.3089295005E+00
    0.3500000000E+05    0.3507933963E+00    0.2404064322E+00    0.3177995974E+00    0.5238135760E-02    0.3096754524E+00
    0.3700000000E+05    0.3515023326E+00    0.2378414160E+00    0.3214779001E+00    0.5164945802E-02    0.3103299638E+00
    0.3900000000E+05    0.3521265414E+00    0.2354191219E+00    0.3249751373E+00    0.5096432988E-02    0.3109083758E+00
    0.4100000000E+05    0.3526796862E+00    0.2331240053E+00    0.3283081395E+00    0.5032045857E-02    0.3114228580E+00
    0.4300000000E+05    0.3531727183E+00    0.2309429937E+00    0.3314914695E+00    0.4971324427E-02    0.3118831739E+00
    0.4500000000E+05    0.3536145063E+00    0.2288649839E+00    0.3345378162E+00    0.4913881246E-02    0.3122972375E+00
    0.4700000000E+05    0.3540122992E+00    0.2268804618E+00    0.3374583054E+00    0.4859387037E-02    0.3126715246E+00
    0.4900000000E+05    0.3543720744E+00    0.2249812092E+00    0.3402627483E+00    0.4807559697E-02    0.3130113800E+00
    0.1000000000E+05    0.3103703927E+00    0.3049729472E+00    0.2400589918E+00    0.7297333352E-02    0.2734596323E+00
    0.3000000000E+05    0.3485250425E+00    0.2475763046E+00    0.3076744143E+00    0.5446343341E-02    0.3075947661E+00
    0.5000000000E+05    0.3545392913E+00    0.2240612880E+00    0.3416242094E+00    0.4782568703E-02    0.3131698154E+00
    0.7000000000E+05    0.3567437855E+00    0.2088024814E+00    0.3644355693E+00    0.4377897459E-02    0.3152986510E+00
    0.9000000000E+05    0.3578441998E+00    0.1974726865E+00    0.3815556508E+00    0.4088070888E-02    0.3164090226E+00
    0.1100000000E+06    0.3584894221E+00    0.1884769978E+00    0.3952055633E+00    0.3863486376E-02    0.3170906457E+00
    0.1300000000E+06    0.3589069636E+00    0.1810358237E+00    0.4065168711E+00    0.3681030413E-02    0.3175530856E+00
    0.1500000000E+06    0.3591957272E+00    0.1747061175E+00    0.4161459442E+00    0.3528012203E-02    0.3178887310E+00
    0.1700000000E+06    0.3594051717E+00    0.1692108893E+00    0.4245078064E+00    0.3396701855E-02    0.3181444572E+00
    0.1900000000E+06    0.3595626041E+00    0.1643650667E+00    0.4318816276E+00    0.3282039835E-02    0.3183465320E+00
    0.2100000000E+06    0.3596842553E+00    0.1600387502E+00    0.4384641753E+00    0.3180534060E-02    0.3185108074E+00
    0.2300000000E+06    0.3597803417E+00    0.1561372258E+00    0.4443993080E+00    0.3089673852E-02    0.3186474160E+00
    0.2500000000E+06    0.3598575941E+00    0.1525893015E+00    0.4497953495E+00    0.3007594578E-02    0.3187631386E+00
    0.2700000000E+06    0.3599206155E+00    0.1493401174E+00    0.4547358723E+00    0.2932874274E-02    0.3188626864E+00
    0.2900000000E+06    0.3599726536E+00    0.1463465115E+00    0.4592866805E+00    0.2864404422E-02    0.3189494366E+00
    0.3100000000E+06    0.3600160601E+00    0.1435739219E+00    0.4635004934E+00    0.2801304627E-02    0.3190258748E+00
    0.3300000000E+06    0.3600525772E+00    0.1409942514E+00    0.4674201837E+00    0.2742864431E-02    0.3190938721E+00
    0.3500000000E+06    0.3600835207E+00    0.1385843557E+00    0.4710810732E+00    0.2688502522E-02    0.3191548651E+00
    0.3700000000E+06    0.3601099014E+00    0.1363249493E+00    0.4745125977E+00    0.2637737467E-02    0.3192099758E+00
    0.3900000000E+06    0.3601325075E+00    0.1341997967E+00    0.4777395378E+00    0.2590166259E-02    0.3192600935E+00
    0.4100000000E+06    0.3601519621E+00    0.1321951055E+00    0.4807829449E+00    0.2545448315E-02    0.3193059332E+00
    0.4300000000E+06    0.3601687633E+00    0.1302990626E+00    0.4836608485E+00    0.2503293340E-02    0.3193480759E+00
    0.4500000000E+06    0.3601833138E+00    0.1285014752E+00    0.4863888034E+00    0.2463451992E-02    0.3193869995E+00
    0.4700000000E+06    0.3601959425E+00    0.1267934894E+00    0.4889803198E+00    0.2425708604E-02    0.3194231006E+00
    0.4900000000E+06    0.3602069200E+00    0.1251673677E+00    0.4914472027E+00    0.2389875454E-02    0.3194567114E+00
    0.1000000000E+06    0.3582048550E+00    0.1927428565E+00    0.3887282609E+00    0.3969415364E-02    0.3167861202E+00
    0.3000000000E+06    0.3599953151E+00    0.1449344771E+00    0.4614328316E+00    0.2832231108E-02    0.3189888158E+00
    0.5000000000E+06    0.3602118612E+00    0.1243828484E+00    0.4926371980E+00    0.2372623051E-02    0.3194726723E+00
    0.7000000000E+06    0.3602626063E+00    0.1117016963E+00    0.5118591052E+00    0.2096918945E-02    0.3197108586E+00
    0.9000000000E+06    0.3602694137E+00    0.1027341198E+00    0.5254367086E+00    0.1905552155E-02    0.3198615300E+00
    0.1100000000E+07    0.3602606209E+00    0.9590285006E-01    0.5357713499E+00    0.1761791422E-02    0.3199693831E+00
    0.1300000000E+07    0.3602456134E+00    0.9044651772E-01    0.5440207636E+00    0.1648236570E-02    0.3200524410E+00
    0.1500000000E+07    0.3602281362E+00    0.8594229804E-01    0.5508272704E+00    0.1555360896E-02    0.3201195464E+00
    0.1700000000E+07    0.3602098560E+00    0.8213244212E-01    0.5565821143E+00    0.1477423137E-02    0.3201756219E+00
    0.1900000000E+07    0.3601915615E+00    0.7884895867E-01    0.5615401286E+00    0.1410717030E-02    0.3202236608E+00
    0.2100000000E+07    0.3601736349E+00    0.7597668080E-01    0.5658759194E+00    0.1352722580E-02    0.3202656070E+00
    0.2300000000E+07    0.3601562573E+00    0.7343346461E-01    0.5697139680E+00    0.1301655313E-02    0.3203027880E+00
    0.2500000000E+07    0.3601395064E+00    0.7115881884E-01    0.5731459054E+00    0.1256209550E-02    0.3203361476E+00
    0.2700000000E+07    0.3601234050E+00    0.6910700940E-01    0.5762409838E+00    0.1215403841E-02    0.3203663792E+00
    0.2900000000E+07    0.3601079469E+00    0.6724268754E-01    0.5790527125E+00    0.1178483587E-02    0.3203940060E+00
    0.3100000000E+07    0.3600931105E+00    0.6553801319E-01    0.5816232221E+00    0.1144857341E-02    0.3204194320E+00
    0.3300000000E+07    0.3600788669E+00    0.6397070194E-01    0.5839862273E+00    0.1114053787E-02    0.3204429754E+00
    0.3500000000E+07    0.3600651840E+00    0.6252266286E-01    0.5861690914E+00    0.1085691882E-02    0.3204648908E+00
    0.3700000000E+07    0.3600520290E+00    0.6117902610E-01    0.5881943012E+00    0.1059459632E-02    0.3204853852E+00
    0.3900000000E+07    0.3600393699E+00    0.5992743423E-01    0.5900805400E+00    0.1035098693E-02    0.3205046287E+00
    0.4100000000E+07    0.3600271760E+00    0.5875751648E-01    0.5918434848E+00    0.1012392992E-02    0.3205227632E+00
    0.4300000000E+07    0.3600154184E+00    0.5766049235E-01    0.5934964061E+00    0.9911601729E-03    0.3205399078E+00
    0.4500000000E+07    0.3600040702E+00    0.5662886834E-01    0.5950506277E+00    0.9712450828E-03    0.3205561636E+00
    0.4700000000E+07    0.3599931063E+00    0.5565620293E-01    0.5965158820E+00    0.9525147330E-03    0.3205716173E+00
    0.4900000000E+07    0.3599825034E+00    0.5473692232E-01    0.5979005894E+00    0.9348543649E-03    0.3205863433E+00
    0.1000000000E+07    0.3602661751E+00    0.9911018021E-01    0.5309200624E+00    0.1829069295E-02    0.3199193635E+00
    0.3000000000E+07    0.3601004527E+00    0.6637189916E-01    0.5803658429E+00    0.1161290585E-02    0.3204069725E+00
    0.5000000000E+07    0.3599773306E+00    0.5429576020E-01    0.5985650658E+00    0.9263937678E-03    0.3205934540E+00
    0.7000000000E+07    0.3598884373E+00    0.4737084231E-01    0.6089916177E+00    0.7948685914E-03    0.3207094975E+00
    0.9000000000E+07    0.3598192852E+00    0.4269923411E-01    0.6160214540E+00    0.7075713846E-03    0.3207937776E+00
    0.1100000000E+08    0.3597627758E+00    0.3925972718E-01    0.6211951198E+00    0.6440889654E-03    0.3208599551E+00
    0.1300000000E+08    0.3597150235E+00    0.3658383437E-01    0.6252189054E+00    0.5951922304E-03    0.3209144343E+00
    0.1500000000E+08    0.3596736868E+00    0.3442123083E-01    0.6284700257E+00    0.5560054480E-03    0.3209607309E+00
    0.1700000000E+08    0.3596372499E+00    0.3262395936E-01    0.6311713576E+00    0.5236734758E-03    0.3210009828E+00
    0.1900000000E+08    0.3596046762E+00    0.3109802075E-01    0.6334644560E+00    0.4963966947E-03    0.3210365866E+00
    0.2100000000E+08    0.3595752261E+00    0.2978035723E-01    0.6354442573E+00    0.4729761386E-03    0.3210685050E+00
    0.2300000000E+08    0.3595483535E+00    0.2862682890E-01    0.6371772018E+00    0.4525776369E-03    0.3210974298E+00
    0.2500000000E+08    0.3595236439E+00    0.2760546229E-01    0.6387114081E+00    0.4346002368E-03    0.3211238745E+00
    0.2700000000E+08    0.3595007753E+00    0.2669243547E-01    0.6400827208E+00    0.4185984093E-03    0.3211482311E+00
