  Pressure (Pa) 22mC5-400 (mol/kg) 2mC6-400 (mol/kg) 3mC6-400 (mol/kg) 33mC5-400 (mol/kg) 23mC5-400 (mol/kg)
    0.1000000000E+01    0.5306223847E-03    0.2387622038E-02    0.4222850547E-02    0.1296045129E-03    0.5590280115E-03
    0.3000000000E+01    0.1579131558E-02    0.7025563701E-02    0.1243897537E-01    0.3813928825E-03    0.1663675234E-02
    0.5000000000E+01    0.2611086467E-02    0.1148865702E-01    0.2036326561E-01    0.6237316758E-03    0.2750893072E-02
    0.7000000000E+01    0.3626980533E-02    0.1578614991E-01    0.2801173327E-01    0.8571209885E-03    0.3821200968E-02
    0.9000000000E+01    0.4627287106E-02    0.1992664080E-01    0.3539922745E-01    0.1082025749E-02    0.4875097229E-02
    0.1100000000E+02    0.5612460482E-02    0.2391813548E-01    0.4253953831E-01    0.1298878801E-02    0.5913060110E-02
    0.1300000000E+02    0.6582936857E-02    0.2776809810E-01    0.4944549021E-01    0.1508083664E-02    0.6935548812E-02
    0.1500000000E+02    0.7539135232E-02    0.3148349685E-01    0.5612902507E-01    0.1710017015E-02    0.7943004435E-02
    0.1700000000E+02    0.8481458255E-02    0.3507084508E-01    0.6260127728E-01    0.1905030909E-02    0.8935850866E-02
    0.1900000000E+02    0.9410293020E-02    0.3853623837E-01    0.6887264110E-01    0.2093454797E-02    0.9914495618E-02
    0.2100000000E+02    0.1032601182E-01    0.4188538797E-01    0.7495283138E-01    0.2275597327E-02    0.1087933062E-01
    0.2300000000E+02    0.1122897283E-01    0.4512365103E-01    0.8085093843E-01    0.2451747993E-02    0.1183073296E-01
    0.2500000000E+02    0.1211952084E-01    0.4825605803E-01    0.8657547760E-01    0.2622178611E-02    0.1276906560E-01
    0.2700000000E+02    0.1299798780E-01    0.5128733764E-01    0.9213443425E-01    0.2787144672E-02    0.1369467801E-01
    0.2900000000E+02    0.1386469346E-01    0.5422193933E-01    0.9753530451E-01    0.2946886563E-02    0.1460790682E-01
    0.3100000000E+02    0.1471994594E-01    0.5706405393E-01    0.1027851324E+00    0.3101630685E-02    0.1550907641E-01
    0.3300000000E+02    0.1556404223E-01    0.5981763244E-01    0.1078905435E+00    0.3251590464E-02    0.1639849944E-01
    0.3500000000E+02    0.1639726872E-01    0.6248640314E-01    0.1128577759E+00    0.3396967285E-02    0.1727647742E-01
    0.3700000000E+02    0.1721990166E-01    0.6507388724E-01    0.1176927078E+00    0.3537951335E-02    0.1814330117E-01
    0.3900000000E+02    0.1803220760E-01    0.6758341331E-01    0.1224008840E+00    0.3674722384E-02    0.1899925132E-01
    0.4100000000E+02    0.1883444385E-01    0.7001813034E-01    0.1269875384E+00    0.3807450495E-02    0.1984459875E-01
    0.4300000000E+02    0.1962685883E-01    0.7238101991E-01    0.1314576165E+00    0.3936296683E-02    0.2067960502E-01
    0.4500000000E+02    0.2040969250E-01    0.7467490728E-01    0.1358157944E+00    0.4061413506E-02    0.2150452274E-01
    0.4700000000E+02    0.2118317671E-01    0.7690247157E-01    0.1400664975E+00    0.4182945632E-02    0.2231959601E-01
    0.4900000000E+02    0.2194753553E-01    0.7906625526E-01    0.1442139168E+00    0.4301030337E-02    0.2312506073E-01
    0.1000000000E+02    0.5121737768E-02    0.2194053402E-01    0.3899945765E-01    0.1191432861E-02    0.5396041207E-02
    0.3000000000E+02    0.1429373253E-01    0.5565430517E-01    0.1001786752E+00    0.3024869714E-02    0.1505997921E-01
    0.5000000000E+02    0.2232636090E-01    0.8012498868E-01    0.1462501445E+00    0.4358820903E-02    0.2352426145E-01
    0.7000000000E+02    0.2947287279E-01    0.9847786549E-01    0.1824151862E+00    0.5362076787E-02    0.3105550687E-01
    0.9000000000E+02    0.3591412051E-01    0.1125742109E+00    0.2117100160E+00    0.6135112869E-02    0.3784412085E-01
    0.1100000000E+03    0.4178291716E-01    0.1235947499E+00    0.2360299845E+00    0.6741649640E-02    0.4402993595E-01
    0.1300000000E+03    0.4717914942E-01    0.1323256489E+00    0.2566217755E+00    0.7224110322E-02    0.4971812086E-01
    0.1500000000E+03    0.5217950088E-01    0.1393108237E+00    0.2743405360E+00    0.7611847588E-02    0.5498941613E-01
    0.1700000000E+03    0.5684390615E-01    0.1449384899E+00    0.2897933829E+00    0.7925815938E-02    0.5990692864E-01
    0.1900000000E+03    0.6121995304E-01    0.1494929811E+00    0.3034239186E+00    0.8181367749E-02    0.6452076600E-01
    0.2100000000E+03    0.6534595731E-01    0.1531871303E+00    0.3155642742E+00    0.8389999926E-02    0.6887127356E-01
    0.2300000000E+03    0.6925315611E-01    0.1561832439E+00    0.3264683867E+00    0.8560484933E-02    0.7299134376E-01
    0.2500000000E+03    0.7296730243E-01    0.1586071085E+00    0.3363339731E+00    0.8699625871E-02    0.7690809461E-01
    0.2700000000E+03    0.7650984359E-01    0.1605575902E+00    0.3453174519E+00    0.8812774001E-02    0.8064411066E-01
    0.2900000000E+03    0.7989880586E-01    0.1621133687E+00    0.3535443249E+00    0.8904191632E-02    0.8421837424E-01
    0.3100000000E+03    0.8314946750E-01    0.1633377531E+00    0.3611165587E+00    0.8977311743E-02    0.8764697412E-01
    0.3300000000E+03    0.8627487738E-01    0.1642821909E+00    0.3681179332E+00    0.9034927059E-02    0.9094365159E-01
    0.3500000000E+03    0.8928625918E-01    0.1649888629E+00    0.3746179855E+00    0.9079329952E-02    0.9412022604E-01
    0.3700000000E+03    0.9219332975E-01    0.1654926312E+00    0.3806749614E+00    0.9112417439E-02    0.9718693009E-01
    0.3900000000E+03    0.9500455224E-01    0.1658225197E+00    0.3863380568E+00    0.9135771009E-02    0.1001526763E+00
    0.4100000000E+03    0.9772733934E-01    0.1660028533E+00    0.3916491409E+00    0.9150718026E-02    0.1030252709E+00
    0.4300000000E+03    0.1003682176E+00    0.1660541422E+00    0.3966440964E+00    0.9158379471E-02    0.1058115872E+00
    0.4500000000E+03    0.1029329615E+00    0.1659937774E+00    0.4013538732E+00    0.9159707420E-02    0.1085177063E+00
    0.4700000000E+03    0.1054267035E+00    0.1658365806E+00    0.4058053250E+00    0.9155514738E-02    0.1111490333E+00
    0.4900000000E+03    0.1078540250E+00    0.1655952435E+00    0.4100218791E+00    0.9146498797E-02    0.1137103930E+00
    0.1000000000E+03    0.3891319440E-01    0.1184127882E+00    0.2244024982E+00    0.6456162720E-02    0.4100513364E-01
    0.3000000000E+03    0.8154056166E-01    0.1627635258E+00    0.3574066611E+00    0.8942851165E-02    0.8594997378E-01
    0.5000000000E+03    0.1090440779E+00    0.1654464946E+00    0.4120485890E+00    0.9140373231E-02    0.1149662042E+00
    0.7000000000E+03    0.1301628192E+00    0.1600299715E+00    0.4441208336E+00    0.8873893561E-02    0.1372566681E+00
    0.9000000000E+03    0.1475330624E+00    0.1526676100E+00    0.4660286697E+00    0.8484804954E-02    0.1555977315E+00
    0.1100000000E+04    0.1623144149E+00    0.1450786881E+00    0.4823075493E+00    0.8071879969E-02    0.1712106348E+00
    0.1300000000E+04    0.1751398317E+00    0.1378248763E+00    0.4950686012E+00    0.7669386933E-02    0.1847619768E+00
    0.1500000000E+04    0.1864072304E+00    0.1310867098E+00    0.5054491404E+00    0.7289751040E-02    0.1966708367E+00
    0.1700000000E+04    0.1963921532E+00    0.1249025401E+00    0.5141253839E+00    0.6936892721E-02    0.2072274275E+00
    0.1900000000E+04    0.2052985864E+00    0.1192548828E+00    0.5215290794E+00    0.6611158529E-02    0.2166466156E+00
    0.2100000000E+04    0.2132847012E+00    0.1141050212E+00    0.5279511580E+00    0.6311362101E-02    0.2250950282E+00
    0.2300000000E+04    0.2204771687E+00    0.1094077702E+00    0.5335961226E+00    0.6035696063E-02    0.2327061261E+00
    0.2500000000E+04    0.2269797726E+00    0.1051179298E+00    0.5386126967E+00    0.5782159010E-02    0.2395892708E+00
    0.2700000000E+04    0.2328789518E+00    0.1011930394E+00    0.5431121067E+00    0.5548758959E-02    0.2458355607E+00
    0.2900000000E+04    0.2382475780E+00    0.9759441655E-01    0.5471795061E+00    0.5333608253E-02    0.2515218063E+00
    0.3100000000E+04    0.2431476556E+00    0.9428738880E-01    0.5508813970E+00    0.5134963908E-02    0.2567133734E+00
    0.3300000000E+04    0.2476323276E+00    0.9124115239E-01    0.5542706110E+00    0.4951240065E-02    0.2614662938E+00
    0.3500000000E+04    0.2517474134E+00    0.8842846913E-01    0.5573897483E+00    0.4781006246E-02    0.2658288845E+00
    0.3700000000E+04    0.2555326152E+00    0.8582530748E-01    0.5602736099E+00    0.4622978644E-02    0.2698430175E+00
    0.3900000000E+04    0.2590224840E+00    0.8341047992E-01    0.5629509553E+00    0.4476008360E-02    0.2735451373E+00
    0.4100000000E+04    0.2622472036E+00    0.8116530081E-01    0.5654457972E+00    0.4339068656E-02    0.2769670859E+00
    0.4300000000E+04    0.2652332346E+00    0.7907327544E-01    0.5677783703E+00    0.4211242367E-02    0.2801367813E+00
    0.4500000000E+04    0.2680038483E+00    0.7711982299E-01    0.5699658679E+00    0.4091710015E-02    0.2830787796E+00
    0.4700000000E+04    0.2705795725E+00    0.7529203291E-01    0.5720230098E+00    0.3979738894E-02    0.2858147446E+00
    0.4900000000E+04    0.2729785661E+00    0.7357845229E-01    0.5739624847E+00    0.3874673219E-02    0.2883638430E+00
    0.1000000000E+04    0.1552002337E+00    0.1488526829E+00    0.4747073505E+00    0.8278405141E-02    0.1636955826E+00
    0.3000000000E+04    0.2407526761E+00    0.9590646609E-01    0.5490725640E+00    0.5232325611E-02    0.2541757249E+00
    0.5000000000E+04    0.2741168949E+00    0.7276126407E-01    0.5748915944E+00    0.3824543834E-02    0.2895737070E+00
    0.7000000000E+04    0.2906801734E+00    0.6046524569E-01    0.5893356548E+00    0.3070510213E-02    0.3072073070E+00
    0.9000000000E+04    0.3002123221E+00    0.5283418649E-01    0.5989290905E+00    0.2606803938E-02    0.3173936662E+00
    0.1100000000E+05    0.3062787014E+00    0.4758449326E-01    0.6059128583E+00    0.2292788044E-02    0.3239025364E+00
    0.1300000000E+05    0.3104261674E+00    0.4371008359E-01    0.6112983845E+00    0.2065137203E-02    0.3283714335E+00
    0.1500000000E+05    0.3134162540E+00    0.4070430034E-01    0.6156196464E+00    0.1891668866E-02    0.3316075168E+00
    0.1700000000E+05    0.3156613492E+00    0.3828501061E-01    0.6191892654E+00    0.1754428966E-02    0.3340484332E+00
    0.1900000000E+05    0.3174018759E+00    0.3628250368E-01    0.6222042935E+00    0.1642645459E-02    0.3359496632E+00
    0.2100000000E+05    0.3187864586E+00    0.3458831553E-01    0.6247960335E+00    0.1549470454E-02    0.3374693502E+00
    0.2300000000E+05    0.3199114448E+00    0.3312967431E-01    0.6270558595E+00    0.1470341769E-02    0.3387101527E+00
    0.2500000000E+05    0.3208417919E+00    0.3185577973E-01    0.6290496181E+00    0.1402100302E-02    0.3397413801E+00
    0.2700000000E+05    0.3216227590E+00    0.3072998377E-01    0.6308261418E+00    0.1342486718E-02    0.3406113926E+00
    0.2900000000E+05    0.3222867746E+00    0.2972510696E-01    0.6324225255E+00    0.1289840356E-02    0.3413548915E+00
    0.3100000000E+05    0.3228576395E+00    0.2882051246E-01    0.6338675298E+00    0.1242911655E-02    0.3419973832E+00
    0.3300000000E+05    0.3233531908E+00    0.2800021108E-01    0.6351838482E+00    0.1200741125E-02    0.3425580118E+00
    0.3500000000E+05    0.3237870428E+00    0.2725159534E-01    0.6363896631E+00    0.1162578858E-02    0.3430514119E+00
    0.3700000000E+05    0.3241697561E+00    0.2656457037E-01    0.6374997394E+00    0.1127829554E-02    0.3434889527E+00
    0.3900000000E+05    0.3245096410E+00    0.2593094306E-01    0.6385262099E+00    0.1096014089E-02    0.3438795952E+00
    0.4100000000E+05    0.3248133217E+00    0.2534398331E-01    0.6394791507E+00    0.1066742071E-02    0.3442304932E+00
    0.4300000000E+05    0.3250861397E+00    0.2479810320E-01    0.6403670100E+00    0.1039691885E-02    0.3445474247E+00
    0.4500000000E+05    0.3253324475E+00    0.2428861814E-01    0.6411969316E+00    0.1014595933E-02    0.3448351055E+00
    0.4700000000E+05    0.3255558256E+00    0.2381156655E-01    0.6419750038E+00    0.9912295492E-03    0.3450974212E+00
    0.4900000000E+05    0.3257592450E+00    0.2336357168E-01    0.6427064521E+00    0.9694025671E-03    0.3453376014E+00
    0.1000000000E+05    0.3035553853E+00    0.4999146016E-01    0.6026679249E+00    0.2436089202E-02    0.3209772535E+00
    0.3000000000E+05    0.3225826202E+00    0.2926136546E-01    0.6331624105E+00    0.1265726969E-02    0.3416874430E+00
    0.5000000000E+05    0.3258542631E+00    0.2314954835E-01    0.6430561274E+00    0.9590147257E-03    0.3454502538E+00
    0.7000000000E+05    0.3271398367E+00    0.1986611548E-01    0.6484323796E+00    0.8028509442E-03    0.3470141068E+00
    0.9000000000E+05    0.3278099169E+00    0.1772332473E-01    0.6519424365E+00    0.7041413576E-03    0.3478770162E+00
    0.1100000000E+06    0.3282139732E+00    0.1617816835E-01    0.6544683367E+00    0.6345063903E-03    0.3484282896E+00
    0.1300000000E+06    0.3284803235E+00    0.1499348428E-01    0.6563999137E+00    0.5819843253E-03    0.3488135966E+00
    0.1500000000E+06    0.3286667524E+00    0.1404650459E-01    0.6579398743E+00    0.5405402975E-03    0.3490997864E+00
    0.1700000000E+06    0.3288029678E+00    0.1326628356E-01    0.6592055204E+00    0.5067549376E-03    0.3493218847E+00
    0.1900000000E+06    0.3289057408E+00    0.1260851110E-01    0.6602701068E+00    0.4785260414E-03    0.3495000442E+00
    0.2100000000E+06    0.3289852229E+00    0.1204386092E-01    0.6611820764E+00    0.4544802599E-03    0.3496466985E+00
    0.2300000000E+06    0.3290479005E+00    0.1155202971E-01    0.6619749271E+00    0.4336771819E-03    0.3497699459E+00
    0.2500000000E+06    0.3290981015E+00    0.1111844531E-01    0.6626726678E+00    0.4154482093E-03    0.3498752945E+00
    0.2700000000E+06    0.3291388171E+00    0.1073233566E-01    0.6632930209E+00    0.3993031732E-03    0.3499666260E+00
    0.2900000000E+06    0.3291721769E+00    0.1038553924E-01    0.6638493943E+00    0.3848734064E-03    0.3500467575E+00
    0.3100000000E+06    0.3291997349E+00    0.1007174193E-01    0.6643521457E+00    0.3718755569E-03    0.3501177854E+00
    0.3300000000E+06    0.3292226499E+00    0.9785970447E-02    0.6648094222E+00    0.3600877645E-03    0.3501813037E+00
    0.3500000000E+06    0.3292418019E+00    0.9524246172E-02    0.6652277323E+00    0.3493334961E-03    0.3502385470E+00
    0.3700000000E+06    0.3292578703E+00    0.9283342454E-02    0.6656123477E+00    0.3394702909E-03    0.3502904871E+00
    0.3900000000E+06    0.3292713869E+00    0.9060610731E-02    0.6659675900E+00    0.3303817443E-03    0.3503379005E+00
    0.4100000000E+06    0.3292827735E+00    0.8853853481E-02    0.6662970407E+00    0.3219716826E-03    0.3503814149E+00
    0.4300000000E+06    0.3292923685E+00    0.8661229769E-02    0.6666036968E+00    0.3141598550E-03    0.3504215440E+00
    0.4500000000E+06    0.3293004460E+00    0.8481183949E-02    0.6668900878E+00    0.3068786966E-03    0.3504587127E+00
    0.4700000000E+06    0.3293072301E+00    0.8312391073E-02    0.6671583661E+00    0.3000708610E-03    0.3504932752E+00
    0.4900000000E+06    0.3293129056E+00    0.8153714574E-02    0.6674103760E+00    0.2936873154E-03    0.3505255297E+00
    0.1000000000E+06    0.3280346674E+00    0.1689474689E-01    0.6532977140E+00    0.6666403685E-03    0.3481797104E+00
    0.3000000000E+06    0.3291866011E+00    0.1022485328E-01    0.6641069195E+00    0.3782105808E-03    0.3500832999E+00
    0.5000000000E+06    0.3293153767E+00    0.8077857983E-02    0.6675307862E+00    0.2906412288E-03    0.3505408720E+00
    0.7000000000E+06    0.3293330128E+00    0.6911409032E-02    0.6693769320E+00    0.2442748295E-03    0.3507716916E+00
    0.9000000000E+06    0.3293226243E+00    0.6149466877E-02    0.6705772587E+00    0.2144951042E-03    0.3509193477E+00
    0.1100000000E+07    0.3293033344E+00    0.5600830346E-02    0.6714387438E+00    0.1933214871E-03    0.3510257026E+00
    0.1300000000E+07    0.3292812595E+00    0.5181042892E-02    0.6720962928E+00    0.1772835338E-03    0.3511079232E+00
    0.1500000000E+07    0.3292587005E+00    0.4846190114E-02    0.6726197874E+00    0.1645979250E-03    0.3511745226E+00
    0.1700000000E+07    0.3292365892E+00    0.4570855367E-02    0.6730495540E+00    0.1542423007E-03    0.3512302750E+00
    0.1900000000E+07    0.3292153021E+00    0.4339161848E-02    0.6734107227E+00    0.1455831167E-03    0.3512780993E+00
    0.2100000000E+07    0.3291949720E+00    0.4140607282E-02    0.6737198834E+00    0.1382041721E-03    0.3513198988E+00
    0.2300000000E+07    0.3291756207E+00    0.3967927220E-02    0.6739884917E+00    0.1318193205E-03    0.3513569774E+00
    0.2500000000E+07    0.3291572192E+00    0.3815913407E-02    0.6742247486E+00    0.1262245166E-03    0.3513902646E+00
    0.2700000000E+07    0.3291397162E+00    0.3680720243E-02    0.6744347016E+00    0.1212698357E-03    0.3514204445E+00
    0.2900000000E+07    0.3291230527E+00    0.3559437522E-02    0.6746229219E+00    0.1168423257E-03    0.3514480343E+00
    0.3100000000E+07    0.3291071680E+00    0.3449816422E-02    0.6747929383E+00    0.1128550618E-03    0.3514734341E+00
    0.3300000000E+07    0.3290920040E+00    0.3350087710E-02    0.6749475241E+00    0.1092399161E-03    0.3514969591E+00
    0.3500000000E+07    0.3290775062E+00    0.3258837573E-02    0.6750888940E+00    0.1059426391E-03    0.3515188619E+00
    0.3700000000E+07    0.3290636244E+00    0.3174920644E-02    0.6752188406E+00    0.1029194269E-03    0.3515393480E+00
    0.3900000000E+07    0.3290503127E+00    0.3097397727E-02    0.6753388327E+00    0.1001344717E-03    0.3515585867E+00
    0.4100000000E+07    0.3290375295E+00    0.3025490338E-02    0.6754500871E+00    0.9755818006E-04    0.3515767188E+00
    0.4300000000E+07    0.3290252369E+00    0.2958546932E-02    0.6755536215E+00    0.9516585227E-04    0.3515938629E+00
    0.4500000000E+07    0.3290134006E+00    0.2896017430E-02    0.6756502947E+00    0.9293669000E-04    0.3516101198E+00
    0.4700000000E+07    0.3290019895E+00    0.2837433734E-02    0.6757408369E+00    0.9085303871E-04    0.3516255757E+00
    0.4900000000E+07    0.3289909753E+00    0.2782394632E-02    0.6758258740E+00    0.8889980253E-04    0.3516403048E+00
    0.1000000000E+07    0.3293135697E+00    0.5855135108E-02    0.6710397224E+00    0.2031067524E-03    0.3509763157E+00
    0.3000000000E+07    0.3291150167E+00    0.3503289411E-02    0.6747100172E+00    0.1147982951E-03    0.3514609866E+00
    0.5000000000E+07    0.3289856089E+00    0.2756094251E-02    0.6758664996E+00    0.8796795764E-04    0.3516474174E+00
    0.7000000000E+07    0.3288939778E+00    0.2352623374E-02    0.6764889758E+00    0.7380133056E-04    0.3517635108E+00
    0.9000000000E+07    0.3288232647E+00    0.2090050760E-02    0.6768933002E+00    0.6472256052E-04    0.3518478395E+00
    0.1100000000E+08    0.3287657326E+00    0.1901473192E-02    0.6771832987E+00    0.5827850139E-04    0.3519140553E+00
    0.1300000000E+08    0.3287172507E+00    0.1757461769E-02    0.6774045422E+00    0.5340409084E-04    0.3519685636E+00
    0.1500000000E+08    0.3286753629E+00    0.1642761485E-02    0.6775806166E+00    0.4955285433E-04    0.3520148823E+00
    0.1700000000E+08    0.3286384919E+00    0.1548564204E-02    0.6777251240E+00    0.4641191573E-04    0.3520551506E+00
    0.1900000000E+08    0.3286055653E+00    0.1469378461E-02    0.6778465362E+00    0.4378761322E-04    0.3520907667E+00
    0.2100000000E+08    0.3285758213E+00    0.1401577574E-02    0.6779504441E+00    0.4155285169E-04    0.3521226940E+00
    0.2300000000E+08    0.3285486991E+00    0.1342656390E-02    0.6780407066E+00    0.3962032930E-04    0.3521516250E+00
    0.2500000000E+08    0.3285237741E+00    0.1290820953E-02    0.6781200857E+00    0.3792784296E-04    0.3521780739E+00
    0.2700000000E+08    0.3285007171E+00    0.1244748037E-02    0.6781906175E+00    0.3642972118E-04    0.3522024328E+00
