  Pressure (Pa) 22mC5-400 (mol/kg) 2mC6-400 (mol/kg) 3mC6-400 (mol/kg) 33mC5-400 (mol/kg) 23mC5-400 (mol/kg)
    0.1000000000E+01    0.5308283787E-03    0.1597767062E-02    0.1590528117E-02    0.5203580776E-03    0.5592449372E-03
    0.3000000000E+01    0.1580947906E-02    0.4736243291E-02    0.4725452819E-02    0.1542501249E-02    0.1665587979E-02
    0.5000000000E+01    0.2616030579E-02    0.7800691623E-02    0.7800451298E-02    0.2540547103E-02    0.2756099603E-02
    0.7000000000E+01    0.3636478358E-02    0.1079348143E-01    0.1081735375E-01    0.3515266427E-02    0.3831202951E-02
    0.9000000000E+01    0.4642678542E-02    0.1371688420E-01    0.1377791538E-01    0.4467398165E-02    0.4891305736E-02
    0.1100000000E+02    0.5635004439E-02    0.1657307849E-01    0.1668382026E-01    0.5397651029E-02    0.5936800939E-02
    0.1300000000E+02    0.6613815988E-02    0.1936415459E-01    0.1953668486E-01    0.6306705018E-02    0.6968067473E-02
    0.1500000000E+02    0.7579460365E-02    0.2209211889E-01    0.2233806148E-01    0.7195212845E-02    0.7985470813E-02
    0.1700000000E+02    0.8532272542E-02    0.2475889805E-01    0.2508944139E-01    0.8063801275E-02    0.8989363591E-02
    0.1900000000E+02    0.9472575824E-02    0.2736634284E-01    0.2779225784E-01    0.8913072395E-02    0.9980086157E-02
    0.2100000000E+02    0.1040068236E-01    0.2991623182E-01    0.3044788883E-01    0.9743604800E-02    0.1095796711E-01
    0.2300000000E+02    0.1131689360E-01    0.3241027481E-01    0.3305765982E-01    0.1055595472E-01    0.1192332382E-01
    0.2500000000E+02    0.1222150081E-01    0.3485011612E-01    0.3562284618E-01    0.1135065709E-01    0.1287646288E-01
    0.2700000000E+02    0.1311478544E-01    0.3723733764E-01    0.3814467557E-01    0.1212822652E-01    0.1381768059E-01
    0.2900000000E+02    0.1399701956E-01    0.3957346174E-01    0.4062433016E-01    0.1288915828E-01    0.1474726338E-01
    0.3100000000E+02    0.1486846625E-01    0.4185995405E-01    0.4306294872E-01    0.1363392916E-01    0.1566548821E-01
    0.3300000000E+02    0.1572938000E-01    0.4409822598E-01    0.4546162863E-01    0.1436299834E-01    0.1657262296E-01
    0.3500000000E+02    0.1658000700E-01    0.4628963725E-01    0.4782142773E-01    0.1507680816E-01    0.1746892684E-01
    0.3700000000E+02    0.1742058554E-01    0.4843549817E-01    0.5014336611E-01    0.1577578490E-01    0.1835465070E-01
    0.3900000000E+02    0.1825134629E-01    0.5053707184E-01    0.5242842781E-01    0.1646033949E-01    0.1923003736E-01
    0.4100000000E+02    0.1907251261E-01    0.5259557628E-01    0.5467756236E-01    0.1713086818E-01    0.2009532199E-01
    0.4300000000E+02    0.1988430086E-01    0.5461218634E-01    0.5689168632E-01    0.1778775320E-01    0.2095073235E-01
    0.4500000000E+02    0.2068692063E-01    0.5658803561E-01    0.5907168474E-01    0.1843136334E-01    0.2179648910E-01
    0.4700000000E+02    0.2148057508E-01    0.5852421821E-01    0.6121841243E-01    0.1906205456E-01    0.2263280610E-01
    0.4900000000E+02    0.2226546109E-01    0.6042179043E-01    0.6333269535E-01    0.1968017051E-01    0.2345989065E-01
    0.1000000000E+02    0.5140552974E-02    0.1515324975E-01    0.1523759734E-01    0.4935216300E-02    0.5415855281E-02
    0.3000000000E+02    0.1443407523E-01    0.4072282242E-01    0.4184869941E-01    0.1326353473E-01    0.1520777859E-01
    0.5000000000E+02    0.2265467583E-01    0.6135641781E-01    0.6437792052E-01    0.1998461692E-01    0.2387003381E-01
    0.7000000000E+02    0.3002216766E-01    0.7825247780E-01    0.8375982693E-01    0.2548835483E-01    0.3163403048E-01
    0.9000000000E+02    0.3669816706E-01    0.9225748035E-01    0.1006597568E+00    0.3005015534E-01    0.3866991629E-01
    0.1100000000E+03    0.4280429870E-01    0.1039853559E+00    0.1155647458E+00    0.3386978437E-01    0.4510573962E-01
    0.1300000000E+03    0.4843395235E-01    0.1138915625E+00    0.1288398523E+00    0.3709546097E-01    0.5103982513E-01
    0.1500000000E+03    0.5366010984E-01    0.1223206637E+00    0.1407643459E+00    0.3983933232E-01    0.5654901293E-01
    0.1700000000E+03    0.5854069555E-01    0.1295378167E+00    0.1515556948E+00    0.4218771515E-01    0.6169429097E-01
    0.1900000000E+03    0.6312232028E-01    0.1357501623E+00    0.1613859050E+00    0.4420805282E-01    0.6652473621E-01
    0.2100000000E+03    0.6744295544E-01    0.1411216921E+00    0.1703929168E+00    0.4595375078E-01    0.7108032988E-01
    0.2300000000E+03    0.7153387887E-01    0.1457837927E+00    0.1786887223E+00    0.4746760621E-01    0.7539400590E-01
    0.2500000000E+03    0.7542111409E-01    0.1498428619E+00    0.1863652573E+00    0.4878428519E-01    0.7949316612E-01
    0.2700000000E+03    0.7912651110E-01    0.1533858986E+00    0.1934987499E+00    0.4993214098E-01    0.8340081816E-01
    0.2900000000E+03    0.8266856893E-01    0.1564846672E+00    0.2001529784E+00    0.5093456867E-01    0.8713644142E-01
    0.3100000000E+03    0.8606306947E-01    0.1591988410E+00    0.2063817462E+00    0.5181102770E-01    0.9071665438E-01
    0.3300000000E+03    0.8932357151E-01    0.1615784042E+00    0.2122307853E+00    0.5257782328E-01    0.9415573472E-01
    0.3500000000E+03    0.9246179970E-01    0.1636655076E+00    0.2177392374E+00    0.5324871016E-01    0.9746602889E-01
    0.3700000000E+03    0.9548795387E-01    0.1654959174E+00    0.2229408176E+00    0.5383536395E-01    0.1006582778E+00
    0.3900000000E+03    0.9841095714E-01    0.1671001563E+00    0.2278647386E+00    0.5434775253E-01    0.1037418779E+00
    0.4100000000E+03    0.1012386565E+00    0.1685044110E+00    0.2325364510E+00    0.5479443126E-01    0.1067250926E+00
    0.4300000000E+03    0.1039779865E+00    0.1697312590E+00    0.2369782401E+00    0.5518277962E-01    0.1096152245E+00
    0.4500000000E+03    0.1066351032E+00    0.1708002560E+00    0.2412097130E+00    0.5551919218E-01    0.1124187564E+00
    0.4700000000E+03    0.1092154954E+00    0.1717284122E+00    0.2452481961E+00    0.5580923399E-01    0.1151414685E+00
    0.4900000000E+03    0.1117240766E+00    0.1725305838E+00    0.2491090646E+00    0.5605776766E-01    0.1177885351E+00
    0.1000000000E+03    0.3981607429E-01    0.9837453400E-01    0.1083364422E+00    0.3204248262E-01    0.4195610599E-01
    0.3000000000E+03    0.8438336933E-01    0.1578865014E+00    0.2033175166E+00    0.5138745909E-01    0.8894503224E-01
    0.5000000000E+03    0.1129528354E+00    0.1728885590E+00    0.2509772326E+00    0.5616782259E-01    0.1190851730E+00
    0.7000000000E+03    0.1346271571E+00    0.1758734124E+00    0.2816654662E+00    0.5698954237E-01    0.1419619303E+00
    0.9000000000E+03    0.1522591901E+00    0.1745501531E+00    0.3039556517E+00    0.5638230413E-01    0.1605796829E+00
    0.1100000000E+04    0.1671225838E+00    0.1715174332E+00    0.3213222141E+00    0.5520518501E-01    0.1762797713E+00
    0.1300000000E+04    0.1799162447E+00    0.1678258705E+00    0.3354820187E+00    0.5380877744E-01    0.1897982697E+00
    0.1500000000E+04    0.1910792288E+00    0.1639456481E+00    0.3473985310E+00    0.5235174806E-01    0.2015976067E+00
    0.1700000000E+04    0.2009140298E+00    0.1600979603E+00    0.3576626766E+00    0.5090972237E-01    0.2119964041E+00
    0.1900000000E+04    0.2096428091E+00    0.1563872360E+00    0.3666614756E+00    0.4951896793E-01    0.2212286931E+00
    0.2100000000E+04    0.2174361768E+00    0.1528598495E+00    0.3746615117E+00    0.4819593307E-01    0.2294742212E+00
    0.2300000000E+04    0.2244293540E+00    0.1495322967E+00    0.3818538888E+00    0.4694670998E-01    0.2368754712E+00
    0.2500000000E+04    0.2307319761E+00    0.1464055100E+00    0.3883801072E+00    0.4577189533E-01    0.2435479827E+00
    0.2700000000E+04    0.2364344353E+00    0.1434724337E+00    0.3943477766E+00    0.4466919627E-01    0.2495870295E+00
    0.2900000000E+04    0.2416122107E+00    0.1407221435E+00    0.3998405903E+00    0.4363486934E-01    0.2550721786E+00
    0.3100000000E+04    0.2463289574E+00    0.1381421187E+00    0.4049248945E+00    0.4266452893E-01    0.2600705426E+00
    0.3300000000E+04    0.2506387905E+00    0.1357194959E+00    0.4096541546E+00    0.4175360348E-01    0.2646391837E+00
    0.3500000000E+04    0.2545880215E+00    0.1334417483E+00    0.4140720757E+00    0.4089758991E-01    0.2688269428E+00
    0.3700000000E+04    0.2582165098E+00    0.1312970349E+00    0.4182148340E+00    0.4009219068E-01    0.2726758620E+00
    0.3900000000E+04    0.2615587323E+00    0.1292743613E+00    0.4221127069E+00    0.3933338169E-01    0.2762223110E+00
    0.4100000000E+04    0.2646446429E+00    0.1273636309E+00    0.4257912854E+00    0.3861743960E-01    0.2794978925E+00
    0.4300000000E+04    0.2675003708E+00    0.1255556358E+00    0.4292723908E+00    0.3794094559E-01    0.2825301778E+00
    0.4500000000E+04    0.2701487936E+00    0.1238420137E+00    0.4325747781E+00    0.3730077561E-01    0.2853433101E+00
    0.4700000000E+04    0.2726100114E+00    0.1222151893E+00    0.4357146833E+00    0.3669408357E-01    0.2879585042E+00
    0.4900000000E+04    0.2749017407E+00    0.1206683087E+00    0.4387062534E+00    0.3611828109E-01    0.2903944614E+00
    0.1000000000E+04    0.1599849648E+00    0.1731618763E+00    0.3131224488E+00    0.5583649332E-01    0.1687396682E+00
    0.3000000000E+04    0.2440246294E+00    0.1394116539E+00    0.4024302044E+00    0.4314198589E-01    0.2576284306E+00
    0.5000000000E+04    0.2759890143E+00    0.1199228864E+00    0.4401503482E+00    0.3584121979E-01    0.2915504701E+00
    0.7000000000E+04    0.2918120402E+00    0.1079923222E+00    0.4635860107E+00    0.3145548362E-01    0.3084029985E+00
    0.9000000000E+04    0.3009414338E+00    0.9971588520E-01    0.4802920415E+00    0.2848736940E-01    0.3181641881E+00
    0.1100000000E+05    0.3067734281E+00    0.9348807360E-01    0.4931077888E+00    0.2630703644E-01    0.3244255373E+00
    0.1300000000E+05    0.3107758209E+00    0.8854437315E-01    0.5034046715E+00    0.2461314290E-01    0.3287411844E+00
    0.1500000000E+05    0.3136714060E+00    0.8447227931E-01    0.5119470767E+00    0.2324386620E-01    0.3318774139E+00
    0.1700000000E+05    0.3158523180E+00    0.8102710760E-01    0.5192030834E+00    0.2210413971E-01    0.3342504969E+00
    0.1900000000E+05    0.3175477323E+00    0.7805289611E-01    0.5254791962E+00    0.2113409008E-01    0.3361040394E+00
    0.2100000000E+05    0.3188996921E+00    0.7544454772E-01    0.5309864901E+00    0.2029388796E-01    0.3375892354E+00
    0.2300000000E+05    0.3200005174E+00    0.7312806076E-01    0.5358761561E+00    0.1955585103E-01    0.3388044894E+00
    0.2500000000E+05    0.3209126049E+00    0.7104945243E-01    0.5402599725E+00    0.1890004012E-01    0.3398164058E+00
    0.2700000000E+05    0.3216795312E+00    0.6916818481E-01    0.5442227571E+00    0.1831166269E-01    0.3406715673E+00
    0.2900000000E+05    0.3223325877E+00    0.6745307244E-01    0.5478302882E+00    0.1777946886E-01    0.3414034732E+00
    0.3100000000E+05    0.3228947868E+00    0.6587963067E-01    0.5511345331E+00    0.1729472080E-01    0.3420367971E+00
    0.3300000000E+05    0.3233834075E+00    0.6442829806E-01    0.5541772084E+00    0.1685050783E-01    0.3425900931E+00
    0.3500000000E+05    0.3238116611E+00    0.6308320949E-01    0.5569922708E+00    0.1644127786E-01    0.3430775694E+00
    0.3700000000E+05    0.3241898119E+00    0.6183132764E-01    0.5596077000E+00    0.1606250855E-01    0.3435102824E+00
    0.3900000000E+05    0.3245259496E+00    0.6066181456E-01    0.5620468018E+00    0.1571047141E-01    0.3438969595E+00
    0.4100000000E+05    0.3248265313E+00    0.5956556787E-01    0.5643291769E+00    0.1538205919E-01    0.3442445779E+00
    0.4300000000E+05    0.3250967705E+00    0.5853487266E-01    0.5664714538E+00    0.1507465729E-01    0.3445587803E+00
    0.4500000000E+05    0.3253409207E+00    0.5756313609E-01    0.5684878501E+00    0.1478604655E-01    0.3448441777E+00
    0.4700000000E+05    0.3255624848E+00    0.5664468230E-01    0.5703906092E+00    0.1451432867E-01    0.3451045737E+00
    0.4900000000E+05    0.3257643726E+00    0.5577459186E-01    0.5721903422E+00    0.1425786820E-01    0.3453431331E+00
    0.1000000000E+05    0.3041525393E+00    0.9640534329E-01    0.4870804961E+00    0.2732217278E-01    0.3216084322E+00
    0.3000000000E+05    0.3226238529E+00    0.6664996421E-01    0.5495175072E+00    0.1753163253E-01    0.3417311792E+00
    0.5000000000E+05    0.3258587151E+00    0.5535632058E-01    0.5730545121E+00    0.1413490890E-01    0.3454550705E+00
    0.7000000000E+05    0.3271377519E+00    0.4872744933E-01    0.5866579746E+00    0.1221399513E-01    0.3470120098E+00
    0.9000000000E+05    0.3278064599E+00    0.4418535042E-01    0.5958722270E+00    0.1092727937E-01    0.3478734748E+00
    0.1100000000E+06    0.3282104114E+00    0.4080367951E-01    0.6026726677E+00    0.9984610584E-02    0.3484246465E+00
    0.1300000000E+06    0.3284770059E+00    0.3815046112E-01    0.6079715425E+00    0.9254150074E-02    0.3488102212E+00
    0.1500000000E+06    0.3286637618E+00    0.3599183963E-01    0.6122584736E+00    0.8665836464E-02    0.3490967662E+00
    0.1700000000E+06    0.3288003028E+00    0.3418811742E-01    0.6158237951E+00    0.8178410858E-02    0.3493192178E+00
    0.1900000000E+06    0.3289033739E+00    0.3264976006E-01    0.6188524109E+00    0.7765733248E-02    0.3494977010E+00
    0.2100000000E+06    0.3289831207E+00    0.3131625888E-01    0.6214685969E+00    0.7410307492E-02    0.3496446432E+00
    0.2300000000E+06    0.3290460308E+00    0.3014498918E-01    0.6237594773E+00    0.7099910135E-02    0.3497681440E+00
    0.2500000000E+06    0.3290964355E+00    0.2910490494E-01    0.6257882398E+00    0.6825702201E-02    0.3498737152E+00
    0.2700000000E+06    0.3291373297E+00    0.2817276336E-01    0.6276020105E+00    0.6581108595E-02    0.3499652424E+00
    0.2900000000E+06    0.3291708467E+00    0.2733075818E-01    0.6292367690E+00    0.6361121004E-02    0.3500455465E+00
    0.3100000000E+06    0.3291985435E+00    0.2656497806E-01    0.6307205377E+00    0.6161846973E-02    0.3501167274E+00
    0.3300000000E+06    0.3292215817E+00    0.2586436969E-01    0.6320755186E+00    0.5980208417E-02    0.3501803819E+00
    0.3500000000E+06    0.3292408435E+00    0.2522002061E-01    0.6333195674E+00    0.5813734281E-02    0.3502377469E+00
    0.3700000000E+06    0.3292570101E+00    0.2462465117E-01    0.6344672332E+00    0.5660414397E-02    0.3502897965E+00
    0.3900000000E+06    0.3292706151E+00    0.2407224703E-01    0.6355305099E+00    0.5518594252E-02    0.3503373085E+00
    0.4100000000E+06    0.3292820815E+00    0.2355778827E-01    0.6365193874E+00    0.5386897765E-02    0.3503809123E+00
    0.4300000000E+06    0.3292917488E+00    0.2307704643E-01    0.6374422645E+00    0.5264169651E-02    0.3504211228E+00
    0.4500000000E+06    0.3292998921E+00    0.2262643015E-01    0.6383062617E+00    0.5149431757E-02    0.3504583657E+00
    0.4700000000E+06    0.3293067362E+00    0.2220286625E-01    0.6391174616E+00    0.5041849523E-02    0.3504929963E+00
    0.4900000000E+06    0.3293124667E+00    0.2180370687E-01    0.6398810969E+00    0.4940705912E-02    0.3505253134E+00
    0.1000000000E+06    0.3280310830E+00    0.4238305242E-01    0.5995030541E+00    0.1042325081E-01    0.3481760386E+00
    0.3000000000E+06    0.3291853423E+00    0.2693908816E-01    0.6299960229E+00    0.6259103469E-02    0.3500821677E+00
    0.5000000000E+06    0.3293149635E+00    0.2161254939E-01    0.6402465174E+00    0.4892351513E-02    0.3505406851E+00
    0.7000000000E+06    0.3293329536E+00    0.1864569974E-01    0.6458941179E+00    0.4149046420E-02    0.3507719172E+00
    0.9000000000E+06    0.3293227539E+00    0.1667984552E-01    0.6496110505E+00    0.3664411222E-02    0.3509198040E+00
    0.1100000000E+07    0.3293035804E+00    0.1525065442E-01    0.6523002991E+00    0.3316365551E-02    0.3510263085E+00
    0.1300000000E+07    0.3292815842E+00    0.1414936231E-01    0.6543648916E+00    0.3050808981E-02    0.3511086358E+00
    0.1500000000E+07    0.3292590823E+00    0.1326606546E-01    0.6560158695E+00    0.2839576070E-02    0.3511753167E+00
    0.1700000000E+07    0.3292370145E+00    0.1253655543E-01    0.6573760129E+00    0.2666361165E-02    0.3512311343E+00
    0.1900000000E+07    0.3292157618E+00    0.1192042465E-01    0.6585223259E+00    0.2520981770E-02    0.3512790128E+00
    0.2100000000E+07    0.3291954597E+00    0.1139078091E-01    0.6595059090E+00    0.2396706491E-02    0.3513208585E+00
    0.2300000000E+07    0.3291761319E+00    0.1092892737E-01    0.6603622022E+00    0.2288883016E-02    0.3513579774E+00
    0.2500000000E+07    0.3291577505E+00    0.1052140052E-01    0.6611166706E+00    0.2194179002E-02    0.3513913004E+00
    0.2700000000E+07    0.3291402650E+00    0.1015822140E-01    0.6617881522E+00    0.2110136457E-02    0.3514215126E+00
    0.2900000000E+07    0.3291236168E+00    0.9831812985E-02    0.6623909264E+00    0.2034897238E-02    0.3514491319E+00
    0.3100000000E+07    0.3291077457E+00    0.9536302740E-02    0.6629360429E+00    0.1967027049E-02    0.3514745587E+00
    0.3300000000E+07    0.3290925940E+00    0.9267058157E-02    0.6634322061E+00    0.1905398710E-02    0.3514981087E+00
    0.3500000000E+07    0.3290781074E+00    0.9020368387E-02    0.6638863794E+00    0.1849112469E-02    0.3515200349E+00
    0.3700000000E+07    0.3290642358E+00    0.8793220555E-02    0.6643042097E+00    0.1797440207E-02    0.3515405430E+00
    0.3900000000E+07    0.3290509336E+00    0.8583139142E-02    0.6646903317E+00    0.1749785518E-02    0.3515598023E+00
    0.4100000000E+07    0.3290381591E+00    0.8388068426E-02    0.6650485901E+00    0.1705654579E-02    0.3515779540E+00
    0.4300000000E+07    0.3290258747E+00    0.8206284946E-02    0.6653822050E+00    0.1664634526E-02    0.3515951168E+00
    0.4500000000E+07    0.3290140460E+00    0.8036331327E-02    0.6656938970E+00    0.1626377153E-02    0.3516113915E+00
    0.4700000000E+07    0.3290026420E+00    0.7876965560E-02    0.6659859825E+00    0.1590586451E-02    0.3516268644E+00
    0.4900000000E+07    0.3289916346E+00    0.7727121635E-02    0.6662604484E+00    0.1557008963E-02    0.3516416099E+00
    0.1000000000E+07    0.3293137637E+00    0.1591454086E-01    0.6510524730E+00    0.3477572190E-02    0.3509768538E+00
    0.3000000000E+07    0.3291155878E+00    0.9680509894E-02    0.6626701010E+00    0.2000117586E-02    0.3514620979E+00
    0.5000000000E+07    0.3289862714E+00    0.7655477617E-02    0.6663916191E+00    0.1540980710E-02    0.3516487304E+00
    0.7000000000E+07    0.3288946920E+00    0.6553051448E-02    0.6684051244E+00    0.1296571745E-02    0.3517649578E+00
    0.9000000000E+07    0.3288240156E+00    0.5832235264E-02    0.6697164189E+00    0.1139209499E-02    0.3518493907E+00
    0.1100000000E+08    0.3287665124E+00    0.5312908813E-02    0.6706584154E+00    0.1027164132E-02    0.3519156933E+00
    0.1300000000E+08    0.3287180546E+00    0.4915389302E-02    0.6713778166E+00    0.9422157907E-03    0.3519702769E+00
    0.1500000000E+08    0.3286761875E+00    0.4598205677E-02    0.6719507513E+00    0.8749790314E-03    0.3520166623E+00
    0.1700000000E+08    0.3286393348E+00    0.4337339891E-02    0.6724212067E+00    0.8200642853E-03    0.3520569910E+00
    0.1900000000E+08    0.3286064246E+00    0.4117781584E-02    0.6728166200E+00    0.7741276473E-03    0.3520926624E+00
    0.2100000000E+08    0.3285766956E+00    0.3929597909E-02    0.6731551172E+00    0.7349703386E-03    0.3521246408E+00
    0.2300000000E+08    0.3285495871E+00    0.3765916219E-02    0.6734492217E+00    0.7010795500E-03    0.3521536194E+00
    0.2500000000E+08    0.3285246748E+00    0.3621807937E-02    0.6737079030E+00    0.6713758896E-03    0.3521801130E+00
    0.2700000000E+08    0.3285016296E+00    0.3493633199E-02    0.6739377778E+00    0.6450658715E-03    0.3522045140E+00
