  Pressure (Pa) 22mC5-400 (mol/kg) 2mC6-400 (mol/kg) 3mC6-400 (mol/kg) 33mC5-400 (mol/kg) 23mC5-400 (mol/kg)
    0.1000000000E+01    0.5307674580E-03    0.2385022177E-02    0.5270385777E-02    0.1294658427E-03    0.3727871414E-03
    0.3000000000E+01    0.1580413152E-02    0.7003242903E-02    0.1547804615E-01    0.3802029902E-03    0.1110016139E-02
    0.5000000000E+01    0.2614581553E-02    0.1142945800E-01    0.2526540421E-01    0.6205775707E-03    0.1836381279E-02
    0.7000000000E+01    0.3633707390E-02    0.1567527006E-01    0.3465894969E-01    0.8512165770E-03    0.2552187668E-02
    0.9000000000E+01    0.4638208690E-02    0.1975134000E-01    0.4368297115E-01    0.1072696023E-02    0.3257728694E-02
    0.1100000000E+02    0.5628487584E-02    0.2366748232E-01    0.5235978062E-01    0.1285546110E-02    0.3953286587E-02
    0.1300000000E+02    0.6604931061E-02    0.2743274899E-01    0.6070991121E-01    0.1490255768E-02    0.4639132954E-02
    0.1500000000E+02    0.7567911684E-02    0.3105550337E-01    0.6875229155E-01    0.1687276667E-02    0.5315529274E-02
    0.1700000000E+02    0.8517788258E-02    0.3454348568E-01    0.7650439999E-01    0.1877026764E-02    0.5982727373E-02
    0.1900000000E+02    0.9454906469E-02    0.3790387106E-01    0.8398240137E-01    0.2059893446E-02    0.6640969871E-02
    0.2100000000E+02    0.1037959948E-01    0.4114332117E-01    0.9120126856E-01    0.2236236328E-02    0.7290490601E-02
    0.2300000000E+02    0.1129218851E-01    0.4426803020E-01    0.9817489075E-01    0.2406389745E-02    0.7931515007E-02
    0.2500000000E+02    0.1219298336E-01    0.4728376598E-01    0.1049161701E+00    0.2570664977E-02    0.8564260523E-02
    0.2700000000E+02    0.1308228292E-01    0.5019590671E-01    0.1114371084E+00    0.2729352239E-02    0.9188936929E-02
    0.2900000000E+02    0.1396037565E-01    0.5300947401E-01    0.1177488842E+00    0.2882722474E-02    0.9805746688E-02
    0.3100000000E+02    0.1482754005E-01    0.5572916257E-01    0.1238619229E+00    0.3031028951E-02    0.1041488526E-01
    0.3300000000E+02    0.1568404507E-01    0.5835936684E-01    0.1297859592E+00    0.3174508716E-02    0.1101654143E-01
    0.3500000000E+02    0.1653015056E-01    0.6090420516E-01    0.1355300938E+00    0.3313383895E-02    0.1161089755E-01
    0.3700000000E+02    0.1736610758E-01    0.6336754155E-01    0.1411028440E+00    0.3447862874E-02    0.1219812986E-01
    0.3900000000E+02    0.1819215887E-01    0.6575300542E-01    0.1465121905E+00    0.3578141367E-02    0.1277840870E-01
    0.4100000000E+02    0.1900853912E-01    0.6806400947E-01    0.1517656189E+00    0.3704403382E-02    0.1335189882E-01
    0.4300000000E+02    0.1981547533E-01    0.7030376600E-01    0.1568701575E+00    0.3826822103E-02    0.1391875953E-01
    0.4500000000E+02    0.2061318714E-01    0.7247530165E-01    0.1618324124E+00    0.3945560693E-02    0.1447914500E-01
    0.4700000000E+02    0.2140188711E-01    0.7458147093E-01    0.1666585984E+00    0.4060773018E-02    0.1503320442E-01
    0.4900000000E+02    0.2218178103E-01    0.7662496851E-01    0.1713545681E+00    0.4172604317E-02    0.1558108221E-01
    0.1000000000E+02    0.5135101404E-02    0.2172881940E-01    0.4806345452E-01    0.1180168261E-02    0.3606738314E-02
    0.3000000000E+02    0.1439530686E-01    0.5438077173E-01    0.1208296218E+00    0.2957493503E-02    0.1011126292E-01
    0.5000000000E+02    0.2256848823E-01    0.7762401659E-01    0.1736554581E+00    0.4227295260E-02    0.1585274688E-01
    0.7000000000E+02    0.2988562818E-01    0.9486447980E-01    0.2140216855E+00    0.5173234176E-02    0.2099331056E-01
    0.9000000000E+02    0.3651437917E-01    0.1080263055E+00    0.2460510272E+00    0.5898976662E-02    0.2565062796E-01
    0.1100000000E+03    0.4257957625E-01    0.1182865863E+00    0.2722080602E+00    0.6467906274E-02    0.2991232221E-01
    0.1300000000E+03    0.4817623154E-01    0.1264092999E+00    0.2940600543E+00    0.6921151148E-02    0.3384508506E-01
    0.1500000000E+03    0.5337804590E-01    0.1329134351E+00    0.3126533402E+00    0.7286650737E-02    0.3750065043E-01
    0.1700000000E+03    0.5824314773E-01    0.1381645462E+00    0.3287144664E+00    0.7584088782E-02    0.4091982213E-01
    0.1900000000E+03    0.6281806127E-01    0.1424277975E+00    0.3427645664E+00    0.7827749291E-02    0.4413525896E-01
    0.2100000000E+03    0.6714051232E-01    0.1459002778E+00    0.3551877540E+00    0.8028255293E-02    0.4717344397E-01
    0.2300000000E+03    0.7124145159E-01    0.1487315153E+00    0.3662737922E+00    0.8193672257E-02    0.5005610454E-01
    0.2500000000E+03    0.7514653984E-01    0.1510369632E+00    0.3762456807E+00    0.8330233089E-02    0.5280125480E-01
    0.2700000000E+03    0.7887725540E-01    0.1529071268E+00    0.3852780511E+00    0.8442828777E-02    0.5542397303E-01
    0.2900000000E+03    0.8245173215E-01    0.1544139014E+00    0.3935097642E+00    0.8535349003E-02    0.5793698978E-01
    0.3100000000E+03    0.8588540168E-01    0.1556150703E+00    0.4010527412E+00    0.8610923860E-02    0.6035113869E-01
    0.3300000000E+03    0.8919149156E-01    0.1565575593E+00    0.4079982850E+00    0.8672098769E-02    0.6267570616E-01
    0.3500000000E+03    0.9238141595E-01    0.1572798322E+00    0.4144216888E+00    0.8720963240E-02    0.6491870560E-01
    0.3700000000E+03    0.9546508504E-01    0.1578136816E+00    0.4203856517E+00    0.8759247112E-02    0.6708709463E-01
    0.3900000000E+03    0.9845115247E-01    0.1581855851E+00    0.4259428494E+00    0.8788393492E-02    0.6918694875E-01
    0.4100000000E+03    0.1013472148E+00    0.1584177456E+00    0.4311378942E+00    0.8809614715E-02    0.7122360132E-01
    0.4300000000E+03    0.1041599736E+00    0.1585288988E+00    0.4360088482E+00    0.8823935762E-02    0.7320175747E-01
    0.4500000000E+03    0.1068953684E+00    0.1585349456E+00    0.4405884049E+00    0.8832228303E-02    0.7512558722E-01
    0.4700000000E+03    0.1095586858E+00    0.1584494520E+00    0.4449048219E+00    0.8835237633E-02    0.7699880234E-01
    0.4900000000E+03    0.1121546507E+00    0.1582840486E+00    0.4489826628E+00    0.8833604171E-02    0.7882472018E-01
    0.1000000000E+03    0.3961090119E-01    0.1134641892E+00    0.2597501831E+00    0.6200084800E-02    0.2782635091E-01
    0.3000000000E+03    0.8418529446E-01    0.1550495308E+00    0.3973612159E+00    0.8575083506E-02    0.5915580958E-01
    0.5000000000E+03    0.1134287178E+00    0.1581745663E+00    0.4509389327E+00    0.8831222175E-02    0.7972088470E-01
    0.7000000000E+03    0.1362055949E+00    0.1536080937E+00    0.4815607055E+00    0.8640718205E-02    0.9574490208E-01
    0.9000000000E+03    0.1552358242E+00    0.1470281524E+00    0.5020939568E+00    0.8319785632E-02    0.1091375366E+00
    0.1100000000E+04    0.1717070892E+00    0.1400626113E+00    0.5171324687E+00    0.7962755632E-02    0.1207326900E+00
    0.1300000000E+04    0.1862543385E+00    0.1332700420E+00    0.5287816138E+00    0.7604135005E-02    0.1309761696E+00
    0.1500000000E+04    0.1992662230E+00    0.1268506292E+00    0.5381621838E+00    0.7257762570E-02    0.1401408490E+00
    0.1700000000E+04    0.2110049230E+00    0.1208668629E+00    0.5459339961E+00    0.6929182916E-02    0.1484108053E+00
    0.1900000000E+04    0.2216604849E+00    0.1153242242E+00    0.5525147051E+00    0.6620279559E-02    0.1559194735E+00
    0.2100000000E+04    0.2313782502E+00    0.1102040996E+00    0.5581835819E+00    0.6331226456E-02    0.1627689046E+00
    0.2300000000E+04    0.2402738969E+00    0.1054782412E+00    0.5631355616E+00    0.6061383245E-02    0.1690403275E+00
    0.2500000000E+04    0.2484422665E+00    0.1011154164E+00    0.5675114998E+00    0.5809732358E-02    0.1748003454E+00
    0.2700000000E+04    0.2559628530E+00    0.9708452269E-01    0.5714161125E+00    0.5575101947E-02    0.1801047893E+00
    0.2900000000E+04    0.2629033949E+00    0.9335601860E-01    0.5749291257E+00    0.5356282550E-02    0.1850012393E+00
    0.3100000000E+04    0.2693223350E+00    0.8990252483E-01    0.5781124800E+00    0.5152088488E-02    0.1895307506E+00
    0.3300000000E+04    0.2752705768E+00    0.8669900989E-01    0.5810151444E+00    0.4961389435E-02    0.1937290868E+00
    0.3500000000E+04    0.2807927842E+00    0.8372276726E-01    0.5836764234E+00    0.4783125467E-02    0.1976276310E+00
    0.3700000000E+04    0.2859283746E+00    0.8095329192E-01    0.5861282871E+00    0.4616312808E-02    0.2012540835E+00
    0.3900000000E+04    0.2907122987E+00    0.7837211270E-01    0.5883970472E+00    0.4460044323E-02    0.2046330083E+00
    0.4100000000E+04    0.2951756666E+00    0.7596261053E-01    0.5905045871E+00    0.4313487090E-02    0.2077862729E+00
    0.4300000000E+04    0.2993462610E+00    0.7370983811E-01    0.5924692791E+00    0.4175878411E-02    0.2107334080E+00
    0.4500000000E+04    0.3032489632E+00    0.7160034914E-01    0.5943066793E+00    0.4046521076E-02    0.2134919066E+00
    0.4700000000E+04    0.3069061116E+00    0.6962204056E-01    0.5960300609E+00    0.3924778361E-02    0.2160774759E+00
    0.4900000000E+04    0.3103378072E+00    0.6776400913E-01    0.5976508290E+00    0.3810069051E-02    0.2185042512E+00
    0.1000000000E+04    0.1637437005E+00    0.1435459019E+00    0.5101355298E+00    0.8142898693E-02    0.1151263588E+00
    0.3000000000E+04    0.2661747240E+00    0.9159651533E-01    0.5765586901E+00    0.5252429530E-02    0.1873095150E+00
    0.5000000000E+04    0.3119748450E+00    0.6687698611E-01    0.5984258679E+00    0.3755184285E-02    0.2196621243E+00
    0.7000000000E+04    0.3364433542E+00    0.5352239822E-01    0.6103571668E+00    0.2920544469E-02    0.2369899648E+00
    0.9000000000E+04    0.3510778946E+00    0.4534755925E-01    0.6181576625E+00    0.2404702938E-02    0.2473821384E+00
    0.1100000000E+05    0.3605884734E+00    0.3986166266E-01    0.6237729428E+00    0.2059052330E-02    0.2541556505E+00
    0.1300000000E+05    0.3671670673E+00    0.3592281409E-01    0.6280664361E+00    0.1812729298E-02    0.2588556456E+00
    0.1500000000E+05    0.3719410597E+00    0.3294774944E-01    0.6314882274E+00    0.1628666748E-02    0.2622775681E+00
    0.1700000000E+05    0.3755384965E+00    0.3061165286E-01    0.6342991770E+00    0.1485919921E-02    0.2648649652E+00
    0.1900000000E+05    0.3783325257E+00    0.2872065731E-01    0.6366623535E+00    0.1371881008E-02    0.2668816208E+00
    0.2100000000E+05    0.3805568232E+00    0.2715235849E-01    0.6386856592E+00    0.1278554932E-02    0.2684928875E+00
    0.2300000000E+05    0.3823642368E+00    0.2582581171E-01    0.6404437352E+00    0.1200647357E-02    0.2698070322E+00
    0.2500000000E+05    0.3838584636E+00    0.2468538332E-01    0.6419900896E+00    0.1134522376E-02    0.2708975833E+00
    0.2700000000E+05    0.3851120707E+00    0.2369157049E-01    0.6433642222E+00    0.1077604527E-02    0.2718160504E+00
    0.2900000000E+05    0.3861772096E+00    0.2281553413E-01    0.6445960158E+00    0.1028020375E-02    0.2725994921E+00
    0.3100000000E+05    0.3870922344E+00    0.2203571040E-01    0.6457085535E+00    0.9843754020E-03    0.2732751926E+00
    0.3300000000E+05    0.3878859261E+00    0.2133563677E-01    0.6467199887E+00    0.9456104788E-03    0.2738636491E+00
    0.3500000000E+05    0.3885802688E+00    0.2070251432E-01    0.6476448218E+00    0.9109068237E-03    0.2743805364E+00
    0.3700000000E+05    0.3891923215E+00    0.2012623148E-01    0.6484947949E+00    0.8796214433E-03    0.2748380318E+00
    0.3900000000E+05    0.3897355091E+00    0.1959868515E-01    0.6492795323E+00    0.8512422710E-03    0.2752457295E+00
    0.4100000000E+05    0.3902205304E+00    0.1911329873E-01    0.6500070079E+00    0.8253563550E-03    0.2756112848E+00
    0.4300000000E+05    0.3906560096E+00    0.1866467330E-01    0.6506838923E+00    0.8016268834E-03    0.2759408763E+00
    0.4500000000E+05    0.3910489707E+00    0.1824833091E-01    0.6513158149E+00    0.7797763167E-03    0.2762395420E+00
    0.4700000000E+05    0.3914051886E+00    0.1786052274E-01    0.6519075640E+00    0.7595738158E-03    0.2765114292E+00
    0.4900000000E+05    0.3917294519E+00    0.1749808369E-01    0.6524632419E+00    0.7408257445E-03    0.2767599814E+00
    0.1000000000E+05    0.3563013509E+00    0.4235851542E-01    0.6211705311E+00    0.2216146197E-02    0.2510997827E+00
    0.3000000000E+05    0.3866515011E+00    0.2241472454E-01    0.6451659587E+00    0.1005528251E-02    0.2729493967E+00
    0.5000000000E+05    0.3918808777E+00    0.1732552007E-01    0.6527286790E+00    0.7319449573E-03    0.2768764261E+00
    0.7000000000E+05    0.3939283072E+00    0.1472239648E-01    0.6567927473E+00    0.6016174696E-03    0.2784828804E+00
    0.9000000000E+05    0.3949972225E+00    0.1306339222E-01    0.6594289128E+00    0.5221756793E-03    0.2793598577E+00
    0.1100000000E+06    0.3956451148E+00    0.1188351777E-01    0.6613175851E+00    0.4673892982E-03    0.2799159096E+00
    0.1300000000E+06    0.3960754890E+00    0.1098702092E-01    0.6627571677E+00    0.4266997920E-03    0.2803023960E+00
    0.1500000000E+06    0.3963796361E+00    0.1027493416E-01    0.6639019749E+00    0.3949491168E-03    0.2805882354E+00
    0.1700000000E+06    0.3966043819E+00    0.9690994983E-02    0.6648409312E+00    0.3692834088E-03    0.2808093117E+00
    0.1900000000E+06    0.3967761293E+00    0.9200483138E-02    0.6656293841E+00    0.3479798773E-03    0.2809861654E+00
    0.2100000000E+06    0.3969108554E+00    0.8780628772E-02    0.6663038340E+00    0.3299291765E-03    0.2811314153E+00
    0.2300000000E+06    0.3970187730E+00    0.8415781008E-02    0.6668894617E+00    0.3143805076E-03    0.2812532509E+00
    0.2500000000E+06    0.3971067023E+00    0.8094772017E-02    0.6674042794E+00    0.3008052116E-03    0.2813572249E+00
    0.2700000000E+06    0.3971793640E+00    0.7809385779E-02    0.6678615596E+00    0.2888188436E-03    0.2814472396E+00
    0.2900000000E+06    0.3972401248E+00    0.7553422327E-02    0.6682713283E+00    0.2781342417E-03    0.2815261210E+00
    0.3100000000E+06    0.3972914469E+00    0.7322101440E-02    0.6686413201E+00    0.2685320055E-03    0.2815959673E+00
    0.3300000000E+06    0.3973351704E+00    0.7111669067E-02    0.6689776112E+00    0.2598412327E-03    0.2816583712E+00
    0.3500000000E+06    0.3973726968E+00    0.6919129627E-02    0.6692850506E+00    0.2519265527E-03    0.2817145639E+00
    0.3700000000E+06    0.3974051109E+00    0.6742059166E-02    0.6695675616E+00    0.2446791600E-03    0.2817655136E+00
    0.3900000000E+06    0.3974332650E+00    0.6578471957E-02    0.6698283578E+00    0.2380104662E-03    0.2818119923E+00
    0.4100000000E+06    0.3974578370E+00    0.6426723351E-02    0.6700700998E+00    0.2318475139E-03    0.2818546237E+00
    0.4300000000E+06    0.3974793725E+00    0.6285437766E-02    0.6702950124E+00    0.2261296001E-03    0.2818939176E+00
    0.4500000000E+06    0.3974983153E+00    0.6153454460E-02    0.6705049720E+00    0.2208057510E-03    0.2819302950E+00
    0.4700000000E+06    0.3975150298E+00    0.6029786114E-02    0.6707015741E+00    0.2158328050E-03    0.2819641067E+00
    0.4900000000E+06    0.3975298174E+00    0.5913586793E-02    0.6708861850E+00    0.2111739376E-03    0.2819956479E+00
    0.1000000000E+06    0.3953570763E+00    0.1242911831E-01    0.6604431519E+00    0.4925480932E-03    0.2796656105E+00
    0.3000000000E+06    0.3972668386E+00    0.7434936624E-02    0.6684608835E+00    0.2732094702E-03    0.2815620641E+00
    0.5000000000E+06    0.3975365691E+00    0.5858056037E-02    0.6709743684E+00    0.2089522209E-03    0.2820106467E+00
    0.7000000000E+06    0.3976140796E+00    0.5005651260E-02    0.6723244991E+00    0.1752389728E-03    0.2822359906E+00
    0.9000000000E+06    0.3976370791E+00    0.4450258473E-02    0.6732004140E+00    0.1536814403E-03    0.2823798790E+00
    0.1100000000E+07    0.3976392178E+00    0.4050981625E-02    0.6738281431E+00    0.1383945587E-03    0.2824834179E+00
    0.1300000000E+07    0.3976321390E+00    0.3745814724E-02    0.6743067566E+00    0.1268363056E-03    0.2825634146E+00
    0.1500000000E+07    0.3976207099E+00    0.3502593499E-02    0.6746874776E+00    0.1177059701E-03    0.2826281886E+00
    0.1700000000E+07    0.3976072183E+00    0.3302733490E-02    0.6749998237E+00    0.1102600679E-03    0.2826823994E+00
    0.1900000000E+07    0.3975928256E+00    0.3134640563E-02    0.6752621688E+00    0.1040388807E-03    0.2827288934E+00
    0.2100000000E+07    0.3975781512E+00    0.2990653136E-02    0.6754866313E+00    0.9874091476E-04    0.2827695253E+00
    0.2300000000E+07    0.3975635348E+00    0.2865476054E-02    0.6756815729E+00    0.9415916960E-04    0.2828055651E+00
    0.2500000000E+07    0.3975491641E+00    0.2755315567E-02    0.6758529755E+00    0.9014620314E-04    0.2828379176E+00
    0.2700000000E+07    0.3975351410E+00    0.2657372150E-02    0.6760052479E+00    0.8659378234E-04    0.2828672487E+00
    0.2900000000E+07    0.3975215173E+00    0.2569528301E-02    0.6761417207E+00    0.8342043069E-04    0.2828940618E+00
    0.3100000000E+07    0.3975083154E+00    0.2490148481E-02    0.6762649641E+00    0.8056348962E-04    0.2829187459E+00
    0.3300000000E+07    0.3974955400E+00    0.2417946458E-02    0.6763769972E+00    0.7797387994E-04    0.2829416076E+00
    0.3500000000E+07    0.3974831855E+00    0.2351894751E-02    0.6764794315E+00    0.7561254121E-04    0.2829628926E+00
    0.3700000000E+07    0.3974712400E+00    0.2291161234E-02    0.6765735713E+00    0.7344794906E-04    0.2829828007E+00
    0.3900000000E+07    0.3974596883E+00    0.2235063767E-02    0.6766604849E+00    0.7145434484E-04    0.2830014965E+00
    0.4100000000E+07    0.3974485135E+00    0.2183037082E-02    0.6767410569E+00    0.6961044824E-04    0.2830191169E+00
    0.4300000000E+07    0.3974376979E+00    0.2134608195E-02    0.6768160272E+00    0.6789850443E-04    0.2830357772E+00
    0.4500000000E+07    0.3974272240E+00    0.2089377872E-02    0.6768860197E+00    0.6630356767E-04    0.2830515754E+00
    0.4700000000E+07    0.3974170746E+00    0.2047006449E-02    0.6769515651E+00    0.6481295515E-04    0.2830665951E+00
    0.4900000000E+07    0.3974072332E+00    0.2007202847E-02    0.6770131180E+00    0.6341582508E-04    0.2830809086E+00
    0.1000000000E+07    0.3976397839E+00    0.4235991301E-02    0.6735374880E+00    0.1454552993E-03    0.2824353480E+00
    0.3000000000E+07    0.3975148630E+00    0.2528867741E-02    0.6762048589E+00    0.8195574641E-04    0.2829066492E+00
    0.5000000000E+07    0.3974024231E+00    0.1988184150E-02    0.6770425218E+00    0.6274934871E-04    0.2830878205E+00
    0.7000000000E+07    0.3973190143E+00    0.1696534299E-02    0.6774928577E+00    0.5262195917E-04    0.2832006415E+00
    0.9000000000E+07    0.3972533923E+00    0.1506846182E-02    0.6777851752E+00    0.4613646000E-04    0.2832825979E+00
    0.1100000000E+08    0.3971994312E+00    0.1370667878E-02    0.6779947462E+00    0.4153524546E-04    0.2833469545E+00
    0.1300000000E+08    0.3971536499E+00    0.1266702529E-02    0.6781545808E+00    0.3805596237E-04    0.2833999347E+00
    0.1500000000E+08    0.3971139093E+00    0.1183916200E-02    0.6782817539E+00    0.3530770493E-04    0.2834449565E+00
    0.1700000000E+08    0.3970788077E+00    0.1115940431E-02    0.6783861080E+00    0.3306677091E-04    0.2834840988E+00
    0.1900000000E+08    0.3970473782E+00    0.1058805992E-02    0.6784737715E+00    0.3119474503E-04    0.2835187197E+00
    0.2100000000E+08    0.3970189272E+00    0.1009892174E-02    0.6785487872E+00    0.2960081560E-04    0.2835497558E+00
    0.2300000000E+08    0.3969929399E+00    0.9673890777E-03    0.6786139453E+00    0.2822261899E-04    0.2835778799E+00
    0.2500000000E+08    0.3969690243E+00    0.9300008577E-03    0.6786712423E+00    0.2701572984E-04    0.2836035914E+00
    0.2700000000E+08    0.3969468747E+00    0.8967718409E-03    0.6787221496E+00    0.2594753533E-04    0.2836272717E+00
