  Pressure (Pa) 22mC5-400 (mol/kg) 2mC6-400 (mol/kg) 3mC6-400 (mol/kg) 33mC5-400 (mol/kg) 23mC5-400 (mol/kg)
    0.1000000000E+01    0.5304691908E-03    0.3176675785E-02    0.5264943232E-02    0.1939943936E-03    0.1862888522E-03
    0.3000000000E+01    0.1577787317E-02    0.9308857547E-02    0.1543139868E-01    0.5685493775E-03    0.5540861608E-03
    0.5000000000E+01    0.2607444951E-02    0.1516286672E-01    0.2514186753E-01    0.9262093677E-03    0.9156850221E-03
    0.7000000000E+01    0.3620018152E-02    0.2075716909E-01    0.3442785666E-01    0.1268097087E-02    0.1271287597E-02
    0.9000000000E+01    0.4616057218E-02    0.2610858935E-01    0.4331800330E-01    0.1595235325E-02    0.1621087004E-02
    0.1100000000E+02    0.5596088123E-02    0.3123249249E-01    0.5183839559E-01    0.1908558002E-02    0.1965267830E-02
    0.1300000000E+02    0.6560613871E-02    0.3614294145E-01    0.6001285113E-01    0.2208919772E-02    0.2304006597E-02
    0.1500000000E+02    0.7510115745E-02    0.4085283458E-01    0.6786315963E-01    0.2497104408E-02    0.2637472209E-02
    0.1700000000E+02    0.8445054491E-02    0.4537402589E-01    0.7540929518E-01    0.2773832126E-02    0.2965826359E-02
    0.1900000000E+02    0.9365871412E-02    0.4971743052E-01    0.8266960220E-01    0.3039766013E-02    0.3289223922E-02
    0.2100000000E+02    0.1027298940E-01    0.5389311757E-01    0.8966095912E-01    0.3295517685E-02    0.3607813309E-02
    0.2300000000E+02    0.1116681390E-01    0.5791039204E-01    0.9639892256E-01    0.3541652275E-02    0.3921736808E-02
    0.2500000000E+02    0.1204773380E-01    0.6177786729E-01    0.1028978549E+00    0.3778692849E-02    0.4231130902E-02
    0.2700000000E+02    0.1291612232E-01    0.6550352929E-01    0.1091710372E+00    0.4007124320E-02    0.4536126568E-02
    0.2900000000E+02    0.1377233775E-01    0.6909479384E-01    0.1152307696E+00    0.4227396931E-02    0.4836849550E-02
    0.3100000000E+02    0.1461672425E-01    0.7255855749E-01    0.1210884609E+00    0.4439929353E-02    0.5133420628E-02
    0.3300000000E+02    0.1544961251E-01    0.7590124306E-01    0.1267547079E+00    0.4645111460E-02    0.5425955863E-02
    0.3500000000E+02    0.1627132044E-01    0.7912884040E-01    0.1322393672E+00    0.4843306812E-02    0.5714566825E-02
    0.3700000000E+02    0.1708215378E-01    0.8224694297E-01    0.1375516187E+00    0.5034854873E-02    0.5999360816E-02
    0.3900000000E+02    0.1788240670E-01    0.8526078067E-01    0.1427000235E+00    0.5220073018E-02    0.6280441073E-02
    0.4100000000E+02    0.1867236233E-01    0.8817524952E-01    0.1476925749E+00    0.5399258334E-02    0.6557906964E-02
    0.4300000000E+02    0.1945229329E-01    0.9099493834E-01    0.1525367456E+00    0.5572689244E-02    0.6831854168E-02
    0.4500000000E+02    0.2022246218E-01    0.9372415293E-01    0.1572395291E+00    0.5740626980E-02    0.7102374847E-02
    0.4700000000E+02    0.2098312206E-01    0.9636693796E-01    0.1618074782E+00    0.5903316912E-02    0.7369557814E-02
    0.4900000000E+02    0.2173451686E-01    0.9892709684E-01    0.1662467391E+00    0.6060989758E-02    0.7633488679E-02
    0.1000000000E+02    0.5108041730E-02    0.2869807281E-01    0.4762287993E-01    0.1753568439E-02    0.1793868523E-02
    0.3000000000E+02    0.1419598864E-01    0.7084220124E-01    0.1181841899E+00    0.4334605653E-02    0.4985646715E-02
    0.5000000000E+02    0.2210681369E-01    0.1001773186E+00    0.1684199289E+00    0.6138013139E-02    0.7764260488E-02
    0.7000000000E+02    0.2911934557E-01    0.1216110242E+00    0.2063576269E+00    0.7461610157E-02    0.1022756665E-01
    0.9000000000E+02    0.3542768742E-01    0.1378083761E+00    0.2362469418E+00    0.8467012978E-02    0.1244368912E-01
    0.1100000000E+03    0.4117149839E-01    0.1503522523E+00    0.2605561251E+00    0.9250176031E-02    0.1446164517E-01
    0.1300000000E+03    0.4645408494E-01    0.1602463156E+00    0.2808214248E+00    0.9871935533E-02    0.1631769403E-01
    0.1500000000E+03    0.5135368343E-01    0.1681594651E+00    0.2980517321E+00    0.1037284131E-01    0.1803929633E-01
    0.1700000000E+03    0.5593075675E-01    0.1745553231E+00    0.3129386591E+00    0.1078100773E-01    0.1964767482E-01
    0.1900000000E+03    0.6023286293E-01    0.1797655806E+00    0.3259732580E+00    0.1111655825E-01    0.2115952290E-01
    0.2100000000E+03    0.6429799256E-01    0.1840338339E+00    0.3375145338E+00    0.1139428075E-01    0.2258817600E-01
    0.2300000000E+03    0.6815691169E-01    0.1875429605E+00    0.3478315346E+00    0.1162528530E-01    0.2394443380E-01
    0.2500000000E+03    0.7183484122E-01    0.1904328545E+00    0.3571302188E+00    0.1181807792E-01    0.2523714965E-01
    0.2700000000E+03    0.7535268357E-01    0.1928122775E+00    0.3655711779E+00    0.1197927805E-01    0.2647366109E-01
    0.2900000000E+03    0.7872793348E-01    0.1947669914E+00    0.3732816618E+00    0.1211411086E-01    0.2766010955E-01
    0.3100000000E+03    0.8197536484E-01    0.1963654697E+00    0.3803639437E+00    0.1222675306E-01    0.2880168140E-01
    0.3300000000E+03    0.8510755555E-01    0.1976629912E+00    0.3869012664E+00    0.1232058075E-01    0.2990279214E-01
    0.3500000000E+03    0.8813529361E-01    0.1987046257E+00    0.3929621529E+00    0.1239835023E-01    0.3096722903E-01
    0.3700000000E+03    0.9106789506E-01    0.1995274478E+00    0.3986035841E+00    0.1246233212E-01    0.3199826258E-01
    0.3900000000E+03    0.9391345531E-01    0.2001622018E+00    0.4038733807E+00    0.1251441223E-01    0.3299873482E-01
    0.4100000000E+03    0.9667904990E-01    0.2006345691E+00    0.4088120109E+00    0.1255616839E-01    0.3397112979E-01
    0.4300000000E+03    0.9937089616E-01    0.2009661460E+00    0.4134539831E+00    0.1258892971E-01    0.3491763024E-01
    0.4500000000E+03    0.1019944845E+00    0.2011752048E+00    0.4178289286E+00    0.1261382276E-01    0.3584016374E-01
    0.4700000000E+03    0.1045546861E+00    0.2012772920E+00    0.4219624544E+00    0.1263180791E-01    0.3674044045E-01
    0.4900000000E+03    0.1070558411E+00    0.2012857042E+00    0.4258768209E+00    0.1264370816E-01    0.3761998416E-01
    0.1000000000E+03    0.3836300736E-01    0.1444643351E+00    0.2489872540E+00    0.8881970078E-02    0.1347492774E-01
    0.3000000000E+03    0.8036679415E-01    0.1956070352E+00    0.3768957363E+00    0.1217297840E-01    0.2823621286E-01
    0.5000000000E+03    0.1082855056E+00    0.2012584171E+00    0.4277579964E+00    0.1264760186E-01    0.3805241282E-01
    0.7000000000E+03    0.1305369100E+00    0.1978635739E+00    0.4575236007E+00    0.1253490850E-01    0.4587865298E-01
    0.9000000000E+03    0.1495940589E+00    0.1918924074E+00    0.4778813002E+00    0.1223924883E-01    0.5258320981E-01
    0.1100000000E+04    0.1665131369E+00    0.1852002584E+00    0.4930373016E+00    0.1188053917E-01    0.5853691903E-01
    0.1300000000E+04    0.1818458052E+00    0.1784438238E+00    0.5049400310E+00    0.1150345752E-01    0.6393347288E-01
    0.1500000000E+04    0.1959200153E+00    0.1718788705E+00    0.5146380790E+00    0.1112687610E-01    0.6888801387E-01
    0.1700000000E+04    0.2089495214E+00    0.1656054779E+00    0.5227552072E+00    0.1075929503E-01    0.7347558672E-01
    0.1900000000E+04    0.2210837170E+00    0.1596574113E+00    0.5296901008E+00    0.1040457952E-01    0.7774863757E-01
    0.2100000000E+04    0.2324329301E+00    0.1540386613E+00    0.5357117588E+00    0.1006436617E-01    0.8174589629E-01
    0.2300000000E+04    0.2430823502E+00    0.1487396392E+00    0.5410095184E+00    0.9739165362E-02    0.8549726703E-01
    0.2500000000E+04    0.2531001946E+00    0.1437447724E+00    0.5457212512E+00    0.9428901111E-02    0.8902669561E-01
    0.2700000000E+04    0.2625427424E+00    0.1390362009E+00    0.5499501923E+00    0.9133189582E-02    0.9235393726E-01
    0.2900000000E+04    0.2714575688E+00    0.1345956083E+00    0.5537754664E+00    0.8851488510E-02    0.9549569217E-01
    0.3100000000E+04    0.2798856957E+00    0.1304051246E+00    0.5572589309E+00    0.8583179867E-02    0.9846636074E-01
    0.3300000000E+04    0.2878630670E+00    0.1264477535E+00    0.5604497744E+00    0.8327616563E-02    0.1012785613E+00
    0.3500000000E+04    0.2954215866E+00    0.1227075520E+00    0.5633876942E+00    0.8084149146E-02    0.1039434948E+00
    0.3700000000E+04    0.3025898684E+00    0.1191696806E+00    0.5661051458E+00    0.7852141054E-02    0.1064712075E+00
    0.3900000000E+04    0.3093937898E+00    0.1158203858E+00    0.5686289701E+00    0.7630977199E-02    0.1088707859E+00
    0.4100000000E+04    0.3158569103E+00    0.1126469496E+00    0.5709815931E+00    0.7420068560E-02    0.1111505033E+00
    0.4300000000E+04    0.3220007943E+00    0.1096376248E+00    0.5731819240E+00    0.7218854389E-02    0.1133179328E+00
    0.4500000000E+04    0.3278452645E+00    0.1067815634E+00    0.5752460396E+00    0.7026802958E-02    0.1153800368E+00
    0.4700000000E+04    0.3334086065E+00    0.1040687476E+00    0.5771877108E+00    0.6843411412E-02    0.1173432381E+00
    0.4900000000E+04    0.3387077355E+00    0.1014899215E+00    0.5790188145E+00    0.6668205100E-02    0.1192134788E+00
    0.1000000000E+04    0.1582791528E+00    0.1885811487E+00    0.4859577196E+00    0.1206407385E-01    0.5563927772E-01
    0.3000000000E+04    0.2757301180E+00    0.1324701885E+00    0.5555565963E+00    0.8715700281E-02    0.9700158670E-01
    0.5000000000E+04    0.3412631659E+00    0.1002480550E+00    0.5798961784E+00    0.6583530546E-02    0.1201154766E+00
    0.7000000000E+04    0.3817642154E+00    0.8068360497E-01    0.5935498927E+00    0.5224424003E-02    0.1344217987E+00
    0.9000000000E+04    0.4082605460E+00    0.6791788141E-01    0.6026331442E+00    0.4314088147E-02    0.1437960709E+00
    0.1100000000E+05    0.4264529914E+00    0.5907672807E-01    0.6092531256E+00    0.3675039243E-02    0.1502434464E+00
    0.1300000000E+05    0.4394715332E+00    0.5264690289E-01    0.6143626663E+00    0.3207676984E-02    0.1548655985E+00
    0.1500000000E+05    0.4491193359E+00    0.4777995835E-01    0.6184654579E+00    0.2853778533E-02    0.1582976012E+00
    0.1700000000E+05    0.4564831294E+00    0.4397308149E-01    0.6218566808E+00    0.2577825930E-02    0.1609224369E+00
    0.1900000000E+05    0.4622454877E+00    0.4091351908E-01    0.6247225408E+00    0.2357263428E-02    0.1629808026E+00
    0.2100000000E+05    0.4668512799E+00    0.3839838934E-01    0.6271871963E+00    0.2177236614E-02    0.1646296690E+00
    0.2300000000E+05    0.4706000899E+00    0.3629119836E-01    0.6293370989E+00    0.2027641399E-02    0.1659748089E+00
    0.2500000000E+05    0.4736995659E+00    0.3449715942E-01    0.6312345795E+00    0.1901405563E-02    0.1670895815E+00
    0.2700000000E+05    0.4762973404E+00    0.3294860216E-01    0.6329258838E+00    0.1793452345E-02    0.1680261769E+00
    0.2900000000E+05    0.4785007645E+00    0.3159602799E-01    0.6344461564E+00    0.1700054964E-02    0.1688225698E+00
    0.3100000000E+05    0.4803894731E+00    0.3040244689E-01    0.6358226557E+00    0.1618422709E-02    0.1695069494E+00
    0.3300000000E+05    0.4820236022E+00    0.2933968681E-01    0.6370768972E+00    0.1546428429E-02    0.1701006172E+00
    0.3500000000E+05    0.4834492938E+00    0.2838592577E-01    0.6382261252E+00    0.1482424795E-02    0.1706199288E+00
    0.3700000000E+05    0.4847024637E+00    0.2752400276E-01    0.6392843465E+00    0.1425117694E-02    0.1710776243E+00
    0.3900000000E+05    0.4858114328E+00    0.2674023737E-01    0.6402630744E+00    0.1373477285E-02    0.1714837568E+00
    0.4100000000E+05    0.4867987974E+00    0.2602358899E-01    0.6411718731E+00    0.1326674374E-02    0.1718463534E+00
    0.4300000000E+05    0.4876827803E+00    0.2536504767E-01    0.6420187633E+00    0.1284034171E-02    0.1721718920E+00
    0.4500000000E+05    0.4884782218E+00    0.2475718574E-01    0.6428105289E+00    0.1245002162E-02    0.1724656526E+00
    0.4700000000E+05    0.4891973166E+00    0.2419382303E-01    0.6435529529E+00    0.1209118587E-02    0.1727319768E+00
    0.4900000000E+05    0.4898501683E+00    0.2366977359E-01    0.6442509997E+00    0.1175999105E-02    0.1729744648E+00
    0.1000000000E+05    0.4181577637E+00    0.6312240586E-01    0.6061764077E+00    0.3968158078E-02    0.1473022223E+00
    0.3000000000E+05    0.4794803176E+00    0.3098129716E-01    0.6351509182E+00    0.1657914202E-02    0.1691772949E+00
    0.5000000000E+05    0.4901544447E+00    0.2342109390E-01    0.6445847451E+00    0.1160372700E-02    0.1730877301E+00
    0.7000000000E+05    0.4942260321E+00    0.1973208168E-01    0.6497192750E+00    0.9358865330E-03    0.1746244038E+00
    0.9000000000E+05    0.4963158799E+00    0.1743655607E-01    0.6530748902E+00    0.8036875003E-03    0.1754381868E+00
    0.1100000000E+06    0.4975704453E+00    0.1582603862E-01    0.6554913839E+00    0.7145726093E-03    0.1759426049E+00
    0.1300000000E+06    0.4984000969E+00    0.1461261473E-01    0.6573403081E+00    0.6494308728E-03    0.1762871546E+00
    0.1500000000E+06    0.4989859675E+00    0.1365416036E-01    0.6588150165E+00    0.5991844255E-03    0.1765385016E+00
    0.1700000000E+06    0.4994197644E+00    0.1287122891E-01    0.6600274688E+00    0.5589204669E-03    0.1767307542E+00
    0.1900000000E+06    0.4997526616E+00    0.1221539289E-01    0.6610476199E+00    0.5257252857E-03    0.1768831493E+00
    0.2100000000E+06    0.5000153682E+00    0.1165518598E-01    0.6619217508E+00    0.4977494492E-03    0.1770073563E+00
    0.2300000000E+06    0.5002273829E+00    0.1116913377E-01    0.6626818765E+00    0.4737560200E-03    0.1771108658E+00
    0.2500000000E+06    0.5004016581E+00    0.1074199897E-01    0.6633509507E+00    0.4528826183E-03    0.1771987088E+00
    0.2700000000E+06    0.5005471213E+00    0.1036262216E-01    0.6639459219E+00    0.4345073425E-03    0.1772743911E+00
    0.2900000000E+06    0.5006701182E+00    0.1002261300E-01    0.6644796156E+00    0.4181689722E-03    0.1773404326E+00
    0.3100000000E+06    0.5007752781E+00    0.9715521999E-02    0.6649619424E+00    0.4035172862E-03    0.1773986921E+00
    0.3300000000E+06    0.5008660546E+00    0.9436296908E-02    0.6654006987E+00    0.3902809375E-03    0.1774505719E+00
    0.3500000000E+06    0.5009450746E+00    0.9180914742E-02    0.6658021148E+00    0.3782459999E-03    0.1774971506E+00
    0.3700000000E+06    0.5010143700E+00    0.8946126036E-02    0.6661712373E+00    0.3672412375E-03    0.1775392716E+00
    0.3900000000E+06    0.5010755363E+00    0.8729272876E-02    0.6665122046E+00    0.3571277429E-03    0.1775776049E+00
    0.4100000000E+06    0.5011298430E+00    0.8528156790E-02    0.6668284463E+00    0.3477914910E-03    0.1776126893E+00
    0.4300000000E+06    0.5011783124E+00    0.8340941077E-02    0.6671228331E+00    0.3391378873E-03    0.1776449638E+00
    0.4500000000E+06    0.5012217765E+00    0.8166077436E-02    0.6673977880E+00    0.3310877077E-03    0.1776747894E+00
    0.4700000000E+06    0.5012609189E+00    0.8002250041E-02    0.6676553731E+00    0.3235740299E-03    0.1777024662E+00
    0.4900000000E+06    0.5012963064E+00    0.7848332352E-02    0.6678973556E+00    0.3165398810E-03    0.1777282457E+00
    0.1000000000E+06    0.4970137060E+00    0.1656871871E-01    0.6543712814E+00    0.7552910811E-03    0.1757167604E+00
    0.3000000000E+06    0.5007246891E+00    0.9865296261E-02    0.6647266704E+00    0.4106508098E-03    0.1773704385E+00
    0.5000000000E+06    0.5013127431E+00    0.7774780904E-02    0.6680129806E+00    0.3131870889E-03    0.1777404917E+00
    0.7000000000E+06    0.5015267635E+00    0.6645972110E-02    0.6697862420E+00    0.2624270714E-03    0.1779235319E+00
    0.9000000000E+06    0.5016275705E+00    0.5910490085E-02    0.6709396671E+00    0.2300645578E-03    0.1780395793E+00
    0.1100000000E+07    0.5016809469E+00    0.5381630586E-02    0.6717677268E+00    0.2071495760E-03    0.1781227555E+00
    0.1300000000E+07    0.5017106964E+00    0.4977318202E-02    0.6723998958E+00    0.1898383348E-03    0.1781868634E+00
    0.1500000000E+07    0.5017273379E+00    0.4654994184E-02    0.6729032664E+00    0.1761704829E-03    0.1782386889E+00
    0.1700000000E+07    0.5017361582E+00    0.4390070408E-02    0.6733165664E+00    0.1650278267E-03    0.1782820147E+00
    0.1900000000E+07    0.5017400658E+00    0.4167206700E-02    0.6736639346E+00    0.1557199353E-03    0.1783191435E+00
    0.2100000000E+07    0.5017407709E+00    0.3976265023E-02    0.6739613094E+00    0.1477944661E-03    0.1783515717E+00
    0.2300000000E+07    0.5017393323E+00    0.3810237759E-02    0.6742196983E+00    0.1409410792E-03    0.1783803221E+00
    0.2500000000E+07    0.5017364321E+00    0.3664103547E-02    0.6744469824E+00    0.1349388504E-03    0.1784061222E+00
    0.2700000000E+07    0.5017325244E+00    0.3534156422E-02    0.6746489739E+00    0.1296256756E-03    0.1784295065E+00
    0.2900000000E+07    0.5017279194E+00    0.3417592870E-02    0.6748300668E+00    0.1248795665E-03    0.1784508787E+00
    0.3100000000E+07    0.5017228337E+00    0.3312247173E-02    0.6749936531E+00    0.1206067346E-03    0.1784705505E+00
    0.3300000000E+07    0.5017174212E+00    0.3216415920E-02    0.6751423992E+00    0.1167337329E-03    0.1784887674E+00
    0.3500000000E+07    0.5017117927E+00    0.3128738194E-02    0.6752784341E+00    0.1132021181E-03    0.1785057261E+00
    0.3700000000E+07    0.5017060292E+00    0.3048111694E-02    0.6754034815E+00    0.1099647290E-03    0.1785215862E+00
    0.3900000000E+07    0.5017001901E+00    0.2973632692E-02    0.6755189538E+00    0.1069830345E-03    0.1785364794E+00
    0.4100000000E+07    0.5016943194E+00    0.2904552211E-02    0.6756260209E+00    0.1042252057E-03    0.1785505151E+00
    0.4300000000E+07    0.5016884498E+00    0.2840243484E-02    0.6757256617E+00    0.1016646887E-03    0.1785637853E+00
    0.4500000000E+07    0.5016826056E+00    0.2780177414E-02    0.6758187018E+00    0.9927913222E-04    0.1785763682E+00
    0.4700000000E+07    0.5016768049E+00    0.2723903807E-02    0.6759058437E+00    0.9704957030E-04    0.1785883307E+00
    0.4900000000E+07    0.5016710610E+00    0.2671036830E-02    0.6759876892E+00    0.9495979072E-04    0.1785997304E+00
    0.1000000000E+07    0.5016582254E+00    0.5626700607E-02    0.6713841628E+00    0.2177305829E-03    0.1780841700E+00
    0.3000000000E+07    0.5017254258E+00    0.3363633471E-02    0.6749138672E+00    0.1226889859E-03    0.1784609104E+00
    0.5000000000E+07    0.5016682136E+00    0.2645775002E-02    0.6760267907E+00    0.9396288238E-04    0.1786052352E+00
    0.7000000000E+07    0.5016155008E+00    0.2258282178E-02    0.6766259731E+00    0.7881288621E-04    0.1786950819E+00
    0.9000000000E+07    0.5015708048E+00    0.2006149410E-02    0.6770152275E+00    0.6910899641E-04    0.1787603482E+00
    0.1100000000E+08    0.5015326159E+00    0.1825087400E-02    0.6772944486E+00    0.6222328996E-04    0.1788116012E+00
    0.1300000000E+08    0.5014994505E+00    0.1686824524E-02    0.6775074889E+00    0.5701581861E-04    0.1788537968E+00
    0.1500000000E+08    0.5014702044E+00    0.1576708051E-02    0.6776770477E+00    0.5290199321E-04    0.1788896564E+00
    0.1700000000E+08    0.5014440775E+00    0.1486278537E-02    0.6778162166E+00    0.4954723470E-04    0.1789208348E+00
    0.1900000000E+08    0.5014204825E+00    0.1410262345E-02    0.6779331505E+00    0.4674450085E-04    0.1789484133E+00
    0.2100000000E+08    0.5013989798E+00    0.1345176872E-02    0.6780332310E+00    0.4435794178E-04    0.1789731374E+00
    0.2300000000E+08    0.5013792330E+00    0.1288616606E-02    0.6781201731E+00    0.4229425617E-04    0.1789955428E+00
    0.2500000000E+08    0.5013609797E+00    0.1238859020E-02    0.6781966357E+00    0.4048697440E-04    0.1790160271E+00
    0.2700000000E+08    0.5013440115E+00    0.1194633616E-02    0.6782645791E+00    0.3888729732E-04    0.1790348939E+00
