  Pressure (Pa) 22mC5-400 (mol/kg) 2mC6-400 (mol/kg) 3mC6-400 (mol/kg) 33mC5-400 (mol/kg) 23mC5-400 (mol/kg)
    0.1000000000E+01    0.5301166165E-03    0.3188794562E-02    0.1587592310E-02    0.4543530533E-03    0.4654128214E-03
    0.3000000000E+01    0.1574687329E-02    0.9413472264E-02    0.4699697317E-02    0.1341280150E-02    0.1382495816E-02
    0.5000000000E+01    0.2599029830E-02    0.1544183813E-01    0.7730690110E-02    0.2200246570E-02    0.2281830051E-02
    0.7000000000E+01    0.3603894938E-02    0.2128251713E-01    0.1068398354E-01    0.3032480531E-02    0.3164074235E-02
    0.9000000000E+01    0.4589995395E-02    0.2694364296E-01    0.1356279803E-01    0.3839140290E-02    0.4029853671E-02
    0.1100000000E+02    0.5558008275E-02    0.3243289231E-01    0.1637017503E-01    0.4621319025E-02    0.4879762373E-02
    0.1300000000E+02    0.6508577215E-02    0.3775751636E-01    0.1910898937E-01    0.5380049314E-02    0.5714365026E-02
    0.1500000000E+02    0.7442314480E-02    0.4292436967E-01    0.2178196059E-01    0.6116307257E-02    0.6534198787E-02
    0.1700000000E+02    0.8359802872E-02    0.4793993678E-01    0.2439166339E-01    0.6831016258E-02    0.7339774972E-02
    0.1900000000E+02    0.9261597502E-02    0.5281035671E-01    0.2694053717E-01    0.7525050518E-02    0.8131580602E-02
    0.2100000000E+02    0.1014822744E-01    0.5754144549E-01    0.2943089489E-01    0.8199238243E-02    0.8910079856E-02
    0.2300000000E+02    0.1102019724E-01    0.6213871703E-01    0.3186493123E-01    0.8854364617E-02    0.9675715402E-02
    0.2500000000E+02    0.1187798838E-01    0.6660740238E-01    0.3424473009E-01    0.9491174539E-02    0.1042890966E-01
    0.2700000000E+02    0.1272206053E-01    0.7095246747E-01    0.3657227157E-01    0.1011037516E-01    0.1117006593E-01
    0.2900000000E+02    0.1355285287E-01    0.7517862962E-01    0.3884943838E-01    0.1071263823E-01    0.1189956953E-01
    0.3100000000E+02    0.1437078516E-01    0.7929037282E-01    0.4107802184E-01    0.1129860226E-01    0.1261778874E-01
    0.3300000000E+02    0.1517625887E-01    0.8329196187E-01    0.4325972735E-01    0.1186887457E-01    0.1332507580E-01
    0.3500000000E+02    0.1596965815E-01    0.8718745551E-01    0.4539617959E-01    0.1242403311E-01    0.1402176775E-01
    0.3700000000E+02    0.1675135078E-01    0.9098071866E-01    0.4748892720E-01    0.1296462826E-01    0.1470818726E-01
    0.3900000000E+02    0.1752168903E-01    0.9467543376E-01    0.4953944730E-01    0.1349118438E-01    0.1538464341E-01
    0.4100000000E+02    0.1828101051E-01    0.9827511134E-01    0.5154914954E-01    0.1400420138E-01    0.1605143242E-01
    0.4300000000E+02    0.1902963889E-01    0.1017830999E+00    0.5351937999E-01    0.1450415609E-01    0.1670883827E-01
    0.4500000000E+02    0.1976788470E-01    0.1052025949E+00    0.5545142468E-01    0.1499150355E-01    0.1735713339E-01
    0.4700000000E+02    0.2049604590E-01    0.1085366478E+00    0.5734651296E-01    0.1546667827E-01    0.1799657924E-01
    0.4900000000E+02    0.2121440860E-01    0.1117881735E+00    0.5920582062E-01    0.1593009535E-01    0.1862742684E-01
    0.1000000000E+02    0.5076221796E-02    0.2970928937E-01    0.1497523277E-01    0.4233223879E-02    0.4456755905E-02
    0.3000000000E+02    0.1396340101E-01    0.7724853206E-01    0.3996969449E-01    0.1100761896E-01    0.1226006730E-01
    0.5000000000E+02    0.2157000182E-01    0.1133838641E+00    0.6012241023E-01    0.1615751944E-01    0.1893970202E-01
    0.7000000000E+02    0.2822885733E-01    0.1415808435E+00    0.7682510041E-01    0.2017642197E-01    0.2478768057E-01
    0.9000000000E+02    0.3416269533E-01    0.1640448781E+00    0.9097397195E-01    0.2337838218E-01    0.2999942646E-01
    0.1100000000E+03    0.3952666565E-01    0.1822437649E+00    0.1031735214E+00    0.2597242472E-01    0.3471107408E-01
    0.1300000000E+03    0.4443247796E-01    0.1971907243E+00    0.1138471227E+00    0.2810284629E-01    0.3902064469E-01
    0.1500000000E+03    0.4896282588E-01    0.2096067409E+00    0.1233006888E+00    0.2987233165E-01    0.4300070098E-01
    0.1700000000E+03    0.5318038460E-01    0.2200181760E+00    0.1317611442E+00    0.3135585259E-01    0.4670624108E-01
    0.1900000000E+03    0.5713363121E-01    0.2288178335E+00    0.1394006401E+00    0.3260936297E-01    0.5017980517E-01
    0.2100000000E+03    0.6086072926E-01    0.2363044729E+00    0.1463523326E+00    0.3367542490E-01    0.5345488367E-01
    0.2300000000E+03    0.6439219240E-01    0.2427091329E+00    0.1527209739E+00    0.3458695689E-01    0.5655825438E-01
    0.2500000000E+03    0.6775275481E-01    0.2482131195E+00    0.1585902087E+00    0.3536979510E-01    0.5951162365E-01
    0.2700000000E+03    0.7096271247E-01    0.2529605752E+00    0.1640277162E+00    0.3604448309E-01    0.6233280318E-01
    0.2900000000E+03    0.7403890299E-01    0.2570674386E+00    0.1690889084E+00    0.3662754756E-01    0.6503656991E-01
    0.3100000000E+03    0.7699543366E-01    0.2606279440E+00    0.1738196376E+00    0.3713242390E-01    0.6763530476E-01
    0.3300000000E+03    0.7984423050E-01    0.2637194130E+00    0.1782582113E+00    0.3757013846E-01    0.7013947446E-01
    0.3500000000E+03    0.8259545805E-01    0.2664058378E+00    0.1824369134E+00    0.3794981884E-01    0.7255799990E-01
    0.3700000000E+03    0.8525784436E-01    0.2687405962E+00    0.1863831682E+00    0.3827908048E-01    0.7489854135E-01
    0.3900000000E+03    0.8783893544E-01    0.2707685329E+00    0.1901204418E+00    0.3856432307E-01    0.7716772168E-01
    0.4100000000E+03    0.9034529660E-01    0.2725275731E+00    0.1936689481E+00    0.3881096044E-01    0.7937130313E-01
    0.4300000000E+03    0.9278267326E-01    0.2740499863E+00    0.1970462069E+00    0.3902360038E-01    0.8151432834E-01
    0.4500000000E+03    0.9515612055E-01    0.2753633846E+00    0.2002674896E+00    0.3920618696E-01    0.8360123417E-01
    0.4700000000E+03    0.9747010867E-01    0.2764915180E+00    0.2033461782E+00    0.3936211379E-01    0.8563594409E-01
    0.4900000000E+03    0.9972860907E-01    0.2774549148E+00    0.2062940569E+00    0.3949431517E-01    0.8762194384E-01
    0.1000000000E+03    0.3690811699E-01    0.1736057985E+00    0.9728761208E-01    0.2474118704E-01    0.3241092107E-01
    0.3000000000E+03    0.7553133476E-01    0.2589108040E+00    0.1714930297E+00    0.3688902032E-01    0.6634837207E-01
    0.5000000000E+03    0.1008381738E+00    0.2778805003E+00    0.2077222478E+00    0.3955232861E-01    0.8859766259E-01
    0.7000000000E+03    0.1208056359E+00    0.2810311775E+00    0.2314129740E+00    0.3993753099E-01    0.1061597364E+00
    0.9000000000E+03    0.1376825888E+00    0.2787242516E+00    0.2490003598E+00    0.3952860090E-01    0.1210084471E+00
    0.1100000000E+04    0.1524259760E+00    0.2742591665E+00    0.2630005746E+00    0.3880119867E-01    0.1339837115E+00
    0.1300000000E+04    0.1655440201E+00    0.2689420683E+00    0.2746427822E+00    0.3794545396E-01    0.1455315836E+00
    0.1500000000E+04    0.1773484631E+00    0.2633583563E+00    0.2846160553E+00    0.3704773474E-01    0.1559256603E+00
    0.1700000000E+04    0.1880510373E+00    0.2577892525E+00    0.2933447226E+00    0.3615030092E-01    0.1653517615E+00
    0.1900000000E+04    0.1978066700E+00    0.2523735047E+00    0.3011085151E+00    0.3527454603E-01    0.1739458557E+00
    0.2100000000E+04    0.2067351193E+00    0.2471781297E+00    0.3081016206E+00    0.3443121804E-01    0.1818130497E+00
    0.2300000000E+04    0.2149327676E+00    0.2422322199E+00    0.3144644125E+00    0.3362533811E-01    0.1890379408E+00
    0.2500000000E+04    0.2224795094E+00    0.2375442158E+00    0.3203017183E+00    0.3285873744E-01    0.1956906605E+00
    0.2700000000E+04    0.2294430166E+00    0.2331111953E+00    0.3256939381E+00    0.3213143808E-01    0.2018306179E+00
    0.2900000000E+04    0.2358815215E+00    0.2289240658E+00    0.3307041258E+00    0.3144243665E-01    0.2075089413E+00
    0.3100000000E+04    0.2418457220E+00    0.2249705487E+00    0.3353826723E+00    0.3079016356E-01    0.2127701490E+00
    0.3300000000E+04    0.2473801419E+00    0.2212369244E+00    0.3397705049E+00    0.3017275817E-01    0.2176533430E+00
    0.3500000000E+04    0.2525241418E+00    0.2177090611E+00    0.3439013328E+00    0.2958823593E-01    0.2221930950E+00
    0.3700000000E+04    0.2573126959E+00    0.2143730157E+00    0.3478032619E+00    0.2903459027E-01    0.2264201279E+00
    0.3900000000E+04    0.2617770061E+00    0.2112153779E+00    0.3514999803E+00    0.2850985418E-01    0.2303618546E+00
    0.4100000000E+04    0.2659450007E+00    0.2082234550E+00    0.3550116448E+00    0.2801213650E-01    0.2340428144E+00
    0.4300000000E+04    0.2698417459E+00    0.2053853597E+00    0.3583555545E+00    0.2753964205E-01    0.2374850347E+00
    0.4500000000E+04    0.2734897921E+00    0.2026900371E+00    0.3615466706E+00    0.2709068157E-01    0.2407083345E+00
    0.4700000000E+04    0.2769094680E+00    0.2001272559E+00    0.3645980228E+00    0.2666367498E-01    0.2437305822E+00
    0.4900000000E+04    0.2801191339E+00    0.1976875772E+00    0.3675210301E+00    0.2625715057E-01    0.2465679176E+00
    0.1000000000E+04    0.1452828505E+00    0.2766548834E+00    0.2563542977E+00    0.3918923969E-01    0.1276967960E+00
    0.3000000000E+04    0.2389199956E+00    0.2269189441E+00    0.3330821045E+00    0.3111182088E-01    0.2101891254E+00
    0.5000000000E+04    0.2816504668E+00    0.1965111580E+00    0.3689375966E+00    0.2606113812E-01    0.2479218621E+00
    0.7000000000E+04    0.3045353317E+00    0.1776857584E+00    0.3924504887E+00    0.2293519422E-01    0.2681804283E+00
    0.9000000000E+04    0.3181861847E+00    0.1647355050E+00    0.4098459756E+00    0.2081480488E-01    0.2802976706E+00
    0.1100000000E+05    0.3270192511E+00    0.1550987576E+00    0.4235738767E+00    0.1926689517E-01    0.2881615560E+00
    0.1300000000E+05    0.3331002220E+00    0.1475185572E+00    0.4348582918E+00    0.1807361833E-01    0.2935923988E+00
    0.1500000000E+05    0.3374922636E+00    0.1413144737E+00    0.4444002294E+00    0.1711570010E-01    0.2975279487E+00
    0.1700000000E+05    0.3407868977E+00    0.1360863168E+00    0.4526387802E+00    0.1632277961E-01    0.3004904416E+00
    0.1900000000E+05    0.3433348067E+00    0.1315823118E+00    0.4598671147E+00    0.1565069446E-01    0.3027897833E+00
    0.2100000000E+05    0.3453550283E+00    0.1276351729E+00    0.4662905999E+00    0.1507027124E-01    0.3046197340E+00
    0.2300000000E+05    0.3469904387E+00    0.1241286909E+00    0.4720585917E+00    0.1456140427E-01    0.3061068106E+00
    0.2500000000E+05    0.3483376975E+00    0.1209791239E+00    0.4772830340E+00    0.1410973832E-01    0.3073366949E+00
    0.2700000000E+05    0.3494642591E+00    0.1181242560E+00    0.4820499352E+00    0.1370471373E-01    0.3083692443E+00
    0.2900000000E+05    0.3504184686E+00    0.1155166622E+00    0.4864267632E+00    0.1333836331E-01    0.3092474068E+00
    0.3100000000E+05    0.3512357872E+00    0.1131193951E+00    0.4904673840E+00    0.1300454363E-01    0.3100027196E+00
    0.3300000000E+05    0.3519427572E+00    0.1109031264E+00    0.4942154633E+00    0.1269842745E-01    0.3106588156E+00
    0.3500000000E+05    0.3525596031E+00    0.1088441965E+00    0.4977068688E+00    0.1241615888E-01    0.3112337232E+00
    0.3700000000E+05    0.3531019816E+00    0.1069232475E+00    0.5009714082E+00    0.1215461321E-01    0.3117414157E+00
    0.3900000000E+05    0.3535821861E+00    0.1051242435E+00    0.5040341087E+00    0.1191122572E-01    0.3121928779E+00
    0.4100000000E+05    0.3540099923E+00    0.1034337542E+00    0.5069161786E+00    0.1168386732E-01    0.3125968559E+00
    0.4300000000E+05    0.3543932640E+00    0.1018404214E+00    0.5096357384E+00    0.1147075253E-01    0.3129603939E+00
    0.4500000000E+05    0.3547383927E+00    0.1003345546E+00    0.5122083863E+00    0.1127037031E-01    0.3132892245E+00
    0.4700000000E+05    0.3550506233E+00    0.9890782148E-01    0.5146476408E+00    0.1108143129E-01    0.3135880580E+00
    0.4900000000E+05    0.3553342970E+00    0.9755300587E-01    0.5169652900E+00    0.1090282699E-01    0.3138607981E+00
    0.1000000000E+05    0.3230426240E+00    0.1596003830E+00    0.4170748163E+00    0.1998610214E-01    0.2846182838E+00
    0.3000000000E+05    0.3508424070E+00    0.1142937231E+00    0.4884861634E+00    0.1316771502E-01    0.3096387886E+00
    0.5000000000E+05    0.3554665809E+00    0.9690056977E-01    0.5180817933E+00    0.1081709545E-01    0.3139884237E+00
    0.7000000000E+05    0.3572414329E+00    0.8645075215E-01    0.5359791594E+00    0.9467668382E-02    0.3157382242E+00
    0.9000000000E+05    0.3581548579E+00    0.7915584303E-01    0.5484619125E+00    0.8550635278E-02    0.3166835450E+00
    0.1100000000E+06    0.3587020497E+00    0.7364415465E-01    0.5578725082E+00    0.7870557106E-02    0.3172786033E+00
    0.1300000000E+06    0.3590617906E+00    0.6926793834E-01    0.5653269700E+00    0.7338147213E-02    0.3176899853E+00
    0.1500000000E+06    0.3593135954E+00    0.6567214546E-01    0.5714386582E+00    0.6905596362E-02    0.3179929736E+00
    0.1700000000E+06    0.3594979620E+00    0.6264226882E-01    0.5765782565E+00    0.6544527798E-02    0.3182265345E+00
    0.1900000000E+06    0.3596375874E+00    0.6003942852E-01    0.5809855934E+00    0.6236826987E-02    0.3184128666E+00
    0.2100000000E+06    0.3597461332E+00    0.5776891464E-01    0.5848240367E+00    0.5970283644E-02    0.3185655530E+00
    0.2300000000E+06    0.3598322901E+00    0.5576346643E-01    0.5882094549E+00    0.5736311374E-02    0.3186933790E+00
    0.2500000000E+06    0.3599018365E+00    0.5397373432E-01    0.5912267460E+00    0.5528663728E-02    0.3188022841E+00
    0.2700000000E+06    0.3599587558E+00    0.5236252667E-01    0.5939398060E+00    0.5342668234E-02    0.3188964322E+00
    0.2900000000E+06    0.3600058779E+00    0.5090117816E-01    0.5963978179E+00    0.5174747490E-02    0.3189788313E+00
    0.3100000000E+06    0.3600452650E+00    0.4956716932E-01    0.5986393713E+00    0.5022107867E-02    0.3190517111E+00
    0.3300000000E+06    0.3600784529E+00    0.4834251564E-01    0.6006952480E+00    0.4882530409E-02    0.3191167604E+00
    0.3500000000E+06    0.3601066074E+00    0.4721264733E-01    0.6025903567E+00    0.4754226390E-02    0.3191752832E+00
    0.3700000000E+06    0.3601306280E+00    0.4616561164E-01    0.6043451101E+00    0.4635735081E-02    0.3192283030E+00
    0.3900000000E+06    0.3601512190E+00    0.4519149296E-01    0.6059764245E+00    0.4525849838E-02    0.3192766351E+00
    0.4100000000E+06    0.3601689389E+00    0.4428198352E-01    0.6074984596E+00    0.4423563664E-02    0.3193209373E+00
    0.4300000000E+06    0.3601842361E+00    0.4343006030E-01    0.6089231745E+00    0.4328028424E-02    0.3193617467E+00
    0.4500000000E+06    0.3601974741E+00    0.4262973833E-01    0.6102607515E+00    0.4238523847E-02    0.3193995062E+00
    0.4700000000E+06    0.3602089501E+00    0.4187587989E-01    0.6115199245E+00    0.4154433641E-02    0.3194345849E+00
    0.4900000000E+06    0.3602189099E+00    0.4116404504E-01    0.6127082351E+00    0.4075226857E-02    0.3194672928E+00
    0.1000000000E+06    0.3584595091E+00    0.7622728464E-01    0.5534648607E+00    0.8187946291E-02    0.3170111928E+00
    0.3000000000E+06    0.3600264321E+00    0.5021947158E-01    0.5975435710E+00    0.5096667750E-02    0.3190163450E+00
    0.5000000000E+06    0.3602233864E+00    0.4082266018E-01    0.6132778986E+00    0.4037308486E-02    0.3194828412E+00
    0.7000000000E+06    0.3602685449E+00    0.3548318044E-01    0.6221680342E+00    0.3450134697E-02    0.3197160623E+00
    0.9000000000E+06    0.3602730023E+00    0.3190184935E-01    0.6281096944E+00    0.3062803086E-02    0.3198646367E+00
    0.1100000000E+07    0.3602630002E+00    0.2927594459E-01    0.6324551614E+00    0.2782351260E-02    0.3199714047E+00
    0.1300000000E+07    0.3602472874E+00    0.2723949434E-01    0.6358185810E+00    0.2567042644E-02    0.3200538255E+00
    0.1500000000E+07    0.3602293624E+00    0.2559785837E-01    0.6385256496E+00    0.2394939421E-02    0.3201205231E+00
    0.1700000000E+07    0.3602107796E+00    0.2423641670E-01    0.6407677316E+00    0.2253245785E-02    0.3201763202E+00
    0.1900000000E+07    0.3601922706E+00    0.2308257098E-01    0.6426658107E+00    0.2133922252E-02    0.3202241596E+00
    0.2100000000E+07    0.3601741862E+00    0.2208774507E-01    0.6443007124E+00    0.2031626995E-02    0.3202659571E+00
    0.2300000000E+07    0.3601566890E+00    0.2121801144E-01    0.6457288134E+00    0.1942652001E-02    0.3203030238E+00
    0.2500000000E+07    0.3601398451E+00    0.2044884186E-01    0.6469908238E+00    0.1864331270E-02    0.3203362931E+00
    0.2700000000E+07    0.3601236699E+00    0.1976199292E-01    0.6481169917E+00    0.1794691781E-02    0.3203664518E+00
    0.2900000000E+07    0.3601081520E+00    0.1914356944E-01    0.6491303344E+00    0.1732237606E-02    0.3203940185E+00
    0.3100000000E+07    0.3600932666E+00    0.1858277210E-01    0.6500487257E+00    0.1675810983E-02    0.3204193943E+00
    0.3300000000E+07    0.3600789821E+00    0.1807106057E-01    0.6508862902E+00    0.1624499875E-02    0.3204428950E+00
    0.3500000000E+07    0.3600652648E+00    0.1760157801E-01    0.6516543600E+00    0.1577574676E-02    0.3204647736E+00
    0.3700000000E+07    0.3600520805E+00    0.1716874566E-01    0.6523621493E+00    0.1534443779E-02    0.3204852359E+00
    0.3900000000E+07    0.3600393962E+00    0.1676797093E-01    0.6530172387E+00    0.1494621707E-02    0.3205044513E+00
    0.4100000000E+07    0.3600271805E+00    0.1639543329E-01    0.6536259312E+00    0.1457705801E-02    0.3205225607E+00
    0.4300000000E+07    0.3600154038E+00    0.1604792440E-01    0.6541935169E+00    0.1423358886E-02    0.3205396829E+00
    0.4500000000E+07    0.3600040388E+00    0.1572272710E-01    0.6547244740E+00    0.1391296174E-02    0.3205559185E+00
    0.4700000000E+07    0.3599930599E+00    0.1541752246E-01    0.6552226224E+00    0.1361275234E-02    0.3205713538E+00
    0.4900000000E+07    0.3599824437E+00    0.1513031746E-01    0.6556912440E+00    0.1333088219E-02    0.3205860630E+00
    0.1000000000E+07    0.3602690708E+00    0.3049808217E-01    0.6304338926E+00    0.2912492065E-02    0.3199218492E+00
    0.3000000000E+07    0.3601006321E+00    0.1885654647E-01    0.6496004412E+00    0.1703332759E-02    0.3204069589E+00
    0.5000000000E+07    0.3599772648E+00    0.1499291689E-01    0.6559153842E+00    0.1319625409E-02    0.3205931659E+00
    0.7000000000E+07    0.3598882941E+00    0.1287202645E-01    0.6593708480E+00    0.1113711437E-02    0.3207090970E+00
    0.9000000000E+07    0.3598191046E+00    0.1147850885E-01    0.6616366153E+00    0.9805025918E-03    0.3207933080E+00
    0.1100000000E+08    0.3597625727E+00    0.1047116665E-01    0.6632720533E+00    0.8853463033E-03    0.3208594344E+00
    0.1300000000E+08    0.3597148048E+00    0.9698183962E-02    0.6645255440E+00    0.8130284497E-03    0.3209138722E+00
    0.1500000000E+08    0.3596734564E+00    0.9080221548E-02    0.6655266944E+00    0.7556807688E-03    0.3209601336E+00
    0.1700000000E+08    0.3596370101E+00    0.8571184711E-02    0.6663507126E+00    0.7087711936E-03    0.3210003545E+00
    0.1900000000E+08    0.3596044286E+00    0.8142193156E-02    0.6670446725E+00    0.6694810047E-03    0.3210359303E+00
    0.2100000000E+08    0.3595749717E+00    0.7774095936E-02    0.6676397627E+00    0.6359530329E-03    0.3210678233E+00
    0.2300000000E+08    0.3595480933E+00    0.7453618904E-02    0.6681575849E+00    0.6069073327E-03    0.3210967245E+00
    0.2500000000E+08    0.3595233784E+00    0.7171228312E-02    0.6686136440E+00    0.5814293255E-03    0.3211231472E+00
    0.2700000000E+08    0.3595005051E+00    0.6919873934E-02    0.6690193989E+00    0.5588458245E-03    0.3211474831E+00
