  Pressure (Pa) 22mC5-400 (mol/kg) 2mC6-400 (mol/kg) 3mC6-400 (mol/kg) 33mC5-400 (mol/kg) 23mC5-400 (mol/kg)
    0.1000000000E+01    0.5296527714E-03    0.4760174578E-02    0.4210421778E-02    0.1937940048E-03    0.1860022772E-03
    0.3000000000E+01    0.1570633543E-02    0.1392151093E-01    0.1233219977E-01    0.5668184646E-03    0.5515750710E-03
    0.5000000000E+01    0.2588090270E-02    0.2263288576E-01    0.2007984536E-01    0.9215904479E-03    0.9088911884E-03
    0.7000000000E+01    0.3583055414E-02    0.3092590410E-01    0.2748037524E-01    0.1259392445E-02    0.1258312969E-02
    0.9000000000E+01    0.4556499371E-02    0.3882924581E-01    0.3455822754E-01    0.1581388155E-02    0.1600180974E-02
    0.1100000000E+02    0.5509335133E-02    0.4636900032E-01    0.4133556381E-01    0.1888636094E-02    0.1934815616E-02
    0.1300000000E+02    0.6442422537E-02    0.5356895607E-01    0.4783252948E-01    0.2182101350E-02    0.2262518660E-02
    0.1500000000E+02    0.7356572139E-02    0.6045085157E-01    0.5406747926E-01    0.2462665791E-02    0.2583574573E-02
    0.1700000000E+02    0.8252548751E-02    0.6703459409E-01    0.6005717290E-01    0.2731136943E-02    0.2898251770E-02
    0.1900000000E+02    0.9131074674E-02    0.7333845058E-01    0.6581694572E-01    0.2988255749E-02    0.3206803749E-02
    0.2100000000E+02    0.9992832661E-02    0.7937921503E-01    0.7136085778E-01    0.3234703367E-02    0.3509470126E-02
    0.2300000000E+02    0.1083846863E-01    0.8517235559E-01    0.7670182448E-01    0.3471107146E-02    0.3806477595E-02
    0.2500000000E+02    0.1166859416E-01    0.9073214416E-01    0.8185173152E-01    0.3698045887E-02    0.4098040797E-02
    0.2700000000E+02    0.1248378878E-01    0.9607177101E-01    0.8682153616E-01    0.3916054501E-02    0.4384363125E-02
    0.2900000000E+02    0.1328460208E-01    0.1012034464E+00    0.9162135678E-01    0.4125628129E-02    0.4665637467E-02
    0.3100000000E+02    0.1407155565E-01    0.1061384905E+00    0.9626055222E-01    0.4327225808E-02    0.4942046884E-02
    0.3300000000E+02    0.1484514489E-01    0.1108874144E+00    0.1007477922E+00    0.4521273731E-02    0.5213765243E-02
    0.3500000000E+02    0.1560584064E-01    0.1154599909E+00    0.1050911202E+00    0.4708168159E-02    0.5480957794E-02
    0.3700000000E+02    0.1635409070E-01    0.1198653195E+00    0.1092980092E+00    0.4888278028E-02    0.5743781710E-02
    0.3900000000E+02    0.1709032132E-01    0.1241118835E+00    0.1133754121E+00    0.5061947283E-02    0.6002386581E-02
    0.4100000000E+02    0.1781493840E-01    0.1282076018E+00    0.1173298062E+00    0.5229496972E-02    0.6256914880E-02
    0.4300000000E+02    0.1852832882E-01    0.1321598754E+00    0.1211672337E+00    0.5391227142E-02    0.6507502381E-02
    0.4500000000E+02    0.1923086147E-01    0.1359756294E+00    0.1248933382E+00    0.5547418534E-02    0.6754278565E-02
    0.4700000000E+02    0.1992288838E-01    0.1396613507E+00    0.1285133966E+00    0.5698334126E-02    0.6997366980E-02
    0.4900000000E+02    0.2060474564E-01    0.1432231229E+00    0.1320323495E+00    0.5844220526E-02    0.7236885590E-02
    0.1000000000E+02    0.5035438338E-02    0.4264303387E-01    0.3798315664E-01    0.1736793215E-02    0.1768383184E-02
    0.3000000000E+02    0.1367977978E-01    0.1036948723E+00    0.9396047541E-01    0.4227396591E-02    0.4804439216E-02
    0.5000000000E+02    0.2094196155E-01    0.1449593264E+00    0.1337553699E+00    0.5915350680E-02    0.7355341633E-02
    0.7000000000E+02    0.2722330288E-01    0.1743926654E+00    0.1638911182E+00    0.7123236937E-02    0.9561942897E-02
    0.9000000000E+02    0.3277789411E-01    0.1961956161E+00    0.1877546185E+00    0.8021331194E-02    0.1151342551E-01
    0.1100000000E+03    0.3777528340E-01    0.2128005264E+00    0.2072879035E+00    0.8708222840E-02    0.1326930083E-01
    0.1300000000E+03    0.4233345816E-01    0.2257141778E+00    0.2236891908E+00    0.9244990622E-02    0.1487098378E-01
    0.1500000000E+03    0.4653739522E-01    0.2359195338E+00    0.2377406863E+00    0.9671487570E-02    0.1634830307E-01
    0.1700000000E+03    0.5045007458E-01    0.2440846728E+00    0.2499764393E+00    0.1001480792E-01    0.1772336666E-01
    0.1900000000E+03    0.5411931846E-01    0.2506790571E+00    0.2607746297E+00    0.1029399805E-01    0.1901296209E-01
    0.2100000000E+03    0.5758220162E-01    0.2560418440E+00    0.2704113039E+00    0.1052282400E-01    0.2023010442E-01
    0.2300000000E+03    0.6086798872E-01    0.2604238522E+00    0.2790931769E+00    0.1071147157E-01    0.2138506721E-01
    0.2500000000E+03    0.6400014616E-01    0.2640143224E+00    0.2869784673E+00    0.1086763045E-01    0.2248608867E-01
    0.2700000000E+03    0.6699775391E-01    0.2669585338E+00    0.2941905863E+00    0.1099720787E-01    0.2353986724E-01
    0.2900000000E+03    0.6987651794E-01    0.2693697220E+00    0.3008273967E+00    0.1110481148E-01    0.2455191693E-01
    0.3100000000E+03    0.7264951015E-01    0.2713373361E+00    0.3069676382E+00    0.1119408395E-01    0.2552682708E-01
    0.3300000000E+03    0.7532771846E-01    0.2729328815E+00    0.3126754862E+00    0.1126793971E-01    0.2646845544E-01
    0.3500000000E+03    0.7792046214E-01    0.2742141309E+00    0.3180038509E+00    0.1132873564E-01    0.2738007395E-01
    0.3700000000E+03    0.8043570971E-01    0.2752282112E+00    0.3229968082E+00    0.1137839627E-01    0.2826448035E-01
    0.3900000000E+03    0.8288032537E-01    0.2760138995E+00    0.3276914192E+00    0.1141850678E-01    0.2912408472E-01
    0.4100000000E+03    0.8526026233E-01    0.2766033548E+00    0.3321191112E+00    0.1145038331E-01    0.2996097727E-01
    0.4300000000E+03    0.8758071592E-01    0.2770234392E+00    0.3363067406E+00    0.1147512656E-01    0.3077698215E-01
    0.4500000000E+03    0.8984624619E-01    0.2772967388E+00    0.3402774202E+00    0.1149366316E-01    0.3157370048E-01
    0.4700000000E+03    0.9206087686E-01    0.2774423591E+00    0.3440511702E+00    0.1150677802E-01    0.3235254507E-01
    0.4900000000E+03    0.9422817591E-01    0.2774765513E+00    0.3476454357E+00    0.1151513973E-01    0.3311476873E-01
    0.1000000000E+03    0.3533792204E-01    0.2050379766E+00    0.1979751506E+00    0.8386724692E-02    0.1241289476E-01
    0.3000000000E+03    0.7127550535E-01    0.2704041421E+00    0.3039552799E+00    0.1115154216E-01    0.2504375810E-01
    0.5000000000E+03    0.9529508296E-01    0.2774562846E+00    0.3493801131E+00    0.1151772034E-01    0.3349000125E-01
    0.7000000000E+03    0.1147647261E+00    0.2736962659E+00    0.3775306582E+00    0.1142292883E-01    0.4033849529E-01
    0.9000000000E+03    0.1316926030E+00    0.2669225609E+00    0.3976661433E+00    0.1119020762E-01    0.4629437746E-01
    0.1100000000E+04    0.1469197807E+00    0.2592949041E+00    0.4132121363E+00    0.1091128726E-01    0.5165298778E-01
    0.1300000000E+04    0.1608828044E+00    0.2515634190E+00    0.4257980793E+00    0.1061931632E-01    0.5656761783E-01
    0.1500000000E+04    0.1738402668E+00    0.2440174126E+00    0.4363227426E+00    0.1032793407E-01    0.6112906802E-01
    0.1700000000E+04    0.1859599851E+00    0.2367700526E+00    0.4453330343E+00    0.1004312504E-01    0.6539626095E-01
    0.1900000000E+04    0.1973585294E+00    0.2298603934E+00    0.4531859028E+00    0.9767530297E-02    0.6941012256E-01
    0.2100000000E+04    0.2081213138E+00    0.2232945567E+00    0.4601268805E+00    0.9502221450E-02    0.7320063812E-01
    0.2300000000E+04    0.2183137050E+00    0.2170637845E+00    0.4663319044E+00    0.9247498326E-02    0.7679075331E-01
    0.2500000000E+04    0.2279875705E+00    0.2111528161E+00    0.4719312331E+00    0.9003271968E-02    0.8019867405E-01
    0.2700000000E+04    0.2371853393E+00    0.2055439173E+00    0.4770239218E+00    0.8769257689E-02    0.8343929254E-01
    0.2900000000E+04    0.2459426241E+00    0.2002188494E+00    0.4816869971E+00    0.8545075896E-02    0.8652510806E-01
    0.3100000000E+04    0.2542899711E+00    0.1951598220E+00    0.4859814983E+00    0.8330306009E-02    0.8946684169E-01
    0.3300000000E+04    0.2622540628E+00    0.1903499318E+00    0.4899565859E+00    0.8124515669E-02    0.9227385840E-01
    0.3500000000E+04    0.2698585622E+00    0.1857733385E+00    0.4936524133E+00    0.7927276527E-02    0.9495446365E-01
    0.3700000000E+04    0.2771247201E+00    0.1814153043E+00    0.4971021837E+00    0.7738172630E-02    0.9751611657E-01
    0.3900000000E+04    0.2840718187E+00    0.1772621669E+00    0.5003336530E+00    0.7556804639E-02    0.9996558572E-01
    0.4100000000E+04    0.2907175028E+00    0.1733012795E+00    0.5033702487E+00    0.7382791697E-02    0.1023090653E+00
    0.4300000000E+04    0.2970780300E+00    0.1695209392E+00    0.5062319173E+00    0.7215771974E-02    0.1045522628E+00
    0.4500000000E+04    0.3031684631E+00    0.1659103112E+00    0.5089357741E+00    0.7055402475E-02    0.1067004669E+00
    0.4700000000E+04    0.3090028212E+00    0.1624593563E+00    0.5114966095E+00    0.6901358454E-02    0.1087586003E+00
    0.4900000000E+04    0.3145941992E+00    0.1591587628E+00    0.5139272869E+00    0.6753332624E-02    0.1107312613E+00
    0.1000000000E+04    0.1394857418E+00    0.2631521018E+00    0.4058867895E+00    0.1105375745E-01    0.4903674051E-01
    0.3000000000E+04    0.2501657929E+00    0.1976571608E+00    0.4838770070E+00    0.8436541443E-02    0.8801337198E-01
    0.5000000000E+04    0.3173026343E+00    0.1575621249E+00    0.5150973888E+00    0.6681485063E-02    0.1116868965E+00
    0.7000000000E+04    0.3613291455E+00    0.1317217842E+00    0.5337824263E+00    0.5497810098E-02    0.1272306014E+00
    0.9000000000E+04    0.3913094402E+00    0.1140524720E+00    0.5467401279E+00    0.4668250881E-02    0.1378290297E+00
    0.1100000000E+05    0.4124411738E+00    0.1013673149E+00    0.5564708786E+00    0.4065297925E-02    0.1453097744E+00
    0.1300000000E+05    0.4278205986E+00    0.9187959446E-01    0.5641564716E+00    0.3612284377E-02    0.1507622724E+00
    0.1500000000E+05    0.4393402045E+00    0.8453486340E-01    0.5704430173E+00    0.3261820591E-02    0.1548528066E+00
    0.1700000000E+05    0.4481900546E+00    0.7868255669E-01    0.5757194956E+00    0.2983715418E-02    0.1580005915E+00
    0.1900000000E+05    0.4551409184E+00    0.7390499631E-01    0.5802368161E+00    0.2758137641E-02    0.1604772854E+00
    0.2100000000E+05    0.4607065163E+00    0.6992429777E-01    0.5841654747E+00    0.2571674433E-02    0.1624640452E+00
    0.2300000000E+05    0.4652385433E+00    0.6654962078E-01    0.5876261437E+00    0.2415004672E-02    0.1640849568E+00
    0.2500000000E+05    0.4689837573E+00    0.6364615541E-01    0.5907070820E+00    0.2281488527E-02    0.1654271285E+00
    0.2700000000E+05    0.4721191925E+00    0.6111625660E-01    0.5934746095E+00    0.2166289156E-02    0.1665530888E+00
    0.2900000000E+05    0.4747744460E+00    0.5888760535E-01    0.5959797029E+00    0.2065811309E-02    0.1675086367E+00
    0.3100000000E+05    0.4770461307E+00    0.5690556566E-01    0.5982623084E+00    0.1977333588E-02    0.1683279337E+00
    0.3300000000E+05    0.4790074652E+00    0.5512812130E-01    0.6003542524E+00    0.1898761971E-02    0.1690368840E+00
    0.3500000000E+05    0.4807147713E+00    0.5352244204E-01    0.6022812618E+00    0.1828461102E-02    0.1696554255E+00
    0.3700000000E+05    0.4822119634E+00    0.5206250480E-01    0.6040643992E+00    0.1765136540E-02    0.1701991131E+00
    0.3900000000E+05    0.4835337062E+00    0.5072741324E-01    0.6057211033E+00    0.1707751093E-02    0.1706802326E+00
    0.4100000000E+05    0.4847076722E+00    0.4950018968E-01    0.6072659590E+00    0.1655464382E-02    0.1711085981E+00
    0.4300000000E+05    0.4857561809E+00    0.4836689215E-01    0.6087112743E+00    0.1607588526E-02    0.1714921297E+00
    0.4500000000E+05    0.4866974052E+00    0.4731595957E-01    0.6100675211E+00    0.1563555189E-02    0.1718372805E+00
    0.4700000000E+05    0.4875462712E+00    0.4633771943E-01    0.6113436753E+00    0.1522890757E-02    0.1721493542E+00
    0.4900000000E+05    0.4883151376E+00    0.4542401286E-01    0.6125474824E+00    0.1485197418E-02    0.1724327449E+00
    0.1000000000E+05    0.4027516616E+00    0.1072211988E+00    0.5519172570E+00    0.4344118877E-02    0.1418783009E+00
    0.3000000000E+05    0.4759531980E+00    0.5786863435E-01    0.5971466643E+00    0.2020215736E-02    0.1679335351E+00
    0.5000000000E+05    0.4886728609E+00    0.4498915144E-01    0.6131243923E+00    0.1467357660E-02    0.1725648546E+00
    0.7000000000E+05    0.4934127642E+00    0.3843760607E-01    0.6221122751E+00    0.1206763790E-02    0.1743372297E+00
    0.9000000000E+05    0.4958010413E+00    0.3426093068E-01    0.6281031919E+00    0.1049003215E-02    0.1752563165E+00
    0.1100000000E+06    0.4972145269E+00    0.3128297916E-01    0.6324765773E+00    0.9405762563E-03    0.1758168334E+00
    0.1300000000E+06    0.4981389151E+00    0.2901302847E-01    0.6358569534E+00    0.8601651025E-03    0.1761948359E+00
    0.1500000000E+06    0.4987858717E+00    0.2720410099E-01    0.6385747587E+00    0.7974413718E-03    0.1764677591E+00
    0.1700000000E+06    0.4992613992E+00    0.2571604918E-01    0.6408237960E+00    0.7467253200E-03    0.1766747549E+00
    0.1900000000E+06    0.4996240960E+00    0.2446241059E-01    0.6427264123E+00    0.7046032886E-03    0.1768376804E+00
    0.2100000000E+06    0.4999088418E+00    0.2338644680E-01    0.6443642449E+00    0.6688840012E-03    0.1769696770E+00
    0.2300000000E+06    0.5001376267E+00    0.2244911369E-01    0.6457941777E+00    0.6380876701E-03    0.1770791149E+00
    0.2500000000E+06    0.5003249667E+00    0.2162251060E-01    0.6470572511E+00    0.6111739144E-03    0.1771715770E+00
    0.2700000000E+06    0.5004808116E+00    0.2088607834E-01    0.6481839345E+00    0.5873869270E-03    0.1772509305E+00
    0.2900000000E+06    0.5006121987E+00    0.2022427640E-01    0.6491973977E+00    0.5661625166E-03    0.1773199394E+00
    0.3100000000E+06    0.5007242389E+00    0.1962510249E-01    0.6501156221E+00    0.5470697768E-03    0.1773806326E+00
    0.3300000000E+06    0.5008207298E+00    0.1907911479E-01    0.6509528091E+00    0.5297731006E-03    0.1774345340E+00
    0.3500000000E+06    0.5009045492E+00    0.1857876660E-01    0.6517203472E+00    0.5140066503E-03    0.1774828107E+00
    0.3700000000E+06    0.5009779156E+00    0.1811794134E-01    0.6524274919E+00    0.4995567249E-03    0.1775263723E+00
    0.3900000000E+06    0.5010425658E+00    0.1769162035E-01    0.6530818548E+00    0.4862492901E-03    0.1775659385E+00
    0.4100000000E+06    0.5010998778E+00    0.1729564069E-01    0.6536897622E+00    0.4739409737E-03    0.1776020867E+00
    0.4300000000E+06    0.5011509582E+00    0.1692651534E-01    0.6542565220E+00    0.4625124415E-03    0.1776352854E+00
    0.4500000000E+06    0.5011967057E+00    0.1658129774E-01    0.6547866257E+00    0.4518634449E-03    0.1776659193E+00
    0.4700000000E+06    0.5012378568E+00    0.1625747815E-01    0.6552839039E+00    0.4419090617E-03    0.1776943073E+00
    0.4900000000E+06    0.5012750209E+00    0.1595290342E-01    0.6557516462E+00    0.4325768048E-03    0.1777207159E+00
    0.1000000000E+06    0.4965894132E+00    0.3266117007E-01    0.6304431698E+00    0.9903383942E-03    0.1755668503E+00
    0.3000000000E+06    0.5006703744E+00    0.1991750208E-01    0.6496674516E+00    0.5563725505E-03    0.1773512204E+00
    0.5000000000E+06    0.5012922702E+00    0.1580724175E-01    0.6559753454E+00    0.4281241577E-03    0.1777332496E+00
    0.7000000000E+06    0.5015161230E+00    0.1356233679E-01    0.6594224301E+00    0.3603625835E-03    0.1779197734E+00
    0.9000000000E+06    0.5016211199E+00    0.1209026095E-01    0.6616812546E+00    0.3168217996E-03    0.1780373067E+00
    0.1100000000E+07    0.5016766748E+00    0.1102722169E-01    0.6633110898E+00    0.2858349200E-03    0.1781212564E+00
    0.1300000000E+07    0.5017077055E+00    0.1021200021E-01    0.6645600117E+00    0.2623405220E-03    0.1781858198E+00
    0.1500000000E+07    0.5017251666E+00    0.9560532130E-02    0.6655573769E+00    0.2437395074E-03    0.1782379371E+00
    0.1700000000E+07    0.5017345445E+00    0.9024046501E-02    0.6663782103E+00    0.2285418246E-03    0.1782814616E+00
    0.1900000000E+07    0.5017388496E+00    0.8572015666E-02    0.6670694535E+00    0.2158238152E-03    0.1783187323E+00
    0.2100000000E+07    0.5017398488E+00    0.8184210311E-02    0.6676621984E+00    0.2049784145E-03    0.1783512657E+00
    0.2300000000E+07    0.5017386342E+00    0.7846616124E-02    0.6681779751E+00    0.1955880374E-03    0.1783800965E+00
    0.2500000000E+07    0.5017359090E+00    0.7549171799E-02    0.6686322338E+00    0.1873547529E-03    0.1784059594E+00
    0.2700000000E+07    0.5017321409E+00    0.7284439355E-02    0.6690363917E+00    0.1800595349E-03    0.1784293940E+00
    0.2900000000E+07    0.5017276493E+00    0.7046783843E-02    0.6693990949E+00    0.1735372844E-03    0.1784508071E+00
    0.3100000000E+07    0.5017226571E+00    0.6831846622E-02    0.6697270286E+00    0.1676608815E-03    0.1784705127E+00
    0.3300000000E+07    0.5017173227E+00    0.6636195488E-02    0.6700254554E+00    0.1623306467E-03    0.1784887580E+00
    0.3500000000E+07    0.5017117603E+00    0.6457085464E-02    0.6702985827E+00    0.1574671694E-03    0.1785057407E+00
    0.3700000000E+07    0.5017060532E+00    0.6292291081E-02    0.6705498205E+00    0.1530063004E-03    0.1785216215E+00
    0.3900000000E+07    0.5017002628E+00    0.6139986184E-02    0.6707819662E+00    0.1488955791E-03    0.1785365326E+00
    0.4100000000E+07    0.5016944345E+00    0.5998656114E-02    0.6709973394E+00    0.1450916310E-03    0.1785505838E+00
    0.4300000000E+07    0.5016886021E+00    0.5867032423E-02    0.6711978822E+00    0.1415582408E-03    0.1785638678E+00
    0.4500000000E+07    0.5016827907E+00    0.5744043592E-02    0.6713852345E+00    0.1382649021E-03    0.1785764628E+00
    0.4700000000E+07    0.5016770192E+00    0.5628777312E-02    0.6715607927E+00    0.1351857107E-03    0.1785884362E+00
    0.4900000000E+07    0.5016713014E+00    0.5520451240E-02    0.6717257535E+00    0.1322985094E-03    0.1785998457E+00
    0.1000000000E+07    0.5016530206E+00    0.1152029483E-01    0.6625552809E+00    0.3001591736E-03    0.1780823397E+00
    0.3000000000E+07    0.5017252046E+00    0.6936708445E-02    0.6695670506E+00    0.1705251282E-03    0.1784608566E+00
    0.5000000000E+07    0.5016684660E+00    0.5468676093E-02    0.6718045883E+00    0.1309208378E-03    0.1786053549E+00
    0.7000000000E+07    0.5016159071E+00    0.4673450740E-02    0.6730146580E+00    0.1099556545E-03    0.1786952604E+00
    0.9000000000E+07    0.5015712869E+00    0.4154964744E-02    0.6738028172E+00    0.9649864165E-04    0.1787605570E+00
    0.1100000000E+08    0.5015331444E+00    0.3782117877E-02    0.6743691789E+00    0.8693629947E-04    0.1788118294E+00
    0.1300000000E+08    0.5015000116E+00    0.3497116448E-02    0.6748018638E+00    0.7969709679E-04    0.1788540391E+00
    0.1500000000E+08    0.5014707901E+00    0.3269955156E-02    0.6751465855E+00    0.7397366997E-04    0.1788899097E+00
    0.1700000000E+08    0.5014446830E+00    0.3083288372E-02    0.6754297536E+00    0.6930331401E-04    0.1789210972E+00
    0.1900000000E+08    0.5014211046E+00    0.2926291526E-02    0.6756678406E+00    0.6539939463E-04    0.1789486836E+00
    0.2100000000E+08    0.5013996163E+00    0.2791810176E-02    0.6758717290E+00    0.6207367372E-04    0.1789734146E+00
    0.2300000000E+08    0.5013798821E+00    0.2674899030E-02    0.6760489384E+00    0.5919677526E-04    0.1789958262E+00
    0.2500000000E+08    0.5013616401E+00    0.2572014696E-02    0.6762048547E+00    0.5667647169E-04    0.1790163161E+00
    0.2700000000E+08    0.5013446822E+00    0.2480542244E-02    0.6763434517E+00    0.5444501667E-04    0.1790351881E+00
