  Pressure (Pa) 22mC5-400 (mol/kg) 2mC6-400 (mol/kg) 3mC6-400 (mol/kg) 33mC5-400 (mol/kg) 23mC5-400 (mol/kg)
    0.1000000000E+01    0.5299241219E-03    0.3188850953E-02    0.1588206230E-02    0.1298164765E-03    0.9304880761E-03
    0.3000000000E+01    0.1572994074E-02    0.9413912425E-02    0.4705064844E-02    0.3832321066E-03    0.2762022275E-02
    0.5000000000E+01    0.2594431199E-02    0.1544288538E-01    0.7745180313E-02    0.6286605344E-03    0.4555595788E-02
    0.7000000000E+01    0.3595079644E-02    0.2128424720E-01    0.1071159636E-01    0.8664468802E-03    0.6312689707E-02
    0.9000000000E+01    0.4575738738E-02    0.2694600251E-01    0.1360719491E-01    0.1096917021E-02    0.8034706500E-02
    0.1100000000E+02    0.5537165949E-02    0.3243571533E-01    0.1643470675E-01    0.1320378900E-02    0.9722975194E-02
    0.1300000000E+02    0.6480079615E-02    0.3776053879E-01    0.1919672139E-01    0.1537123736E-02    0.1137875616E-01
    0.1500000000E+02    0.7405161454E-02    0.4292724232E-01    0.2189569614E-01    0.1747427129E-02    0.1300324553E-01
    0.1700000000E+02    0.8313058891E-02    0.4794223687E-01    0.2453396449E-01    0.1951550088E-02    0.1459757927E-01
    0.1900000000E+02    0.9204387204E-02    0.5281159806E-01    0.2711374389E-01    0.2149739972E-02    0.1616283695E-01
    0.2100000000E+02    0.1007973152E-01    0.5754108766E-01    0.2963714288E-01    0.2342231364E-02    0.1770004521E-01
    0.2300000000E+02    0.1093964863E-01    0.6213617339E-01    0.3210616781E-01    0.2529246879E-02    0.1921018104E-01
    0.2500000000E+02    0.1178466875E-01    0.6660204729E-01    0.3452272894E-01    0.2710997911E-02    0.2069417474E-01
    0.2700000000E+02    0.1261529705E-01    0.7094364269E-01    0.3688864619E-01    0.2887685320E-02    0.2215291271E-01
    0.2900000000E+02    0.1343201517E-01    0.7516564998E-01    0.3920565447E-01    0.3059500081E-02    0.2358724003E-01
    0.3100000000E+02    0.1423528255E-01    0.7927253127E-01    0.4147540861E-01    0.3226623872E-02    0.2499796289E-01
    0.3300000000E+02    0.1502553774E-01    0.8326853395E-01    0.4369948799E-01    0.3389229635E-02    0.2638585077E-01
    0.3500000000E+02    0.1580319959E-01    0.8715770333E-01    0.4587940076E-01    0.3547482082E-02    0.2775163861E-01
    0.3700000000E+02    0.1656866832E-01    0.9094389443E-01    0.4801658794E-01    0.3701538182E-02    0.2909602866E-01
    0.3900000000E+02    0.1732232659E-01    0.9463078291E-01    0.5011242705E-01    0.3851547601E-02    0.3041969235E-01
    0.4100000000E+02    0.1806454044E-01    0.9822187528E-01    0.5216823566E-01    0.3997653119E-02    0.3172327200E-01
    0.4300000000E+02    0.1879566021E-01    0.1017205184E+00    0.5418527463E-01    0.4139991020E-02    0.3300738232E-01
    0.4500000000E+02    0.1951602138E-01    0.1051299085E+00    0.5616475114E-01    0.4278691450E-02    0.3427261198E-01
    0.4700000000E+02    0.2022594535E-01    0.1084530993E+00    0.5810782156E-01    0.4413878759E-02    0.3551952495E-01
    0.4900000000E+02    0.2092574020E-01    0.1116930098E+00    0.6001559409E-01    0.4545671815E-02    0.3674866179E-01
    0.1000000000E+02    0.5058810546E-02    0.2971190786E-01    0.1502929662E-01    0.1209505414E-02    0.8882979031E-02
    0.3000000000E+02    0.1383530231E-01    0.7723321103E-01    0.4034633788E-01    0.3143637340E-02    0.2429550309E-01
    0.5000000000E+02    0.2127193199E-01    0.1132826122E+00    0.6095657742E-01    0.4610331219E-02    0.3735672699E-01
    0.7000000000E+02    0.2772976925E-01    0.1413202766E+00    0.7815960697E-01    0.5750480551E-02    0.4870021170E-01
    0.9000000000E+02    0.3344642238E-01    0.1635614243E+00    0.9280922715E-01    0.6654298243E-02    0.5874289939E-01
    0.1100000000E+03    0.3858508790E-01    0.1814866866E+00    0.1054905907E+00    0.7382090475E-02    0.6777116840E-01
    0.1300000000E+03    0.4326186136E-01    0.1961212746E+00    0.1166188738E+00    0.7975620806E-02    0.7598875034E-01
    0.1500000000E+03    0.4756179315E-01    0.2081962976E+00    0.1264972993E+00    0.8464677323E-02    0.8354490102E-01
    0.1700000000E+03    0.5154876323E-01    0.2182463211E+00    0.1353528244E+00    0.8871044395E-02    0.9055172689E-01
    0.1900000000E+03    0.5527179039E-01    0.2266706742E+00    0.1433589392E+00    0.9210998753E-02    0.9709525568E-01
    0.2100000000E+03    0.5876919706E-01    0.2337732627E+00    0.1506507099E+00    0.9496930541E-02    0.1032427444E+00
    0.2300000000E+03    0.6207143738E-01    0.2397891689E+00    0.1573349876E+00    0.9738426433E-02    0.1090476421E+00
    0.2500000000E+03    0.6520306558E-01    0.2449028708E+00    0.1634975075E+00    0.9943011545E-02    0.1145530435E+00
    0.2700000000E+03    0.6818413621E-01    0.2492609970E+00    0.1692079349E+00    0.1011666888E-01    0.1197941468E+00
    0.2900000000E+03    0.7103121972E-01    0.2529814323E+00    0.1745235191E+00    0.1026421015E-01    0.1248000355E+00
    0.3100000000E+03    0.7375815188E-01    0.2561599319E+00    0.1794917878E+00    0.1038954521E-01    0.1295949935E+00
    0.3300000000E+03    0.7637659553E-01    0.2588750021E+00    0.1841525625E+00    0.1049588080E-01    0.1341994911E+00
    0.3500000000E+03    0.7889646755E-01    0.2611915525E+00    0.1885394885E+00    0.1058586939E-01    0.1386309344E+00
    0.3700000000E+03    0.8132626776E-01    0.2631636657E+00    0.1926812117E+00    0.1066172197E-01    0.1429042423E+00
    0.3900000000E+03    0.8367333498E-01    0.2648367214E+00    0.1966022927E+00    0.1072529461E-01    0.1470322960E+00
    0.4100000000E+03    0.8594404881E-01    0.2662490437E+00    0.2003239263E+00    0.1077815557E-01    0.1510262931E+00
    0.4300000000E+03    0.8814399001E-01    0.2674331910E+00    0.2038645117E+00    0.1082163787E-01    0.1548960291E+00
    0.4500000000E+03    0.9027806924E-01    0.2684169756E+00    0.2072401099E+00    0.1085688084E-01    0.1586501233E+00
    0.4700000000E+03    0.9235063124E-01    0.2692242768E+00    0.2104648130E+00    0.1088486327E-01    0.1622962019E+00
    0.4900000000E+03    0.9436553977E-01    0.2698756937E+00    0.2135510447E+00    0.1090643001E-01    0.1658410466E+00
    0.1000000000E+03    0.3607987080E-01    0.1729910861E+00    0.9936682936E-01    0.7037246137E-02    0.6336956445E-01
    0.3000000000E+03    0.7240893042E-01    0.2546331610E+00    0.1770484184E+00    0.1032943851E-01    0.1272225218E+00
    0.5000000000E+03    0.9535246735E-01    0.2701486179E+00    0.2150457214E+00    0.1091504028E-01    0.1675774254E+00
    0.7000000000E+03    0.1127390486E+00    0.2706997653E+00    0.2397775609E+00    0.1088507334E-01    0.1981747275E+00
    0.9000000000E+03    0.1267891821E+00    0.2665695095E+00    0.2580470580E+00    0.1066251888E-01    0.2229119562E+00
    0.1100000000E+04    0.1384958130E+00    0.2609062207E+00    0.2725260393E+00    0.1037804749E-01    0.2435319939E+00
    0.1300000000E+04    0.1484241034E+00    0.2548775128E+00    0.2845203166E+00    0.1008062474E-01    0.2610269090E+00
    0.1500000000E+04    0.1569449018E+00    0.2489543778E+00    0.2947611452E+00    0.9790204516E-02    0.2760477545E+00
    0.1700000000E+04    0.1643233448E+00    0.2433265407E+00    0.3036980544E+00    0.9514884386E-02    0.2890600734E+00
    0.1900000000E+04    0.1707592229E+00    0.2380606391E+00    0.3116268017E+00    0.9257499037E-02    0.3004147349E+00
    0.2100000000E+04    0.1764081691E+00    0.2331673715E+00    0.3187522795E+00    0.9018452327E-02    0.3103851131E+00
    0.2300000000E+04    0.1813941091E+00    0.2286321505E+00    0.3252222976E+00    0.8797028557E-02    0.3191889299E+00
    0.2500000000E+04    0.1858172473E+00    0.2244297490E+00    0.3311470200E+00    0.8592029449E-02    0.3270022665E+00
    0.2700000000E+04    0.1897595381E+00    0.2205314530E+00    0.3366107802E+00    0.8402091328E-02    0.3339691621E+00
    0.2900000000E+04    0.1932886168E+00    0.2169085435E+00    0.3416795984E+00    0.8225843092E-02    0.3402085113E+00
    0.3100000000E+04    0.1964607217E+00    0.2135339208E+00    0.3464061463E+00    0.8061982316E-02    0.3458191922E+00
    0.3300000000E+04    0.1993229199E+00    0.2103827789E+00    0.3508331348E+00    0.7909308484E-02    0.3508839727E+00
    0.3500000000E+04    0.2019148334E+00    0.2074327914E+00    0.3549956884E+00    0.7766733726E-02    0.3554725404E+00
    0.3700000000E+04    0.2042699948E+00    0.2046640544E+00    0.3589230510E+00    0.7633281943E-02    0.3596438829E+00
    0.3900000000E+04    0.2064169249E+00    0.2020589165E+00    0.3626398360E+00    0.7508082243E-02    0.3634481796E+00
    0.4100000000E+04    0.2083799947E+00    0.1996017628E+00    0.3661669603E+00    0.7390359904E-02    0.3669283161E+00
    0.4300000000E+04    0.2101801215E+00    0.1972787907E+00    0.3695223532E+00    0.7279426608E-02    0.3701211063E+00
    0.4500000000E+04    0.2118353339E+00    0.1950777955E+00    0.3727215028E+00    0.7174670856E-02    0.3730582853E+00
    0.4700000000E+04    0.2133612327E+00    0.1929879731E+00    0.3757778823E+00    0.7075549012E-02    0.3757673190E+00
    0.4900000000E+04    0.2147713701E+00    0.1909997433E+00    0.3787032870E+00    0.6981577178E-02    0.3782720701E+00
    0.1000000000E+04    0.1328939451E+00    0.2638320985E+00    0.2656598812E+00    0.1052394928E-01    0.2336637951E+00
    0.3000000000E+04    0.1949161566E+00    0.2151918042E+00    0.3440827850E+00    0.8142441895E-02    0.3430869238E+00
    0.5000000000E+04    0.2154367808E+00    0.1900410278E+00    0.3801201682E+00    0.6936385827E-02    0.3794544485E+00
    0.7000000000E+04    0.2248583211E+00    0.1745708058E+00    0.4035588994E+00    0.6219917117E-02    0.3962365689E+00
    0.9000000000E+04    0.2300736479E+00    0.1635908751E+00    0.4208054519E+00    0.5728524165E-02    0.4055780183E+00
    0.1100000000E+05    0.2333231983E+00    0.1551316210E+00    0.4343608885E+00    0.5360770831E-02    0.4114329598E+00
    0.1300000000E+05    0.2355174102E+00    0.1482754413E+00    0.4454679184E+00    0.5069743586E-02    0.4154109912E+00
    0.1500000000E+05    0.2370870929E+00    0.1425269663E+00    0.4548351244E+00    0.4830497931E-02    0.4182751071E+00
    0.1700000000E+05    0.2382596821E+00    0.1375894841E+00    0.4629047714E+00    0.4628360571E-02    0.4204288513E+00
    0.1900000000E+05    0.2391655291E+00    0.1332713467E+00    0.4699712661E+00    0.4454028011E-02    0.4221039465E+00
    0.2100000000E+05    0.2398842651E+00    0.1294415616E+00    0.4762403085E+00    0.4301253823E-02    0.4234422271E+00
    0.2300000000E+05    0.2404670783E+00    0.1260065938E+00    0.4818611557E+00    0.4165651654E-02    0.4245350479E+00
    0.2500000000E+05    0.2409482684E+00    0.1228972992E+00    0.4869454501E+00    0.4044028538E-02    0.4254437483E+00
    0.2700000000E+05    0.2413516262E+00    0.1200611084E+00    0.4915788112E+00    0.3933990889E-02    0.4262109625E+00
    0.2900000000E+05    0.2416941405E+00    0.1174571144E+00    0.4958282898E+00    0.3833700002E-02    0.4268671994E+00
    0.3100000000E+05    0.2419882484E+00    0.1150528597E+00    0.4997473372E+00    0.3741714024E-02    0.4274348422E+00
    0.3300000000E+05    0.2422432529E+00    0.1128221599E+00    0.5033792216E+00    0.3656882236E-02    0.4279306695E+00
    0.3500000000E+05    0.2424662440E+00    0.1107435870E+00    0.5067594381E+00    0.3578272211E-02    0.4283674973E+00
    0.3700000000E+05    0.2426627155E+00    0.1087993859E+00    0.5099174486E+00    0.3505118330E-02    0.4287552780E+00
    0.3900000000E+05    0.2428369865E+00    0.1069746832E+00    0.5128779620E+00    0.3436784575E-02    0.4291018540E+00
    0.4100000000E+05    0.2429924979E+00    0.1052568974E+00    0.5156618944E+00    0.3372737107E-02    0.4294134866E+00
    0.4300000000E+05    0.2431320226E+00    0.1036352940E+00    0.5182870989E+00    0.3312523701E-02    0.4296952339E+00
    0.4500000000E+05    0.2432578193E+00    0.1021006423E+00    0.5207689288E+00    0.3255758088E-02    0.4299512252E+00
    0.4700000000E+05    0.2433717457E+00    0.1006449492E+00    0.5231206784E+00    0.3202107863E-02    0.4301848643E+00
    0.4900000000E+05    0.2434753427E+00    0.9926124860E-01    0.5253539307E+00    0.3151285023E-02    0.4303989818E+00
    0.1000000000E+05    0.2318706278E+00    0.1591176130E+00    0.4279494488E+00    0.5532858988E-02    0.4088113884E+00
    0.3000000000E+05    0.2418466030E+00    0.1162317829E+00    0.4978262066E+00    0.3786746663E-02    0.4271609376E+00
    0.5000000000E+05    0.2435236789E+00    0.9859445763E-01    0.5264293416E+00    0.3126854141E-02    0.4304994766E+00
    0.7000000000E+05    0.2441726341E+00    0.8788590790E-01    0.5436298021E+00    0.2739728332E-02    0.4318996190E+00
    0.9000000000E+05    0.2445042210E+00    0.8039311960E-01    0.5555846698E+00    0.2474554697E-02    0.4326770253E+00
    0.1100000000E+06    0.2446994190E+00    0.7473079480E-01    0.5645751678E+00    0.2277210926E-02    0.4331758625E+00
    0.1300000000E+06    0.2448245451E+00    0.7023711766E-01    0.5716836629E+00    0.2122459634E-02    0.4335256529E+00
    0.1500000000E+06    0.2449093675E+00    0.6654740211E-01    0.5775031870E+00    0.1996634111E-02    0.4337861096E+00
    0.1700000000E+06    0.2449691255E+00    0.6344075103E-01    0.5823912689E+00    0.1891567259E-02    0.4339886353E+00
    0.1900000000E+06    0.2450123786E+00    0.6077397139E-01    0.5865787663E+00    0.1802022804E-02    0.4341513527E+00
    0.2100000000E+06    0.2450442778E+00    0.5844936183E-01    0.5902226744E+00    0.1724460929E-02    0.4342854712E+00
    0.2300000000E+06    0.2450680938E+00    0.5639752962E-01    0.5934341835E+00    0.1656387449E-02    0.4343983074E+00
    0.2500000000E+06    0.2450859935E+00    0.5456756744E-01    0.5962946629E+00    0.1595985380E-02    0.4344948468E+00
    0.2700000000E+06    0.2450994637E+00    0.5292111993E-01    0.5988652859E+00    0.1541894258E-02    0.4345786080E+00
    0.2900000000E+06    0.2451095544E+00    0.5142863517E-01    0.6011930945E+00    0.1493071754E-02    0.4346521485E+00
    0.3100000000E+06    0.2451170258E+00    0.5006690641E-01    0.6033149663E+00    0.1448703515E-02    0.4347173736E+00
    0.3300000000E+06    0.2451224394E+00    0.4881740807E-01    0.6052602946E+00    0.1408142498E-02    0.4347757338E+00
    0.3500000000E+06    0.2451262181E+00    0.4766513856E-01    0.6070528475E+00    0.1370867005E-02    0.4348283533E+00
    0.3700000000E+06    0.2451286849E+00    0.4659779623E-01    0.6087120904E+00    0.1336450945E-02    0.4348761182E+00
    0.3900000000E+06    0.2451300905E+00    0.4560518046E-01    0.6102541449E+00    0.1304542324E-02    0.4349197366E+00
    0.4100000000E+06    0.2451306313E+00    0.4467874832E-01    0.6116924982E+00    0.1274847380E-02    0.4349597817E+00
    0.4300000000E+06    0.2451304634E+00    0.4381128096E-01    0.6130385355E+00    0.1247118703E-02    0.4349967228E+00
    0.4500000000E+06    0.2451297115E+00    0.4299662907E-01    0.6143019459E+00    0.1221146194E-02    0.4350309481E+00
    0.4700000000E+06    0.2451284768E+00    0.4222951585E-01    0.6154910366E+00    0.1196750095E-02    0.4350627816E+00
    0.4900000000E+06    0.2451268412E+00    0.4150538296E-01    0.6166129780E+00    0.1173775558E-02    0.4350924963E+00
    0.1000000000E+06    0.2446134223E+00    0.7738432721E-01    0.5603666193E+00    0.2369366439E-02    0.4329507005E+00
    0.3000000000E+06    0.2451135786E+00    0.5073267833E-01    0.6022777850E+00    0.1470374648E-02    0.4346857009E+00
    0.5000000000E+06    0.2451258948E+00    0.4115817555E-01    0.6171507460E+00    0.1162778723E-02    0.4351066328E+00
    0.7000000000E+06    0.2450972317E+00    0.3573407223E-01    0.6255367752E+00    0.9926385287E-03    0.4353194779E+00
    0.9000000000E+06    0.2450628797E+00    0.3210286837E-01    0.6311353220E+00    0.8805696368E-03    0.4354557799E+00
    0.1100000000E+07    0.2450293989E+00    0.2944395169E-01    0.6352270420E+00    0.7995135523E-03    0.4355540128E+00
    0.1300000000E+07    0.2449982118E+00    0.2738397997E-01    0.6383925973E+00    0.7373380968E-03    0.4356299807E+00
    0.1500000000E+07    0.2449694843E+00    0.2572470683E-01    0.6409395804E+00    0.6876733437E-03    0.4356915293E+00
    0.1700000000E+07    0.2449430449E+00    0.2434953442E-01    0.6430485694E+00    0.6468073146E-03    0.4357430615E+00
    0.1900000000E+07    0.2449186459E+00    0.2318468695E-01    0.6448336555E+00    0.6124096451E-03    0.4357872707E+00
    0.2100000000E+07    0.2448960422E+00    0.2218084261E-01    0.6463710212E+00    0.5829329777E-03    0.4358259138E+00
    0.2300000000E+07    0.2448750151E+00    0.2130357826E-01    0.6477137825E+00    0.5573038539E-03    0.4358601946E+00
    0.2500000000E+07    0.2448553755E+00    0.2052802308E-01    0.6489002823E+00    0.5347508772E-03    0.4358909718E+00
    0.2700000000E+07    0.2448369620E+00    0.1983568920E-01    0.6499590013E+00    0.5147034273E-03    0.4359188771E+00
    0.2900000000E+07    0.2448196375E+00    0.1921250216E-01    0.6509116065E+00    0.4967290447E-03    0.4359443885E+00
    0.3100000000E+07    0.2448032851E+00    0.1864752822E-01    0.6517749200E+00    0.4804931563E-03    0.4359678755E+00
    0.3300000000E+07    0.2447878049E+00    0.1813212413E-01    0.6525622325E+00    0.4657322901E-03    0.4359896295E+00
    0.3500000000E+07    0.2447731109E+00    0.1765935300E-01    0.6532842058E+00    0.4522357412E-03    0.4360098838E+00
    0.3700000000E+07    0.2447591290E+00    0.1722357279E-01    0.6539495075E+00    0.4398327074E-03    0.4360288285E+00
    0.3900000000E+07    0.2447457945E+00    0.1682014026E-01    0.6545652677E+00    0.4283830640E-03    0.4360466199E+00
    0.4100000000E+07    0.2447330513E+00    0.1644519380E-01    0.6551374144E+00    0.4177706194E-03    0.4360633882E+00
    0.4300000000E+07    0.2447208498E+00    0.1609549145E-01    0.6556709222E+00    0.4078981003E-03    0.4360792432E+00
    0.4500000000E+07    0.2447091466E+00    0.1576828824E-01    0.6561700020E+00    0.3986833643E-03    0.4360942779E+00
    0.4700000000E+07    0.2446979029E+00    0.1546124203E-01    0.6566382454E+00    0.3900565008E-03    0.4361085719E+00
    0.4900000000E+07    0.2446870845E+00    0.1517234027E-01    0.6570787379E+00    0.3819575828E-03    0.4361221940E+00
    0.1000000000E+07    0.2450458921E+00    0.3068107811E-01    0.6333240799E+00    0.8371172602E-03    0.4355083922E+00
    0.3000000000E+07    0.2448113464E+00    0.1892332457E-01    0.6513535234E+00    0.4884116749E-03    0.4359563653E+00
    0.5000000000E+07    0.2446818250E+00    0.1503414036E-01    0.6572894255E+00    0.3780896647E-03    0.4361287721E+00
    0.7000000000E+07    0.2445929877E+00    0.1290192454E-01    0.6605377163E+00    0.3189560139E-03    0.4362361469E+00
    0.9000000000E+07    0.2445253839E+00    0.1150199333E-01    0.6626680255E+00    0.2807280049E-03    0.4363141500E+00
    0.1100000000E+08    0.2444708169E+00    0.1049051671E-01    0.6642059971E+00    0.2534330728E-03    0.4363754041E+00
    0.1300000000E+08    0.2444250694E+00    0.9714644464E-02    0.6653850159E+00    0.2326963809E-03    0.4364258319E+00
    0.1500000000E+08    0.2443856861E+00    0.9094547386E-02    0.6663268622E+00    0.2162567252E-03    0.4364686862E+00
    0.1700000000E+08    0.2443511122E+00    0.8583868445E-02    0.6671022050E+00    0.2028122485E-03    0.4365059454E+00
    0.1900000000E+08    0.2443203007E+00    0.8153574104E-02    0.6677552797E+00    0.1915535491E-03    0.4365389021E+00
    0.2100000000E+08    0.2442925130E+00    0.7784417848E-02    0.6683153960E+00    0.1819474931E-03    0.4365684474E+00
    0.2300000000E+08    0.2442672086E+00    0.7463062819E-02    0.6688028563E+00    0.1736267403E-03    0.4365952216E+00
    0.2500000000E+08    0.2442439800E+00    0.7179932398E-02    0.6692322334E+00    0.1663288651E-03    0.4366197001E+00
    0.2700000000E+08    0.2442225125E+00    0.6927946051E-02    0.6696142987E+00    0.1598607416E-03    0.4366422456E+00
