  Pressure (Pa) 22mC5-400 (mol/kg) 2mC6-400 (mol/kg) 3mC6-400 (mol/kg) 33mC5-400 (mol/kg) 23mC5-400 (mol/kg)
    0.1000000000E+01    0.5291355133E-03    0.5553759535E-02    0.3159926734E-02    0.1291986394E-03    0.3716414685E-03
    0.3000000000E+01    0.1566128527E-02    0.1624340551E-01    0.9267311310E-02    0.3778947879E-03    0.1099987866E-02
    0.5000000000E+01    0.2575973082E-02    0.2640871288E-01    0.1510818025E-01    0.6144182291E-03    0.1809276743E-02
    0.7000000000E+01    0.3560045333E-02    0.3608590122E-01    0.2070100660E-01    0.8396098729E-03    0.2500474011E-02
    0.9000000000E+01    0.4519626171E-02    0.4530793415E-01    0.2606256538E-01    0.1054235011E-02    0.3174478722E-02
    0.1100000000E+02    0.5455909446E-02    0.5410487853E-01    0.3120812550E-01    0.1258991661E-02    0.3832128840E-02
    0.1300000000E+02    0.6370009349E-02    0.6250421678E-01    0.3615161610E-01    0.1454517821E-02    0.4474206419E-02
    0.1500000000E+02    0.7262967045E-02    0.7053111964E-01    0.4090577128E-01    0.1641397811E-02    0.5101442260E-02
    0.1700000000E+02    0.8135756652E-02    0.7820868478E-01    0.4548225648E-01    0.1820167808E-02    0.5714520108E-02
    0.1900000000E+02    0.8989290640E-02    0.8555814652E-01    0.4989177899E-01    0.1991320726E-02    0.6314080441E-02
    0.2100000000E+02    0.9824424711E-02    0.9259906032E-01    0.5414418505E-01    0.2155310492E-02    0.6900723889E-02
    0.2300000000E+02    0.1064196221E-01    0.9934946587E-01    0.5824854535E-01    0.2312555844E-02    0.7475014343E-02
    0.2500000000E+02    0.1144265816E-01    0.1058260313E+00    0.6221323048E-01    0.2463443673E-02    0.8037481764E-02
    0.2700000000E+02    0.1222722286E-01    0.1120441814E+00    0.6604597771E-01    0.2608332001E-02    0.8588624743E-02
    0.2900000000E+02    0.1299632526E-01    0.1180182113E+00    0.6975395023E-01    0.2747552628E-02    0.9128912828E-02
    0.3100000000E+02    0.1375059593E-01    0.1237613884E+00    0.7334378989E-01    0.2881413492E-02    0.9658788646E-02
    0.3300000000E+02    0.1449062986E-01    0.1292860429E+00    0.7682166417E-01    0.3010200774E-02    0.1017866984E-01
    0.3500000000E+02    0.1521698896E-01    0.1346036493E+00    0.8019330812E-01    0.3134180791E-02    0.1068895084E-01
    0.3700000000E+02    0.1593020437E-01    0.1397248993E+00    0.8346406198E-01    0.3253601685E-02    0.1119000448E-01
    0.3900000000E+02    0.1663077859E-01    0.1446597673E+00    0.8663890486E-01    0.3368694954E-02    0.1168218349E-01
    0.4100000000E+02    0.1731918743E-01    0.1494175697E+00    0.8972248504E-01    0.3479676817E-02    0.1216582186E-01
    0.4300000000E+02    0.1799588174E-01    0.1540070183E+00    0.9271914726E-01    0.3586749457E-02    0.1264123607E-01
    0.4500000000E+02    0.1866128913E-01    0.1584362683E+00    0.9563295734E-01    0.3690102141E-02    0.1310872629E-01
    0.4700000000E+02    0.1931581545E-01    0.1627129619E+00    0.9846772441E-01    0.3789912232E-02    0.1356857740E-01
    0.4900000000E+02    0.1995984614E-01    0.1668442685E+00    0.1012270211E+00    0.3886346110E-02    0.1402105999E-01
    0.1000000000E+02    0.4990608581E-02    0.4975776756E-01    0.2866144510E-01    0.1157805694E-02    0.3505297974E-02
    0.3000000000E+02    0.1337527657E-01    0.1209178648E+00    0.7156324060E-01    0.2815134657E-02    0.9395125604E-02
    0.5000000000E+02    0.2027804084E-01    0.1688575216E+00    0.1025794244E+00    0.3933346168E-02    0.1424461895E-01
    0.7000000000E+02    0.2617100085E-01    0.2029244459E+00    0.1263802248E+00    0.4729391167E-02    0.1838516889E-01
    0.9000000000E+02    0.3133791553E-01    0.2280718378E+00    0.1454361985E+00    0.5318219359E-02    0.2201596923E-01
    0.1100000000E+03    0.3596073819E-01    0.2471660474E+00    0.1611837783E+00    0.5766350729E-02    0.2526475310E-01
    0.1300000000E+03    0.4016218334E-01    0.2619782512E+00    0.1745188938E+00    0.6114892118E-02    0.2821767044E-01
    0.1500000000E+03    0.4402843557E-01    0.2736600515E+00    0.1860315664E+00    0.6390574147E-02    0.3093522788E-01
    0.1700000000E+03    0.4762207011E-01    0.2829913384E+00    0.1961275787E+00    0.6611502552E-02    0.3346135822E-01
    0.1900000000E+03    0.5098979984E-01    0.2905181931E+00    0.2050960664E+00    0.6790357876E-02    0.3582885853E-01
    0.2100000000E+03    0.5416732690E-01    0.2966337869E+00    0.2131492144E+00    0.6936272417E-02    0.3806279588E-01
    0.2300000000E+03    0.5718249500E-01    0.3016279647E+00    0.2204466668E+00    0.7055980620E-02    0.4018272025E-01
    0.2500000000E+03    0.6005740304E-01    0.3057187789E+00    0.2271111293E+00    0.7154550693E-02    0.4220414837E-01
    0.2700000000E+03    0.6280986158E-01    0.3090731869E+00    0.2332386758E+00    0.7235864829E-02    0.4413958613E-01
    0.2900000000E+03    0.6545442061E-01    0.3118210128E+00    0.2389057546E+00    0.7302943142E-02    0.4599925020E-01
    0.3100000000E+03    0.6800311037E-01    0.3140645927E+00    0.2441740707E+00    0.7358167478E-02    0.4779158804E-01
    0.3300000000E+03    0.7046598523E-01    0.3158855793E+00    0.2490940637E+00    0.7403439328E-02    0.4952365984E-01
    0.3500000000E+03    0.7285152998E-01    0.3173498341E+00    0.2537074330E+00    0.7440293359E-02    0.5120142369E-01
    0.3700000000E+03    0.7516696766E-01    0.3185110037E+00    0.2580490051E+00    0.7469980417E-02    0.5282995175E-01
    0.3900000000E+03    0.7741849629E-01    0.3194131736E+00    0.2621481351E+00    0.7493529133E-02    0.5441359641E-01
    0.4100000000E+03    0.7961147291E-01    0.3200928648E+00    0.2660297727E+00    0.7511792274E-02    0.5595611959E-01
    0.4300000000E+03    0.8175055849E-01    0.3205805545E+00    0.2697152863E+00    0.7525482057E-02    0.5746079443E-01
    0.4500000000E+03    0.8383983318E-01    0.3209018482E+00    0.2732231039E+00    0.7535197357E-02    0.5893048620E-01
    0.4700000000E+03    0.8588288874E-01    0.3210783911E+00    0.2765692204E+00    0.7541444895E-02    0.6036771722E-01
    0.4900000000E+03    0.8788290345E-01    0.3211285857E+00    0.2797676003E+00    0.7544655886E-02    0.6177471948E-01
    0.1000000000E+03    0.3370861040E-01    0.2382463400E+00    0.1536583908E+00    0.5556872497E-02    0.2368198595E-01
    0.3000000000E+03    0.6674007976E-01    0.3130003104E+00    0.2415863749E+00    0.7331908463E-02    0.4690336485E-01
    0.5000000000E+03    0.8886766592E-01    0.3211113087E+00    0.2813152791E+00    0.7545240094E-02    0.6246751365E-01
    0.7000000000E+03    0.1068498478E+00    0.3169561376E+00    0.3068303333E+00    0.7463885116E-02    0.7512023207E-01
    0.9000000000E+03    0.1224669100E+00    0.3093674991E+00    0.3255961376E+00    0.7295818563E-02    0.8611175987E-01
    0.1100000000E+04    0.1364600960E+00    0.3007998004E+00    0.3404212832E+00    0.7099885201E-02    0.9596265094E-01
    0.1300000000E+04    0.1492158207E+00    0.2921143369E+00    0.3526607425E+00    0.6897353305E-02    0.1049442591E+00
    0.1500000000E+04    0.1609657126E+00    0.2836485727E+00    0.3630714739E+00    0.6696972942E-02    0.1132192283E+00
    0.1700000000E+04    0.1718629330E+00    0.2755375380E+00    0.3721195562E+00    0.6502563213E-02    0.1208950947E+00
    0.1900000000E+04    0.1820165478E+00    0.2678296868E+00    0.3801125616E+00    0.6315774609E-02    0.1280484276E+00
    0.2100000000E+04    0.1915088728E+00    0.2605341110E+00    0.3872642714E+00    0.6137229962E-02    0.1347370131E+00
    0.2300000000E+04    0.2004049806E+00    0.2536415261E+00    0.3937293862E+00    0.5967040855E-02    0.1410065305E+00
    0.2500000000E+04    0.2087582486E+00    0.2471341991E+00    0.3996235156E+00    0.5805058031E-02    0.1468944494E+00
    0.2700000000E+04    0.2166137606E+00    0.2409908505E+00    0.4050353583E+00    0.5650999383E-02    0.1524324181E+00
    0.2900000000E+04    0.2240104788E+00    0.2351891413E+00    0.4100344722E+00    0.5504518068E-02    0.1576477893E+00
    0.3100000000E+04    0.2309826800E+00    0.2297069433E+00    0.4146764239E+00    0.5365239844E-02    0.1625646279E+00
    0.3300000000E+04    0.2375609349E+00    0.2245229775E+00    0.4190063117E+00    0.5232783949E-02    0.1672043990E+00
    0.3500000000E+04    0.2437727954E+00    0.2196171158E+00    0.4230612436E+00    0.5106774853E-02    0.1715864499E+00
    0.3700000000E+04    0.2496432914E+00    0.2149705000E+00    0.4268721214E+00    0.4986848832E-02    0.1757283588E+00
    0.3900000000E+04    0.2551952992E+00    0.2105655628E+00    0.4304649525E+00    0.4872657513E-02    0.1796461936E+00
    0.4100000000E+04    0.2604498228E+00    0.2063859951E+00    0.4338618320E+00    0.4763869631E-02    0.1833547083E+00
    0.4300000000E+04    0.2654262140E+00    0.2024166870E+00    0.4370816896E+00    0.4660171705E-02    0.1868674982E+00
    0.4500000000E+04    0.2701423497E+00    0.1986436549E+00    0.4401408663E+00    0.4561268068E-02    0.1901971239E+00
    0.4700000000E+04    0.2746147776E+00    0.1950539652E+00    0.4430535656E+00    0.4466880495E-02    0.1933552134E+00
    0.4900000000E+04    0.2788588395E+00    0.1916356577E+00    0.4458322098E+00    0.4376747603E-02    0.1963525482E+00
    0.1000000000E+04    0.1296373193E+00    0.3051335081E+00    0.3333968782E+00    0.7199561608E-02    0.9115930159E-01
    0.3000000000E+04    0.2275476557E+00    0.2324094580E+00    0.4123970624E+00    0.5434002384E-02    0.1601421291E+00
    0.5000000000E+04    0.2808997239E+00    0.1899872823E+00    0.4471747276E+00    0.4333199407E-02    0.1977940889E+00
    0.7000000000E+04    0.3126869964E+00    0.1637421966E+00    0.4690621082E+00    0.3633837120E-02    0.2202653123E+00
    0.9000000000E+04    0.3328271715E+00    0.1461354682E+00    0.4847655329E+00    0.3161431548E-02    0.2345292113E+00
    0.1100000000E+05    0.3463045340E+00    0.1335152551E+00    0.4968614001E+00    0.2824108348E-02    0.2440934943E+00
    0.1300000000E+05    0.3557542769E+00    0.1239842849E+00    0.5066085638E+00    0.2571796260E-02    0.2508141084E+00
    0.1500000000E+05    0.3626438259E+00    0.1164858973E+00    0.5147136351E+00    0.2375783925E-02    0.2557252883E+00
    0.1700000000E+05    0.3678328556E+00    0.1103937212E+00    0.5216113740E+00    0.2218744908E-02    0.2594333503E+00
    0.1900000000E+05    0.3718488845E+00    0.1053158053E+00    0.5275874464E+00    0.2089723094E-02    0.2623106050E+00
    0.2100000000E+05    0.3750291689E+00    0.1009952431E+00    0.5328390933E+00    0.1981498658E-02    0.2645952485E+00
    0.2300000000E+05    0.3775972089E+00    0.9725683480E-01    0.5375078917E+00    0.1889139527E-02    0.2664452473E+00
    0.2500000000E+05    0.3797058349E+00    0.9397697409E-01    0.5416986923E+00    0.1809169281E-02    0.2679686993E+00
    0.2700000000E+05    0.3814624586E+00    0.9106586829E-01    0.5454911726E+00    0.1739069758E-02    0.2692416352E+00
    0.2900000000E+05    0.3829444109E+00    0.8845661805E-01    0.5489472030E+00    0.1676972861E-02    0.2703188355E+00
    0.3100000000E+05    0.3842085626E+00    0.8609827153E-01    0.5521157181E+00    0.1621463382E-02    0.2712406194E+00
    0.3300000000E+05    0.3852975337E+00    0.8395126811E-01    0.5550360396E+00    0.1571449167E-02    0.2720372271E+00
    0.3500000000E+05    0.3862438062E+00    0.8198436643E-01    0.5577402041E+00    0.1526073410E-02    0.2727317251E+00
    0.3700000000E+05    0.3870725116E+00    0.8017252189E-01    0.5602546318E+00    0.1484654014E-02    0.2733419753E+00
    0.3900000000E+05    0.3878033600E+00    0.7849538773E-01    0.5626013463E+00    0.1446640792E-02    0.2738819985E+00
    0.4100000000E+05    0.3884520004E+00    0.7693623532E-01    0.5647988840E+00    0.1411584679E-02    0.2743629369E+00
    0.4300000000E+05    0.3890309969E+00    0.7548116259E-01    0.5668629811E+00    0.1379115218E-02    0.2747937440E+00
    0.4500000000E+05    0.3895505401E+00    0.7411850423E-01    0.5688071012E+00    0.1348923820E-02    0.2751816887E+00
    0.4700000000E+05    0.3900189721E+00    0.7283838571E-01    0.5706428452E+00    0.1320751159E-02    0.2755327272E+00
    0.4900000000E+05    0.3904431812E+00    0.7163238163E-01    0.5723802741E+00    0.1294377543E-02    0.2758517821E+00
    0.1000000000E+05    0.3401970402E+00    0.1393474900E+00    0.4911676138E+00    0.2979683873E-02    0.2397568042E+00
    0.3000000000E+05    0.3836007702E+00    0.8724877969E-01    0.5505647482E+00    0.1648469336E-02    0.2707970679E+00
    0.5000000000E+05    0.3906405319E+00    0.7105486932E-01    0.5732149073E+00    0.1281805695E-02    0.2760006245E+00
    0.7000000000E+05    0.3932557356E+00    0.6207248541E-01    0.5863878262E+00    0.1090985923E-02    0.2780077238E+00
    0.9000000000E+05    0.3945741219E+00    0.5606835816E-01    0.5953506274E+00    0.9682060566E-03    0.2790608300E+00
    0.1100000000E+06    0.3953537427E+00    0.5165809096E-01    0.6019888466E+00    0.8803202975E-03    0.2797099213E+00
    0.1300000000E+06    0.3958622393E+00    0.4822659182E-01    0.6071763372E+00    0.8132278653E-03    0.2801516038E+00
    0.1500000000E+06    0.3962165856E+00    0.4545036827E-01    0.6113834883E+00    0.7597460067E-03    0.2804729210E+00
    0.1700000000E+06    0.3964755400E+00    0.4313981761E-01    0.6148899260E+00    0.7157669253E-03    0.2807181801E+00
    0.1900000000E+06    0.3966716705E+00    0.4117503090E-01    0.6178741240E+00    0.6787430494E-03    0.2809122749E+00
    0.2100000000E+06    0.3968244041E+00    0.3947576310E-01    0.6204562697E+00    0.6469965854E-03    0.2810702605E+00
    0.2300000000E+06    0.3969460084E+00    0.3798590766E-01    0.6227207684E+00    0.6193700793E-03    0.2812017778E+00
    0.2500000000E+06    0.3970445905E+00    0.3666483798E-01    0.6247289333E+00    0.5950349767E-03    0.2813132889E+00
    0.2700000000E+06    0.3971257107E+00    0.3548228164E-01    0.6265265592E+00    0.5733800022E-03    0.2814092894E+00
    0.2900000000E+06    0.3971933031E+00    0.3441513612E-01    0.6281486564E+00    0.5539427204E-03    0.2814930060E+00
    0.3100000000E+06    0.3972502243E+00    0.3344541008E-01    0.6296225262E+00    0.5363657939E-03    0.2815668161E+00
    0.3300000000E+06    0.3972985960E+00    0.3255884693E-01    0.6309698249E+00    0.5203680319E-03    0.2816325109E+00
    0.3500000000E+06    0.3973400247E+00    0.3174397778E-01    0.6322079877E+00    0.5057246503E-03    0.2816914671E+00
    0.3700000000E+06    0.3973757479E+00    0.3099145347E-01    0.6333512361E+00    0.4922534621E-03    0.2817447605E+00
    0.3900000000E+06    0.3974067329E+00    0.3029356312E-01    0.6344113050E+00    0.4798049965E-03    0.2817932446E+00
    0.4100000000E+06    0.3974337462E+00    0.2964388052E-01    0.6353979777E+00    0.4682552899E-03    0.2818376057E+00
    0.4300000000E+06    0.3974574023E+00    0.2903699983E-01    0.6363194861E+00    0.4575005314E-03    0.2818784023E+00
    0.4500000000E+06    0.3974781993E+00    0.2846833515E-01    0.6371828152E+00    0.4474530250E-03    0.2819160938E+00
    0.4700000000E+06    0.3974965446E+00    0.2793396636E-01    0.6379939366E+00    0.4380381002E-03    0.2819510616E+00
    0.4900000000E+06    0.3975127745E+00    0.2743051910E-01    0.6387579910E+00    0.4291917186E-03    0.2819836254E+00
    0.1000000000E+06    0.3950091295E+00    0.5371228320E-01    0.5988922429E+00    0.9210193439E-03    0.2794196595E+00
    0.3000000000E+06    0.3972229508E+00    0.3391906148E-01    0.6289026531E+00    0.5449408054E-03    0.2815310260E+00
    0.5000000000E+06    0.3975201856E+00    0.2718946213E-01    0.6391237833E+00    0.4249641566E-03    0.2819990918E+00
    0.7000000000E+06    0.3976056744E+00    0.2345134689E-01    0.6447918876E+00    0.3601012656E-03    0.2822300976E+00
    0.9000000000E+06    0.3976320736E+00    0.2097712269E-01    0.6485385272E+00    0.3179160484E-03    0.2823764036E+00
    0.1100000000E+07    0.3976359813E+00    0.1917931809E-01    0.6512580666E+00    0.2876606762E-03    0.2824812038E+00
    0.1300000000E+07    0.3976299443E+00    0.1779440824E-01    0.6533512979E+00    0.2645946847E-03    0.2825619455E+00
    0.1500000000E+07    0.3976191829E+00    0.1668384058E-01    0.6550287464E+00    0.2462569308E-03    0.2826271986E+00
    0.1700000000E+07    0.3976061465E+00    0.1576673597E-01    0.6564132029E+00    0.2312251614E-03    0.2826817374E+00
    0.1900000000E+07    0.3975920792E+00    0.1499222420E-01    0.6575818430E+00    0.2186123284E-03    0.2827284669E+00
    0.2100000000E+07    0.3975776461E+00    0.1432646343E-01    0.6585859757E+00    0.2078325657E-03    0.2827692743E+00
    0.2300000000E+07    0.3975632142E+00    0.1374593208E-01    0.6594612431E+00    0.1984812427E-03    0.2828054491E+00
    0.2500000000E+07    0.3975489882E+00    0.1323369610E-01    0.6602332928E+00    0.1902686900E-03    0.2828379081E+00
    0.2700000000E+07    0.3975350809E+00    0.1277720646E-01    0.6609211222E+00    0.1829813353E-03    0.2828673251E+00
    0.2900000000E+07    0.3975215517E+00    0.1236693591E-01    0.6615391486E+00    0.1764577835E-03    0.2828942087E+00
    0.3100000000E+07    0.3975084281E+00    0.1199550126E-01    0.6620985407E+00    0.1705734901E-03    0.2829189516E+00
    0.3300000000E+07    0.3974957184E+00    0.1165707879E-01    0.6626081050E+00    0.1652306026E-03    0.2829418630E+00
    0.3500000000E+07    0.3974834197E+00    0.1134700381E-01    0.6630748935E+00    0.1603510275E-03    0.2829631907E+00
    0.3700000000E+07    0.3974715222E+00    0.1106148919E-01    0.6635046296E+00    0.1558715793E-03    0.2829831357E+00
    0.3900000000E+07    0.3974600121E+00    0.1079742341E-01    0.6639020146E+00    0.1517405101E-03    0.2830018638E+00
    0.4100000000E+07    0.3974488736E+00    0.1055222269E-01    0.6642709515E+00    0.1479149781E-03    0.2830195127E+00
    0.4300000000E+07    0.3974380902E+00    0.1032372095E-01    0.6646147115E+00    0.1443591694E-03    0.2830361984E+00
    0.4500000000E+07    0.3974276448E+00    0.1011008655E-01    0.6649360601E+00    0.1410428815E-03    0.2830520193E+00
    0.4700000000E+07    0.3974175209E+00    0.9909758563E-02    0.6652373538E+00    0.1379404418E-03    0.2830670596E+00
    0.4900000000E+07    0.3974077024E+00    0.9721397289E-02    0.6655206145E+00    0.1350298697E-03    0.2830813918E+00
    0.1000000000E+07    0.3976357898E+00    0.2001434565E-01    0.6499952273E+00    0.3016705263E-03    0.2824325932E+00
    0.3000000000E+07    0.3975149383E+00    0.1217675923E-01    0.6618255764E+00    0.1734423773E-03    0.2829068267E+00
    0.5000000000E+07    0.3974029029E+00    0.9631336264E-02    0.6656560377E+00    0.1336405103E-03    0.2830883124E+00
    0.7000000000E+07    0.3973196340E+00    0.8245426826E-02    0.6677390125E+00    0.1124547533E-03    0.2832012532E+00
    0.9000000000E+07    0.3972540856E+00    0.7339142655E-02    0.6691000994E+00    0.9881390335E-04    0.2832832786E+00
    0.1100000000E+08    0.3972001722E+00    0.6686122896E-02    0.6700803085E+00    0.8910079897E-04    0.2833476835E+00
    0.1300000000E+08    0.3971544259E+00    0.6186222958E-02    0.6708303795E+00    0.8173629881E-04    0.2834007012E+00
    0.1500000000E+08    0.3971147130E+00    0.5787318893E-02    0.6714287223E+00    0.7590697544E-04    0.2834457542E+00
    0.1700000000E+08    0.3970796342E+00    0.5459220999E-02    0.6719207299E+00    0.7114571871E-04    0.2834849232E+00
    0.1900000000E+08    0.3970482244E+00    0.5183060674E-02    0.6723347619E+00    0.6716270972E-04    0.2835195678E+00
    0.2100000000E+08    0.3970197907E+00    0.4946351219E-02    0.6726895801E+00    0.6376737401E-04    0.2835506252E+00
    0.2300000000E+08    0.3969938189E+00    0.4740452487E-02    0.6729981630E+00    0.6082858849E-04    0.2835787687E+00
    0.2500000000E+08    0.3969699173E+00    0.4559168064E-02    0.6732698161E+00    0.5825279403E-04    0.2836044982E+00
    0.2700000000E+08    0.3969477807E+00    0.4397921552E-02    0.6735114108E+00    0.5597121120E-04    0.2836281953E+00
