  Pressure (Pa) 22mC5-400 (mol/kg) 2mC6-400 (mol/kg) 3mC6-400 (mol/kg) 33mC5-400 (mol/kg) 23mC5-400 (mol/kg)
    0.1000000000E+01    0.5290345536E-03    0.5562802625E-02    0.1583272421E-02    0.3235148171E-03    0.3715705934E-03
    0.3000000000E+01    0.1565251982E-02    0.1632114828E-01    0.4662178474E-02    0.9491905762E-03    0.1099372516E-02
    0.5000000000E+01    0.2573622538E-02    0.2661521649E-01    0.7630050299E-02    0.1547871537E-02    0.1807626612E-02
    0.7000000000E+01    0.3555594703E-02    0.3647333890E-01    0.1049338193E-01    0.2121205070E-02    0.2497349558E-02
    0.9000000000E+01    0.4512514088E-02    0.4592160692E-01    0.1325816018E-01    0.2670708275E-02    0.3169485837E-02
    0.1100000000E+02    0.5445632542E-02    0.5498408809E-01    0.1592991362E-01    0.3197780562E-02    0.3824914123E-02
    0.1300000000E+02    0.6356116303E-02    0.6368301789E-01    0.1851375590E-01    0.3703714804E-02    0.4464453003E-02
    0.1500000000E+02    0.7245053303E-02    0.7203897015E-01    0.2101442430E-01    0.4189707252E-02    0.5088866109E-02
    0.1700000000E+02    0.8113459736E-02    0.8007100888E-01    0.2343631400E-01    0.4656866362E-02    0.5698866719E-02
    0.1900000000E+02    0.8962285971E-02    0.8779682371E-01    0.2578350869E-01    0.5106220669E-02    0.6295121913E-02
    0.2100000000E+02    0.9792421879E-02    0.9523285110E-01    0.2805980788E-01    0.5538725840E-02    0.6878256311E-02
    0.2300000000E+02    0.1060470166E-01    0.1023943829E+00    0.3026875148E-01    0.5955270985E-02    0.7448855456E-02
    0.2500000000E+02    0.1139990819E-01    0.1092956640E+00    0.3241364172E-01    0.6356684332E-02    0.8007468873E-02
    0.2700000000E+02    0.1217877698E-01    0.1159499799E+00    0.3449756301E-01    0.6743738327E-02    0.8554612846E-02
    0.2900000000E+02    0.1294199980E-01    0.1223697359E+00    0.3652339975E-01    0.7117154235E-02    0.9090772939E-02
    0.3100000000E+02    0.1369022788E-01    0.1285665284E+00    0.3849385246E-01    0.7477606289E-02    0.9616406286E-02
    0.3300000000E+02    0.1442407494E-01    0.1345512098E+00    0.4041145229E-01    0.7825725448E-02    0.1013194368E-01
    0.3500000000E+02    0.1514411989E-01    0.1403339464E+00    0.4227857432E-01    0.8162102799E-02    0.1063779148E-01
    0.3700000000E+02    0.1585090929E-01    0.1459242722E+00    0.4409744941E-01    0.8487292641E-02    0.1113433335E-01
    0.3900000000E+02    0.1654495966E-01    0.1513311367E+00    0.4587017522E-01    0.8801815295E-02    0.1162193186E-01
    0.4100000000E+02    0.1722675951E-01    0.1565629486E+00    0.4759872600E-01    0.9106159652E-02    0.1210092993E-01
    0.4300000000E+02    0.1789677130E-01    0.1616276165E+00    0.4928496170E-01    0.9400785502E-02    0.1257165217E-01
    0.4500000000E+02    0.1855543315E-01    0.1665325847E+00    0.5093063618E-01    0.9686125657E-02    0.1303440614E-01
    0.4700000000E+02    0.1920316047E-01    0.1712848671E+00    0.5253740479E-01    0.9962587892E-02    0.1348948343E-01
    0.4900000000E+02    0.1984034743E-01    0.1758910775E+00    0.5410683121E-01    0.1023055672E-01    0.1393716075E-01
    0.1000000000E+02    0.4981973624E-02    0.5049964030E-01    0.1460533615E-01    0.2936965104E-02    0.3499235972E-02
    0.3000000000E+02    0.1331794898E-01    0.1254953076E+00    0.3751538710E-01    0.7298960336E-02    0.9354877937E-02
    0.5000000000E+02    0.2015510599E-01    0.1781413701E+00    0.5487800627E-01    0.1036147031E-01    0.1415830706E-01
    0.7000000000E+02    0.2597856978E-01    0.2168221344E+00    0.6866060352E-01    0.1261195755E-01    0.1825005884E-01
    0.9000000000E+02    0.3107711749E-01    0.2462209894E+00    0.7998240387E-01    0.1432270045E-01    0.2183285077E-01
    0.1100000000E+03    0.3563458928E-01    0.2691541767E+00    0.8952996404E-01    0.1565742109E-01    0.2503574124E-01
    0.1300000000E+03    0.3977428779E-01    0.2874140099E+00    0.9774948545E-01    0.1672031309E-01    0.2794529364E-01
    0.1500000000E+03    0.4358243528E-01    0.3021937292E+00    0.1049445406E+00    0.1758074307E-01    0.3062204146E-01
    0.1700000000E+03    0.4712141760E-01    0.3143174294E+00    0.1113294874E+00    0.1828661825E-01    0.3310978485E-01
    0.1900000000E+03    0.5043767562E-01    0.3243718706E+00    0.1170604235E+00    0.1887204944E-01    0.3544113013E-01
    0.2100000000E+03    0.5356662210E-01    0.3327857137E+00    0.1222540101E+00    0.1936195729E-01    0.3764094142E-01
    0.2300000000E+03    0.5653582271E-01    0.3398790860E+00    0.1269993891E+00    0.1977495359E-01    0.3972857364E-01
    0.2500000000E+03    0.5936712120E-01    0.3458956562E+00    0.1313659920E+00    0.2012520582E-01    0.4171936449E-01
    0.2700000000E+03    0.6207809929E-01    0.3510240067E+00    0.1354088091E+00    0.2042367948E-01    0.4362565931E-01
    0.2900000000E+03    0.6468310415E-01    0.3554122428E+00    0.1391720390E+00    0.2067898729E-01    0.4545753242E-01
    0.3100000000E+03    0.6719398725E-01    0.3591782045E+00    0.1426916721E+00    0.2089798273E-01    0.4722330586E-01
    0.3300000000E+03    0.6962064580E-01    0.3624167488E+00    0.1459973589E+00    0.2108618333E-01    0.4892992950E-01
    0.3500000000E+03    0.7197142637E-01    0.3652050350E+00    0.1491137834E+00    0.2124807787E-01    0.5058326446E-01
    0.3700000000E+03    0.7425343041E-01    0.3676064229E+00    0.1520616896E+00    0.2138735297E-01    0.5218829754E-01
    0.3900000000E+03    0.7647274866E-01    0.3696733897E+00    0.1548586610E+00    0.2150706259E-01    0.5374930586E-01
    0.4100000000E+03    0.7863464336E-01    0.3714497404E+00    0.1575197183E+00    0.2160975657E-01    0.5526998481E-01
    0.4300000000E+03    0.8074369147E-01    0.3729723045E+00    0.1600577854E+00    0.2169757918E-01    0.5675354855E-01
    0.4500000000E+03    0.8280389845E-01    0.3742722516E+00    0.1624840548E+00    0.2177234562E-01    0.5820280994E-01
    0.4700000000E+03    0.8481878950E-01    0.3753761214E+00    0.1648082786E+00    0.2183560187E-01    0.5962024459E-01
    0.4900000000E+03    0.8679148338E-01    0.3763066394E+00    0.1670390012E+00    0.2188867214E-01    0.6100804272E-01
    0.1000000000E+03    0.3341470450E-01    0.2583660512E+00    0.8494588286E-01    0.1502952125E-01    0.2347561748E-01
    0.3000000000E+03    0.6594965183E-01    0.3573666106E+00    0.1409603215E+00    0.2079265197E-01    0.4634821878E-01
    0.5000000000E+03    0.8776288494E-01    0.3767131128E+00    0.1681216865E+00    0.2191175014E-01    0.6169144507E-01
    0.7000000000E+03    0.1055117212E+00    0.3793000902E+00    0.1862969610E+00    0.2204610637E-01    0.7418010563E-01
    0.9000000000E+03    0.1209426443E+00    0.3763240291E+00    0.2001006361E+00    0.2184918553E-01    0.8504071739E-01
    0.1100000000E+04    0.1347826409E+00    0.3711591168E+00    0.2113064992E+00    0.2151908346E-01    0.9478382938E-01
    0.1300000000E+04    0.1474107536E+00    0.3651077202E+00    0.2207816037E+00    0.2113298529E-01    0.1036756223E+00
    0.1500000000E+04    0.1590541547E+00    0.3587492426E+00    0.2290153083E+00    0.2072571474E-01    0.1118756136E+00
    0.1700000000E+04    0.1698629565E+00    0.3523644278E+00    0.2363116530E+00    0.2031449152E-01    0.1194892004E+00
    0.1900000000E+04    0.1799439292E+00    0.3460957390E+00    0.2428729814E+00    0.1990831537E-01    0.1265913416E+00
    0.2100000000E+04    0.1893775335E+00    0.3400162070E+00    0.2488410856E+00    0.1951201008E-01    0.1332385215E+00
    0.2300000000E+04    0.1982272685E+00    0.3341618897E+00    0.2543193913E+00    0.1912814007E-01    0.1394753153E+00
    0.2500000000E+04    0.2065451348E+00    0.3285483158E+00    0.2593857959E+00    0.1875798807E-01    0.1453382260E+00
    0.2700000000E+04    0.2143749883E+00    0.3231792984E+00    0.2641005247E+00    0.1840208397E-01    0.1508580400E+00
    0.2900000000E+04    0.2217546847E+00    0.3180518763E+00    0.2685111649E+00    0.1806050491E-01    0.1560613328E+00
    0.3100000000E+04    0.2287174982E+00    0.3131591866E+00    0.2726560147E+00    0.1773305248E-01    0.1609714651E+00
    0.3300000000E+04    0.2352930894E+00    0.3084921815E+00    0.2765663851E+00    0.1741936077E-01    0.1656092625E+00
    0.3500000000E+04    0.2415081846E+00    0.3040406773E+00    0.2802682246E+00    0.1711896410E-01    0.1699934923E+00
    0.3700000000E+04    0.2473870654E+00    0.2997940051E+00    0.2837832945E+00    0.1683134043E-01    0.1741412068E+00
    0.3900000000E+04    0.2529519318E+00    0.2957414158E+00    0.2871300365E+00    0.1655593955E-01    0.1780679981E+00
    0.4100000000E+04    0.2582231777E+00    0.2918723330E+00    0.2903242242E+00    0.1629220173E-01    0.1817881917E+00
    0.4300000000E+04    0.2632196068E+00    0.2881765078E+00    0.2933794619E+00    0.1603956993E-01    0.1853149971E+00
    0.4500000000E+04    0.2679586041E+00    0.2846441104E+00    0.2963075699E+00    0.1579749797E-01    0.1886606292E+00
    0.4700000000E+04    0.2724562782E+00    0.2812657804E+00    0.2991188883E+00    0.1556545573E-01    0.1918364068E+00
    0.4900000000E+04    0.2767275790E+00    0.2780326501E+00    0.3018225174E+00    0.1534293252E-01    0.1948528360E+00
    0.1000000000E+04    0.1280328969E+00    0.3739085158E+00    0.2059616877E+00    0.2169448016E-01    0.9003186819E-01
    0.3000000000E+04    0.2252862724E+00    0.3155767190E+00    0.2706147146E+00    0.1789503275E-01    0.1585516893E+00
    0.5000000000E+04    0.2787827198E+00    0.2764678998E+00    0.3031365017E+00    0.1523508676E-01    0.1963043736E+00
    0.7000000000E+04    0.3108947226E+00    0.2510204368E+00    0.3253096894E+00    0.1347136468E-01    0.2190035876E+00
    0.9000000000E+04    0.3313473489E+00    0.2332823007E+00    0.3421697958E+00    0.1223998619E-01    0.2334871026E+00
    0.1100000000E+05    0.3450824633E+00    0.2201274446E+00    0.3557626829E+00    0.1133416596E-01    0.2432326611E+00
    0.1300000000E+05    0.3547360900E+00    0.2098749654E+00    0.3671344325E+00    0.1063748099E-01    0.2500967234E+00
    0.1500000000E+05    0.3617857719E+00    0.2015691182E+00    0.3768952524E+00    0.1008180698E-01    0.2551206043E+00
    0.1700000000E+05    0.3671012912E+00    0.1946346155E+00    0.3854333460E+00    0.9625397563E-02    0.2589177119E+00
    0.1900000000E+05    0.3712182826E+00    0.1887067788E+00    0.3930114384E+00    0.9241508605E-02    0.2618660573E+00
    0.2100000000E+05    0.3744801177E+00    0.1835437106E+00    0.3998157972E+00    0.8912305694E-02    0.2642081340E+00
    0.2300000000E+05    0.3771148191E+00    0.1789785366E+00    0.4059833662E+00    0.8625467390E-02    0.2661050880E+00
    0.2500000000E+05    0.3792785589E+00    0.1748921762E+00    0.4116178087E+00    0.8372213123E-02    0.2676673674E+00
    0.2700000000E+05    0.3810812348E+00    0.1711971355E+00    0.4167995009E+00    0.8146113750E-02    0.2689727513E+00
    0.2900000000E+05    0.3826020450E+00    0.1678274819E+00    0.4215920279E+00    0.7942348733E-02    0.2700773343E+00
    0.3100000000E+05    0.3838992788E+00    0.1647324249E+00    0.4260465583E+00    0.7757227425E-02    0.2710224334E+00
    0.3300000000E+05    0.3850166460E+00    0.1618720793E+00    0.4302048784E+00    0.7587871694E-02    0.2718390563E+00
    0.3500000000E+05    0.3859874754E+00    0.1592145901E+00    0.4341015523E+00    0.7432000079E-02    0.2725508652E+00
    0.3700000000E+05    0.3868375638E+00    0.1567341339E+00    0.4377654933E+00    0.7287777612E-02    0.2731761905E+00
    0.3900000000E+05    0.3875871486E+00    0.1544094986E+00    0.4412211296E+00    0.7153709116E-02    0.2737294244E+00
    0.4100000000E+05    0.3882523018E+00    0.1522230536E+00    0.4444892843E+00    0.7028561982E-02    0.2742220066E+00
    0.4300000000E+05    0.3888459291E+00    0.1501599905E+00    0.4475878493E+00    0.6911309312E-02    0.2746631313E+00
    0.4500000000E+05    0.3893784992E+00    0.1482077525E+00    0.4505323093E+00    0.6801087401E-02    0.2750602635E+00
    0.4700000000E+05    0.3898585832E+00    0.1463556016E+00    0.4533361531E+00    0.6697163501E-02    0.2754195204E+00
    0.4900000000E+05    0.3902932585E+00    0.1445942833E+00    0.4560112016E+00    0.6598911043E-02    0.2757459579E+00
    0.1000000000E+05    0.3388533030E+00    0.2262599187E+00    0.3492951508E+00    0.1175515426E-01    0.2388103931E+00
    0.3000000000E+05    0.3832755926E+00    0.1662483383E+00    0.4238587399E+00    0.7847653623E-02    0.2705676802E+00
    0.5000000000E+05    0.3904954480E+00    0.1437451347E+00    0.4573037311E+00    0.6551740009E-02    0.2758982137E+00
    0.7000000000E+05    0.3931723701E+00    0.1300374300E+00    0.4783754515E+00    0.5807091175E-02    0.2779488649E+00
    0.9000000000E+05    0.3945194321E+00    0.1203144026E+00    0.4934838792E+00    0.5296534338E-02    0.2790222193E+00
    0.1100000000E+06    0.3953148330E+00    0.1128633025E+00    0.5051112701E+00    0.4914142901E-02    0.2796824596E+00
    0.1300000000E+06    0.3958330018E+00    0.1068746684E+00    0.5144731977E+00    0.4611971744E-02    0.2801309795E+00
    0.1500000000E+06    0.3961937366E+00    0.1019020344E+00    0.5222522917E+00    0.4364382191E-02    0.2804568152E+00
    0.1700000000E+06    0.3964571490E+00    0.9767352364E-01    0.5288684671E+00    0.4156122468E-02    0.2807052292E+00
    0.1900000000E+06    0.3966565240E+00    0.9401166278E-01    0.5345975043E+00    0.3977418586E-02    0.2809016213E+00
    0.2100000000E+06    0.3968116987E+00    0.9079445097E-01    0.5396297089E+00    0.3821651804E-02    0.2810613365E+00
    0.2300000000E+06    0.3969351900E+00    0.8793458532E-01    0.5441015983E+00    0.3684144933E-02    0.2811941917E+00
    0.2500000000E+06    0.3970352635E+00    0.8536755231E-01    0.5481142170E+00    0.3561478584E-02    0.2813067609E+00
    0.2700000000E+06    0.3971175850E+00    0.8304440637E-01    0.5517443072E+00    0.3451082566E-02    0.2814036142E+00
    0.2900000000E+06    0.3971861605E+00    0.8092718673E-01    0.5550514287E+00    0.3350979790E-02    0.2814880293E+00
    0.3100000000E+06    0.3972438974E+00    0.7898589687E-01    0.5580826658E+00    0.3259619343E-02    0.2815624193E+00
    0.3300000000E+06    0.3972929542E+00    0.7719644973E-01    0.5608758360E+00    0.3175764010E-02    0.2816286017E+00
    0.3500000000E+06    0.3973349644E+00    0.7553923139E-01    0.5634617377E+00    0.3098412328E-02    0.2816879721E+00
    0.3700000000E+06    0.3973711858E+00    0.7399807334E-01    0.5658657594E+00    0.3026743246E-02    0.2817416206E+00
    0.3900000000E+06    0.3974026013E+00    0.7255950174E-01    0.5681090578E+00    0.2960075974E-02    0.2817904118E+00
    0.4100000000E+06    0.3974299893E+00    0.7121217912E-01    0.5702094330E+00    0.2897840320E-02    0.2818350406E+00
    0.4300000000E+06    0.3974539739E+00    0.6994648240E-01    0.5721819918E+00    0.2839554400E-02    0.2818760721E+00
    0.4500000000E+06    0.3974750606E+00    0.6875417940E-01    0.5740396554E+00    0.2784807636E-02    0.2819139710E+00
    0.4700000000E+06    0.3974936628E+00    0.6762817748E-01    0.5757935543E+00    0.2733247620E-02    0.2819491229E+00
    0.4900000000E+06    0.3975101218E+00    0.6656232606E-01    0.5774533389E+00    0.2684569837E-02    0.2819818509E+00
    0.1000000000E+06    0.3949633731E+00    0.1163674902E+00    0.4996392585E+00    0.5093063999E-02    0.2793873597E+00
    0.3000000000E+06    0.3972162344E+00    0.7993617529E-01    0.5565989821E+00    0.3304290407E-02    0.2815263523E+00
    0.5000000000E+06    0.3975176382E+00    0.6605025306E-01    0.5782506111E+00    0.2661227682E-02    0.2819973930E+00
    0.7000000000E+06    0.3976044422E+00    0.5796303726E-01    0.5908288799E+00    0.2296459451E-02    0.2822293490E+00
    0.9000000000E+06    0.3976314376E+00    0.5245417534E-01    0.5993822630E+00    0.2052279303E-02    0.2823760930E+00
    0.1100000000E+07    0.3976356720E+00    0.4837033204E-01    0.6057150806E+00    0.1873612491E-02    0.2824811381E+00
    0.1300000000E+07    0.3976298364E+00    0.4517658477E-01    0.6106627670E+00    0.1735340920E-02    0.2825620345E+00
    0.1500000000E+07    0.3976192098E+00    0.4258477310E-01    0.6146747579E+00    0.1624104507E-02    0.2826273940E+00
    0.1700000000E+07    0.3976062692E+00    0.4042348154E-01    0.6180181096E+00    0.1532036908E-02    0.2826820105E+00
    0.1900000000E+07    0.3975922730E+00    0.3858323594E-01    0.6208632194E+00    0.1454157307E-02    0.2827287997E+00
    0.2100000000E+07    0.3975778948E+00    0.3699027425E-01    0.6233248084E+00    0.1387134483E-02    0.2827696546E+00
    0.2300000000E+07    0.3975635065E+00    0.3559276931E-01    0.6254834272E+00    0.1328643017E-02    0.2828058682E+00
    0.2500000000E+07    0.3975493159E+00    0.3435305632E-01    0.6273975802E+00    0.1277002728E-02    0.2828383599E+00
    0.2700000000E+07    0.3975354381E+00    0.3324299215E-01    0.6291109584E+00    0.1230964745E-02    0.2828678049E+00
    0.2900000000E+07    0.3975219337E+00    0.3224105323E-01    0.6306569604E+00    0.1189578499E-02    0.2828947129E+00
    0.3100000000E+07    0.3975088313E+00    0.3133044961E-01    0.6320616282E+00    0.1152105720E-02    0.2829194774E+00
    0.3300000000E+07    0.3974961402E+00    0.3049785883E-01    0.6333456173E+00    0.1117962981E-02    0.2829424083E+00
    0.3500000000E+07    0.3974838578E+00    0.2973255188E-01    0.6345255565E+00    0.1086682194E-02    0.2829637535E+00
    0.3700000000E+07    0.3974719747E+00    0.2902577505E-01    0.6356150082E+00    0.1057882798E-02    0.2829837145E+00
    0.3900000000E+07    0.3974604776E+00    0.2837030339E-01    0.6366251633E+00    0.1031251726E-02    0.2830024574E+00
    0.4100000000E+07    0.3974493508E+00    0.2776011205E-01    0.6375653506E+00    0.1006528729E-02    0.2830201199E+00
    0.4300000000E+07    0.3974385780E+00    0.2719013034E-01    0.6384434198E+00    0.9834954163E-03    0.2830368184E+00
    0.4500000000E+07    0.3974281424E+00    0.2665605492E-01    0.6392660309E+00    0.9619669621E-03    0.2830526513E+00
    0.4700000000E+07    0.3974180274E+00    0.2615420595E-01    0.6400388775E+00    0.9417857388E-03    0.2830677028E+00
    0.4900000000E+07    0.3974082173E+00    0.2568141498E-01    0.6407668611E+00    0.9228163677E-03    0.2830820456E+00
    0.1000000000E+07    0.3976353386E+00    0.5027578392E-01    0.6027611554E+00    0.1956720480E-02    0.2824324205E+00
    0.3000000000E+07    0.3975153313E+00    0.3177523667E-01    0.6313755622E+00    0.1170392488E-02    0.2829073421E+00
    0.5000000000E+07    0.3974034216E+00    0.2545504382E-01    0.6411153786E+00    0.9137489302E-03    0.2830889713E+00
    0.7000000000E+07    0.3973202107E+00    0.2194550581E-01    0.6465152848E+00    0.7744737371E-03    0.2832019944E+00
    0.9000000000E+07    0.3972546995E+00    0.1962376046E-01    0.6500840591E+00    0.6837731654E-03    0.2832840802E+00
    0.1100000000E+08    0.3972008139E+00    0.1793750451E-01    0.6526741555E+00    0.6186847723E-03    0.2833485339E+00
    0.1300000000E+08    0.3971550899E+00    0.1663901005E-01    0.6546675348E+00    0.5690490059E-03    0.2834015932E+00
    0.1500000000E+08    0.3971153957E+00    0.1559806533E-01    0.6562648114E+00    0.5295824986E-03    0.2834466828E+00
    0.1700000000E+08    0.3970803333E+00    0.1473868321E-01    0.6575829859E+00    0.4972290707E-03    0.2834858846E+00
    0.1900000000E+08    0.3970489380E+00    0.1401308446E-01    0.6586955896E+00    0.4700814087E-03    0.2835205592E+00
    0.2100000000E+08    0.3970205173E+00    0.1338949223E-01    0.6596515058E+00    0.4468792689E-03    0.2835516442E+00
    0.2300000000E+08    0.3969945575E+00    0.1284582574E-01    0.6604846896E+00    0.4267520091E-03    0.2835798133E+00
    0.2500000000E+08    0.3969706669E+00    0.1236619186E-01    0.6612195732E+00    0.4090762229E-03    0.2836055668E+00
    0.2700000000E+08    0.3969485405E+00    0.1193881535E-01    0.6618742533E+00    0.3933922098E-03    0.2836292864E+00
