  Pressure (Pa) 22mC5-400 (mol/kg) 2mC6-400 (mol/kg) 3mC6-400 (mol/kg) 33mC5-400 (mol/kg) 23mC5-400 (mol/kg)
    0.1000000000E+01    0.5291401571E-03    0.5556751510E-02    0.2634905470E-02    0.2585348182E-03    0.2787335303E-03
    0.3000000000E+01    0.1566169776E-02    0.1626909884E-01    0.7736803322E-02    0.7569703712E-03    0.8250124760E-03
    0.5000000000E+01    0.2576086133E-02    0.2647689118E-01    0.1262746610E-01    0.1231968931E-02    0.1357016693E-02
    0.7000000000E+01    0.3560263893E-02    0.3621369642E-01    0.1732087709E-01    0.1685089828E-02    0.1875469838E-02
    0.9000000000E+01    0.4519982459E-02    0.4551017880E-01    0.2182978944E-01    0.2117757478E-02    0.2381045423E-02
    0.1100000000E+02    0.5456434207E-02    0.5439440681E-01    0.2616585938E-01    0.2531275689E-02    0.2874371148E-02
    0.1300000000E+02    0.6370731872E-02    0.6289212254E-01    0.3033976249E-01    0.2926840180E-02    0.3356032794E-02
    0.1500000000E+02    0.7263915201E-02    0.7102697812E-01    0.3436129539E-01    0.3305549573E-02    0.3826577718E-02
    0.1700000000E+02    0.8136956929E-02    0.7882074380E-01    0.3823946504E-01    0.3668415056E-02    0.4286518007E-02
    0.1900000000E+02    0.8990768185E-02    0.8629349163E-01    0.4198256733E-01    0.4016368926E-02    0.4736333316E-02
    0.2100000000E+02    0.9826203375E-02    0.9346375793E-01    0.4559825636E-01    0.4350272130E-02    0.5176473440E-02
    0.2300000000E+02    0.1064406460E-01    0.1003486875E+00    0.4909360590E-01    0.4670920976E-02    0.5607360643E-02
    0.2500000000E+02    0.1144510568E-01    0.1069641617E+00    0.5247516372E-01    0.4979053078E-02    0.6029391768E-02
    0.2700000000E+02    0.1223003576E-01    0.1133249128E+00    0.5574900003E-01    0.5275352670E-02    0.6442940156E-02
    0.2900000000E+02    0.1299952270E-01    0.1194446261E+00    0.5892075059E-01    0.5560455350E-02    0.6848357391E-02
    0.3100000000E+02    0.1375419600E-01    0.1253360311E+00    0.6199565526E-01    0.5834952318E-02    0.7245974892E-02
    0.3300000000E+02    0.1449464967E-01    0.1310109835E+00    0.6497859241E-01    0.6099394187E-02    0.7636105366E-02
    0.3500000000E+02    0.1522144464E-01    0.1364805388E+00    0.6787410989E-01    0.6354294402E-02    0.8019044131E-02
    0.3700000000E+02    0.1593511115E-01    0.1417550187E+00    0.7068645280E-01    0.6600132324E-02    0.8395070336E-02
    0.3900000000E+02    0.1663615083E-01    0.1468440709E+00    0.7341958852E-01    0.6837356003E-02    0.8764448075E-02
    0.4100000000E+02    0.1732503865E-01    0.1517567232E+00    0.7607722924E-01    0.7066384696E-02    0.9127427402E-02
    0.4300000000E+02    0.1800222471E-01    0.1565014322E+00    0.7866285239E-01    0.7287611134E-02    0.9484245277E-02
    0.4500000000E+02    0.1866813584E-01    0.1610861277E+00    0.8117971908E-01    0.7501403587E-02    0.9835126428E-02
    0.4700000000E+02    0.1932317720E-01    0.1655182535E+00    0.8363089083E-01    0.7708107732E-02    0.1018028415E-01
    0.4900000000E+02    0.1996773356E-01    0.1698048032E+00    0.8601924479E-01    0.7908048361E-02    0.1051992102E-01
    0.1000000000E+02    0.4991045354E-02    0.5000216411E-01    0.2401874076E-01    0.2326833133E-02    0.2629201967E-02
    0.3000000000E+02    0.1337867313E-01    0.1224181066E+00    0.6046999567E-01    0.5698994225E-02    0.7048121142E-02
    0.5000000000E+02    0.2028619487E-01    0.1718955579E+00    0.8719071721E-01    0.8005578525E-02    0.1068772968E-01
    0.7000000000E+02    0.2618490785E-01    0.2074739853E+00    0.1079013439E+00    0.9666393669E-02    0.1379615035E-01
    0.9000000000E+02    0.3135809768E-01    0.2340217636E+00    0.1246103730E+00    0.1090752079E-01    0.1652253044E-01
    0.1100000000E+03    0.3598745036E-01    0.2543895326E+00    0.1385030180E+00    0.1186133885E-01    0.1896252976E-01
    0.1300000000E+03    0.4019553621E-01    0.2703548087E+00    0.1503269200E+00    0.1261039573E-01    0.2118068535E-01
    0.1500000000E+03    0.4406846879E-01    0.2830818031E+00    0.1605788480E+00    0.1320876149E-01    0.2322234009E-01
    0.1700000000E+03    0.4766879570E-01    0.2933637862E+00    0.1696029188E+00    0.1369328247E-01    0.2512042931E-01
    0.1900000000E+03    0.5104322791E-01    0.3017591474E+00    0.1776457879E+00    0.1408989885E-01    0.2689954997E-01
    0.2100000000E+03    0.5422748072E-01    0.3086717973E+00    0.1848893680E+00    0.1441737782E-01    0.2857850947E-01
    0.2300000000E+03    0.5724941960E-01    0.3144007516E+00    0.1914711068E+00    0.1468961564E-01    0.3017198189E-01
    0.2500000000E+03    0.6013116980E-01    0.3191718294E+00    0.1974970334E+00    0.1491710947E-01    0.3169161874E-01
    0.2700000000E+03    0.6289057037E-01    0.3231585553E+00    0.2030504274E+00    0.1510792777E-01    0.3314681456E-01
    0.2900000000E+03    0.6554220045E-01    0.3264963157E+00    0.2081977401E+00    0.1526836759E-01    0.3454524725E-01
    0.3100000000E+03    0.6809811910E-01    0.3292921737E+00    0.2129927386E+00    0.1540341033E-01    0.3589326767E-01
    0.3300000000E+03    0.7056840867E-01    0.3316318173E+00    0.2174794695E+00    0.1551704433E-01    0.3719618576E-01
    0.3500000000E+03    0.7296158076E-01    0.3335845690E+00    0.2216944187E+00    0.1561249753E-01    0.3845848426E-01
    0.3700000000E+03    0.7528488389E-01    0.3352070586E+00    0.2256681120E+00    0.1569240800E-01    0.3968398076E-01
    0.3900000000E+03    0.7754454012E-01    0.3365459555E+00    0.2294263201E+00    0.1575895085E-01    0.4087595229E-01
    0.4100000000E+03    0.7974592913E-01    0.3376400296E+00    0.2329909792E+00    0.1581393394E-01    0.4203723222E-01
    0.4300000000E+03    0.8189373313E-01    0.3385217248E+00    0.2363809010E+00    0.1585887097E-01    0.4317028666E-01
    0.4500000000E+03    0.8399205215E-01    0.3392183737E+00    0.2396123292E+00    0.1589503795E-01    0.4427727505E-01
    0.4700000000E+03    0.8604449652E-01    0.3397531452E+00    0.2426993786E+00    0.1592351714E-01    0.4536009898E-01
    0.4900000000E+03    0.8805426190E-01    0.3401457910E+00    0.2456543856E+00    0.1594523183E-01    0.4642044160E-01
    0.1000000000E+03    0.3373203689E-01    0.2448487576E+00    0.1318545461E+00    0.1141433461E-01    0.1777373810E-01
    0.3000000000E+03    0.6683145254E-01    0.3279561925E+00    0.2106363264E+00    0.1533879413E-01    0.3522520552E-01
    0.5000000000E+03    0.8904404051E-01    0.3402942033E+00    0.2470858126E+00    0.1595380442E-01    0.4694265675E-01
    0.7000000000E+03    0.1071489206E+00    0.3388557858E+00    0.2708350101E+00    0.1591323496E-01    0.5649636214E-01
    0.9000000000E+03    0.1229375408E+00    0.3332205997E+00    0.2884998186E+00    0.1566637137E-01    0.6482990923E-01
    0.1100000000E+04    0.1371561654E+00    0.3261423800E+00    0.3025874358E+00    0.1534393994E-01    0.7233637826E-01
    0.1300000000E+04    0.1501926458E+00    0.3186304029E+00    0.3143135017E+00    0.1499477327E-01    0.7922005660E-01
    0.1500000000E+04    0.1622777805E+00    0.3111061429E+00    0.3243600040E+00    0.1463987152E-01    0.8560250183E-01
    0.1700000000E+04    0.1735624016E+00    0.3037573212E+00    0.3331484767E+00    0.1428903145E-01    0.9156314771E-01
    0.1900000000E+04    0.1841522472E+00    0.2966680467E+00    0.3409581081E+00    0.1394699901E-01    0.9715767493E-01
    0.2100000000E+04    0.1941256614E+00    0.2898730236E+00    0.3479836272E+00    0.1361605395E-01    0.1024273351E+00
    0.2300000000E+04    0.2035433629E+00    0.2833822611E+00    0.3543664219E+00    0.1329720110E-01    0.1074040968E+00
    0.2500000000E+04    0.2124541911E+00    0.2771931177E+00    0.3602124973E+00    0.1299075955E-01    0.1121136729E+00
    0.2700000000E+04    0.2208986570E+00    0.2712964755E+00    0.3656034399E+00    0.1269667039E-01    0.1165773909E+00
    0.2900000000E+04    0.2289112288E+00    0.2656800243E+00    0.3706034267E+00    0.1241466465E-01    0.1208133968E+00
    0.3100000000E+04    0.2365218503E+00    0.2603300550E+00    0.3752638778E+00    0.1214435811E-01    0.1248374553E+00
    0.3300000000E+04    0.2437569794E+00    0.2552324522E+00    0.3796266471E+00    0.1188530630E-01    0.1286634962E+00
    0.3500000000E+04    0.2506403152E+00    0.2503732455E+00    0.3837262691E+00    0.1163703710E-01    0.1323039976E+00
    0.3700000000E+04    0.2571933188E+00    0.2457389098E+00    0.3875915812E+00    0.1139907025E-01    0.1357702602E+00
    0.3900000000E+04    0.2634355938E+00    0.2413165217E+00    0.3912469174E+00    0.1117092914E-01    0.1390726074E+00
    0.4100000000E+04    0.2693851708E+00    0.2370938325E+00    0.3947130045E+00    0.1095214797E-01    0.1422205352E+00
    0.4300000000E+04    0.2750587225E+00    0.2330592915E+00    0.3980076441E+00    0.1074227587E-01    0.1452228251E+00
    0.4500000000E+04    0.2804717318E+00    0.2292020415E+00    0.4011462409E+00    0.1054087932E-01    0.1480876330E+00
    0.4700000000E+04    0.2856386242E+00    0.2255118974E+00    0.4041422163E+00    0.1034754331E-01    0.1508225585E+00
    0.4900000000E+04    0.2905728748E+00    0.2219793170E+00    0.4070073355E+00    0.1016187189E-01    0.1534347012E+00
    0.1000000000E+04    0.1302137797E+00    0.3297779957E+00    0.2958972168E+00    0.1551056842E-01    0.6867108347E-01
    0.3000000000E+04    0.2327650577E+00    0.2629726101E+00    0.3729732841E+00    0.1227807581E-01    0.1228510110E+00
    0.5000000000E+04    0.2929567325E+00    0.2202692986E+00    0.4083941136E+00    0.1007179185E-01    0.1546968225E+00
    0.7000000000E+04    0.3310939268E+00    0.1924602424E+00    0.4312375041E+00    0.8590788175E-02    0.1749022984E+00
    0.9000000000E+04    0.3563469886E+00    0.1731968048E+00    0.4479104653E+00    0.7552778629E-02    0.1883015036E+00
    0.1100000000E+05    0.3737697578E+00    0.1591157966E+00    0.4609230963E+00    0.6793384053E-02    0.1975607879E+00
    0.1300000000E+05    0.3862465536E+00    0.1483534509E+00    0.4715206854E+00    0.6216234426E-02    0.2042029668E+00
    0.1500000000E+05    0.3954780653E+00    0.1398230110E+00    0.4804110309E+00    0.5763074046E-02    0.2091265143E+00
    0.1700000000E+05    0.4025035885E+00    0.1328591531E+00    0.4880342678E+00    0.5397382522E-02    0.2128808210E+00
    0.1900000000E+05    0.4079812313E+00    0.1270360351E+00    0.4946822656E+00    0.5095418662E-02    0.2158139803E+00
    0.2100000000E+05    0.4123418506E+00    0.1220700759E+00    0.5005581870E+00    0.4841216323E-02    0.2181540192E+00
    0.2300000000E+05    0.4158762182E+00    0.1177657201E+00    0.5058089168E+00    0.4623702709E-02    0.2200549175E+00
    0.2500000000E+05    0.4187859946E+00    0.1139839181E+00    0.5105439466E+00    0.4434984233E-02    0.2216235299E+00
    0.2700000000E+05    0.4212144913E+00    0.1106231058E+00    0.5148469740E+00    0.4269293992E-02    0.2229358402E+00
    0.2900000000E+05    0.4232657973E+00    0.1076073262E+00    0.5187833435E+00    0.4122325838E-02    0.2240470709E+00
    0.3100000000E+05    0.4250170020E+00    0.1048785779E+00    0.5224049953E+00    0.3990801239E-02    0.2249981467E+00
    0.3300000000E+05    0.4265262048E+00    0.1023917474E+00    0.5257538590E+00    0.3872180319E-02    0.2258199313E+00
    0.3500000000E+05    0.4278378882E+00    0.1001111666E+00    0.5288642427E+00    0.3764464586E-02    0.2265360704E+00
    0.3700000000E+05    0.4289865956E+00    0.9800822076E-01    0.5317645525E+00    0.3666059386E-02    0.2271649392E+00
    0.3900000000E+05    0.4299995001E+00    0.9605965210E-01    0.5344785570E+00    0.3575676142E-02    0.2277210025E+00
    0.4100000000E+05    0.4308982289E+00    0.9424633361E-01    0.5370263312E+00    0.3492261651E-02    0.2282157807E+00
    0.4300000000E+05    0.4317001795E+00    0.9255236801E-01    0.5394249741E+00    0.3414946112E-02    0.2286585483E+00
    0.4500000000E+05    0.4324194850E+00    0.9096441515E-01    0.5416891613E+00    0.3343004375E-02    0.2290568449E+00
    0.4700000000E+05    0.4330677301E+00    0.8947118275E-01    0.5438315756E+00    0.3275826636E-02    0.2294168555E+00
    0.4900000000E+05    0.4336544895E+00    0.8806303582E-01    0.5458632469E+00    0.3212896019E-02    0.2297436957E+00
    0.1000000000E+05    0.3658206051E+00    0.1656491780E+00    0.4547789370E+00    0.7145436117E-02    0.1933343254E+00
    0.3000000000E+05    0.4241749091E+00    0.1062101482E+00    0.5206306858E+00    0.4054806483E-02    0.2245405020E+00
    0.5000000000E+05    0.4339273574E+00    0.8738823565E-01    0.5468406167E+00    0.3182882913E-02    0.2298960377E+00
    0.7000000000E+05    0.4375347358E+00    0.7684609637E-01    0.5623871846E+00    0.2725921382E-02    0.2319393435E+00
    0.9000000000E+05    0.4393452760E+00    0.6974161946E-01    0.5730975063E+00    0.2430133469E-02    0.2329997222E+00
    0.1100000000E+06    0.4404131421E+00    0.6448810855E-01    0.5811008503E+00    0.2217309168E-02    0.2336473347E+00
    0.1300000000E+06    0.4411089968E+00    0.6037789514E-01    0.5873978071E+00    0.2054111809E-02    0.2340847154E+00
    0.1500000000E+06    0.4415941212E+00    0.5703714400E-01    0.5925326075E+00    0.1923518584E-02    0.2344009371E+00
    0.1700000000E+06    0.4419492054E+00    0.5424577317E-01    0.5968314448E+00    0.1815767939E-02    0.2346410599E+00
    0.1900000000E+06    0.4422188204E+00    0.5186401344E-01    0.6005039262E+00    0.1724789322E-02    0.2348302590E+00
    0.2100000000E+06    0.4424294769E+00    0.4979796516E-01    0.6036920118E+00    0.1646574006E-02    0.2349836835E+00
    0.2300000000E+06    0.4425978764E+00    0.4798174002E-01    0.6064958874E+00    0.1578349374E-02    0.2351109910E+00
    0.2500000000E+06    0.4427350349E+00    0.4636747207E-01    0.6089886418E+00    0.1518125821E-02    0.2352186283E+00
    0.2700000000E+06    0.4428484966E+00    0.4491938728E-01    0.6112250717E+00    0.1464432112E-02    0.2353110645E+00
    0.2900000000E+06    0.4429435927E+00    0.4361010897E-01    0.6132472119E+00    0.1416152834E-02    0.2353914962E+00
    0.3100000000E+06    0.4430241911E+00    0.4241826282E-01    0.6150879411E+00    0.1372424320E-02    0.2354622718E+00
    0.3300000000E+06    0.4430931625E+00    0.4132687146E-01    0.6167734122E+00    0.1332565646E-02    0.2355251560E+00
    0.3500000000E+06    0.4431526803E+00    0.4032224727E-01    0.6183247338E+00    0.1296031503E-02    0.2355815012E+00
    0.3700000000E+06    0.4432044176E+00    0.3939320961E-01    0.6197591639E+00    0.1262379167E-02    0.2356323622E+00
    0.3900000000E+06    0.4432496830E+00    0.3853051951E-01    0.6210909733E+00    0.1231244839E-02    0.2356785739E+00
    0.4100000000E+06    0.4432895132E+00    0.3772646343E-01    0.6223320832E+00    0.1202326344E-02    0.2357208064E+00
    0.4300000000E+06    0.4433247397E+00    0.3697454175E-01    0.6234925431E+00    0.1175370272E-02    0.2357596039E+00
    0.4500000000E+06    0.4433560366E+00    0.3626923200E-01    0.6245808947E+00    0.1150162259E-02    0.2357954132E+00
    0.4700000000E+06    0.4433839559E+00    0.3560580638E-01    0.6256044526E+00    0.1126519547E-02    0.2358286049E+00
    0.4900000000E+06    0.4434089536E+00    0.3498018961E-01    0.6265695231E+00    0.1104285210E-02    0.2358594890E+00
    0.1000000000E+06    0.4399413342E+00    0.6693898585E-01    0.5773598630E+00    0.2315992207E-02    0.2333583887E+00
    0.3000000000E+06    0.4429855054E+00    0.4300065612E-01    0.6141884833E+00    0.1393765936E-02    0.2354279694E+00
    0.5000000000E+06    0.4434204781E+00    0.3468043633E-01    0.6270318639E+00    0.1093653069E-02    0.2358741490E+00
    0.7000000000E+06    0.4435632692E+00    0.3001538097E-01    0.6342219182E+00    0.9299737582E-03    0.2360924781E+00
    0.9000000000E+06    0.4436216583E+00    0.2691012863E-01    0.6390014099E+00    0.8229478447E-03    0.2362301931E+00
    0.1100000000E+07    0.4436462958E+00    0.2464494635E-01    0.6424841073E+00    0.7459003042E-03    0.2363286118E+00
    0.1300000000E+07    0.4436549630E+00    0.2289486644E-01    0.6451724703E+00    0.6869952849E-03    0.2364043275E+00
    0.1500000000E+07    0.4436552835E+00    0.2148821836E-01    0.6473316982E+00    0.6400608045E-03    0.2364654595E+00
    0.1700000000E+07    0.4436509693E+00    0.2032442084E-01    0.6491170438E+00    0.6015179157E-03    0.2365165192E+00
    0.1900000000E+07    0.4436439939E+00    0.1934002321E-01    0.6506263750E+00    0.5691282278E-03    0.2365602463E+00
    0.2100000000E+07    0.4436354746E+00    0.1849270978E-01    0.6519249184E+00    0.5414099157E-03    0.2365984176E+00
    0.2300000000E+07    0.4436260742E+00    0.1775300733E-01    0.6530580782E+00    0.5173375199E-03    0.2366322459E+00
    0.2500000000E+07    0.4436161997E+00    0.1709965839E-01    0.6540585848E+00    0.4961756656E-03    0.2366625928E+00
    0.2700000000E+07    0.4436061073E+00    0.1651688490E-01    0.6549507208E+00    0.4773813453E-03    0.2366900909E+00
    0.2900000000E+07    0.4435959609E+00    0.1599269119E-01    0.6557529393E+00    0.4605436616E-03    0.2367152172E+00
    0.3100000000E+07    0.4435858663E+00    0.1551776936E-01    0.6564795535E+00    0.4453451555E-03    0.2367383401E+00
    0.3300000000E+07    0.4435758918E+00    0.1508476920E-01    0.6571418618E+00    0.4315361332E-03    0.2367597494E+00
    0.3500000000E+07    0.4435660809E+00    0.1468779714E-01    0.6577489208E+00    0.4189171251E-03    0.2367796773E+00
    0.3700000000E+07    0.4435564607E+00    0.1432206388E-01    0.6583080876E+00    0.4073265942E-03    0.2367983121E+00
    0.3900000000E+07    0.4435470470E+00    0.1398363107E-01    0.6588254107E+00    0.3966321348E-03    0.2368158089E+00
    0.4100000000E+07    0.4435378481E+00    0.1366922572E-01    0.6593059151E+00    0.3867240452E-03    0.2368322968E+00
    0.4300000000E+07    0.4435288672E+00    0.1337610188E-01    0.6597538157E+00    0.3775105537E-03    0.2368478842E+00
    0.4500000000E+07    0.4435201038E+00    0.1310193600E-01    0.6601726783E+00    0.3689142171E-03    0.2368626632E+00
    0.4700000000E+07    0.4435115551E+00    0.1284474665E-01    0.6605655428E+00    0.3608691665E-03    0.2368767126E+00
    0.4900000000E+07    0.4435032166E+00    0.1260283218E-01    0.6609350194E+00    0.3533189729E-03    0.2368901003E+00
    0.1000000000E+07    0.4436367192E+00    0.2569799021E-01    0.6408654799E+00    0.7816078055E-03    0.2362829827E+00
    0.3000000000E+07    0.4435909022E+00    0.1574956981E-01    0.6561249305E+00    0.4527564688E-03    0.2367270094E+00
    0.5000000000E+07    0.4434991246E+00    0.1248713549E-01    0.6611117043E+00    0.3497139759E-03    0.2368965647E+00
    0.7000000000E+07    0.4434267990E+00    0.1070425246E-01    0.6638328288E+00    0.2946687600E-03    0.2370020544E+00
    0.9000000000E+07    0.4433685831E+00    0.9535853870E-02    0.6656144252E+00    0.2591522300E-03    0.2370786647E+00
    0.1100000000E+08    0.4433201319E+00    0.8692728411E-02    0.6668991766E+00    0.2338260622E-03    0.2371388180E+00
    0.1300000000E+08    0.4432787176E+00    0.8046595382E-02    0.6678832429E+00    0.2146033234E-03    0.2371883368E+00
    0.1500000000E+08    0.4432425848E+00    0.7530563877E-02    0.6686688354E+00    0.1993750935E-03    0.2372304174E+00
    0.1700000000E+08    0.4432105522E+00    0.7105837068E-02    0.6693152030E+00    0.1869286972E-03    0.2372670032E+00
    0.1900000000E+08    0.4431817905E+00    0.6748139771E-02    0.6698594003E+00    0.1765109202E-03    0.2372993637E+00
    0.2100000000E+08    0.4431556974E+00    0.6441392559E-02    0.6703259617E+00    0.1676260368E-03    0.2373283741E+00
    0.2300000000E+08    0.4431318217E+00    0.6174460646E-02    0.6707318714E+00    0.1599327121E-03    0.2373546632E+00
    0.2500000000E+08    0.4431098173E+00    0.5939353205E-02    0.6710893141E+00    0.1531872396E-03    0.2373786979E+00
    0.2700000000E+08    0.4430894131E+00    0.5730165123E-02    0.6714072919E+00    0.1472103592E-03    0.2374008344E+00
