  Pressure (Pa) 22mC5-400 (mol/kg) 2mC6-400 (mol/kg) 3mC6-400 (mol/kg) 33mC5-400 (mol/kg) 23mC5-400 (mol/kg)
    0.1000000000E+01    0.5288396755E-03    0.6340470917E-02    0.3156667557E-02    0.1935943514E-03    0.1857168685E-03
    0.3000000000E+01    0.1563565263E-02    0.1850691634E-01    0.9239480136E-02    0.5651063178E-03    0.5490939874E-03
    0.5000000000E+01    0.2569113014E-02    0.3003126581E-01    0.1503472769E-01    0.9170537384E-03    0.9022298222E-03
    0.7000000000E+01    0.3547081040E-02    0.4096159138E-01    0.2056404233E-01    0.1250901498E-02    0.1245685237E-02
    0.9000000000E+01    0.4498947795E-02    0.5134128028E-01    0.2584690078E-01    0.1567971676E-02    0.1579979105E-02
    0.1100000000E+02    0.5426083256E-02    0.6120959447E-01    0.3090088803E-01    0.1869460613E-02    0.1905592231E-02
    0.1300000000E+02    0.6329758853E-02    0.7060215164E-01    0.3574192306E-01    0.2156453572E-02    0.2222970838E-02
    0.1500000000E+02    0.7211156318E-02    0.7955133999E-01    0.4038445292E-01    0.2429937388E-02    0.2532529669E-02
    0.1700000000E+02    0.8071375599E-02    0.8808667743E-01    0.4484162021E-01    0.2690811417E-02    0.2834654768E-02
    0.1900000000E+02    0.8911441935E-02    0.9623512371E-01    0.4912540810E-01    0.2939897050E-02    0.3129705958E-02
    0.2100000000E+02    0.9732312205E-02    0.1040213524E+00    0.5324676640E-01    0.3177946012E-02    0.3418019075E-02
    0.2300000000E+02    0.1053488064E-01    0.1114679890E+00    0.5721572148E-01    0.3405647609E-02    0.3699907966E-02
    0.2500000000E+02    0.1131998395E-01    0.1185958195E+00    0.6104147234E-01    0.3623635093E-02    0.3975666294E-02
    0.2700000000E+02    0.1208840597E-01    0.1254239738E+00    0.6473247496E-01    0.3832491260E-02    0.4245569169E-02
    0.2900000000E+02    0.1284088187E-01    0.1319700884E+00    0.6829651646E-01    0.4032753383E-02    0.4509874611E-02
    0.3100000000E+02    0.1357810192E-01    0.1382504486E+00    0.7174078051E-01    0.4224917582E-02    0.4768824891E-02
    0.3300000000E+02    0.1430071493E-01    0.1442801166E+00    0.7507190521E-01    0.4409442696E-02    0.5022647732E-02
    0.3500000000E+02    0.1500933141E-01    0.1500730437E+00    0.7829603437E-01    0.4586753722E-02    0.5271557411E-02
    0.3700000000E+02    0.1570452640E-01    0.1556421712E+00    0.8141886314E-01    0.4757244884E-02    0.5515755753E-02
    0.3900000000E+02    0.1638684205E-01    0.1609995201E+00    0.8444567860E-01    0.4921282368E-02    0.5755433048E-02
    0.4100000000E+02    0.1705679000E-01    0.1661562717E+00    0.8738139602E-01    0.5079206775E-02    0.5990768873E-02
    0.4300000000E+02    0.1771485353E-01    0.1711228396E+00    0.9023059134E-01    0.5231335315E-02    0.6221932857E-02
    0.4500000000E+02    0.1836148958E-01    0.1759089343E+00    0.9299753022E-01    0.5377963784E-02    0.6449085375E-02
    0.4700000000E+02    0.1899713050E-01    0.1805236218E+00    0.9568619422E-01    0.5519368337E-02    0.6672378183E-02
    0.4900000000E+02    0.1962218576E-01    0.1849753760E+00    0.9830030426E-01    0.5655807096E-02    0.6891955003E-02
    0.1000000000E+02    0.4965525272E-02    0.5633705285E-01    0.2840147173E-01    0.1720593524E-02    0.1743842099E-02
    0.3000000000E+02    0.1321135739E-01    0.1351425191E+00    0.7003319363E-01    0.4129818214E-02    0.4640004586E-02
    0.5000000000E+02    0.1993086585E-01    0.1871426510E+00    0.9958049836E-01    0.5722240393E-02    0.7000392767E-02
    0.7000000000E+02    0.2563306774E-01    0.2236122482E+00    0.1220072623E+00    0.6841317087E-02    0.9003664277E-02
    0.9000000000E+02    0.3061512231E-01    0.2503082476E+00    0.1398445129E+00    0.7662405055E-02    0.1075412257E-01
    0.1100000000E+03    0.3506357820E-01    0.2704748842E+00    0.1545264643E+00    0.8284324450E-02    0.1231724930E-01
    0.1300000000E+03    0.3910226539E-01    0.2860772937E+00    0.1669309670E+00    0.8766937845E-02    0.1373651244E-01
    0.1500000000E+03    0.4281709927E-01    0.2983735682E+00    0.1776279562E+00    0.9148574306E-02    0.1504207187E-01
    0.1700000000E+03    0.4626987094E-01    0.3082052760E+00    0.1870050982E+00    0.9454877458E-02    0.1625561955E-01
    0.1900000000E+03    0.4950636466E-01    0.3161558159E+00    0.1953362271E+00    0.9703628030E-02    0.1739322861E-01
    0.2100000000E+03    0.5256136583E-01    0.3226417746E+00    0.2028209068E+00    0.9907525982E-02    0.1846711126E-01
    0.2300000000E+03    0.5546187496E-01    0.3279681508E+00    0.2096084458E+00    0.1007587225E-01    0.1948674685E-01
    0.2500000000E+03    0.5822924056E-01    0.3323630698E+00    0.2158130833E+00    0.1021562590E-01    0.2045963064E-01
    0.2700000000E+03    0.6088061623E-01    0.3360003436E+00    0.2215239320E+00    0.1033209120E-01    0.2139178519E-01
    0.2900000000E+03    0.6342998132E-01    0.3390145589E+00    0.2268116847E+00    0.1042937716E-01    0.2228811872E-01
    0.3100000000E+03    0.6588887192E-01    0.3415114241E+00    0.2317332582E+00    0.1051071259E-01    0.2315268167E-01
    0.3300000000E+03    0.6826691484E-01    0.3435750215E+00    0.2363350823E+00    0.1057866710E-01    0.2398885417E-01
    0.3500000000E+03    0.7057222442E-01    0.3452729916E+00    0.2406554775E+00    0.1063530896E-01    0.2479948537E-01
    0.3700000000E+03    0.7281170218E-01    0.3466603031E+00    0.2447264043E+00    0.1068231998E-01    0.2558699857E-01
    0.3900000000E+03    0.7499126627E-01    0.3477820384E+00    0.2485747722E+00    0.1072108039E-01    0.2635347183E-01
    0.4100000000E+03    0.7711602942E-01    0.3486754812E+00    0.2522234327E+00    0.1075273243E-01    0.2710070045E-01
    0.4300000000E+03    0.7919043871E-01    0.3493717000E+00    0.2556919433E+00    0.1077822865E-01    0.2783024596E-01
    0.4500000000E+03    0.8121838632E-01    0.3498967647E+00    0.2589971616E+00    0.1079836895E-01    0.2854347511E-01
    0.4700000000E+03    0.8320329836E-01    0.3502726908E+00    0.2621537138E+00    0.1081382942E-01    0.2924159096E-01
    0.4900000000E+03    0.8514820661E-01    0.3505181792E+00    0.2651743661E+00    0.1082518483E-01    0.2992565815E-01
    0.1000000000E+03    0.3289720418E-01    0.2610635684E+00    0.1475157508E+00    0.7993869274E-02    0.1155599724E-01
    0.3000000000E+03    0.6467009471E-01    0.3403219672E+00    0.2293151277E+00    0.1047186474E-01    0.2272414637E-01
    0.5000000000E+03    0.8610651355E-01    0.3505970937E+00    0.2666372854E+00    0.1082947954E-01    0.3026272346E-01
    0.7000000000E+03    0.1036941098E+00    0.3481930239E+00    0.2908794348E+00    0.1078819255E-01    0.3644966123E-01
    0.9000000000E+03    0.1191329990E+00    0.3420835856E+00    0.3088697654E+00    0.1062500891E-01    0.4188198042E-01
    0.1100000000E+04    0.1331322040E+00    0.3347701231E+00    0.3231845417E+00    0.1041837011E-01    0.4680867604E-01
    0.1300000000E+04    0.1460604196E+00    0.3271437807E+00    0.3350725319E+00    0.1019692219E-01    0.5135922583E-01
    0.1500000000E+04    0.1581364774E+00    0.3195649001E+00    0.3452347767E+00    0.9972706828E-02    0.5561047579E-01
    0.1700000000E+04    0.1695024245E+00    0.3121872961E+00    0.3541049178E+00    0.9751200940E-02    0.5961230478E-01
    0.1900000000E+04    0.1802567267E+00    0.3050754511E+00    0.3619703368E+00    0.9534977746E-02    0.6339928542E-01
    0.2100000000E+04    0.1904712175E+00    0.2982524922E+00    0.3690315554E+00    0.9325223136E-02    0.6699663722E-01
    0.2300000000E+04    0.2002005220E+00    0.2917216470E+00    0.3754341934E+00    0.9122424128E-02    0.7042353625E-01
    0.2500000000E+04    0.2094876471E+00    0.2854764705E+00    0.3812874274E+00    0.8926703574E-02    0.7369507867E-01
    0.2700000000E+04    0.2183674712E+00    0.2795059462E+00    0.3866752710E+00    0.8737991512E-02    0.7682350637E-01
    0.2900000000E+04    0.2268690124E+00    0.2737971077E+00    0.3916637906E+00    0.8556116384E-02    0.7981900375E-01
    0.3100000000E+04    0.2350169534E+00    0.2683364051E+00    0.3963058988E+00    0.8380854982E-02    0.8269023317E-01
    0.3300000000E+04    0.2428326943E+00    0.2631104161E+00    0.4006446431E+00    0.8211960338E-02    0.8544470473E-01
    0.3500000000E+04    0.2503350968E+00    0.2581062051E+00    0.4047155236E+00    0.8049177440E-02    0.8808903766E-01
    0.3700000000E+04    0.2575410203E+00    0.2533114911E+00    0.4085481657E+00    0.7892252072E-02    0.9062914860E-01
    0.3900000000E+04    0.2644657154E+00    0.2487147116E+00    0.4121675521E+00    0.7740935715E-02    0.9307038972E-01
    0.4100000000E+04    0.2711231162E+00    0.2443050292E+00    0.4155949474E+00    0.7594988152E-02    0.9541765141E-01
    0.4300000000E+04    0.2775260614E+00    0.2400723090E+00    0.4188486023E+00    0.7454178732E-02    0.9767543978E-01
    0.4500000000E+04    0.2836864624E+00    0.2360070819E+00    0.4219442988E+00    0.7318286854E-02    0.9984793587E-01
    0.4700000000E+04    0.2896154345E+00    0.2321005008E+00    0.4248957764E+00    0.7187101998E-02    0.1019390414E+00
    0.4900000000E+04    0.2953233981E+00    0.2283442960E+00    0.4277150704E+00    0.7060423510E-02    0.1039524148E+00
    0.1000000000E+04    0.1262846797E+00    0.3385027504E+00    0.3163905032E+00    0.1052474216E-01    0.4439873943E-01
    0.3000000000E+04    0.2309857784E+00    0.2710365868E+00    0.3940252553E+00    0.8467674073E-02    0.8126965906E-01
    0.5000000000E+04    0.2980975887E+00    0.2265201476E+00    0.4290785114E+00    0.6998714060E-02    0.1049310356E+00
    0.7000000000E+04    0.3440968215E+00    0.1962965132E+00    0.4514262901E+00    0.5959278276E-02    0.1211663926E+00
    0.9000000000E+04    0.3764726369E+00    0.1747658595E+00    0.4676011554E+00    0.5201922472E-02    0.1326062081E+00
    0.1100000000E+05    0.3998386800E+00    0.1587980968E+00    0.4801426505E+00    0.4634076486E-02    0.1408723063E+00
    0.1300000000E+05    0.4171285797E+00    0.1465376000E+00    0.4903022478E+00    0.4196613762E-02    0.1469966454E+00
    0.1500000000E+05    0.4302291847E+00    0.1368379645E+00    0.4987871522E+00    0.3851125091E-02    0.1516433470E+00
    0.1700000000E+05    0.4403736100E+00    0.1289655690E+00    0.5060349121E+00    0.3572155688E-02    0.1552466645E+00
    0.1900000000E+05    0.4483840264E+00    0.1224354871E+00    0.5123343900E+00    0.3342454468E-02    0.1580962763E+00
    0.2100000000E+05    0.4548205963E+00    0.1169174235E+00    0.5178858565E+00    0.3150057924E-02    0.1603896417E+00
    0.2300000000E+05    0.4600733057E+00    0.1121801299E+00    0.5228335875E+00    0.2986481096E-02    0.1622642967E+00
    0.2500000000E+05    0.4644193408E+00    0.1080576001E+00    0.5272847808E+00    0.2845577024E-02    0.1638180428E+00
    0.2700000000E+05    0.4680595706E+00    0.1044279316E+00    0.5313211374E+00    0.2722803815E-02    0.1651217876E+00
    0.2900000000E+05    0.4711421937E+00    0.1011997590E+00    0.5350062692E+00    0.2614744080E-02    0.1662278709E+00
    0.3100000000E+05    0.4737783671E+00    0.9830332862E-01    0.5383906120E+00    0.2518783440E-02    0.1671755696E+00
    0.3300000000E+05    0.4760527345E+00    0.9568449172E-01    0.5415147857E+00    0.2432891251E-02    0.1679948071E+00
    0.3500000000E+05    0.4780306495E+00    0.9330057580E-01    0.5444119542E+00    0.2355468258E-02    0.1687086990E+00
    0.3700000000E+05    0.4797632158E+00    0.9111749042E-01    0.5471095208E+00    0.2285238899E-02    0.1693353298E+00
    0.3900000000E+05    0.4812908625E+00    0.8910766193E-01    0.5496303705E+00    0.2221173934E-02    0.1698890144E+00
    0.4100000000E+05    0.4826459181E+00    0.8724853508E-01    0.5519937978E+00    0.2162434018E-02    0.1703812052E+00
    0.4300000000E+05    0.4838544893E+00    0.8552146909E-01    0.5542162089E+00    0.2108327955E-02    0.1708211560E+00
    0.4500000000E+05    0.4849378515E+00    0.8391091291E-01    0.5563116620E+00    0.2058281427E-02    0.1712164118E+00
    0.4700000000E+05    0.4859134889E+00    0.8240378084E-01    0.5582922879E+00    0.2011813264E-02    0.1715731770E+00
    0.4900000000E+05    0.4867958825E+00    0.8098897427E-01    0.5601686213E+00    0.1968517243E-02    0.1718965930E+00
    0.1000000000E+05    0.3890680413E+00    0.1662240246E+00    0.4742300460E+00    0.4898610298E-02    0.1370607647E+00
    0.3000000000E+05    0.4725102725E+00    0.9971377042E-01    0.5367333020E+00    0.2565389922E-02    0.1667194633E+00
    0.5000000000E+05    0.4872059685E+00    0.8031317514E-01    0.5610706000E+00    0.1947948798E-02    0.1720471648E+00
    0.7000000000E+05    0.4926039039E+00    0.6993015176E-01    0.5753600509E+00    0.1641273678E-02    0.1740516134E+00
    0.9000000000E+05    0.4952879660E+00    0.6310018421E-01    0.5851410100E+00    0.1449157855E-02    0.1750750709E+00
    0.1100000000E+06    0.4968594514E+00    0.5812352631E-01    0.5924162460E+00    0.1313846923E-02    0.1756913616E+00
    0.1300000000E+06    0.4978781880E+00    0.5426826070E-01    0.5981201608E+00    0.1211621295E-02    0.1761026801E+00
    0.1500000000E+06    0.4985860439E+00    0.5115698306E-01    0.6027582515E+00    0.1130708777E-02    0.1763971138E+00
    0.1700000000E+06    0.4991032030E+00    0.4857134843E-01    0.6066322023E+00    0.1064505813E-02    0.1766188182E+00
    0.1900000000E+06    0.4994956429E+00    0.4637449205E-01    0.6099351909E+00    0.1008976598E-02    0.1767922542E+00
    0.2100000000E+06    0.4998023938E+00    0.4447539394E-01    0.6127976621E+00    0.9614931851E-03    0.1769320285E+00
    0.2300000000E+06    0.5000479272E+00    0.4281070172E-01    0.6153114406E+00    0.9202587799E-03    0.1770473873E+00
    0.2500000000E+06    0.5002483177E+00    0.4133469521E-01    0.6175433659E+00    0.8839963470E-03    0.1771444638E+00
    0.2700000000E+06    0.5004145346E+00    0.4001339181E-01    0.6195434510E+00    0.8517692158E-03    0.1772274852E+00
    0.2900000000E+06    0.5005543051E+00    0.3882090677E-01    0.6213499931E+00    0.8228721814E-03    0.1772994592E+00
    0.3100000000E+06    0.5006732209E+00    0.3773711128E-01    0.6229929003E+00    0.7967624861E-03    0.1773625846E+00
    0.3300000000E+06    0.5007754226E+00    0.3674607279E-01    0.6244959278E+00    0.7730144654E-03    0.1774185064E+00
    0.3500000000E+06    0.5008640387E+00    0.3583498513E-01    0.6258782243E+00    0.7512888127E-03    0.1774684804E+00
    0.3700000000E+06    0.5009414741E+00    0.3499341593E-01    0.6271554260E+00    0.7313111905E-03    0.1775134820E+00
    0.3900000000E+06    0.5010096067E+00    0.3421276526E-01    0.6283404484E+00    0.7128569981E-03    0.1775542807E+00
    0.4100000000E+06    0.5010699228E+00    0.3348586874E-01    0.6294440692E+00    0.6957403007E-03    0.1775914923E+00
    0.4300000000E+06    0.5011236134E+00    0.3280670127E-01    0.6304753655E+00    0.6798056380E-03    0.1776256150E+00
    0.4500000000E+06    0.5011716435E+00    0.3217015271E-01    0.6314420454E+00    0.6649218636E-03    0.1776570572E+00
    0.4700000000E+06    0.5012148027E+00    0.3157185541E-01    0.6323507038E+00    0.6509774464E-03    0.1776861563E+00
    0.4900000000E+06    0.5012537431E+00    0.3100805017E-01    0.6332070223E+00    0.6378768389E-03    0.1777131940E+00
    0.1000000000E+06    0.4961663178E+00    0.6043802412E-01    0.5890191730E+00    0.1376297195E-02    0.1754173652E+00
    0.3000000000E+06    0.5006160831E+00    0.3826650255E-01    0.6221902929E+00    0.8094978490E-03    0.1773320144E+00
    0.5000000000E+06    0.5012718046E+00    0.3073804724E-01    0.6336171193E+00    0.6316167638E-03    0.1777260154E+00
    0.7000000000E+06    0.5015054884E+00    0.2654684921E-01    0.6399827766E+00    0.5355913809E-03    0.1779160231E+00
    0.9000000000E+06    0.5016146752E+00    0.2376781830E-01    0.6442019233E+00    0.4731332237E-03    0.1780350432E+00
    0.1100000000E+07    0.5016724086E+00    0.2174577471E-01    0.6472701538E+00    0.4283195020E-03    0.1781197671E+00
    0.1300000000E+07    0.5017047208E+00    0.2018643476E-01    0.6496350549E+00    0.3941383904E-03    0.1781847865E+00
    0.1500000000E+07    0.5017230018E+00    0.1893488241E-01    0.6515322741E+00    0.3669514442E-03    0.1782371962E+00
    0.1700000000E+07    0.5017329375E+00    0.1790058771E-01    0.6530994988E+00    0.3446562858E-03    0.1782809201E+00
    0.1900000000E+07    0.5017376402E+00    0.1702655609E-01    0.6544233904E+00    0.3259415557E-03    0.1783183333E+00
    0.2100000000E+07    0.5017389335E+00    0.1627483962E-01    0.6555616326E+00    0.3099409826E-03    0.1783509724E+00
    0.2300000000E+07    0.5017379432E+00    0.1561904333E-01    0.6565543358E+00    0.2960561332E-03    0.1783798839E+00
    0.2500000000E+07    0.5017353932E+00    0.1504015198E-01    0.6574303875E+00    0.2838584894E-03    0.1784058102E+00
    0.2700000000E+07    0.5017317648E+00    0.1452406590E-01    0.6582112015E+00    0.2730320252E-03    0.1784292954E+00
    0.2900000000E+07    0.5017273867E+00    0.1406007491E-01    0.6589130395E+00    0.2633378605E-03    0.1784507499E+00
    0.3100000000E+07    0.5017224880E+00    0.1363987506E-01    0.6595485063E+00    0.2545916121E-03    0.1784704897E+00
    0.3300000000E+07    0.5017172318E+00    0.1325691347E-01    0.6601275466E+00    0.2466483776E-03    0.1784887637E+00
    0.3500000000E+07    0.5017117356E+00    0.1290593922E-01    0.6606581273E+00    0.2393924877E-03    0.1785057709E+00
    0.3700000000E+07    0.5017060852E+00    0.1258268769E-01    0.6611467175E+00    0.2327303334E-03    0.1785216726E+00
    0.3900000000E+07    0.5017003436E+00    0.1228365379E-01    0.6615986329E+00    0.2265852341E-03    0.1785366018E+00
    0.4100000000E+07    0.5016945577E+00    0.1200592602E-01    0.6620182884E+00    0.2208936934E-03    0.1785506690E+00
    0.4300000000E+07    0.5016887625E+00    0.1174706277E-01    0.6624093855E+00    0.2156026205E-03    0.1785639669E+00
    0.4500000000E+07    0.5016829841E+00    0.1150499888E-01    0.6627750546E+00    0.2106672351E-03    0.1785765745E+00
    0.4700000000E+07    0.5016772418E+00    0.1127797394E-01    0.6631179636E+00    0.2060494659E-03    0.1785885590E+00
    0.4900000000E+07    0.5016715502E+00    0.1106447662E-01    0.6634404027E+00    0.2017167115E-03    0.1785999784E+00
    0.1000000000E+07    0.5016478216E+00    0.2268525606E-01    0.6458447983E+00    0.4490732324E-03    0.1780805187E+00
    0.3000000000E+07    0.5017249909E+00    0.1384494564E-01    0.6592383946E+00    0.2588560902E-03    0.1784608172E+00
    0.5000000000E+07    0.5016687268E+00    0.1096238571E-01    0.6635945749E+00    0.1996482793E-03    0.1786054923E+00
    0.7000000000E+07    0.5016163224E+00    0.9390401060E-02    0.6659674292E+00    0.1680915381E-03    0.1786954589E+00
    0.9000000000E+07    0.5015717786E+00    0.8361462139E-02    0.6675194459E+00    0.1477565059E-03    0.1787607877E+00
    0.1100000000E+08    0.5015336830E+00    0.7619581798E-02    0.6686378931E+00    0.1332684203E-03    0.1788120812E+00
    0.1300000000E+08    0.5015005829E+00    0.7051382884E-02    0.6694941607E+00    0.1222787559E-03    0.1788543064E+00
    0.1500000000E+08    0.5014713864E+00    0.6597807102E-02    0.6701774749E+00    0.1135769766E-03    0.1788901894E+00
    0.1700000000E+08    0.5014452993E+00    0.6224627519E-02    0.6707395232E+00    0.1064675744E-03    0.1789213872E+00
    0.1900000000E+08    0.5014217378E+00    0.5910441761E-02    0.6712126141E+00    0.1005188394E-03    0.1789489825E+00
    0.2100000000E+08    0.5014002640E+00    0.5641080601E-02    0.6716181307E+00    0.9544679496E-04    0.1789737215E+00
    0.2300000000E+08    0.5013805427E+00    0.5406736303E-02    0.6719708701E+00    0.9105599468E-04    0.1789961401E+00
    0.2500000000E+08    0.5013623122E+00    0.5200373014E-02    0.6722814446E+00    0.8720694691E-04    0.1790166366E+00
    0.2700000000E+08    0.5013453647E+00    0.5016793020E-02    0.6725576929E+00    0.8379708171E-04    0.1790355145E+00
