  Pressure (Pa) 22mC5-400 (mol/kg) 2mC6-400 (mol/kg) 3mC6-400 (mol/kg) 33mC5-400 (mol/kg) 23mC5-400 (mol/kg)
    0.1000000000E+01    0.5311142237E-03    0.1593409049E-02    0.4225598699E-02    0.3892213208E-03    0.2797729204E-03
    0.3000000000E+01    0.1583478804E-02    0.4698203133E-02    0.1246277379E-01    0.1147737619E-02    0.8341261053E-03
    0.5000000000E+01    0.2622947953E-02    0.7698161723E-02    0.2042691815E-01    0.1880787272E-02    0.1381690705E-02
    0.7000000000E+01    0.3649820727E-02    0.1059840239E-01    0.2813194213E-01    0.2589614900E-02    0.1922624131E-02
    0.9000000000E+01    0.4664386692E-02    0.1340370635E-01    0.3559081797E-01    0.3275383188E-02    0.2457078802E-02
    0.1100000000E+02    0.5666926300E-02    0.1611854621E-01    0.4281565778E-01    0.3939179625E-02    0.2985202340E-02
    0.1300000000E+02    0.6657711249E-02    0.1874711081E-01    0.4981778391E-01    0.4582022601E-02    0.3507137756E-02
    0.1500000000E+02    0.7637004822E-02    0.2129332790E-01    0.5660779247E-01    0.5204866899E-02    0.4023023638E-02
    0.1700000000E+02    0.8605062217E-02    0.2376088444E-01    0.6319561080E-01    0.5808608682E-02    0.4532994313E-02
    0.1900000000E+02    0.9562130857E-02    0.2615324519E-01    0.6959054964E-01    0.6394089999E-02    0.5037180019E-02
    0.2100000000E+02    0.1050845068E-01    0.2847366947E-01    0.7580135039E-01    0.6962102889E-02    0.5535707054E-02
    0.2300000000E+02    0.1144425444E-01    0.3072522649E-01    0.8183622813E-01    0.7513393106E-02    0.6028697931E-02
    0.2500000000E+02    0.1236976795E-01    0.3291080925E-01    0.8770291081E-01    0.8048663518E-02    0.6516271516E-02
    0.2700000000E+02    0.1328521036E-01    0.3503314724E-01    0.9340867495E-01    0.8568577201E-02    0.6998543168E-02
    0.2900000000E+02    0.1419079441E-01    0.3709481810E-01    0.9896037825E-01    0.9073760273E-02    0.7475624863E-02
    0.3100000000E+02    0.1508672664E-01    0.3909825820E-01    0.1043644894E+00    0.9564804481E-02    0.7947625323E-02
    0.3300000000E+02    0.1597320763E-01    0.4104577240E-01    0.1096271155E+00    0.1004226957E-01    0.8414650135E-02
    0.3500000000E+02    0.1685043223E-01    0.4293954295E-01    0.1147540268E+00    0.1050668548E-01    0.8876801858E-02
    0.3700000000E+02    0.1771858974E-01    0.4478163775E-01    0.1197506801E+00    0.1095855431E-01    0.9334180140E-02
    0.3900000000E+02    0.1857786413E-01    0.4657401783E-01    0.1246222396E+00    0.1139835218E-01    0.9786881818E-02
    0.4100000000E+02    0.1942843420E-01    0.4831854435E-01    0.1293735963E+00    0.1182653092E-01    0.1023500101E-01
    0.4300000000E+02    0.2027047379E-01    0.5001698497E-01    0.1340093860E+00    0.1224351963E-01    0.1067862924E-01
    0.4500000000E+02    0.2110415195E-01    0.5167101980E-01    0.1385340058E+00    0.1264972612E-01    0.1111785547E-01
    0.4700000000E+02    0.2192963309E-01    0.5328224684E-01    0.1429516295E+00    0.1304553822E-01    0.1155276626E-01
    0.4900000000E+02    0.2274707716E-01    0.5485218702E-01    0.1472662213E+00    0.1343132506E-01    0.1198344579E-01
    0.1000000000E+02    0.5167142609E-02    0.1477216612E-01    0.3923176700E-01    0.3609962686E-02    0.2721922918E-02
    0.3000000000E+02    0.1463995433E-01    0.3810366997E-01    0.1016804930E+00    0.9321014027E-02    0.7712253576E-02
    0.5000000000E+02    0.2315283408E-01    0.5562212992E-01    0.1493860651E+00    0.1362056952E-01    0.1219722453E-01
    0.7000000000E+02    0.3088179236E-01    0.6917137520E-01    0.1871970812E+00    0.1695627663E-01    0.1626948592E-01
    0.9000000000E+02    0.3796084661E-01    0.7988262456E-01    0.2180276519E+00    0.1960256275E-01    0.1999958493E-01
    0.1100000000E+03    0.4449394685E-01    0.8849206979E-01    0.2437375897E+00    0.2173792646E-01    0.2344224242E-01
    0.1300000000E+03    0.5056304224E-01    0.9550124608E-01    0.2655714928E+00    0.2348392942E-01    0.2664059862E-01
    0.1500000000E+03    0.5623367305E-01    0.1012645024E+00    0.2843948982E+00    0.2492644460E-01    0.2962915639E-01
    0.1700000000E+03    0.6155893191E-01    0.1060397300E+00    0.3008291868E+00    0.2612796960E-01    0.3243586623E-01
    0.1900000000E+03    0.6658232477E-01    0.1100192908E+00    0.3153325582E+00    0.2713512836E-01    0.3508363215E-01
    0.2100000000E+03    0.7133987296E-01    0.1133496695E+00    0.3282506886E+00    0.2798343524E-01    0.3759141819E-01
    0.2300000000E+03    0.7586168207E-01    0.1161444050E+00    0.3398495568E+00    0.2870042803E-01    0.3997507418E-01
    0.2500000000E+03    0.8017312944E-01    0.1184928545E+00    0.3503373676E+00    0.2930779045E-01    0.4224796087E-01
    0.2700000000E+03    0.8429577454E-01    0.1204662873E+00    0.3598795852E+00    0.2982282753E-01    0.4442142912E-01
    0.2900000000E+03    0.8824806519E-01    0.1221222174E+00    0.3686094818E+00    0.3025951424E-01    0.4650519167E-01
    0.3100000000E+03    0.9204589128E-01    0.1235075444E+00    0.3766356932E+00    0.3062925549E-01    0.4850761463E-01
    0.3300000000E+03    0.9570302334E-01    0.1246608704E+00    0.3840477299E+00    0.3094144674E-01    0.5043594833E-01
    0.3500000000E+03    0.9923146289E-01    0.1256142348E+00    0.3909200629E+00    0.3120389374E-01    0.5229651179E-01
    0.3700000000E+03    0.1026417249E+00    0.1263944327E+00    0.3973151982E+00    0.3142313138E-01    0.5409484140E-01
    0.3900000000E+03    0.1059430674E+00    0.1270240273E+00    0.4032860219E+00    0.3160466879E-01    0.5583581172E-01
    0.4100000000E+03    0.1091436787E+00    0.1275221385E+00    0.4088776101E+00    0.3175318000E-01    0.5752373429E-01
    0.4300000000E+03    0.1122508330E+00    0.1279050616E+00    0.4141286419E+00    0.3187265369E-01    0.5916243910E-01
    0.4500000000E+03    0.1152710175E+00    0.1281867584E+00    0.4190725142E+00    0.3196651205E-01    0.6075534210E-01
    0.4700000000E+03    0.1182100405E+00    0.1283792495E+00    0.4237382286E+00    0.3203770580E-01    0.6230550153E-01
    0.4900000000E+03    0.1210731205E+00    0.1284929316E+00    0.4281511045E+00    0.3208879086E-01    0.6381566518E-01
    0.1000000000E+03    0.4129007864E-01    0.8441449037E-01    0.2314339204E+00    0.2072548483E-01    0.2175391572E-01
    0.3000000000E+03    0.9016538045E-01    0.1228461219E+00    0.3727045591E+00    0.3045212422E-01    0.4751609366E-01
    0.5000000000E+03    0.1224776702E+00    0.1285230882E+00    0.4302697777E+00    0.3210749898E-01    0.6455653233E-01
    0.7000000000E+03    0.1475120313E+00    0.1266527189E+00    0.4635568298E+00    0.3183712013E-01    0.7776399806E-01
    0.9000000000E+03    0.1683210612E+00    0.1224589064E+00    0.4859800658E+00    0.3093542402E-01    0.8874587848E-01
    0.1100000000E+04    0.1862709814E+00    0.1175633713E+00    0.5024396592E+00    0.2981480297E-01    0.9822160189E-01
    0.1300000000E+04    0.2020966514E+00    0.1125715301E+00    0.5152055504E+00    0.2863532783E-01    0.1065781359E+00
    0.1500000000E+04    0.2162460323E+00    0.1077289090E+00    0.5254932152E+00    0.2746595496E-01    0.1140513709E+00
    0.1700000000E+04    0.2290182842E+00    0.1031348775E+00    0.5340207397E+00    0.2633762745E-01    0.1207988415E+00
    0.1900000000E+04    0.2406274223E+00    0.9882415009E-01    0.5412437050E+00    0.2526383537E-01    0.1269332475E+00
    0.2100000000E+04    0.2512348176E+00    0.9480143783E-01    0.5474672236E+00    0.2424953260E-01    0.1325395697E+00
    0.2300000000E+04    0.2609671606E+00    0.9105736768E-01    0.5529045122E+00    0.2329534063E-01    0.1376845291E+00
    0.2500000000E+04    0.2699270492E+00    0.8757620760E-01    0.5577097685E+00    0.2239965878E-01    0.1424221621E+00
    0.2700000000E+04    0.2781995771E+00    0.8433975134E-01    0.5619977043E+00    0.2155977407E-01    0.1467972896E+00
    0.2900000000E+04    0.2858566323E+00    0.8132930512E-01    0.5658557024E+00    0.2077246472E-01    0.1508477801E+00
    0.3100000000E+04    0.2929598196E+00    0.7852669718E-01    0.5693516827E+00    0.2003433493E-01    0.1546060886E+00
    0.3300000000E+04    0.2995625252E+00    0.7591476939E-01    0.5725393604E+00    0.1934200154E-01    0.1581003431E+00
    0.3500000000E+04    0.3057114237E+00    0.7347758919E-01    0.5754618633E+00    0.1869219679E-01    0.1613551381E+00
    0.3700000000E+04    0.3114476118E+00    0.7120050954E-01    0.5781542806E+00    0.1808182224E-01    0.1643921310E+00
    0.3900000000E+04    0.3168074836E+00    0.6907014737E-01    0.5806454979E+00    0.1750797403E-01    0.1672305032E+00
    0.4100000000E+04    0.3218234226E+00    0.6707431974E-01    0.5829595443E+00    0.1696795127E-01    0.1698873240E+00
    0.4300000000E+04    0.3265243593E+00    0.6520196008E-01    0.5851165972E+00    0.1645925434E-01    0.1723778444E+00
    0.4500000000E+04    0.3309362276E+00    0.6344302718E-01    0.5871337437E+00    0.1597957760E-01    0.1747157369E+00
    0.4700000000E+04    0.3350823451E+00    0.6178841401E-01    0.5890255656E+00    0.1552679888E-01    0.1769132962E+00
    0.4900000000E+04    0.3389837315E+00    0.6022986024E-01    0.5908045939E+00    0.1509896751E-01    0.1789816062E+00
    0.1000000000E+04    0.1775982773E+00    0.1200484207E+00    0.4947782864E+00    0.3038931107E-01    0.9364297763E-01
    0.3000000000E+04    0.2894739500E+00    0.7990312096E-01    0.5676453034E+00    0.2039746563E-01    0.1527616081E+00
    0.5000000000E+04    0.3408486588E+00    0.5948423551E-01    0.5916552552E+00    0.1489384133E-01    0.1799704613E+00
    0.7000000000E+04    0.3690532061E+00    0.4812910355E-01    0.6047445796E+00    0.1173856058E-01    0.1949423162E+00
    0.9000000000E+04    0.3862660353E+00    0.4104937022E-01    0.6132932375E+00    0.9751355178E-02    0.2041019314E+00
    0.1100000000E+05    0.3976169520E+00    0.3623901630E-01    0.6194406700E+00    0.8401838599E-02    0.2101580675E+00
    0.1300000000E+05    0.4055539541E+00    0.3275478979E-01    0.6241363861E+00    0.7430554738E-02    0.2144045000E+00
    0.1500000000E+05    0.4113613202E+00    0.3010613713E-01    0.6278752582E+00    0.6699245618E-02    0.2175205545E+00
    0.1700000000E+05    0.4157656655E+00    0.2801620233E-01    0.6309440225E+00    0.6128684524E-02    0.2198909077E+00
    0.1900000000E+05    0.4192040165E+00    0.2631804861E-01    0.6335218598E+00    0.5670655940E-02    0.2217471266E+00
    0.2100000000E+05    0.4219527547E+00    0.2490542789E-01    0.6357272883E+00    0.5294315954E-02    0.2232357874E+00
    0.2300000000E+05    0.4241941181E+00    0.2370762703E-01    0.6376422592E+00    0.4979093110E-02    0.2244536258E+00
    0.2500000000E+05    0.4260525681E+00    0.2267578908E-01    0.6393254971E+00    0.4710775441E-02    0.2254667697E+00
    0.2700000000E+05    0.4276156908E+00    0.2177507170E-01    0.6408203346E+00    0.4479245107E-02    0.2263217984E+00
    0.2900000000E+05    0.4289467314E+00    0.2097994480E-01    0.6421595406E+00    0.4277110268E-02    0.2270523791E+00
    0.3100000000E+05    0.4300923927E+00    0.2027125906E-01    0.6433684178E+00    0.4098847955E-02    0.2276833970E+00
    0.3300000000E+05    0.4310878448E+00    0.1963435586E-01    0.6444668568E+00    0.3940249613E-02    0.2282336111E+00
    0.3500000000E+05    0.4319600354E+00    0.1905781204E-01    0.6454707398E+00    0.3798052192E-02    0.2287174095E+00
    0.3700000000E+05    0.4327299325E+00    0.1853258434E-01    0.6463929230E+00    0.3669686487E-02    0.2291459986E+00
    0.3900000000E+05    0.4334140766E+00    0.1805141261E-01    0.6472439399E+00    0.3553101614E-02    0.2295282281E+00
    0.4100000000E+05    0.4340256784E+00    0.1760839484E-01    0.6480325144E+00    0.3446640125E-02    0.2298711735E+00
    0.4300000000E+05    0.4345754074E+00    0.1719867886E-01    0.6487659422E+00    0.3348947547E-02    0.2301805554E+00
    0.4500000000E+05    0.4350719685E+00    0.1681823497E-01    0.6494503782E+00    0.3258905781E-02    0.2304610459E+00
    0.4700000000E+05    0.4355225300E+00    0.1646368558E-01    0.6500910556E+00    0.3175583349E-02    0.2307164968E+00
    0.4900000000E+05    0.4359330445E+00    0.1613217594E-01    0.6506924569E+00    0.3098197712E-02    0.2309501101E+00
    0.1000000000E+05    0.3924829472E+00    0.3843446450E-01    0.6165924096E+00    0.9017060006E-02    0.2074168635E+00
    0.3000000000E+05    0.4295403113E+00    0.2061580109E-01    0.6427789192E+00    0.4185283862E-02    0.2273790413E+00
    0.5000000000E+05    0.4361248736E+00    0.1597428694E-01    0.6509796576E+00    0.3061520126E-02    0.2310595835E+00
    0.7000000000E+05    0.4387276679E+00    0.1358870299E-01    0.6553702216E+00    0.2521751261E-02    0.2325713284E+00
    0.9000000000E+05    0.4400954507E+00    0.1206486952E-01    0.6582106870E+00    0.2191372405E-02    0.2333973078E+00
    0.1100000000E+06    0.4409293433E+00    0.1097964283E-01    0.6602416069E+00    0.1962957552E-02    0.2339210034E+00
    0.1300000000E+06    0.4414864513E+00    0.1015429616E-01    0.6617870702E+00    0.1793027828E-02    0.2342848768E+00
    0.1500000000E+06    0.4418824636E+00    0.9498280097E-02    0.6630143840E+00    0.1660266598E-02    0.2345538741E+00
    0.1700000000E+06    0.4421768618E+00    0.8960041851E-02    0.6640198193E+00    0.1552849288E-02    0.2347618287E+00
    0.1900000000E+06    0.4424032537E+00    0.8507732464E-02    0.6648632208E+00    0.1463623824E-02    0.2349281111E+00
    0.2100000000E+06    0.4425820141E+00    0.8120447031E-02    0.6655840107E+00    0.1387977747E-02    0.2350646211E+00
    0.2300000000E+06    0.4427261902E+00    0.7783806512E-02    0.6662093589E+00    0.1322785498E-02    0.2351790804E+00
    0.2500000000E+06    0.4428445099E+00    0.7487544676E-02    0.6667586828E+00    0.1265844027E-02    0.2352767239E+00
    0.2700000000E+06    0.4429430252E+00    0.7224105111E-02    0.6672462789E+00    0.1215549876E-02    0.2353612296E+00
    0.2900000000E+06    0.4430260590E+00    0.6987783218E-02    0.6676829388E+00    0.1170704458E-02    0.2354352602E+00
    0.3100000000E+06    0.4430967787E+00    0.6774179115E-02    0.6680769819E+00    0.1130391434E-02    0.2355007927E+00
    0.3300000000E+06    0.4431575555E+00    0.6579836338E-02    0.6684349398E+00    0.1093896627E-02    0.2355593269E+00
    0.3500000000E+06    0.4432101985E+00    0.6401995994E-02    0.6687620215E+00    0.1060654063E-02    0.2356120223E+00
    0.3700000000E+06    0.4432561107E+00    0.6238425086E-02    0.6690624398E+00    0.1030208638E-02    0.2356597901E+00
    0.3900000000E+06    0.4432963959E+00    0.6087293908E-02    0.6693396430E+00    0.1002189668E-02    0.2357033571E+00
    0.4100000000E+06    0.4433319342E+00    0.5947086723E-02    0.6695964851E+00    0.9762917663E-03    0.2357433100E+00
    0.4300000000E+06    0.4433634351E+00    0.5816535532E-02    0.6698353513E+00    0.9522607624E-03    0.2357801284E+00
    0.4500000000E+06    0.4433914768E+00    0.5694570195E-02    0.6700582524E+00    0.9298831611E-03    0.2358142083E+00
    0.4700000000E+06    0.4434165349E+00    0.5580280311E-02    0.6702668976E+00    0.9089781397E-03    0.2358458797E+00
    0.4900000000E+06    0.4434390038E+00    0.5472885741E-02    0.6704627498E+00    0.8893913885E-03    0.2358754200E+00
    0.1000000000E+06    0.4405580276E+00    0.1148162268E-01    0.6593017677E+00    0.2067905697E-02    0.2336852853E+00
    0.3000000000E+06    0.4430627945E+00    0.6878376262E-02    0.6678848436E+00    0.1150030040E-02    0.2354689857E+00
    0.5000000000E+06    0.4434493725E+00    0.5421560235E-02    0.6705562795E+00    0.8800501894E-03    0.2358894657E+00
    0.7000000000E+06    0.4435782187E+00    0.4633512650E-02    0.6719862932E+00    0.7382509683E-03    0.2361003789E+00
    0.9000000000E+06    0.4436306993E+00    0.4119866139E-02    0.6729119024E+00    0.6475313224E-03    0.2362349471E+00
    0.1100000000E+07    0.4436522787E+00    0.3750516127E-02    0.6735741081E+00    0.5831795194E-03    0.2363317343E+00
    0.1300000000E+07    0.4436591543E+00    0.3468176725E-02    0.6740783197E+00    0.5345131406E-03    0.2364064923E+00
    0.1500000000E+07    0.4436583324E+00    0.3243122105E-02    0.6744789502E+00    0.4960634392E-03    0.2364670122E+00
    0.1700000000E+07    0.4436532436E+00    0.3058172544E-02    0.6748073141E+00    0.4647033877E-03    0.2365176557E+00
    0.1900000000E+07    0.4436457174E+00    0.2902608266E-02    0.6750828820E+00    0.4384989425E-03    0.2365610860E+00
    0.2100000000E+07    0.4436367918E+00    0.2769344420E-02    0.6753184837E+00    0.4161814523E-03    0.2365990377E+00
    0.2300000000E+07    0.4436270825E+00    0.2653483851E-02    0.6755229641E+00    0.3968797386E-03    0.2366326984E+00
    0.2500000000E+07    0.4436169673E+00    0.2551517603E-02    0.6757026462E+00    0.3799731937E-03    0.2366629141E+00
    0.2700000000E+07    0.4436066833E+00    0.2460856078E-02    0.6758621869E+00    0.3650061948E-03    0.2366903073E+00
    0.2900000000E+07    0.4435963817E+00    0.2379540416E-02    0.6760051023E+00    0.3516357207E-03    0.2367153483E+00
    0.3100000000E+07    0.4435861595E+00    0.2306057511E-02    0.6761341038E+00    0.3395979525E-03    0.2367384006E+00
    0.3300000000E+07    0.4435760784E+00    0.2239217344E-02    0.6762513209E+00    0.3286862305E-03    0.2367597507E+00
    0.3500000000E+07    0.4435661777E+00    0.2178069244E-02    0.6763584519E+00    0.3187360708E-03    0.2367796283E+00
    0.3700000000E+07    0.4435564807E+00    0.2121843256E-02    0.6764568711E+00    0.3096147159E-03    0.2367982200E+00
    0.3900000000E+07    0.4435470010E+00    0.2069908176E-02    0.6765477033E+00    0.3012136836E-03    0.2368156794E+00
    0.4100000000E+07    0.4435377448E+00    0.2021740927E-02    0.6766318798E+00    0.2934433480E-03    0.2368321346E+00
    0.4300000000E+07    0.4435287136E+00    0.1976903814E-02    0.6767101792E+00    0.2862289279E-03    0.2368476932E+00
    0.4500000000E+07    0.4435199060E+00    0.1935027375E-02    0.6767832578E+00    0.2795074714E-03    0.2368624467E+00
    0.4700000000E+07    0.4435113180E+00    0.1895797265E-02    0.6768516736E+00    0.2732255561E-03    0.2368764733E+00
    0.4900000000E+07    0.4435029445E+00    0.1858944101E-02    0.6769159046E+00    0.2673375128E-03    0.2368898404E+00
    0.1000000000E+07    0.4436440100E+00    0.3921667418E-02    0.6732676129E+00    0.6129045267E-03    0.2362868033E+00
    0.3000000000E+07    0.4435912562E+00    0.2341900687E-02    0.6760711976E+00    0.3454643017E-03    0.2367271035E+00
    0.5000000000E+07    0.4434988363E+00    0.1841334991E-02    0.6769465816E+00    0.2645286938E-03    0.2368962953E+00
    0.7000000000E+07    0.4434263058E+00    0.1571287470E-02    0.6774159023E+00    0.2218450801E-03    0.2370016595E+00
    0.9000000000E+07    0.4433679902E+00    0.1395636299E-02    0.6777199843E+00    0.1945085469E-03    0.2370782035E+00
    0.1100000000E+08    0.4433194786E+00    0.1269529142E-02    0.6779376895E+00    0.1751132938E-03    0.2371383132E+00
    0.1300000000E+08    0.4432780225E+00    0.1173249332E-02    0.6781035453E+00    0.1604467167E-03    0.2371877997E+00
    0.1500000000E+08    0.4432418583E+00    0.1096580936E-02    0.6782353883E+00    0.1488613878E-03    0.2372298544E+00
    0.1700000000E+08    0.4432098004E+00    0.1033627326E-02    0.6783434898E+00    0.1394144874E-03    0.2372664184E+00
    0.1900000000E+08    0.4431810177E+00    0.9807132087E-03    0.6784342393E+00    0.1315226228E-03    0.2372987601E+00
    0.2100000000E+08    0.4431549065E+00    0.9354118688E-03    0.6785118488E+00    0.1248030285E-03    0.2373277538E+00
    0.2300000000E+08    0.4431310148E+00    0.8960473426E-03    0.6785792232E+00    0.1189928382E-03    0.2373540277E+00
    0.2500000000E+08    0.4431089963E+00    0.8614196520E-03    0.6786384399E+00    0.1139047922E-03    0.2373780485E+00
    0.2700000000E+08    0.4430885791E+00    0.8306438093E-03    0.6786910291E+00    0.1094014198E-03    0.2374001721E+00
