  Pressure (Pa) 22mC5-400 (mol/kg) 2mC6-400 (mol/kg) 3mC6-400 (mol/kg) 33mC5-400 (mol/kg) 23mC5-400 (mol/kg)
    0.1000000000E+01    0.5280298816E-03    0.7917582316E-02    0.2103679739E-02    0.1933954285E-03    0.1854326188E-03
    0.3000000000E+01    0.1556580871E-02    0.2306551096E-01    0.6153220052E-02    0.5634125764E-03    0.5466423466E-03
    0.5000000000E+01    0.2550501670E-02    0.3735988127E-01    0.1000643412E-01    0.9125966656E-03    0.8956968827E-03
    0.7000000000E+01    0.3512053839E-02    0.5086900158E-01    0.1367866373E-01    0.1242615085E-02    0.1233389943E-02
    0.9000000000E+01    0.4443297540E-02    0.6365411168E-01    0.1718366000E-01    0.1554962657E-02    0.1560444564E-02
    0.1100000000E+02    0.5346113838E-02    0.7577027339E-01    0.2053378588E-01    0.1850983387E-02    0.1877520934E-02
    0.1300000000E+02    0.6222224078E-02    0.8726712977E-01    0.2374018839E-01    0.2131888993E-02    0.2185223187E-02
    0.1500000000E+02    0.7073206782E-02    0.9818955505E-01    0.2681294572E-01    0.2398774779E-02    0.2484105335E-02
    0.1700000000E+02    0.7900512426E-02    0.1085782131E+00    0.2976119339E-01    0.2652633268E-02    0.2774676452E-02
    0.1900000000E+02    0.8705476397E-02    0.1184700394E+00    0.3259323291E-01    0.2894365967E-02    0.3057405227E-02
    0.2100000000E+02    0.9489330406E-02    0.1278986579E+00    0.3531662566E-01    0.3124793548E-02    0.3332723957E-02
    0.2300000000E+02    0.1025321254E-01    0.1368947437E+00    0.3793827436E-01    0.3344664699E-02    0.3601032090E-02
    0.2500000000E+02    0.1099817619E-01    0.1454863387E+00    0.4046449387E-01    0.3554663832E-02    0.3862699338E-02
    0.2700000000E+02    0.1172519789E-01    0.1536991277E+00    0.4290107314E-01    0.3755417821E-02    0.4118068456E-02
    0.2900000000E+02    0.1243518441E-01    0.1615566805E+00    0.4525332933E-01    0.3947501915E-02    0.4367457701E-02
    0.3100000000E+02    0.1312897896E-01    0.1690806648E+00    0.4752615542E-01    0.4131444935E-02    0.4611163029E-02
    0.3300000000E+02    0.1380736679E-01    0.1762910338E+00    0.4972406214E-01    0.4307733850E-02    0.4849460056E-02
    0.3500000000E+02    0.1447108021E-01    0.1832061920E+00    0.5185121493E-01    0.4476817833E-02    0.5082605811E-02
    0.3700000000E+02    0.1512080305E-01    0.1898431425E+00    0.5391146679E-01    0.4639111847E-02    0.5310840318E-02
    0.3900000000E+02    0.1575717471E-01    0.1962176174E+00    0.5590838730E-01    0.4794999830E-02    0.5534388003E-02
    0.4100000000E+02    0.1638079380E-01    0.2023441941E+00    0.5784528855E-01    0.4944837540E-02    0.5753458973E-02
    0.4300000000E+02    0.1699222141E-01    0.2082363988E+00    0.5972524820E-01    0.5088955081E-02    0.5968250170E-02
    0.4500000000E+02    0.1759198406E-01    0.2139068000E+00    0.6155113011E-01    0.5227659172E-02    0.6178946405E-02
    0.4700000000E+02    0.1818057640E-01    0.2193670906E+00    0.6332560282E-01    0.5361235173E-02    0.6385721301E-02
    0.4900000000E+02    0.1875846365E-01    0.2246281635E+00    0.6505115613E-01    0.5489948908E-02    0.6588738153E-02
    0.1000000000E+02    0.4898147996E-02    0.6979258949E-01    0.1887735839E-01    0.1704935242E-02    0.1720191032E-02
    0.3000000000E+02    0.1278405531E-01    0.1653590835E+00    0.4639938072E-01    0.4040459693E-02    0.4490003174E-02
    0.5000000000E+02    0.1904353075E-01    0.2271871950E+00    0.6589632090E-01    0.5552560561E-02    0.6688885708E-02
    0.7000000000E+02    0.2427675625E-01    0.2700448406E+00    0.8072220377E-01    0.6601648868E-02    0.8527499483E-02
    0.9000000000E+02    0.2881027618E-01    0.3012160551E+00    0.9255849587E-01    0.7365476738E-02    0.1012046607E-01
    0.1100000000E+03    0.3283901184E-01    0.3247012573E+00    0.1023476560E+00    0.7941660923E-02    0.1153620872E-01
    0.1300000000E+03    0.3648759549E-01    0.3428761060E+00    0.1106623341E+00    0.8388169667E-02    0.1281847899E-01
    0.1500000000E+03    0.3984006108E-01    0.3572380065E+00    0.1178724622E+00    0.8741540841E-02    0.1399677768E-01
    0.1700000000E+03    0.4295551385E-01    0.3687762161E+00    0.1242288058E+00    0.9025913582E-02    0.1509185491E-01
    0.1900000000E+03    0.4587698131E-01    0.3781696470E+00    0.1299080883E+00    0.9257854936E-02    0.1611881684E-01
    0.2100000000E+03    0.4863669486E-01    0.3858991274E+00    0.1350389091E+00    0.9449099044E-02    0.1708897966E-01
    0.2300000000E+03    0.5125938754E-01    0.3923143324E+00    0.1397173971E+00    0.9608180186E-02    0.1801102718E-01
    0.2500000000E+03    0.5376443333E-01    0.3976753659E+00    0.1440170714E+00    0.9741447289E-02    0.1889176180E-01
    0.2700000000E+03    0.5616728056E-01    0.4021795123E+00    0.1479952765E+00    0.9853716601E-02    0.1973660771E-01
    0.2900000000E+03    0.5848043987E-01    0.4059789726E+00    0.1516975130E+00    0.9948704396E-02    0.2054995773E-01
    0.3100000000E+03    0.6071418190E-01    0.4091929352E+00    0.1551604305E+00    0.1002932145E-01    0.2133541822E-01
    0.3300000000E+03    0.6287704082E-01    0.4119159808E+00    0.1584139439E+00    0.1009787809E-01    0.2209598586E-01
    0.3500000000E+03    0.6497618461E-01    0.4142240553E+00    0.1614827615E+00    0.1015622992E-01    0.2283417766E-01
    0.3700000000E+03    0.6701769218E-01    0.4161787919E+00    0.1643875087E+00    0.1020588324E-01    0.2355212823E-01
    0.3900000000E+03    0.6900676384E-01    0.4178306902E+00    0.1671455677E+00    0.1024807263E-01    0.2425166372E-01
    0.4100000000E+03    0.7094788351E-01    0.4192214879E+00    0.1697717146E+00    0.1028381880E-01    0.2493435869E-01
    0.4300000000E+03    0.7284494512E-01    0.4203859556E+00    0.1722786093E+00    0.1031397239E-01    0.2560158056E-01
    0.4500000000E+03    0.7470135251E-01    0.4213532698E+00    0.1746771765E+00    0.1033924746E-01    0.2625452467E-01
    0.4700000000E+03    0.7652009891E-01    0.4221480766E+00    0.1769769059E+00    0.1036024742E-01    0.2689424215E-01
    0.4900000000E+03    0.7830383106E-01    0.4227913223E+00    0.1791860903E+00    0.1037748536E-01    0.2752166250E-01
    0.1000000000E+03    0.3087874785E-01    0.3137441994E+00    0.9766704440E-01    0.7672749027E-02    0.1084733306E-01
    0.3000000000E+03    0.5960666884E-01    0.4076527327E+00    0.1534568794E+00    0.9990652739E-02    0.2094597430E-01
    0.5000000000E+03    0.7918331216E-01    0.4230618084E+00    0.1802590403E+00    0.1038483321E-01    0.2783102300E-01
    0.7000000000E+03    0.9538963686E-01    0.4237341217E+00    0.1983457434E+00    0.1041326472E-01    0.3353240627E-01
    0.9000000000E+03    0.1097097244E+00    0.4197811733E+00    0.2121770238E+00    0.1032418832E-01    0.3857131775E-01
    0.1100000000E+04    0.1227636957E+00    0.4140896597E+00    0.2234589291E+00    0.1018906954E-01    0.4316554749E-01
    0.1300000000E+04    0.1348754817E+00    0.4077311306E+00    0.2330291683E+00    0.1003478289E-01    0.4742886168E-01
    0.1500000000E+04    0.1462380644E+00    0.4011663197E+00    0.2413636674E+00    0.9873108877E-02    0.5142903412E-01
    0.1700000000E+04    0.1569769636E+00    0.3946112266E+00    0.2487600947E+00    0.9709730814E-02    0.5521014363E-01
    0.1900000000E+04    0.1671791885E+00    0.3881717835E+00    0.2554177659E+00    0.9547559437E-02    0.5880274289E-01
    0.2100000000E+04    0.1769080873E+00    0.3819002750E+00    0.2614771070E+00    0.9388133966E-02    0.6222907401E-01
    0.2300000000E+04    0.1862116443E+00    0.3758213098E+00    0.2670410309E+00    0.9232271843E-02    0.6550598310E-01
    0.2500000000E+04    0.1951274295E+00    0.3699446525E+00    0.2721873656E+00    0.9080392741E-02    0.6864665862E-01
    0.2700000000E+04    0.2036857050E+00    0.3642719163E+00    0.2769764957E+00    0.8932689552E-02    0.7166172266E-01
    0.2900000000E+04    0.2119114561E+00    0.3588002028E+00    0.2814562802E+00    0.8789222745E-02    0.7455994437E-01
    0.3100000000E+04    0.2198257649E+00    0.3535241458E+00    0.2856653385E+00    0.8649974362E-02    0.7734872236E-01
    0.3300000000E+04    0.2274467637E+00    0.3484370860E+00    0.2896353169E+00    0.8514879804E-02    0.8003441975E-01
    0.3500000000E+04    0.2347903139E+00    0.3435317568E+00    0.2933924944E+00    0.8383846989E-02    0.8262260237E-01
    0.3700000000E+04    0.2418704968E+00    0.3388006874E+00    0.2969589483E+00    0.8256768107E-02    0.8511821141E-01
    0.3900000000E+04    0.2486999762E+00    0.3342364398E+00    0.3003534163E+00    0.8133526926E-02    0.8752569054E-01
    0.4100000000E+04    0.2552902684E+00    0.3298317454E+00    0.3035919468E+00    0.8014003383E-02    0.8984908096E-01
    0.4300000000E+04    0.2616519474E+00    0.3255795811E+00    0.3066883971E+00    0.7898076473E-02    0.9209209326E-01
    0.4500000000E+04    0.2677948015E+00    0.3214732088E+00    0.3096548199E+00    0.7785626073E-02    0.9425816240E-01
    0.4700000000E+04    0.2737279540E+00    0.3175061919E+00    0.3125017679E+00    0.7676534076E-02    0.9635049022E-01
    0.4900000000E+04    0.2794599576E+00    0.3136723985E+00    0.3152385359E+00    0.7570685093E-02    0.9837207858E-01
    0.1000000000E+04    0.1163705089E+00    0.4170641876E+00    0.2180724126E+00    0.1026017261E-01    0.4091542529E-01
    0.3000000000E+04    0.2159063474E+00    0.3561381129E+00    0.2835925302E+00    0.8719074465E-02    0.7596759504E-01
    0.5000000000E+04    0.2822530641E+00    0.3118036264E+00    0.3165682117E+00    0.7518941520E-02    0.9935723541E-01
    0.7000000000E+04    0.3293060883E+00    0.2801536796E+00    0.3389601860E+00    0.6628870343E-02    0.1159613425E+00
    0.9000000000E+04    0.3633421815E+00    0.2567568054E+00    0.3559203269E+00    0.5956725775E-02    0.1279840123E+00
    0.1100000000E+05    0.3884228467E+00    0.2388948656E+00    0.3695469618E+00    0.5438249513E-02    0.1368526471E+00
    0.1300000000E+05    0.4072700419E+00    0.2248537561E+00    0.3809127370E+00    0.5029484290E-02    0.1435245443E+00
    0.1500000000E+05    0.4217130690E+00    0.2135242772E+00    0.3906426290E+00    0.4700371493E-02    0.1486434365E+00
    0.1700000000E+05    0.4329895484E+00    0.2041710546E+00    0.3991336388E+00    0.4430193104E-02    0.1526450677E+00
    0.1900000000E+05    0.4419471744E+00    0.1962945496E+00    0.4066540104E+00    0.4204474237E-02    0.1558280372E+00
    0.2100000000E+05    0.4491757285E+00    0.1895471681E+00    0.4133936131E+00    0.4012933054E-02    0.1584001886E+00
    0.2300000000E+05    0.4550926060E+00    0.1836813801E+00    0.4194918152E+00    0.3848135834E-02    0.1605086796E+00
    0.2500000000E+05    0.4599983330E+00    0.1785170257E+00    0.4250539511E+00    0.3704612117E-02    0.1622595103E+00
    0.2700000000E+05    0.4641129378E+00    0.1739202917E+00    0.4301615711E+00    0.3578266894E-02    0.1637303212E+00
    0.2900000000E+05    0.4676000892E+00    0.1697899140E+00    0.4348790971E+00    0.3465984890E-02    0.1649788908E+00
    0.3100000000E+05    0.4705833580E+00    0.1660479349E+00    0.4392583001E+00    0.3365360149E-02    0.1660488613E+00
    0.3300000000E+05    0.4731573407E+00    0.1626333914E+00    0.4433414036E+00    0.3274508335E-02    0.1669736567E+00
    0.3500000000E+05    0.4753953888E+00    0.1594979222E+00    0.4471632894E+00    0.3191934423E-02    0.1677792062E+00
    0.3700000000E+05    0.4773550594E+00    0.1566026586E+00    0.4507531020E+00    0.3116438011E-02    0.1684858650E+00
    0.3900000000E+05    0.4790820145E+00    0.1539159846E+00    0.4541354367E+00    0.3047044588E-02    0.1691097892E+00
    0.4100000000E+05    0.4806128494E+00    0.1514119016E+00    0.4573312363E+00    0.2982954940E-02    0.1696639332E+00
    0.4300000000E+05    0.4819771704E+00    0.1490688145E+00    0.4603584766E+00    0.2923507440E-02    0.1701587822E+00
    0.4500000000E+05    0.4831991388E+00    0.1468686203E+00    0.4632326992E+00    0.2868149593E-02    0.1706028977E+00
    0.4700000000E+05    0.4842986336E+00    0.1447960146E+00    0.4659674296E+00    0.2816416311E-02    0.1710033267E+00
    0.4900000000E+05    0.4852921334E+00    0.1428379577E+00    0.4685745094E+00    0.2767913167E-02    0.1713659142E+00
    0.1000000000E+05    0.3768065465E+00    0.2472588732E+00    0.3630688009E+00    0.5681417435E-02    0.1327438782E+00
    0.3000000000E+05    0.4691482215E+00    0.1678745242E+00    0.4371081556E+00    0.3414343589E-02    0.1655339091E+00
    0.5000000000E+05    0.4857535252E+00    0.1418983253E+00    0.4698334871E+00    0.2744765686E-02    0.1715345753E+00
    0.7000000000E+05    0.4917994124E+00    0.1270803253E+00    0.4902928043E+00    0.2390626892E-02    0.1737675415E+00
    0.9000000000E+05    0.4947766453E+00    0.1169008492E+00    0.5048861548E+00    0.2158744529E-02    0.1748944474E+00
    0.1100000000E+06    0.4965052169E+00    0.1092423973E+00    0.5160739264E+00    0.1989905162E-02    0.1755661900E+00
    0.1300000000E+06    0.4976179162E+00    0.1031600338E+00    0.5250546039E+00    0.1858975221E-02    0.1760106886E+00
    0.1500000000E+06    0.4983864855E+00    0.9815160615E-01    0.5324984217E+00    0.1753123065E-02    0.1763265676E+00
    0.1700000000E+06    0.4989451777E+00    0.9391903809E-01    0.5388162642E+00    0.1664971901E-02    0.1765629461E+00
    0.1900000000E+06    0.4993673047E+00    0.9027130634E-01    0.5442772039E+00    0.1589915361E-02    0.1767468733E+00
    0.2100000000E+06    0.4996960268E+00    0.8707890129E-01    0.5490664563E+00    0.1524896515E-02    0.1768944137E+00
    0.2300000000E+06    0.4999582872E+00    0.8425013830E-01    0.5533165988E+00    0.1467789706E-02    0.1770156861E+00
    0.2500000000E+06    0.5001717142E+00    0.8171784540E-01    0.5571255699E+00    0.1417061177E-02    0.1771173724E+00
    0.2700000000E+06    0.5003482936E+00    0.7943141638E-01    0.5605676244E+00    0.1371570540E-02    0.1772040586E+00
    0.2900000000E+06    0.5004964408E+00    0.7735183115E-01    0.5637003013E+00    0.1330448551E-02    0.1772789957E+00
    0.3100000000E+06    0.5006222273E+00    0.7544840822E-01    0.5665690225E+00    0.1293018628E-02    0.1773445518E+00
    0.3300000000E+06    0.5007301365E+00    0.7369661484E-01    0.5692102227E+00    0.1258744648E-02    0.1774024932E+00
    0.3500000000E+06    0.5008235467E+00    0.7207654769E-01    0.5716535383E+00    0.1227195177E-02    0.1774541639E+00
    0.3700000000E+06    0.5009050493E+00    0.7057185267E-01    0.5739233730E+00    0.1198018315E-02    0.1775006050E+00
    0.3900000000E+06    0.5009766629E+00    0.6916894034E-01    0.5760400412E+00    0.1170923597E-02    0.1775426361E+00
    0.4100000000E+06    0.5010399820E+00    0.6785640521E-01    0.5780206184E+00    0.1145668734E-02    0.1775809109E+00
    0.4300000000E+06    0.5010962819E+00    0.6662458874E-01    0.5798795828E+00    0.1122049702E-02    0.1776159577E+00
    0.4500000000E+06    0.5011465940E+00    0.6546524565E-01    0.5816293078E+00    0.1099893238E-02    0.1776482081E+00
    0.4700000000E+06    0.5011917609E+00    0.6437128548E-01    0.5832804431E+00    0.1079051068E-02    0.1776780184E+00
    0.4900000000E+06    0.5012324772E+00    0.6333657028E-01    0.5848422156E+00    0.1059395420E-02    0.1777056852E+00
    0.1000000000E+06    0.4957444156E+00    0.1128305012E+00    0.5108134860E+00    0.2068436730E-02    0.1752683042E+00
    0.3000000000E+06    0.5005618184E+00    0.7637975641E-01    0.5651651979E+00    0.1311308399E-02    0.1773128244E+00
    0.5000000000E+06    0.5012513508E+00    0.6283973172E-01    0.5855921445E+00    0.1049977330E-02    0.1777187944E+00
    0.7000000000E+06    0.5014948648E+00    0.5501590923E-01    0.5974009740E+00    0.9033786675E-03    0.1779122878E+00
    0.9000000000E+06    0.5016082419E+00    0.4970977648E-01    0.6054071168E+00    0.8058057253E-03    0.1780327966E+00
    0.1100000000E+07    0.5016681546E+00    0.4578773801E-01    0.6113223819E+00    0.7346725607E-03    0.1781182965E+00
    0.1300000000E+07    0.5017017488E+00    0.4272712955E-01    0.6159365855E+00    0.6797651512E-03    0.1781837736E+00
    0.1500000000E+07    0.5017208502E+00    0.4024752288E-01    0.6196735280E+00    0.6356805014E-03    0.1782364771E+00
    0.1700000000E+07    0.5017313442E+00    0.3818259943E-01    0.6227845275E+00    0.5992498613E-03    0.1782804017E+00
    0.1900000000E+07    0.5017364450E+00    0.3642638911E-01    0.6254296780E+00    0.5684728658E-03    0.1783179586E+00
    0.2100000000E+07    0.5017380329E+00    0.3490762739E-01    0.6277166170E+00    0.5420148491E-03    0.1783507045E+00
    0.2300000000E+07    0.5017372672E+00    0.3357632212E-01    0.6297208343E+00    0.5189459567E-03    0.1783796979E+00
    0.2500000000E+07    0.5017348928E+00    0.3239619195E-01    0.6314971031E+00    0.4985954528E-03    0.1784056884E+00
    0.2700000000E+07    0.5017314045E+00    0.3134015973E-01    0.6330862922E+00    0.4804654897E-03    0.1784292253E+00
    0.2900000000E+07    0.5017271401E+00    0.3038753891E-01    0.6345196184E+00    0.4641776004E-03    0.1784507220E+00
    0.3100000000E+07    0.5017223354E+00    0.2952220753E-01    0.6358214051E+00    0.4494381644E-03    0.1784704969E+00
    0.3300000000E+07    0.5017171577E+00    0.2873138393E-01    0.6370109329E+00    0.4360153674E-03    0.1784888005E+00
    0.3500000000E+07    0.5017117279E+00    0.2800478246E-01    0.6381037146E+00    0.4237233858E-03    0.1785058328E+00
    0.3700000000E+07    0.5017061342E+00    0.2733401692E-01    0.6391123960E+00    0.4124112591E-03    0.1785217562E+00
    0.3900000000E+07    0.5017004417E+00    0.2671217011E-01    0.6400474061E+00    0.4019548908E-03    0.1785367044E+00
    0.4100000000E+07    0.5016946986E+00    0.2613347717E-01    0.6409174354E+00    0.3922511868E-03    0.1785507881E+00
    0.4300000000E+07    0.5016889408E+00    0.2559308887E-01    0.6417297930E+00    0.3832136872E-03    0.1785641008E+00
    0.4500000000E+07    0.5016831955E+00    0.2508689188E-01    0.6424906780E+00    0.3747692610E-03    0.1785767214E+00
    0.4700000000E+07    0.5016774826E+00    0.2461137048E-01    0.6432053882E+00    0.3668555706E-03    0.1785887177E+00
    0.4900000000E+07    0.5016718174E+00    0.2416349887E-01    0.6438784825E+00    0.3594191033E-03    0.1786001478E+00
    0.1000000000E+07    0.5016426345E+00    0.4761650051E-01    0.6085645265E+00    0.7677341175E-03    0.1780787156E+00
    0.3000000000E+07    0.5017247935E+00    0.2994482782E-01    0.6351856481E+00    0.4566300496E-03    0.1784608077E+00
    0.5000000000E+07    0.5016690062E+00    0.2394909889E-01    0.6442006785E+00    0.3558651309E-03    0.1786056666E+00
    0.7000000000E+07    0.5016167579E+00    0.2062844113E-01    0.6491892043E+00    0.3013321696E-03    0.1786956997E+00
    0.9000000000E+07    0.5015722916E+00    0.1843501939E-01    0.6524825185E+00    0.2658745690E-03    0.1787610651E+00
    0.1100000000E+08    0.5015342438E+00    0.1684363150E-01    0.6548709748E+00    0.2404566791E-03    0.1788123833E+00
    0.1300000000E+08    0.5015011774E+00    0.1561914100E-01    0.6567082152E+00    0.2210884676E-03    0.1788546274E+00
    0.1500000000E+08    0.5014720065E+00    0.1463811705E-01    0.6581797984E+00    0.2056977710E-03    0.1788905257E+00
    0.1700000000E+08    0.5014459402E+00    0.1382860200E-01    0.6593938646E+00    0.1930871690E-03    0.1789217366E+00
    0.1900000000E+08    0.5014223962E+00    0.1314538664E-01    0.6604183369E+00    0.1825099789E-03    0.1789493433E+00
    0.2100000000E+08    0.5014009375E+00    0.1255842328E-01    0.6612983487E+00    0.1734731651E-03    0.1789740925E+00
    0.2300000000E+08    0.5013812294E+00    0.1204684439E-01    0.6620652381E+00    0.1656363044E-03    0.1789965204E+00
    0.2500000000E+08    0.5013630109E+00    0.1159563732E-01    0.6627415465E+00    0.1587557607E-03    0.1790170254E+00
    0.2700000000E+08    0.5013460744E+00    0.1119368385E-01    0.6633439653E+00    0.1526519521E-03    0.1790359114E+00
