  Pressure (Pa) 22mC5-400 (mol/kg) 2mC6-400 (mol/kg) 3mC6-400 (mol/kg) 33mC5-400 (mol/kg) 23mC5-400 (mol/kg)
    0.1000000000E+01    0.5308623287E-03    0.1596895554E-02    0.2119216943E-02    0.4550685820E-03    0.5592806872E-03
    0.3000000000E+01    0.1581247760E-02    0.4728576317E-02    0.6287502939E-02    0.1347535945E-02    0.1665903733E-02
    0.5000000000E+01    0.2616848127E-02    0.7779868514E-02    0.1036497399E-01    0.2217133270E-02    0.2756960504E-02
    0.7000000000E+01    0.3638051443E-02    0.1075356631E-01    0.1435475600E-01    0.3064655160E-02    0.3832859460E-02
    0.9000000000E+01    0.4645231829E-02    0.1365233790E-01    0.1825983104E-01    0.3890860383E-02    0.4893994439E-02
    0.1100000000E+02    0.5638750134E-02    0.1647873249E-01    0.2208304550E-01    0.4696473863E-02    0.5940745305E-02
    0.1300000000E+02    0.6618954519E-02    0.1923518688E-01    0.2582711783E-01    0.5482188542E-02    0.6973478572E-02
    0.1500000000E+02    0.7586181016E-02    0.2192403152E-01    0.2949464564E-01    0.6248667116E-02    0.7992547983E-02
    0.1700000000E+02    0.8540754057E-02    0.2454749628E-01    0.3308811239E-01    0.6996543668E-02    0.8998295069E-02
    0.1900000000E+02    0.9482986968E-02    0.2710771576E-01    0.3660989360E-01    0.7726425185E-02    0.9991049677E-02
    0.2100000000E+02    0.1041318245E-01    0.2960673433E-01    0.4006226271E-01    0.8438892989E-02    0.1097113046E-01
    0.2300000000E+02    0.1133163302E-01    0.3204651084E-01    0.4344739652E-01    0.9134504074E-02    0.1193884537E-01
    0.2500000000E+02    0.1223862145E-01    0.3442892298E-01    0.4676738030E-01    0.9813792357E-02    0.1289449207E-01
    0.2700000000E+02    0.1313442116E-01    0.3675577146E-01    0.5002421256E-01    0.1047726986E-01    0.1383835842E-01
    0.2900000000E+02    0.1401929662E-01    0.3902878390E-01    0.5321980957E-01    0.1112542781E-01    0.1477072282E-01
    0.3100000000E+02    0.1489350370E-01    0.4124961846E-01    0.5635600956E-01    0.1175873770E-01    0.1569185463E-01
    0.3300000000E+02    0.1575729003E-01    0.4341986730E-01    0.5943457666E-01    0.1237765222E-01    0.1660201456E-01
    0.3500000000E+02    0.1661089532E-01    0.4554105980E-01    0.6245720462E-01    0.1298260623E-01    0.1750145494E-01
    0.3700000000E+02    0.1745455171E-01    0.4761466562E-01    0.6542552035E-01    0.1357401761E-01    0.1839042017E-01
    0.3900000000E+02    0.1828848401E-01    0.4964209755E-01    0.6834108712E-01    0.1415228805E-01    0.1926914691E-01
    0.4100000000E+02    0.1911291004E-01    0.5162471424E-01    0.7120540776E-01    0.1471780386E-01    0.2013786448E-01
    0.4300000000E+02    0.1992804090E-01    0.5356382276E-01    0.7401992746E-01    0.1527093667E-01    0.2099679509E-01
    0.4500000000E+02    0.2073408118E-01    0.5546068096E-01    0.7678603665E-01    0.1581204413E-01    0.2184615417E-01
    0.4700000000E+02    0.2153122928E-01    0.5731649983E-01    0.7950507346E-01    0.1634147054E-01    0.2268615055E-01
    0.4900000000E+02    0.2231967760E-01    0.5913244556E-01    0.8217832627E-01    0.1685954749E-01    0.2351698679E-01
    0.1000000000E+02    0.5143676691E-02    0.1507442746E-01    0.2018149802E-01    0.4296197053E-02    0.5419144673E-02
    0.3000000000E+02    0.1445771804E-01    0.4014562240E-01    0.5479522224E-01    0.1144391004E-01    0.1523267631E-01
    0.5000000000E+02    0.2271069789E-01    0.6002581872E-01    0.8349817325E-01    0.1711443019E-01    0.2392903149E-01
    0.7000000000E+02    0.3011697134E-01    0.7605252601E-01    0.1077703266E+00    0.2168805253E-01    0.3173387307E-01
    0.9000000000E+02    0.3683488765E-01    0.8914750063E-01    0.1286293127E+00    0.2542685361E-01    0.3881390835E-01
    0.1100000000E+03    0.4298408988E-01    0.9996585418E-01    0.1467986765E+00    0.2851710133E-01    0.4529509878E-01
    0.1300000000E+03    0.4865676060E-01    0.1089853765E+00    0.1628075031E+00    0.3109465544E-01    0.5127449753E-01
    0.1500000000E+03    0.5392515076E-01    0.1165622854E+00    0.1770520230E+00    0.3326081817E-01    0.5682817474E-01
    0.1700000000E+03    0.5884675168E-01    0.1229672485E+00    0.1898351316E+00    0.3509257470E-01    0.6201666201E-01
    0.1900000000E+03    0.6346792934E-01    0.1284093596E+00    0.2013925515E+00    0.3664940848E-01    0.6688877825E-01
    0.2100000000E+03    0.6782653026E-01    0.1330525141E+00    0.2119106318E+00    0.3797795552E-01    0.7148437293E-01
    0.2300000000E+03    0.7195378376E-01    0.1370268473E+00    0.2215387513E+00    0.3911525532E-01    0.7583632865E-01
    0.2500000000E+03    0.7587571332E-01    0.1404368858E+00    0.2303981457E+00    0.4009106755E-01    0.7997204705E-01
    0.2700000000E+03    0.7961419914E-01    0.1433674603E+00    0.2385883093E+00    0.4092955231E-01    0.8391456741E-01
    0.2900000000E+03    0.8318778885E-01    0.1458880630E+00    0.2461917166E+00    0.4165050861E-01    0.8768342012E-01
    0.3100000000E+03    0.8661232345E-01    0.1480561059E+00    0.2532773578E+00    0.4227030026E-01    0.9129528580E-01
    0.3300000000E+03    0.8990142627E-01    0.1499193888E+00    0.2599034231E+00    0.4280255734E-01    0.9476451001E-01
    0.3500000000E+03    0.9306688854E-01    0.1515179908E+00    0.2661193664E+00    0.4325871375E-01    0.9810350920E-01
    0.3700000000E+03    0.9611897656E-01    0.1528857365E+00    0.2719675098E+00    0.4364842395E-01    0.1013230942E+00
    0.3900000000E+03    0.9906667837E-01    0.1540513429E+00    0.2774843050E+00    0.4397988898E-01    0.1044327297E+00
    0.4100000000E+03    0.1019179036E+00    0.1550393257E+00    0.2827013333E+00    0.4426011412E-01    0.1074407452E+00
    0.4300000000E+03    0.1046796466E+00    0.1558707217E+00    0.2876461073E+00    0.4449511411E-01    0.1103545059E+00
    0.4500000000E+03    0.1073581200E+00    0.1565636677E+00    0.2923427171E+00    0.4469007797E-01    0.1131805545E+00
    0.4700000000E+03    0.1099588663E+00    0.1571338698E+00    0.2968123566E+00    0.4484950232E-01    0.1159247274E+00
    0.4900000000E+03    0.1124868493E+00    0.1575949855E+00    0.3010737545E+00    0.4497729996E-01    0.1185922519E+00
    0.1000000000E+03    0.3997427533E-01    0.9480801185E-01    0.1380134303E+00    0.2704359423E-01    0.4212272351E-01
    0.3000000000E+03    0.8491778956E-01    0.1470129662E+00    0.2497953947E+00    0.4197214104E-01    0.8950803023E-01
    0.5000000000E+03    0.1137249669E+00    0.1577884218E+00    0.3031316303E+00    0.4503042414E-01    0.1198987585E+00
    0.7000000000E+03    0.1355464940E+00    0.1581457516E+00    0.3365500484E+00    0.4506878097E-01    0.1429307908E+00
    0.9000000000E+03    0.1532692348E+00    0.1550575065E+00    0.3603541962E+00    0.4409217352E-01    0.1616442985E+00
    0.1100000000E+04    0.1681857494E+00    0.1507747744E+00    0.3786114846E+00    0.4275531905E-01    0.1774005303E+00
    0.1300000000E+04    0.1810064336E+00    0.1461654725E+00    0.3932996970E+00    0.4131465097E-01    0.1909476586E+00
    0.1500000000E+04    0.1921779142E+00    0.1415945252E+00    0.4055161610E+00    0.3988033352E-01    0.2027560860E+00
    0.1700000000E+04    0.2020079560E+00    0.1372180204E+00    0.4159279693E+00    0.3850098913E-01    0.2131499879E+00
    0.1900000000E+04    0.2107225181E+00    0.1330978332E+00    0.4249688123E+00    0.3719698827E-01    0.2223673974E+00
    0.2100000000E+04    0.2184950016E+00    0.1292512880E+00    0.4329354964E+00    0.3597503177E-01    0.2305910045E+00
    0.2300000000E+04    0.2254627018E+00    0.1256743463E+00    0.4400395497E+00    0.3483505596E-01    0.2379654791E+00
    0.2500000000E+04    0.2317368035E+00    0.1223530062E+00    0.4464367478E+00    0.3377368871E-01    0.2446079947E+00
    0.2700000000E+04    0.2374088567E+00    0.1192690925E+00    0.4522449532E+00    0.3278604470E-01    0.2506150471E+00
    0.2900000000E+04    0.2425552045E+00    0.1164032359E+00    0.4575553879E+00    0.3186667705E-01    0.2560671150E+00
    0.3100000000E+04    0.2472401428E+00    0.1137363934E+00    0.4624400294E+00    0.3101008298E-01    0.2610319876E+00
    0.3300000000E+04    0.2515182580E+00    0.1112505911E+00    0.4669566204E+00    0.3021096661E-01    0.2655672253E+00
    0.3500000000E+04    0.2554362045E+00    0.1089292464E+00    0.4711521566E+00    0.2946436698E-01    0.2697220311E+00
    0.3700000000E+04    0.2590340861E+00    0.1067572644E+00    0.4750653738E+00    0.2876571089E-01    0.2735387056E+00
    0.3900000000E+04    0.2623465495E+00    0.1047210139E+00    0.4787285578E+00    0.2811082381E-01    0.2770537985E+00
    0.4100000000E+04    0.2654036619E+00    0.1028082432E+00    0.4821688881E+00    0.2749591816E-01    0.2802990327E+00
    0.4300000000E+04    0.2682316234E+00    0.1010079685E+00    0.4854094500E+00    0.2691756987E-01    0.2833020545E+00
    0.4500000000E+04    0.2708533501E+00    0.9931035455E-01    0.4884700090E+00    0.2637268981E-01    0.2860870483E+00
    0.4700000000E+04    0.2732889564E+00    0.9770659557E-01    0.4913676123E+00    0.2585849357E-01    0.2886752445E+00
    0.4900000000E+04    0.2755561559E+00    0.9618880429E-01    0.4941170595E+00    0.2537247186E-01    0.2910853419E+00
    0.1000000000E+04    0.1610254307E+00    0.1529937448E+00    0.3700236537E+00    0.4344769250E-01    0.1698364251E+00
    0.3000000000E+04    0.2449517337E+00    0.1150460915E+00    0.4600470370E+00    0.3143087114E-01    0.2586066377E+00
    0.5000000000E+04    0.2766315656E+00    0.9545990744E-01    0.4954403288E+00    0.2513931058E-01    0.2922288426E+00
    0.7000000000E+04    0.2922668132E+00    0.8402283529E-01    0.5165522257E+00    0.2151224448E-01    0.3088833316E+00
    0.9000000000E+04    0.3012774648E+00    0.7635527605E-01    0.5311800202E+00    0.1913194953E-01    0.3185192253E+00
    0.1100000000E+05    0.3070315160E+00    0.7073787441E-01    0.5421619539E+00    0.1742635934E-01    0.3246982980E+00
    0.1300000000E+05    0.3109804233E+00    0.6637396436E-01    0.5508348071E+00    0.1612836095E-01    0.3289574685E+00
    0.1500000000E+05    0.3138378175E+00    0.6284290925E-01    0.5579283377E+00    0.1509723227E-01    0.3320533610E+00
    0.1700000000E+05    0.3159905249E+00    0.5989986615E-01    0.5638816161E+00    0.1425166410E-01    0.3343966476E+00
    0.1900000000E+05    0.3176645119E+00    0.5739139460E-01    0.5689778071E+00    0.1354120747E-01    0.3362275492E+00
    0.2100000000E+05    0.3189998005E+00    0.5521567455E-01    0.5734093249E+00    0.1293275794E-01    0.3376951263E+00
    0.2300000000E+05    0.3200873894E+00    0.5330200985E-01    0.5773123685E+00    0.1240359479E-01    0.3388963894E+00
    0.2500000000E+05    0.3209887837E+00    0.5159948552E-01    0.5807865667E+00    0.1193754173E-01    0.3398970011E+00
    0.2700000000E+05    0.3217469406E+00    0.5007031355E-01    0.5839067949E+00    0.1152272634E-01    0.3407428903E+00
    0.2900000000E+05    0.3223927104E+00    0.4868573564E-01    0.5867306143E+00    0.1115020929E-01    0.3414670908E+00
    0.3100000000E+05    0.3229487848E+00    0.4742339570E-01    0.5893031372E+00    0.1081311160E-01    0.3420939371E+00
    0.3300000000E+05    0.3234322048E+00    0.4626559574E-01    0.5916603106E+00    0.1050603966E-01    0.3426417319E+00
    0.3500000000E+05    0.3238560017E+00    0.4519810313E-01    0.5938311954E+00    0.1022469508E-01    0.3431244938E+00
    0.3700000000E+05    0.3242303026E+00    0.4420931378E-01    0.5958395857E+00    0.9965603097E-02    0.3435531335E+00
    0.3900000000E+05    0.3245630897E+00    0.4328965151E-01    0.5977051839E+00    0.9725919140E-02    0.3439362653E+00
    0.4100000000E+05    0.3248607360E+00    0.4243112843E-01    0.5994444684E+00    0.9503288320E-02    0.3442807774E+00
    0.4300000000E+05    0.3251283880E+00    0.4162701736E-01    0.6010713464E+00    0.9295741497E-02    0.3445922418E+00
    0.4500000000E+05    0.3253702453E+00    0.4087160385E-01    0.6025976505E+00    0.9101617186E-02    0.3448752122E+00
    0.4700000000E+05    0.3255897669E+00    0.4015999586E-01    0.6040335232E+00    0.8919502017E-02    0.3451334461E+00
    0.4900000000E+05    0.3257898268E+00    0.3948797571E-01    0.6053877168E+00    0.8748184744E-02    0.3453700704E+00
    0.1000000000E+05    0.3044457419E+00    0.7335265025E-01    0.5370230306E+00    0.1821571579E-01    0.3219182632E+00
    0.3000000000E+05    0.3226807845E+00    0.4804048514E-01    0.5880458569E+00    0.1097759966E-01    0.3417914218E+00
    0.5000000000E+05    0.3258833264E+00    0.3916564829E-01    0.6060365983E+00    0.8666243065E-02    0.3454811154E+00
    0.7000000000E+05    0.3271517295E+00    0.3411862740E-01    0.6161361597E+00    0.7402303058E-02    0.3470267915E+00
    0.9000000000E+05    0.3278155704E+00    0.3072437185E-01    0.6228559108E+00    0.6572187828E-02    0.3478830966E+00
    0.1100000000E+06    0.3282168636E+00    0.2822942955E-01    0.6277536619E+00    0.5972141242E-02    0.3484314473E+00
    0.1300000000E+06    0.3284818357E+00    0.2629047636E-01    0.6315341590E+00    0.5511765164E-02    0.3488152987E+00
    0.1500000000E+06    0.3286675229E+00    0.2472469386E-01    0.6345699803E+00    0.5143834497E-02    0.3491007073E+00
    0.1700000000E+06    0.3288033195E+00    0.2342424447E-01    0.6370794643E+00    0.4840899666E-02    0.3493223664E+00
    0.1900000000E+06    0.3289058496E+00    0.2232070910E-01    0.6392003376E+00    0.4585750294E-02    0.3495002729E+00
    0.2100000000E+06    0.3289851896E+00    0.2136823380E-01    0.6410244305E+00    0.4366965681E-02    0.3496467809E+00
    0.2300000000E+06    0.3290477856E+00    0.2053474448E-01    0.6426156835E+00    0.4176624542E-02    0.3497699459E+00
    0.2500000000E+06    0.3290979420E+00    0.1979702125E-01    0.6440201966E+00    0.4009034417E-02    0.3498752512E+00
    0.2700000000E+06    0.3291386364E+00    0.1913777241E-01    0.6452721737E+00    0.3859983726E-02    0.3499665640E+00
    0.2900000000E+06    0.3291719897E+00    0.1854381274E-01    0.6463976085E+00    0.3726279778E-02    0.3500466923E+00
    0.3100000000E+06    0.3291995508E+00    0.1800488419E-01    0.6474166625E+00    0.3605451762E-02    0.3501177271E+00
    0.3300000000E+06    0.3292224750E+00    0.1751286680E-01    0.6483452500E+00    0.3495553269E-02    0.3501812585E+00
    0.3500000000E+06    0.3292416401E+00    0.1706123565E-01    0.6491961266E+00    0.3395027143E-02    0.3502385189E+00
    0.3700000000E+06    0.3292577238E+00    0.1664467778E-01    0.6499796534E+00    0.3302610653E-02    0.3502904786E+00
    0.3900000000E+06    0.3292712571E+00    0.1625881622E-01    0.6507043476E+00    0.3217267476E-02    0.3503379128E+00
    0.4100000000E+06    0.3292826611E+00    0.1590000732E-01    0.6513772846E+00    0.3138137979E-02    0.3503814486E+00
    0.4300000000E+06    0.3292922737E+00    0.1556518937E-01    0.6520043984E+00    0.3064502235E-02    0.3504215993E+00
    0.4500000000E+06    0.3293003687E+00    0.1525176786E-01    0.6525907082E+00    0.2995752085E-02    0.3504587893E+00
    0.4700000000E+06    0.3293071699E+00    0.1495752731E-01    0.6531404928E+00    0.2931369754E-02    0.3504933728E+00
    0.4900000000E+06    0.3293128622E+00    0.1468056264E-01    0.6536574255E+00    0.2870911263E-02    0.3505256477E+00
    0.1000000000E+06    0.3280386868E+00    0.2939132271E-01    0.6254773353E+00    0.6250514050E-02    0.3481840620E+00
    0.3000000000E+06    0.3291864145E+00    0.1826801987E-01    0.6469193536E+00    0.3664388397E-02    0.3500832372E+00
    0.5000000000E+06    0.3293153415E+00    0.1454803477E-01    0.6539045813E+00    0.2842031632E-02    0.3505410000E+00
    0.7000000000E+06    0.3293331116E+00    0.1250023660E-01    0.6577071739E+00    0.2400051311E-02    0.3507719850E+00
    0.9000000000E+06    0.3293228114E+00    0.1115263877E-01    0.6601923662E+00    0.2113849128E-02    0.3509197541E+00
    0.1100000000E+07    0.3293035821E+00    0.1017749571E-01    0.6619819172E+00    0.1909263605E-02    0.3510261900E+00
    0.1300000000E+07    0.3292815513E+00    0.9428674466E-02    0.6633509951E+00    0.1753700738E-02    0.3511084720E+00
    0.1500000000E+07    0.3292590258E+00    0.8829696647E-02    0.6644428252E+00    0.1630290556E-02    0.3511751203E+00
    0.1700000000E+07    0.3292369411E+00    0.8336082520E-02    0.6653403523E+00    0.1529309926E-02    0.3512309130E+00
    0.1900000000E+07    0.3292156757E+00    0.7919940615E-02    0.6660954071E+00    0.1444708423E-02    0.3512787716E+00
    0.2100000000E+07    0.3291953637E+00    0.7562763359E-02    0.6667422820E+00    0.1372497880E-02    0.3513206007E+00
    0.2300000000E+07    0.3291760278E+00    0.7251715479E-02    0.6673046997E+00    0.1309928675E-02    0.3513577055E+00
    0.2500000000E+07    0.3291576397E+00    0.6977574140E-02    0.6677996687E+00    0.1255035453E-02    0.3513910162E+00
    0.2700000000E+07    0.3291401486E+00    0.6733516312E-02    0.6682397478E+00    0.1206371189E-02    0.3514212174E+00
    0.2900000000E+07    0.3291234956E+00    0.6514369801E-02    0.6686344406E+00    0.1162843754E-02    0.3514488268E+00
    0.3100000000E+07    0.3291076204E+00    0.6316131828E-02    0.6689910903E+00    0.1123611347E-02    0.3514742446E+00
    0.3300000000E+07    0.3290924650E+00    0.6135648999E-02    0.6693154740E+00    0.1088013271E-02    0.3514977864E+00
    0.3500000000E+07    0.3290779751E+00    0.5970398328E-02    0.6696122075E+00    0.1055522751E-02    0.3515197049E+00
    0.3700000000E+07    0.3290641006E+00    0.5818333610E-02    0.6698850300E+00    0.1025713951E-02    0.3515402058E+00
    0.3900000000E+07    0.3290507957E+00    0.5677775272E-02    0.6701370073E+00    0.9982384076E-03    0.3515594584E+00
    0.4100000000E+07    0.3290380188E+00    0.5547329844E-02    0.6703706803E+00    0.9728078509E-03    0.3515776038E+00
    0.4300000000E+07    0.3290257321E+00    0.5425830073E-02    0.6705881755E+00    0.9491814718E-03    0.3515947606E+00
    0.4500000000E+07    0.3290139013E+00    0.5312289702E-02    0.6707912877E+00    0.9271563301E-03    0.3516110295E+00
    0.4700000000E+07    0.3290024954E+00    0.5205868837E-02    0.6709815443E+00    0.9065600310E-03    0.3516264969E+00
    0.4900000000E+07    0.3289914861E+00    0.5105847099E-02    0.6711602543E+00    0.8872450604E-03    0.3516412371E+00
    0.1000000000E+07    0.3293137897E+00    0.1062999295E-01    0.6611524390E+00    0.2003923948E-02    0.3509767656E+00
    0.3000000000E+07    0.3291154645E+00    0.6412851288E-02    0.6688171285E+00    0.1142735573E-02    0.3514617882E+00
    0.5000000000E+07    0.3289861221E+00    0.5058038188E-02    0.6712456383E+00    0.8780276678E-03    0.3516483551E+00
    0.7000000000E+07    0.3288945294E+00    0.4323506227E-02    0.6725543958E+00    0.7376861187E-03    0.3517645397E+00
    0.9000000000E+07    0.3288238439E+00    0.3844377215E-02    0.6734048240E+00    0.6475380230E-03    0.3518489392E+00
    0.1100000000E+08    0.3287663338E+00    0.3499734480E-02    0.6740148427E+00    0.5834517423E-03    0.3519152141E+00
    0.1300000000E+08    0.3287178703E+00    0.3236239654E-02    0.6744802131E+00    0.5349204356E-03    0.3519697734E+00
    0.1500000000E+08    0.3286759983E+00    0.3026188973E-02    0.6748505319E+00    0.4965424435E-03    0.3520161374E+00
    0.1700000000E+08    0.3286391412E+00    0.2853562471E-02    0.6751544139E+00    0.4652205076E-03    0.3520564467E+00
    0.1900000000E+08    0.3286062272E+00    0.2708360560E-02    0.6754096871E+00    0.4390352460E-03    0.3520921002E+00
    0.2100000000E+08    0.3285764947E+00    0.2583972857E-02    0.6756281182E+00    0.4167258045E-03    0.3521240621E+00
    0.2300000000E+08    0.3285493830E+00    0.2475829449E-02    0.6758178304E+00    0.3974253993E-03    0.3521530253E+00
    0.2500000000E+08    0.3285244678E+00    0.2380655502E-02    0.6759846379E+00    0.3805160145E-03    0.3521795043E+00
    0.2700000000E+08    0.3285014198E+00    0.2296034014E-02    0.6761328271E+00    0.3655436109E-03    0.3522038917E+00
