  Pressure (Pa) 22mC5-400 (mol/kg) 2mC6-400 (mol/kg) 3mC6-400 (mol/kg) 33mC5-400 (mol/kg) 23mC5-400 (mol/kg)
    0.1000000000E+01    0.5304014314E-03    0.3180115178E-02    0.4217832516E-02    0.3236688903E-03    0.1862650683E-03
    0.3000000000E+01    0.1577191277E-02    0.9338330694E-02    0.1239570269E-01    0.9505365736E-03    0.5538769461E-03
    0.5000000000E+01    0.2605826266E-02    0.1524090599E-01    0.2024799259E-01    0.1551501271E-02    0.9151168493E-03
    0.7000000000E+01    0.3616915522E-02    0.2090312562E-01    0.2779488138E-01    0.2128112690E-02    0.1270198541E-02
    0.9000000000E+01    0.4611040146E-02    0.2633905784E-01    0.3505489303E-01    0.2681797075E-02    0.1619325953E-02
    0.1100000000E+02    0.5588754833E-02    0.3156167501E-01    0.4204506332E-01    0.3213869445E-02    0.1962693750E-02
    0.1300000000E+02    0.6550589376E-02    0.3658295996E-01    0.4878108699E-01    0.3725544398E-02    0.2300487857E-02
    0.1500000000E+02    0.7497050065E-02    0.4141399994E-01    0.5527744776E-01    0.4217945656E-02    0.2632885953E-02
    0.1700000000E+02    0.8428620995E-02    0.4606507009E-01    0.6154753341E-01    0.4692114538E-02    0.2960057928E-02
    0.1900000000E+02    0.9345765287E-02    0.5054570753E-01    0.6760373808E-01    0.5149017496E-02    0.3282166311E-02
    0.2100000000E+02    0.1024892623E-01    0.5486477748E-01    0.7345755317E-01    0.5589552817E-02    0.3599366674E-02
    0.2300000000E+02    0.1113852833E-01    0.5903053228E-01    0.7911964853E-01    0.6014556625E-02    0.3911807999E-02
    0.2500000000E+02    0.1201497836E-01    0.6305066424E-01    0.8459994494E-01    0.6424808246E-02    0.4219633033E-02
    0.2700000000E+02    0.1287866620E-01    0.6693235306E-01    0.8990767910E-01    0.6821035016E-02    0.4522978616E-02
    0.2900000000E+02    0.1372996582E-01    0.7068230846E-01    0.9505146187E-01    0.7203916615E-02    0.4821975986E-02
    0.3100000000E+02    0.1456923603E-01    0.7430680854E-01    0.1000393308E+00    0.7574088962E-02    0.5116751068E-02
    0.3300000000E+02    0.1539682126E-01    0.7781173448E-01    0.1048787971E+00    0.7932147727E-02    0.5407424745E-02
    0.3500000000E+02    0.1621305231E-01    0.8120260180E-01    0.1095768888E+00    0.8278651519E-02    0.5694113111E-02
    0.3700000000E+02    0.1701824701E-01    0.8448458882E-01    0.1141401885E+00    0.8614124757E-02    0.5976927708E-02
    0.3900000000E+02    0.1781271086E-01    0.8766256232E-01    0.1185748691E+00    0.8939060286E-02    0.6255975756E-02
    0.4100000000E+02    0.1859673763E-01    0.9074110096E-01    0.1228867247E+00    0.9253921751E-02    0.6531360357E-02
    0.4300000000E+02    0.1937060995E-01    0.9372451661E-01    0.1270812000E+00    0.9559145753E-02    0.6803180699E-02
    0.4500000000E+02    0.2013459980E-01    0.9661687369E-01    0.1311634160E+00    0.9855143825E-02    0.7071532241E-02
    0.4700000000E+02    0.2088896907E-01    0.9942200695E-01    0.1351381942E+00    0.1014230422E-01    0.7336506891E-02
    0.4900000000E+02    0.2163396997E-01    0.1021435376E+00    0.1390100779E+00    0.1042099357E-01    0.7598193169E-02
    0.1000000000E+02    0.5101915053E-02    0.2897625984E-01    0.3858269759E-01    0.2950456613E-02    0.1791717984E-02
    0.3000000000E+02    0.1415108275E-01    0.7250986392E-01    0.9756440428E-01    0.7390553311E-02    0.4969883643E-02
    0.5000000000E+02    0.2200303358E-01    0.1034740290E+00    0.1409087831E+00    0.1055727063E-01    0.7727829945E-02
    0.7000000000E+02    0.2894713703E-01    0.1264340493E+00    0.1744027131E+00    0.1291292389E-01    0.1016711347E-01
    0.9000000000E+02    0.3518316415E-01    0.1439774787E+00    0.2012585779E+00    0.1471943453E-01    0.1235784771E-01
    0.1100000000E+03    0.4085387965E-01    0.1576864474E+00    0.2234084835E+00    0.1613691539E-01    0.1435014020E-01
    0.1300000000E+03    0.4606429519E-01    0.1685849129E+00    0.2420876627E+00    0.1726898603E-01    0.1618084889E-01
    0.1500000000E+03    0.5089356449E-01    0.1773655668E+00    0.2581247452E+00    0.1818574939E-01    0.1787775659E-01
    0.1700000000E+03    0.5540261562E-01    0.1845139255E+00    0.2720976622E+00    0.1893635156E-01    0.1946224945E-01
    0.1900000000E+03    0.5963920910E-01    0.1903803442E+00    0.2844226637E+00    0.1955626794E-01    0.2095109210E-01
    0.2100000000E+03    0.6364138527E-01    0.1952238730E+00    0.2954077592E+00    0.2007173934E-01    0.2235763753E-01
    0.2300000000E+03    0.6743987201E-01    0.1992400529E+00    0.3052861698E+00    0.2050258294E-01    0.2369267209E-01
    0.2500000000E+03    0.7105980303E-01    0.2025791343E+00    0.3142380278E+00    0.2086403459E-01    0.2496501861E-01
    0.2700000000E+03    0.7452196791E-01    0.2053583690E+00    0.3224048869E+00    0.2116799157E-01    0.2618197509E-01
    0.2900000000E+03    0.7784373721E-01    0.2076705095E+00    0.3298996872E+00    0.2142387201E-01    0.2734963940E-01
    0.3100000000E+03    0.8103975775E-01    0.2095898175E+00    0.3368137592E+00    0.2163922235E-01    0.2847315336E-01
    0.3300000000E+03    0.8412248252E-01    0.2111763920E+00    0.3432218502E+00    0.2182015505E-01    0.2955688868E-01
    0.3500000000E+03    0.8710257972E-01    0.2124793420E+00    0.3491857966E+00    0.2197166937E-01    0.3060459057E-01
    0.3700000000E+03    0.8998925212E-01    0.2135391465E+00    0.3547572532E+00    0.2209789015E-01    0.3161948981E-01
    0.3900000000E+03    0.9279048915E-01    0.2143894363E+00    0.3599797506E+00    0.2220224797E-01    0.3260439128E-01
    0.4100000000E+03    0.9551326781E-01    0.2150583537E+00    0.3648902680E+00    0.2228761677E-01    0.3356174442E-01
    0.4300000000E+03    0.9816371417E-01    0.2155696042E+00    0.3695204500E+00    0.2235642028E-01    0.3449369998E-01
    0.4500000000E+03    0.1007472344E+00    0.2159432767E+00    0.3738975585E+00    0.2241071504E-01    0.3540215598E-01
    0.4700000000E+03    0.1032686220E+00    0.2161964906E+00    0.3780452256E+00    0.2245225592E-01    0.3628879530E-01
    0.4900000000E+03    0.1057321455E+00    0.2163439097E+00    0.3819840538E+00    0.2248254817E-01    0.3715511663E-01
    0.1000000000E+03    0.3808190354E-01    0.1512375341E+00    0.2128325417E+00    0.1546934196E-01    0.1337624318E-01
    0.3000000000E+03    0.7945664164E-01    0.2086752213E+00    0.3334243023E+00    0.2153620204E-01    0.2791662575E-01
    0.5000000000E+03    0.1069434169E+00    0.2163819604E+00    0.3838808843E+00    0.2249388866E-01    0.3758108242E-01
    0.7000000000E+03    0.1288755905E+00    0.2138801369E+00    0.4142547182E+00    0.2236643989E-01    0.4529513379E-01
    0.9000000000E+03    0.1476818178E+00    0.2083446010E+00    0.4354627253E+00    0.2189544716E-01    0.5191147886E-01
    0.1100000000E+04    0.1643968489E+00    0.2018689983E+00    0.4515151064E+00    0.2130254229E-01    0.5779343214E-01
    0.1300000000E+04    0.1795606802E+00    0.1952108654E+00    0.4642969212E+00    0.2067089928E-01    0.6313059297E-01
    0.1500000000E+04    0.1934941698E+00    0.1886750661E+00    0.4748349369E+00    0.2003594906E-01    0.6803561507E-01
    0.1700000000E+04    0.2064063345E+00    0.1823879918E+00    0.4837463804E+00    0.1941383634E-01    0.7258188088E-01
    0.1900000000E+04    0.2184431469E+00    0.1763985344E+00    0.4914295022E+00    0.1881204439E-01    0.7682063637E-01
    0.2100000000E+04    0.2297123051E+00    0.1707198663E+00    0.4981553362E+00    0.1823387007E-01    0.8078968864E-01
    0.2300000000E+04    0.2402968753E+00    0.1653482216E+00    0.5041161771E+00    0.1768048239E-01    0.8451819673E-01
    0.2500000000E+04    0.2502632963E+00    0.1602718598E+00    0.5094530896E+00    0.1715193487E-01    0.8802948228E-01
    0.2700000000E+04    0.2596663176E+00    0.1554755251E+00    0.5142724317E+00    0.1664768962E-01    0.9134276365E-01
    0.2900000000E+04    0.2685521744E+00    0.1509427218E+00    0.5186562505E+00    0.1616689964E-01    0.9447427059E-01
    0.3100000000E+04    0.2769607001E+00    0.1466568864E+00    0.5226690801E+00    0.1570856551E-01    0.9743798618E-01
    0.3300000000E+04    0.2849267757E+00    0.1426019826E+00    0.5263625322E+00    0.1527162424E-01    0.1002461555E+00
    0.3500000000E+04    0.2924813497E+00    0.1387627879E+00    0.5297784862E+00    0.1485500021E-01    0.1029096438E+00
    0.3700000000E+04    0.2996521751E+00    0.1351250139E+00    0.5329513577E+00    0.1445763443E-01    0.1054381950E+00
    0.3900000000E+04    0.3064643524E+00    0.1316753360E+00    0.5359097478E+00    0.1407850109E-01    0.1078406226E+00
    0.4100000000E+04    0.3129407396E+00    0.1284013755E+00    0.5386776638E+00    0.1371661656E-01    0.1101249534E+00
    0.4300000000E+04    0.3191022679E+00    0.1252916558E+00    0.5412754379E+00    0.1337104380E-01    0.1122985380E+00
    0.4500000000E+04    0.3249681898E+00    0.1223355484E+00    0.5437204295E+00    0.1304089403E-01    0.1143681381E+00
    0.4700000000E+04    0.3305562768E+00    0.1195232135E+00    0.5460275681E+00    0.1272532669E-01    0.1163399960E+00
    0.4900000000E+04    0.3358829821E+00    0.1168455414E+00    0.5482097791E+00    0.1242354841E-01    0.1182198914E+00
    0.1000000000E+04    0.1562599044E+00    0.2051609318E+00    0.4439870402E+00    0.2160735647E-01    0.5492991899E-01
    0.3000000000E+04    0.2728138211E+00    0.1487699522E+00    0.5207055532E+00    0.1593499127E-01    0.9597630104E-01
    0.5000000000E+04    0.3384531311E+00    0.1155545426E+00    0.5492576125E+00    0.1227759474E-01    0.1191270444E+00
    0.7000000000E+04    0.3793177799E+00    0.9506230477E-01    0.5657567147E+00    0.9923124940E-02    0.1335609282E+00
    0.9000000000E+04    0.4061935060E+00    0.8148900803E-01    0.5769417283E+00    0.8329475381E-02    0.1430684759E+00
    0.1100000000E+05    0.4247145860E+00    0.7195440611E-01    0.5852038793E+00    0.7199115427E-02    0.1496313679E+00
    0.1300000000E+05    0.4380022063E+00    0.6492757955E-01    0.5916466569E+00    0.6364175224E-02    0.1543481417E+00
    0.1500000000E+05    0.4478668719E+00    0.5954251573E-01    0.5968624526E+00    0.5725915405E-02    0.1578564287E+00
    0.1700000000E+05    0.4554054195E+00    0.5528169201E-01    0.6012027134E+00    0.5223728818E-02    0.1605427520E+00
    0.1900000000E+05    0.4613094889E+00    0.5182065867E-01    0.6048913918E+00    0.4818898006E-02    0.1626509899E+00
    0.2100000000E+05    0.4660312196E+00    0.4894736337E-01    0.6080790940E+00    0.4485780529E-02    0.1643406661E+00
    0.2300000000E+05    0.4698758033E+00    0.4651811635E-01    0.6108714596E+00    0.4206839778E-02    0.1657195234E+00
    0.2500000000E+05    0.4730551615E+00    0.4443244454E-01    0.6133451429E+00    0.3969737525E-02    0.1668624231E+00
    0.2700000000E+05    0.4757201821E+00    0.4261814062E-01    0.6155573394E+00    0.3765572546E-02    0.1678226995E+00
    0.2900000000E+05    0.4779807087E+00    0.4102204826E-01    0.6175517347E+00    0.3587778994E-02    0.1686392039E+00
    0.3100000000E+05    0.4799182995E+00    0.3960419769E-01    0.6193623656E+00    0.3431417175E-02    0.1693408019E+00
    0.3300000000E+05    0.4815945880E+00    0.3833396502E-01    0.6210162090E+00    0.3292704808E-02    0.1699493216E+00
    0.3500000000E+05    0.4830568925E+00    0.3718749174E-01    0.6225349673E+00    0.3168699824E-02    0.1704815326E+00
    0.3700000000E+05    0.4843420616E+00    0.3614591034E-01    0.6239363294E+00    0.3057081040E-02    0.1709505030E+00
    0.3900000000E+05    0.4854791624E+00    0.3519409871E-01    0.6252348813E+00    0.2955993533E-02    0.1713665487E+00
    0.4100000000E+05    0.4864913934E+00    0.3431978908E-01    0.6264427751E+00    0.2863937680E-02    0.1717379084E+00
    0.4300000000E+05    0.4873974672E+00    0.3351291960E-01    0.6275702298E+00    0.2779688230E-02    0.1720712329E+00
    0.4500000000E+05    0.4882126256E+00    0.3276515511E-01    0.6286259107E+00    0.2702234414E-02    0.1723719431E+00
    0.4700000000E+05    0.4889493947E+00    0.3206952780E-01    0.6296172219E+00    0.2630734997E-02    0.1726444975E+00
    0.4900000000E+05    0.4896181538E+00    0.3142016433E-01    0.6305505337E+00    0.2564484145E-02    0.1728925933E+00
    0.1000000000E+05    0.4162625905E+00    0.7633358337E-01    0.5813521327E+00    0.7719010886E-02    0.1466350322E+00
    0.3000000000E+05    0.4789856282E+00    0.4029294074E-01    0.6184781932E+00    0.3507178339E-02    0.1690028639E+00
    0.5000000000E+05    0.4899297949E+00    0.3111124275E-01    0.6309971928E+00    0.2533136797E-02    0.1730084549E+00
    0.7000000000E+05    0.4940959233E+00    0.2646856599E-01    0.6379040890E+00    0.2075890325E-02    0.1745784677E+00
    0.9000000000E+05    0.4962301145E+00    0.2352223049E-01    0.6424539595E+00    0.1799812189E-02    0.1754078963E+00
    0.1100000000E+06    0.4975092119E+00    0.2142934120E-01    0.6457481576E+00    0.1610506564E-02    0.1759209736E+00
    0.1300000000E+06    0.4983539508E+00    0.1983899784E-01    0.6482786483E+00    0.1470406109E-02    0.1762708506E+00
    0.1500000000E+06    0.4989498097E+00    0.1857498738E-01    0.6503031973E+00    0.1361325809E-02    0.1765257255E+00
    0.1700000000E+06    0.4993905881E+00    0.1753753884E-01    0.6519718395E+00    0.1273274613E-02    0.1767204446E+00
    0.1900000000E+06    0.4997285725E+00    0.1666523077E-01    0.6533787094E+00    0.1200253532E-02    0.1768746375E+00
    0.2100000000E+06    0.4999951103E+00    0.1591783820E-01    0.6545862977E+00    0.1138415627E-02    0.1770001988E+00
    0.2300000000E+06    0.5002100885E+00    0.1526773261E-01    0.6556379568E+00    0.1085165677E-02    0.1771047561E+00
    0.2500000000E+06    0.5003867074E+00    0.1469520525E-01    0.6565648458E+00    0.1038680923E-02    0.1771934279E+00
    0.2700000000E+06    0.5005340589E+00    0.1418575685E-01    0.6573900213E+00    0.9976384874E-03    0.1772697781E+00
    0.2900000000E+06    0.5006586016E+00    0.1372844400E-01    0.6581309639E+00    0.9610518154E-03    0.1773363665E+00
    0.3100000000E+06    0.5007650445E+00    0.1331482661E-01    0.6588012041E+00    0.9281681085E-03    0.1773950800E+00
    0.3300000000E+06    0.5008568987E+00    0.1293827380E-01    0.6594114022E+00    0.8984015735E-03    0.1774473413E+00
    0.3500000000E+06    0.5009368334E+00    0.1259349199E-01    0.6599700884E+00    0.8712885883E-03    0.1774942437E+00
    0.3700000000E+06    0.5010069125E+00    0.1227619561E-01    0.6604841814E+00    0.8464567582E-03    0.1775366423E+00
    0.3900000000E+06    0.5010687559E+00    0.1198287209E-01    0.6609593605E+00    0.8236030448E-03    0.1775752153E+00
    0.4100000000E+06    0.5011236520E+00    0.1171061066E-01    0.6614003379E+00    0.8024779840E-03    0.1776105086E+00
    0.4300000000E+06    0.5011726380E+00    0.1145697545E-01    0.6618110610E+00    0.7828740834E-03    0.1776429660E+00
    0.4500000000E+06    0.5012165575E+00    0.1121990996E-01    0.6621948653E+00    0.7646171527E-03    0.1776729531E+00
    0.4700000000E+06    0.5012561038E+00    0.1099766400E-01    0.6625545913E+00    0.7475597273E-03    0.1777007730E+00
    0.4900000000E+06    0.5012918512E+00    0.1078873723E-01    0.6628926753E+00    0.7315760136E-03    0.1777266801E+00
    0.1000000000E+06    0.4969418164E+00    0.2239704914E-01    0.6442193753E+00    0.1697336429E-02    0.1756913673E+00
    0.3000000000E+06    0.5007138429E+00    0.1351662383E-01    0.6584741982E+00    0.9441870092E-03    0.1773666097E+00
    0.5000000000E+06    0.5013084535E+00    0.1068885693E-01    0.6630542703E+00    0.7239524278E-03    0.1777389848E+00
    0.7000000000E+06    0.5015245372E+00    0.9152662724E-02    0.6655365912E+00    0.6081501999E-03    0.1779227575E+00
    0.9000000000E+06    0.5016262749E+00    0.8148543646E-02    0.6671552524E+00    0.5339615441E-03    0.1780391360E+00
    0.1100000000E+07    0.5016801577E+00    0.7425034814E-02    0.6683192268E+00    0.4812729908E-03    0.1781224931E+00
    0.1300000000E+07    0.5017102172E+00    0.6871105885E-02    0.6692089012E+00    0.4413866418E-03    0.1781867120E+00
    0.1500000000E+07    0.5017270641E+00    0.6429016495E-02    0.6699179556E+00    0.4098466337E-03    0.1782386115E+00
    0.1700000000E+07    0.5017360288E+00    0.6065336900E-02    0.6705005540E+00    0.3841031991E-03    0.1782819894E+00
    0.1900000000E+07    0.5017400426E+00    0.5759176839E-02    0.6709905006E+00    0.3625781781E-03    0.1783191568E+00
    0.2100000000E+07    0.5017408287E+00    0.5496712346E-02    0.6714101390E+00    0.3442356571E-03    0.1783516146E+00
    0.2300000000E+07    0.5017394535E+00    0.5268377747E-02    0.6717749142E+00    0.3283638281E-03    0.1783803883E+00
    0.2500000000E+07    0.5017366043E+00    0.5067312482E-02    0.6720958926E+00    0.3144553198E-03    0.1784062072E+00
    0.2700000000E+07    0.5017327384E+00    0.4888449248E-02    0.6723812408E+00    0.3021374424E-03    0.1784296070E+00
    0.2900000000E+07    0.5017281682E+00    0.4727952104E-02    0.6726371362E+00    0.2911294726E-03    0.1784509922E+00
    0.3100000000E+07    0.5017231120E+00    0.4582856015E-02    0.6728683499E+00    0.2812154062E-03    0.1784706751E+00
    0.3300000000E+07    0.5017177248E+00    0.4450827642E-02    0.6730786341E+00    0.2722259666E-03    0.1784889017E+00
    0.3500000000E+07    0.5017121183E+00    0.4330001911E-02    0.6732709861E+00    0.2640263701E-03    0.1785058687E+00
    0.3700000000E+07    0.5017063740E+00    0.4218867518E-02    0.6734478331E+00    0.2565077908E-03    0.1785217363E+00
    0.3900000000E+07    0.5017005519E+00    0.4116184926E-02    0.6736111650E+00    0.2495812713E-03    0.1785366360E+00
    0.4100000000E+07    0.5016946963E+00    0.4020926485E-02    0.6737626303E+00    0.2431732928E-03    0.1785506776E+00
    0.4300000000E+07    0.5016888403E+00    0.3932231943E-02    0.6739036088E+00    0.2372224949E-03    0.1785639532E+00
    0.4500000000E+07    0.5016830084E+00    0.3849374882E-02    0.6740352646E+00    0.2316772084E-03    0.1785765410E+00
    0.4700000000E+07    0.5016772190E+00    0.3771737034E-02    0.6741585884E+00    0.2264935740E-03    0.1785885079E+00
    0.4900000000E+07    0.5016714854E+00    0.3698788388E-02    0.6742744290E+00    0.2216340880E-03    0.1785999118E+00
    0.1000000000E+07    0.5016572168E+00    0.7760454872E-02    0.6677798675E+00    0.5056177261E-03    0.1780838292E+00
    0.3000000000E+07    0.5017256899E+00    0.4653637361E-02    0.6727555734E+00    0.2860472111E-03    0.1784610298E+00
    0.5000000000E+07    0.5016686427E+00    0.3663927112E-02    0.6743297759E+00    0.2193156339E-03    0.1786054184E+00
    0.7000000000E+07    0.5016159977E+00    0.3128891877E-02    0.6751782223E+00    0.1840597235E-03    0.1786952933E+00
    0.9000000000E+07    0.5015713419E+00    0.2780460691E-02    0.6757297149E+00    0.1614558222E-03    0.1787605772E+00
    0.1100000000E+08    0.5015331813E+00    0.2530102110E-02    0.6761254455E+00    0.1454063752E-03    0.1788118431E+00
    0.1300000000E+08    0.5015000380E+00    0.2338843093E-02    0.6764274468E+00    0.1332630952E-03    0.1788540491E+00
    0.1500000000E+08    0.5014708100E+00    0.2186469788E-02    0.6766678463E+00    0.1236667433E-03    0.1788899174E+00
    0.1700000000E+08    0.5014446985E+00    0.2061305729E-02    0.6768651806E+00    0.1158389000E-03    0.1789211033E+00
    0.1900000000E+08    0.5014211170E+00    0.1956068610E-02    0.6770310000E+00    0.1092976347E-03    0.1789486886E+00
    0.2100000000E+08    0.5013996264E+00    0.1865947633E-02    0.6771729284E+00    0.1037266062E-03    0.1789734188E+00
    0.2300000000E+08    0.5013798906E+00    0.1787618878E-02    0.6772962300E+00    0.9890848170E-04    0.1789958297E+00
    0.2500000000E+08    0.5013616473E+00    0.1718701558E-02    0.6774046729E+00    0.9468838606E-04    0.1790163192E+00
    0.2700000000E+08    0.5013446883E+00    0.1657439267E-02    0.6775010356E+00    0.9095258942E-04    0.1790351908E+00
