  Pressure (Pa) 22mC5-400 (mol/kg) 2mC6-400 (mol/kg) 3mC6-400 (mol/kg) 33mC5-400 (mol/kg) 23mC5-400 (mol/kg)
    0.1000000000E+01    0.5286577880E-03    0.6347401156E-02    0.2107864042E-02    0.1292013329E-03    0.4641326421E-03
    0.3000000000E+01    0.1561988523E-02    0.1856598993E-01    0.6188959838E-02    0.3779168939E-03    0.1371352051E-02
    0.5000000000E+01    0.2564890983E-02    0.3018689858E-01    0.1010078426E-01    0.6144745144E-03    0.2251871535E-02
    0.7000000000E+01    0.3539097857E-02    0.4125128860E-01    0.1385464520E-01    0.8397115218E-03    0.3107211299E-02
    0.9000000000E+01    0.4486207352E-02    0.5179665529E-01    0.1746084538E-01    0.1054390656E-02    0.3938773568E-02
    0.1100000000E+02    0.5407696182E-02    0.6185722609E-01    0.2092879244E-01    0.1259208172E-02    0.4747853979E-02
    0.1300000000E+02    0.6304931068E-02    0.7146430796E-01    0.2426709476E-01    0.1454800910E-02    0.5535651675E-02
    0.1500000000E+02    0.7179178953E-02    0.8064659155E-01    0.2748364524E-01    0.1641752483E-02    0.6303278257E-02
    0.1700000000E+02    0.8031616084E-02    0.8943041809E-01    0.3058569470E-01    0.1820598708E-02    0.7051765759E-02
    0.1900000000E+02    0.8863336117E-02    0.9784001431E-01    0.3357991639E-01    0.1991832387E-02    0.7782073756E-02
    0.2100000000E+02    0.9675357356E-02    0.1058976998E+00    0.3647246288E-01    0.2155907520E-02    0.8495095713E-02
    0.2300000000E+02    0.1046862925E-01    0.1136240703E+00    0.3926901624E-01    0.2313243043E-02    0.9191664686E-02
    0.2500000000E+02    0.1124403820E-01    0.1210381606E+00    0.4197483265E-01    0.2464226135E-02    0.9872558423E-02
    0.2700000000E+02    0.1200241282E-01    0.1281575891E+00    0.4459478184E-01    0.2609215161E-02    0.1053850396E-01
    0.2900000000E+02    0.1274452864E-01    0.1349986865E+00    0.4713338234E-01    0.2748542293E-02    0.1119018177E-01
    0.3100000000E+02    0.1347111236E-01    0.1415766110E+00    0.4959483286E-01    0.2882515852E-02    0.1182822948E-01
    0.3300000000E+02    0.1418284572E-01    0.1479054514E+00    0.5198304037E-01    0.3011422403E-02    0.1245324527E-01
    0.3500000000E+02    0.1488036900E-01    0.1539983192E+00    0.5430164525E-01    0.3135528631E-02    0.1306579095E-01
    0.3700000000E+02    0.1556428414E-01    0.1598674315E+00    0.5655404388E-01    0.3255083031E-02    0.1366639469E-01
    0.3900000000E+02    0.1623515768E-01    0.1655241861E+00    0.5874340894E-01    0.3370317426E-02    0.1425555360E-01
    0.4100000000E+02    0.1689352332E-01    0.1709792281E+00    0.6087270774E-01    0.3481448333E-02    0.1483373598E-01
    0.4300000000E+02    0.1753988438E-01    0.1762425113E+00    0.6294471874E-01    0.3588678206E-02    0.1540138346E-01
    0.4500000000E+02    0.1817471590E-01    0.1813233529E+00    0.6496204650E-01    0.3692196549E-02    0.1595891288E-01
    0.4700000000E+02    0.1879846671E-01    0.1862304834E+00    0.6692713523E-01    0.3792180933E-02    0.1650671806E-01
    0.4900000000E+02    0.1941156120E-01    0.1909720919E+00    0.6884228109E-01    0.3888797916E-02    0.1704517141E-01
    0.1000000000E+02    0.4950066478E-02    0.5688551880E-01    0.1921154483E-01    0.1157990998E-02    0.4346046908E-02
    0.3000000000E+02    0.1310971839E-01    0.1383196409E+00    0.4837350063E-01    0.2816179872E-02    0.1151087111E-01
    0.5000000000E+02    0.1971423869E-01    0.1932832466E+00    0.6978180527E-01    0.3935892877E-02    0.1731100202E-01
    0.7000000000E+02    0.2529535210E-01    0.2324544910E+00    0.8641197626E-01    0.4734319444E-02    0.2221300165E-01
    0.9000000000E+02    0.3015868446E-01    0.2614861569E+00    0.9986430319E-01    0.5326429112E-02    0.2648505453E-01
    0.1100000000E+03    0.3449383380E-01    0.2836433941E+00    0.1110808825E+00    0.5778628768E-02    0.3029353882E-01
    0.1300000000E+03    0.3842547758E-01    0.3009398950E+00    0.1206551079E+00    0.6131873076E-02    0.3374786707E-01
    0.1500000000E+03    0.4203946204E-01    0.3146826835E+00    0.1289808967E+00    0.6412745059E-02    0.3692337755E-01
    0.1700000000E+03    0.4539713945E-01    0.3257556578E+00    0.1363309765E+00    0.6639222825E-02    0.3987391445E-01
    0.1900000000E+03    0.4854372718E-01    0.3347770670E+00    0.1429007850E+00    0.6823882207E-02    0.4263916275E-01
    0.2100000000E+03    0.5151342359E-01    0.3421917169E+00    0.1488344556E+00    0.6975771902E-02    0.4524913739E-01
    0.2300000000E+03    0.5433266886E-01    0.3483273798E+00    0.1542409034E+00    0.7101560614E-02    0.4772704474E-01
    0.2500000000E+03    0.5702229632E-01    0.3534306090E+00    0.1592041668E+00    0.7206265344E-02    0.5009117048E-01
    0.2700000000E+03    0.5959899452E-01    0.3576902087E+00    0.1637902741E+00    0.7293728663E-02    0.5235616268E-01
    0.2900000000E+03    0.6207632688E-01    0.3612530450E+00    0.1680519316E+00    0.7366940214E-02    0.5453392657E-01
    0.3100000000E+03    0.6446545897E-01    0.3642349548E+00    0.1720318040E+00    0.7428258553E-02    0.5663426289E-01
    0.3300000000E+03    0.6677568787E-01    0.3667284360E+00    0.1757648599E+00    0.7479567515E-02    0.5866533238E-01
    0.3500000000E+03    0.6901483436E-01    0.3688081698E+00    0.1792800800E+00    0.7522388522E-02    0.6063400004E-01
    0.3700000000E+03    0.7118953817E-01    0.3705350559E+00    0.1826017245E+00    0.7557962636E-02    0.6254609420E-01
    0.3900000000E+03    0.7330548344E-01    0.3719592052E+00    0.1857502862E+00    0.7587311412E-02    0.6440660448E-01
    0.4100000000E+03    0.7536757327E-01    0.3731221902E+00    0.1887432186E+00    0.7611282670E-02    0.6621983491E-01
    0.4300000000E+03    0.7738006640E-01    0.3740587587E+00    0.1915954983E+00    0.7630585349E-02    0.6798952392E-01
    0.4500000000E+03    0.7934668534E-01    0.3747981542E+00    0.1943200653E+00    0.7645816353E-02    0.6971893925E-01
    0.4700000000E+03    0.8127070295E-01    0.3753651434E+00    0.1969281704E+00    0.7657481455E-02    0.7141095396E-01
    0.4900000000E+03    0.8315501223E-01    0.3757808236E+00    0.1994296531E+00    0.7666011724E-02    0.7306810765E-01
    0.1000000000E+03    0.3238335185E-01    0.2732770464E+00    0.1057090302E+00    0.5567027340E-02    0.2843940605E-01
    0.3000000000E+03    0.6328129825E-01    0.3628103609E+00    0.1700747476E+00    0.7398958660E-02    0.5559322921E-01
    0.5000000000E+03    0.8408309064E-01    0.3759376728E+00    0.2006431559E+00    0.7669218840E-02    0.7388432653E-01
    0.7000000000E+03    0.1010564541E+00    0.3743891821E+00    0.2209559496E+00    0.7635475165E-02    0.8881434059E-01
    0.9000000000E+03    0.1158190297E+00    0.3683874225E+00    0.2363041660E+00    0.7507175129E-02    0.1018033186E+00
    0.1100000000E+04    0.1290436445E+00    0.3608680714E+00    0.2487062988E+00    0.7345092893E-02    0.1134418907E+00
    0.1300000000E+04    0.1410826946E+00    0.3529107324E+00    0.2591471024E+00    0.7171956953E-02    0.1240393784E+00
    0.1500000000E+04    0.1521491753E+00    0.3449683258E+00    0.2681822242E+00    0.6997555869E-02    0.1337827222E+00
    0.1700000000E+04    0.1623855079E+00    0.3372431998E+00    0.2761569675E+00    0.6826447628E-02    0.1427969090E+00
    0.1900000000E+04    0.1718944616E+00    0.3298257373E+00    0.2833011991E+00    0.6660815756E-02    0.1511721199E+00
    0.2100000000E+04    0.1807547140E+00    0.3227523889E+00    0.2897760240E+00    0.6501673895E-02    0.1589773914E+00
    0.2300000000E+04    0.1890293478E+00    0.3160323334E+00    0.2956989556E+00    0.6349424735E-02    0.1662680759E+00
    0.2500000000E+04    0.1967707903E+00    0.3096606109E+00    0.3011584875E+00    0.6204139126E-02    0.1730901771E+00
    0.2700000000E+04    0.2040238287E+00    0.3036249458E+00    0.3062230159E+00    0.6065703780E-02    0.1794829969E+00
    0.2900000000E+04    0.2108275293E+00    0.2979094373E+00    0.3109465603E+00    0.5933903161E-02    0.1854808201E+00
    0.3100000000E+04    0.2172165050E+00    0.2924966124E+00    0.3153725712E+00    0.5808466609E-02    0.1911140259E+00
    0.3300000000E+04    0.2232217809E+00    0.2873685890E+00    0.3195365485E+00    0.5689096254E-02    0.1964098480E+00
    0.3500000000E+04    0.2288714059E+00    0.2825077371E+00    0.3234678906E+00    0.5575483903E-02    0.2013929104E+00
    0.3700000000E+04    0.2341908987E+00    0.2778970486E+00    0.3271912321E+00    0.5467321380E-02    0.2060856190E+00
    0.3900000000E+04    0.2392035846E+00    0.2735203362E+00    0.3307274314E+00    0.5364306862E-02    0.2105084561E+00
    0.4100000000E+04    0.2439308572E+00    0.2693623287E+00    0.3340943134E+00    0.5266148715E-02    0.2146802102E+00
    0.4300000000E+04    0.2483923881E+00    0.2654087032E+00    0.3373072367E+00    0.5172567728E-02    0.2186181599E+00
    0.4500000000E+04    0.2526063004E+00    0.2616460808E+00    0.3403795330E+00    0.5083298305E-02    0.2223382252E+00
    0.4700000000E+04    0.2565893146E+00    0.2580619979E+00    0.3433228529E+00    0.4998088981E-02    0.2258550961E+00
    0.4900000000E+04    0.2603568747E+00    0.2546448664E+00    0.3461474394E+00    0.4916702487E-02    0.2291823425E+00
    0.1000000000E+04    0.1225970357E+00    0.3647278320E+00    0.2427978314E+00    0.7428480514E-02    0.1077681031E+00
    0.3000000000E+04    0.2140718428E+00    0.2951663070E+00    0.3131943771E+00    0.5870407594E-02    0.1883412314E+00
    0.5000000000E+04    0.2621643641E+00    0.2529955135E+00    0.3475180788E+00    0.4877372483E-02    0.2307788149E+00
    0.7000000000E+04    0.2899411946E+00    0.2265510874E+00    0.3704334272E+00    0.4244257371E-02    0.2553356658E+00
    0.9000000000E+04    0.3071528054E+00    0.2084909730E+00    0.3875817970E+00    0.3812689445E-02    0.2705835368E+00
    0.1100000000E+05    0.3184930065E+00    0.1952606398E+00    0.4012298617E+00    0.3500088667E-02    0.2806526458E+00
    0.1300000000E+05    0.3263576316E+00    0.1850322982E+00    0.4125248922E+00    0.3262184180E-02    0.2876528669E+00
    0.1500000000E+05    0.3320463589E+00    0.1767949673E+00    0.4221300121E+00    0.3073884955E-02    0.2927296326E+00
    0.1700000000E+05    0.3363059918E+00    0.1699506420E+00    0.4304635984E+00    0.2920144490E-02    0.2965416160E+00
    0.1900000000E+05    0.3395881775E+00    0.1641244322E+00    0.4378066595E+00    0.2791467414E-02    0.2994874710E+00
    0.2100000000E+05    0.3421784749E+00    0.1590694188E+00    0.4443570454E+00    0.2681588916E-02    0.3018194486E+00
    0.2300000000E+05    0.3442644934E+00    0.1546160244E+00    0.4502592852E+00    0.2586214027E-02    0.3037034081E+00
    0.2500000000E+05    0.3459736444E+00    0.1506435812E+00    0.4556221342E+00    0.2502299375E-02    0.3052520828E+00
    0.2700000000E+05    0.3473949823E+00    0.1470635875E+00    0.4605294501E+00    0.2427626087E-02    0.3065443351E+00
    0.2900000000E+05    0.3485923347E+00    0.1438094277E+00    0.4650472284E+00    0.2360535904E-02    0.3076367368E+00
    0.3100000000E+05    0.3496124679E+00    0.1408298254E+00    0.4692283182E+00    0.2299762511E-02    0.3085707752E+00
    0.3300000000E+05    0.3504903219E+00    0.1380845369E+00    0.4731156804E+00    0.2244320433E-02    0.3093774748E+00
    0.3500000000E+05    0.3512524563E+00    0.1355414369E+00    0.4767446959E+00    0.2193429848E-02    0.3100804410E+00
    0.3700000000E+05    0.3519193755E+00    0.1331744956E+00    0.4801448394E+00    0.2146464484E-02    0.3106979153E+00
    0.3900000000E+05    0.3525071306E+00    0.1309623421E+00    0.4833409158E+00    0.2102914711E-02    0.3112441913E+00
    0.4100000000E+05    0.3530284450E+00    0.1288872242E+00    0.4863539905E+00    0.2062360897E-02    0.3117306106E+00
    0.4300000000E+05    0.3534935198E+00    0.1269342405E+00    0.4892020991E+00    0.2024453839E-02    0.3121662761E+00
    0.4500000000E+05    0.3539106187E+00    0.1250907646E+00    0.4919007975E+00    0.1988900142E-02    0.3125585692E+00
    0.4700000000E+05    0.3542864997E+00    0.1233460073E+00    0.4944635924E+00    0.1955451151E-02    0.3129135330E+00
    0.4900000000E+05    0.3546267376E+00    0.1216906781E+00    0.4969022829E+00    0.1923894465E-02    0.3132361580E+00
    0.1000000000E+05    0.3133719145E+00    0.2014125624E+00    0.3947559443E+00    0.3644891220E-02    0.2761026264E+00
    0.3000000000E+05    0.3491221399E+00    0.1422880412E+00    0.4671769733E+00    0.2329426765E-02    0.3081214088E+00
    0.5000000000E+05    0.3547849703E+00    0.1208939895E+00    0.4980783778E+00    0.1908767617E-02    0.3133866695E+00
    0.7000000000E+05    0.3568779672E+00    0.1081603208E+00    0.5170474976E+00    0.1672121327E-02    0.3154171373E+00
    0.9000000000E+05    0.3579290591E+00    0.9927936111E-01    0.5304125110E+00    0.1512387169E-02    0.3164839686E+00
    0.1100000000E+06    0.3585481055E+00    0.9256129112E-01    0.5405650702E+00    0.1394199153E-02    0.3171424725E+00
    0.1300000000E+06    0.3589500582E+00    0.8721764983E-01    0.5486559329E+00    0.1301719875E-02    0.3175911374E+00
    0.1500000000E+06    0.3592287685E+00    0.8281854798E-01    0.5553224633E+00    0.1226562751E-02    0.3179178951E+00
    0.1700000000E+06    0.3594313401E+00    0.7910485676E-01    0.5609523119E+00    0.1163782561E-02    0.3181675423E+00
    0.1900000000E+06    0.3595838592E+00    0.7590893701E-01    0.5657976413E+00    0.1110235111E-02    0.3183652692E+00
    0.2100000000E+06    0.3597018721E+00    0.7311646257E-01    0.5700310260E+00    0.1063806266E-02    0.3185263233E+00
    0.2300000000E+06    0.3597951862E+00    0.7064620237E-01    0.5737753686E+00    0.1023011584E-02    0.3186604760E+00
    0.2500000000E+06    0.3598702757E+00    0.6843851268E-01    0.5771210515E+00    0.9867721063E-03    0.3187742814E+00
    0.2700000000E+06    0.3599315759E+00    0.6644840421E-01    0.5801363233E+00    0.9542811119E-03    0.3188723026E+00
    0.2900000000E+06    0.3599822208E+00    0.6464116845E-01    0.5828738748E+00    0.9249210464E-03    0.3189578164E+00
    0.3100000000E+06    0.3600244832E+00    0.6298951137E-01    0.5853751614E+00    0.8982096325E-03    0.3190332384E+00
    0.3300000000E+06    0.3600600487E+00    0.6147161360E-01    0.5876733340E+00    0.8737637290E-03    0.3191003898E+00
    0.3500000000E+06    0.3600901917E+00    0.6006978106E-01    0.5897952813E+00    0.8512743913E-03    0.3191606708E+00
    0.3700000000E+06    0.3601158924E+00    0.5876948369E-01    0.5917630862E+00    0.8304892337E-03    0.3192151761E+00
    0.3900000000E+06    0.3601379157E+00    0.5755865636E-01    0.5935950861E+00    0.8111996856E-03    0.3192647745E+00
    0.4100000000E+06    0.3601568668E+00    0.5642718091E-01    0.5953066594E+00    0.7932316066E-03    0.3193101651E+00
    0.4300000000E+06    0.3601732299E+00    0.5536649617E-01    0.5969108174E+00    0.7764382596E-03    0.3193519167E+00
    0.4500000000E+06    0.3601873969E+00    0.5436930006E-01    0.5984186571E+00    0.7606949683E-03    0.3193904974E+00
    0.4700000000E+06    0.3601996876E+00    0.5342931884E-01    0.5998397119E+00    0.7458950015E-03    0.3194262961E+00
    0.4900000000E+06    0.3602103656E+00    0.5254112646E-01    0.6011822260E+00    0.7319463620E-03    0.3194596387E+00
    0.1000000000E+06    0.3582747947E+00    0.9571117802E-01    0.5358015029E+00    0.1449340813E-02    0.3168478903E+00
    0.3000000000E+06    0.3600042832E+00    0.6379736650E-01    0.5841518120E+00    0.9112601924E-03    0.3189966635E+00
    0.5000000000E+06    0.3602151698E+00    0.5211495139E-01    0.6018263087E+00    0.7252659357E-03    0.3194754767E+00
    0.7000000000E+06    0.3602642456E+00    0.4543094576E-01    0.6119202774E+00    0.6215705797E-03    0.3197121568E+00
    0.9000000000E+06    0.3602703310E+00    0.4092777279E-01    0.6187123354E+00    0.5528947648E-03    0.3198621651E+00
    0.1100000000E+07    0.3602611571E+00    0.3761530218E-01    0.6237039224E+00    0.5030228539E-03    0.3199696597E+00
    0.1300000000E+07    0.3602459218E+00    0.3504002444E-01    0.6275819010E+00    0.4646472506E-03    0.3200524971E+00
    0.1500000000E+07    0.3602282964E+00    0.3295988476E-01    0.6307125118E+00    0.4339153183E-03    0.3201194543E+00
    0.1700000000E+07    0.3602099135E+00    0.3123193444E-01    0.6333118674E+00    0.4085743291E-03    0.3201754231E+00
    0.1900000000E+07    0.3601915444E+00    0.2976541781E-01    0.6355170807E+00    0.3872059536E-03    0.3202233814E+00
    0.2100000000E+07    0.3601735614E+00    0.2849948741E-01    0.6374200267E+00    0.3688660906E-03    0.3202652641E+00
    0.2300000000E+07    0.3601561400E+00    0.2739157115E-01    0.6390849538E+00    0.3528983683E-03    0.3203023935E+00
    0.2500000000E+07    0.3601393540E+00    0.2641084420E-01    0.6405583616E+00    0.3388302131E-03    0.3203357100E+00
    0.2700000000E+07    0.3601232241E+00    0.2553434900E-01    0.6418748684E+00    0.3263114572E-03    0.3203659047E+00
    0.2900000000E+07    0.3601077422E+00    0.2474457861E-01    0.6430608643E+00    0.3150763114E-03    0.3203934995E+00
    0.3100000000E+07    0.3600928857E+00    0.2402791182E-01    0.6441368757E+00    0.3049188628E-03    0.3204188973E+00
    0.3300000000E+07    0.3600786249E+00    0.2337356593E-01    0.6451191468E+00    0.2956767530E-03    0.3204424154E+00
    0.3500000000E+07    0.3600649271E+00    0.2277287592E-01    0.6460207282E+00    0.2872199899E-03    0.3204643079E+00
    0.3700000000E+07    0.3600517590E+00    0.2221878598E-01    0.6468522445E+00    0.2794430866E-03    0.3204847814E+00
    0.3900000000E+07    0.3600390884E+00    0.2170548307E-01    0.6476224467E+00    0.2722594171E-03    0.3205040056E+00
    0.4100000000E+07    0.3600268841E+00    0.2122812788E-01    0.6483386187E+00    0.2655970852E-03    0.3205221222E+00
    0.4300000000E+07    0.3600151173E+00    0.2078265388E-01    0.6490068801E+00    0.2593958493E-03    0.3205392501E+00
    0.4500000000E+07    0.3600037606E+00    0.2036561490E-01    0.6496324160E+00    0.2536047977E-03    0.3205554903E+00
    0.4700000000E+07    0.3599927890E+00    0.1997406812E-01    0.6502196533E+00    0.2481805672E-03    0.3205709292E+00
    0.4900000000E+07    0.3599821791E+00    0.1960548293E-01    0.6507723984E+00    0.2430859613E-03    0.3205856413E+00
    0.1000000000E+07    0.3602668752E+00    0.3915811876E-01    0.6213795277E+00    0.5261811942E-03    0.3199197954E+00
    0.3000000000E+07    0.3601002375E+00    0.2437783801E-01    0.6436115171E+00    0.3098738923E-03    0.3204064515E+00
    0.5000000000E+07    0.3599770030E+00    0.1942910487E-01    0.6510368832E+00    0.2406520579E-03    0.3205927453E+00
    0.7000000000E+07    0.3598880623E+00    0.1670286530E-01    0.6551234086E+00    0.2033767904E-03    0.3207086795E+00
    0.9000000000E+07    0.3598188813E+00    0.1490778127E-01    0.6578125410E+00    0.1792130439E-03    0.3207928784E+00
    0.1100000000E+08    0.3597623509E+00    0.1360823987E-01    0.6597584976E+00    0.1619272387E-03    0.3208589893E+00
    0.1300000000E+08    0.3597145819E+00    0.1260993724E-01    0.6612528920E+00    0.1487761202E-03    0.3209134113E+00
    0.1500000000E+08    0.3596732314E+00    0.1181114917E-01    0.6624483182E+00    0.1383385564E-03    0.3209596574E+00
    0.1700000000E+08    0.3596367826E+00    0.1115269442E-01    0.6634335187E+00    0.1297949102E-03    0.3209998637E+00
    0.1900000000E+08    0.3596041983E+00    0.1059745239E-01    0.6642641393E+00    0.1226348682E-03    0.3210354258E+00
    0.2100000000E+08    0.3595747387E+00    0.1012078518E-01    0.6649771035E+00    0.1165219041E-03    0.3210673057E+00
    0.2300000000E+08    0.3595478575E+00    0.9705602147E-02    0.6655980190E+00    0.1112239134E-03    0.3210961945E+00
    0.2500000000E+08    0.3595231400E+00    0.9339620139E-02    0.6661452864E+00    0.1065749393E-03    0.3211226055E+00
    0.2700000000E+08    0.3595002640E+00    0.9013750380E-02    0.6666325190E+00    0.1024527582E-03    0.3211469302E+00
