  Pressure (Pa) 22mC5-400 (mol/kg) 2mC6-400 (mol/kg) 3mC6-400 (mol/kg) 33mC5-400 (mol/kg) 23mC5-400 (mol/kg)
    0.1000000000E+01    0.5300687428E-03    0.3185357282E-02    0.2642898346E-02    0.1296767026E-03    0.7445934268E-03
    0.3000000000E+01    0.1574263869E-02    0.9383454950E-02    0.7805840614E-02    0.3820139463E-03    0.2211399896E-02
    0.5000000000E+01    0.2597873509E-02    0.1536089175E-01    0.1281166797E-01    0.6253821684E-03    0.3649307691E-02
    0.7000000000E+01    0.3601666512E-02    0.2112842213E-01    0.1766795087E-01    0.8602184032E-03    0.5059396018E-02
    0.9000000000E+01    0.4586372598E-02    0.2669612146E-01    0.2238177363E-01    0.1086932081E-02    0.6442689160E-02
    0.1100000000E+02    0.5552684836E-02    0.3207343868E-01    0.2695977301E-01    0.1305907169E-02    0.7800159958E-02
    0.1300000000E+02    0.6501261939E-02    0.3726924414E-01    0.3140817318E-01    0.1517504115E-02    0.9132733034E-02
    0.1500000000E+02    0.7432730384E-02    0.4229187310E-01    0.3573281752E-01    0.1722061621E-02    0.1044128776E-01
    0.1700000000E+02    0.8347686381E-02    0.4714916538E-01    0.3993919741E-01    0.1919898249E-02    0.1172666104E-01
    0.1900000000E+02    0.9246697694E-02    0.5184850151E-01    0.4403247854E-01    0.2111313894E-02    0.1298964984E-01
    0.2100000000E+02    0.1013030534E-01    0.5639683578E-01    0.4801752479E-01    0.2296591129E-02    0.1423101358E-01
    0.2300000000E+02    0.1099902515E-01    0.6080072643E-01    0.5189892014E-01    0.2475996430E-02    0.1545147635E-01
    0.2500000000E+02    0.1185334926E-01    0.6506636341E-01    0.5568098863E-01    0.2649781306E-02    0.1665172894E-01
    0.2700000000E+02    0.1269374742E-01    0.6919959371E-01    0.5936781261E-01    0.2818183326E-02    0.1783243080E-01
    0.2900000000E+02    0.1352066834E-01    0.7320594472E-01    0.6296324955E-01    0.2981427075E-02    0.1899421174E-01
    0.3100000000E+02    0.1433454078E-01    0.7709064566E-01    0.6647094738E-01    0.3139725017E-02    0.2013767366E-01
    0.3300000000E+02    0.1513577474E-01    0.8085864734E-01    0.6989435864E-01    0.3293278305E-02    0.2126339209E-01
    0.3500000000E+02    0.1592476245E-01    0.8451464034E-01    0.7323675347E-01    0.3442277517E-02    0.2237191760E-01
    0.3700000000E+02    0.1670187931E-01    0.8806307182E-01    0.7650123158E-01    0.3586903337E-02    0.2346377718E-01
    0.3900000000E+02    0.1746748485E-01    0.9150816102E-01    0.7969073331E-01    0.3727327190E-02    0.2453947550E-01
    0.4100000000E+02    0.1822192351E-01    0.9485391357E-01    0.8280804980E-01    0.3863711821E-02    0.2559949611E-01
    0.4300000000E+02    0.1896552550E-01    0.9810413479E-01    0.8585583238E-01    0.3996211836E-02    0.2664430250E-01
    0.4500000000E+02    0.1969860747E-01    0.1012624420E+00    0.8883660134E-01    0.4124974201E-02    0.2767433920E-01
    0.4700000000E+02    0.2042147325E-01    0.1043322758E+00    0.9175275393E-01    0.4250138704E-02    0.2869003272E-01
    0.4900000000E+02    0.2113441448E-01    0.1073169110E+00    0.9460657189E-01    0.4371838389E-02    0.2969179245E-01
    0.1000000000E+02    0.5071785999E-02    0.2940801041E-01    0.2468735295E-01    0.1197363891E-02    0.7124593469E-02
    0.3000000000E+02    0.1392920956E-01    0.7516318572E-01    0.6472784565E-01    0.3061181444E-02    0.1956819601E-01
    0.5000000000E+02    0.2148725136E-01    0.1087782594E+00    0.9601078854E-01    0.4431428754E-02    0.3018757064E-01
    0.7000000000E+02    0.2808550479E-01    0.1342162738E+00    0.1212994242E+00    0.5469121903E-02    0.3945942483E-01
    0.9000000000E+02    0.3395069289E-01    0.1539064932E+00    0.1422893337E+00    0.6272958102E-02    0.4770203493E-01
    0.1100000000E+03    0.3924038062E-01    0.1694178935E+00    0.1600811384E+00    0.6906684947E-02    0.5513659979E-01
    0.1300000000E+03    0.4406775838E-01    0.1818069580E+00    0.1754219509E+00    0.7413231613E-02    0.6192202742E-01
    0.1500000000E+03    0.4851643241E-01    0.1918097440E+00    0.1888377555E+00    0.7822511527E-02    0.6817569590E-01
    0.1700000000E+03    0.5264963750E-01    0.1999538455E+00    0.2007102550E+00    0.8155970418E-02    0.7398638522E-01
    0.1900000000E+03    0.5651618747E-01    0.2066266439E+00    0.2113236322E+00    0.8429358505E-02    0.7942263027E-01
    0.2100000000E+03    0.6015444030E-01    0.2121185043E+00    0.2208941540E+00    0.8654484968E-02    0.8453828700E-01
    0.2300000000E+03    0.6359501286E-01    0.2166510066E+00    0.2295895547E+00    0.8840364544E-02    0.8937634338E-01
    0.2500000000E+03    0.6686268421E-01    0.2203959135E+00    0.2375421031E+00    0.8993987922E-02    0.9397159133E-01
    0.2700000000E+03    0.6997775832E-01    0.2234882284E+00    0.2448576383E+00    0.9120852076E-02    0.9835253978E-01
    0.2900000000E+03    0.7295705812E-01    0.2260353771E+00    0.2516219574E+00    0.9225333214E-02    0.1025428103E+00
    0.3100000000E+03    0.7581466297E-01    0.2281237888E+00    0.2579054238E+00    0.9310954073E-02    0.1065621723E+00
    0.3300000000E+03    0.7856246400E-01    0.2298236930E+00    0.2637663488E+00    0.9380578771E-02    0.1104273228E+00
    0.3500000000E+03    0.8121058813E-01    0.2311926696E+00    0.2692535145E+00    0.9436557038E-02    0.1141524818E+00
    0.3700000000E+03    0.8376772584E-01    0.2322783133E+00    0.2744080827E+00    0.9480832458E-02    0.1177498523E+00
    0.3900000000E+03    0.8624138745E-01    0.2331202584E+00    0.2792650580E+00    0.9515024736E-02    0.1212299803E+00
    0.4100000000E+03    0.8863810563E-01    0.2337517350E+00    0.2838544230E+00    0.9540492934E-02    0.1246020389E+00
    0.4300000000E+03    0.9096359692E-01    0.2342007778E+00    0.2882020281E+00    0.9558384608E-02    0.1278740555E+00
    0.4500000000E+03    0.9322289179E-01    0.2344911743E+00    0.2923302973E+00    0.9569674348E-02    0.1310530939E+00
    0.4700000000E+03    0.9542044007E-01    0.2346432154E+00    0.2962587917E+00    0.9575194288E-02    0.1341454026E+00
    0.4900000000E+03    0.9756019728E-01    0.2346742943E+00    0.3000046642E+00    0.9575658452E-02    0.1371565361E+00
    0.1000000000E+03    0.3665956815E-01    0.1621092713E+00    0.1515319299E+00    0.6608026616E-02    0.5150922367E-01
    0.3000000000E+03    0.7440028344E-01    0.2271322027E+00    0.2548199034E+00    0.9270308630E-02    0.1045727470E+00
    0.5000000000E+03    0.9860952291E-01    0.2346492364E+00    0.3018139114E+00    0.9574190354E-02    0.1386332330E+00
    0.7000000000E+03    0.1172507642E+00    0.2305166305E+00    0.3312834364E+00    0.9391406876E-02    0.1648726498E+00
    0.9000000000E+03    0.1325812602E+00    0.2232290971E+00    0.3524715568E+00    0.9072507443E-02    0.1864606850E+00
    0.1100000000E+04    0.1455885509E+00    0.2152295962E+00    0.3688943162E+00    0.8720171357E-02    0.2047840509E+00
    0.1300000000E+04    0.1568201804E+00    0.2073617503E+00    0.3822390159E+00    0.8370893552E-02    0.2206116165E+00
    0.1500000000E+04    0.1666283139E+00    0.1999304186E+00    0.3934387294E+00    0.8038514745E-02    0.2344379201E+00
    0.1700000000E+04    0.1752623008E+00    0.1930323554E+00    0.4030614334E+00    0.7727917064E-02    0.2466131517E+00
    0.1900000000E+04    0.1829100845E+00    0.1866780412E+00    0.4114776928E+00    0.7440138644E-02    0.2574012962E+00
    0.2100000000E+04    0.1897192414E+00    0.1808417874E+00    0.4189422889E+00    0.7174517497E-02    0.2670096712E+00
    0.2300000000E+04    0.1958088450E+00    0.1754838551E+00    0.4256377278E+00    0.6929663202E-02    0.2756055806E+00
    0.2500000000E+04    0.2012767700E+00    0.1705606046E+00    0.4316991190E+00    0.6703919366E-02    0.2833265664E+00
    0.2700000000E+04    0.2062045289E+00    0.1660291747E+00    0.4372292216E+00    0.6495588461E-02    0.2902871964E+00
    0.2900000000E+04    0.2106606685E+00    0.1618495468E+00    0.4423079725E+00    0.6303039860E-02    0.2965838307E+00
    0.3100000000E+04    0.2147032657E+00    0.1579853259E+00    0.4469987530E+00    0.6124758449E-02    0.3022981249E+00
    0.3300000000E+04    0.2183818266E+00    0.1544038891E+00    0.4513526480E+00    0.5959362449E-02    0.3074996952E+00
    0.3500000000E+04    0.2217387687E+00    0.1510762321E+00    0.4554114199E+00    0.5805605324E-02    0.3122481987E+00
    0.3700000000E+04    0.2248105992E+00    0.1479766804E+00    0.4592096372E+00    0.5662369704E-02    0.3165949884E+00
    0.3900000000E+04    0.2276288666E+00    0.1450825539E+00    0.4627762287E+00    0.5528657608E-02    0.3205844481E+00
    0.4100000000E+04    0.2302209356E+00    0.1423738297E+00    0.4661356412E+00    0.5403579313E-02    0.3242550819E+00
    0.4300000000E+04    0.2326106252E+00    0.1398328235E+00    0.4693087145E+00    0.5286342105E-02    0.3276404094E+00
    0.4500000000E+04    0.2348187366E+00    0.1374439000E+00    0.4723133540E+00    0.5176239579E-02    0.3307697071E+00
    0.4700000000E+04    0.2368634924E+00    0.1351932144E+00    0.4751650532E+00    0.5072641766E-02    0.3336686267E+00
    0.4900000000E+04    0.2387609051E+00    0.1330684857E+00    0.4778773056E+00    0.4974986228E-02    0.3363597110E+00
    0.1000000000E+04    0.1393348128E+00    0.2192464592E+00    0.3611482439E+00    0.8897437799E-02    0.1959735906E+00
    0.3000000000E+04    0.2127303839E+00    0.1598801370E+00    0.4446984178E+00    0.6212205318E-02    0.2995091639E+00
    0.5000000000E+04    0.2396588342E+00    0.1320498954E+00    0.4791848911E+00    0.4928227538E-02    0.3376336179E+00
    0.7000000000E+04    0.2525447713E+00    0.1162006670E+00    0.5002446805E+00    0.4207842045E-02    0.3559508169E+00
    0.9000000000E+04    0.2598034448E+00    0.1056862638E+00    0.5150610992E+00    0.3741332440E-02    0.3663147750E+00
    0.1100000000E+05    0.2643611283E+00    0.9801954629E-01    0.5263105136E+00    0.3409432607E-02    0.3728533010E+00
    0.1300000000E+05    0.2674488460E+00    0.9207592921E-01    0.5352736576E+00    0.3157845386E-02    0.3773053015E+00
    0.1500000000E+05    0.2696603628E+00    0.8727026093E-01    0.5426581498E+00    0.2958423009E-02    0.3805107091E+00
    0.1700000000E+05    0.2713126514E+00    0.8326510388E-01    0.5488938664E+00    0.2795079209E-02    0.3829185719E+00
    0.1900000000E+05    0.2725885900E+00    0.7985029134E-01    0.5542602809E+00    0.2657910354E-02    0.3847883642E+00
    0.2100000000E+05    0.2736003428E+00    0.7688694142E-01    0.5589486099E+00    0.2540454265E-02    0.3862794785E+00
    0.2300000000E+05    0.2744201763E+00    0.7427889941E-01    0.5630950210E+00    0.2438294181E-02    0.3874947760E+00
    0.2500000000E+05    0.2750965746E+00    0.7195705029E-01    0.5667996509E+00    0.2348295342E-02    0.3885033815E+00
    0.2700000000E+05    0.2756631847E+00    0.6987016631E-01    0.5701381172E+00    0.2268162435E-02    0.3893533469E+00
    0.2900000000E+05    0.2761440353E+00    0.6797929528E-01    0.5731688034E+00    0.2196170291E-02    0.3900790477E+00
    0.3100000000E+05    0.2765567132E+00    0.6625417360E-01    0.5759376473E+00    0.2130993155E-02    0.3907056873E+00
    0.3300000000E+05    0.2769143671E+00    0.6467085112E-01    0.5784813866E+00    0.2071592601E-02    0.3912521428E+00
    0.3500000000E+05    0.2772270123E+00    0.6321007020E-01    0.5808298212E+00    0.2017141698E-02    0.3917328190E+00
    0.3700000000E+05    0.2775024036E+00    0.6185613011E-01    0.5830074266E+00    0.1966972339E-02    0.3921588898E+00
    0.3900000000E+05    0.2777466340E+00    0.6059607299E-01    0.5850345280E+00    0.1920537805E-02    0.3925391505E+00
    0.4100000000E+05    0.2779645529E+00    0.5941908853E-01    0.5869281715E+00    0.1877385618E-02    0.3928806152E+00
    0.4300000000E+05    0.2781600660E+00    0.5831607070E-01    0.5887027799E+00    0.1837137481E-02    0.3931889433E+00
    0.4500000000E+05    0.2783363521E+00    0.5727928245E-01    0.5903706547E+00    0.1799474233E-02    0.3934687496E+00
    0.4700000000E+05    0.2784960235E+00    0.5630209836E-01    0.5919423638E+00    0.1764124376E-02    0.3937238341E+00
    0.4900000000E+05    0.2786412457E+00    0.5537880462E-01    0.5934270467E+00    0.1730855232E-02    0.3939573528E+00
    0.1000000000E+05    0.2623211221E+00    0.1015853787E+00    0.5210327121E+00    0.3562826892E-02    0.3699227243E+00
    0.3000000000E+05    0.2763579879E+00    0.6709763875E-01    0.5745834743E+00    0.2162800456E-02    0.3904034474E+00
    0.5000000000E+05    0.2787090157E+00    0.5493579092E-01    0.5941392791E+00    0.1714937099E-02    0.3940668679E+00
    0.7000000000E+05    0.2796207337E+00    0.4798422909E-01    0.6052957604E+00    0.1468916501E-02    0.3955864700E+00
    0.9000000000E+05    0.2800900100E+00    0.4329220927E-01    0.6127958039E+00    0.1306778668E-02    0.3964245771E+00
    0.1100000000E+06    0.2803692696E+00    0.3983390988E-01    0.6183033680E+00    0.1189263725E-02    0.3969599520E+00
    0.1300000000E+06    0.2805507568E+00    0.3714044307E-01    0.6225793388E+00    0.1098908681E-02    0.3973341522E+00
    0.1500000000E+06    0.2806758389E+00    0.3496148026E-01    0.6260292371E+00    0.1026569359E-02    0.3976121067E+00
    0.1700000000E+06    0.2807657000E+00    0.3314903829E-01    0.6288922424E+00    0.9669198391E-03    0.3978278277E+00
    0.1900000000E+06    0.2808322520E+00    0.3160905017E-01    0.6313200356E+00    0.9166148837E-03    0.3980008825E+00
    0.2100000000E+06    0.2808826771E+00    0.3027836929E-01    0.6334142102E+00    0.8734311031E-03    0.3981433433E+00
    0.2300000000E+06    0.2809215463E+00    0.2911276161E-01    0.6352457831E+00    0.8358242065E-03    0.3982630732E+00
    0.2500000000E+06    0.2809518966E+00    0.2808016258E-01    0.6368661337E+00    0.8026830222E-03    0.3983654202E+00
    0.2700000000E+06    0.2809758188E+00    0.2715666612E-01    0.6383135002E+00    0.7731845108E-03    0.3984541534E+00
    0.2900000000E+06    0.2809947946E+00    0.2632402419E-01    0.6396170228E+00    0.7467040996E-03    0.3985320083E+00
    0.3100000000E+06    0.2810099008E+00    0.2556802617E-01    0.6407993601E+00    0.7227579764E-03    0.3986010207E+00
    0.3300000000E+06    0.2810219366E+00    0.2487741338E-01    0.6418784385E+00    0.7009646801E-03    0.3986627385E+00
    0.3500000000E+06    0.2810315062E+00    0.2424313132E-01    0.6428686566E+00    0.6810187903E-03    0.3987183607E+00
    0.3700000000E+06    0.2810390736E+00    0.2365780173E-01    0.6437817330E+00    0.6626724494E-03    0.3987688312E+00
    0.3900000000E+06    0.2810450007E+00    0.2311534187E-01    0.6446273179E+00    0.6457220998E-03    0.3988149040E+00
    0.4100000000E+06    0.2810495726E+00    0.2261068478E-01    0.6454134416E+00    0.6299987796E-03    0.3988571890E+00
    0.4300000000E+06    0.2810530170E+00    0.2213957010E-01    0.6461468493E+00    0.6153608995E-03    0.3988961850E+00
    0.4500000000E+06    0.2810555174E+00    0.2169838552E-01    0.6468332550E+00    0.6016887838E-03    0.3989323047E+00
    0.4700000000E+06    0.2810572230E+00    0.2128404470E-01    0.6474775366E+00    0.5888804873E-03    0.3989658922E+00
    0.4900000000E+06    0.2810582561E+00    0.2089389236E-01    0.6480838870E+00    0.5768485499E-03    0.3989972373E+00
    0.1000000000E+06    0.2802458135E+00    0.4144546705E-01    0.6157391951E+00    0.1243815539E-02    0.3967185431E+00
    0.3000000000E+06    0.2810027761E+00    0.2593720748E-01    0.6402221245E+00    0.7344401375E-03    0.3985675135E+00
    0.5000000000E+06    0.2810585527E+00    0.2070715624E-01    0.6483739910E+00    0.5710997070E-03    0.3990121471E+00
    0.7000000000E+06    0.2810463637E+00    0.1781774364E-01    0.6528537734E+00    0.4829975558E-03    0.3992364685E+00
    0.9000000000E+06    0.2810200982E+00    0.1591211475E-01    0.6557989361E+00    0.4258228262E-03    0.3993799728E+00
    0.1100000000E+07    0.2809911166E+00    0.1453104007E-01    0.6579287357E+00    0.3848901800E-03    0.3994833376E+00
    0.1300000000E+07    0.2809626073E+00    0.1346926111E-01    0.6595634680E+00    0.3537298582E-03    0.3995632458E+00
    0.1500000000E+07    0.2809355274E+00    0.1261916339E-01    0.6608706136E+00    0.3289873397E-03    0.3996279713E+00
    0.1700000000E+07    0.2809101084E+00    0.1191807070E-01    0.6619475161E+00    0.3087265594E-03    0.3996821541E+00
    0.1900000000E+07    0.2808863268E+00    0.1132663641E-01    0.6628551851E+00    0.2917414110E-03    0.3997286314E+00
    0.2100000000E+07    0.2808640715E+00    0.1081872685E-01    0.6636340873E+00    0.2772361402E-03    0.3997692529E+00
    0.2300000000E+07    0.2808432072E+00    0.1037620314E-01    0.6643122774E+00    0.2646616793E-03    0.3998052861E+00
    0.2500000000E+07    0.2808235996E+00    0.9986022266E-02    0.6649099085E+00    0.2536252978E-03    0.3998376343E+00
    0.2700000000E+07    0.2808051244E+00    0.9638529016E-02    0.6654418860E+00    0.2438376643E-03    0.3998669625E+00
    0.2900000000E+07    0.2807876700E+00    0.9326400180E-02    0.6659195066E+00    0.2350802903E-03    0.3998937736E+00
    0.3100000000E+07    0.2807711379E+00    0.9043965478E-02    0.6663515111E+00    0.2271846847E-03    0.3999184561E+00
    0.3300000000E+07    0.2807554411E+00    0.8786755830E-02    0.6667447845E+00    0.2200185474E-03    0.3999413165E+00
    0.3500000000E+07    0.2807405035E+00    0.8551194117E-02    0.6671048343E+00    0.2134763526E-03    0.3999626005E+00
    0.3700000000E+07    0.2807262580E+00    0.8334378110E-02    0.6674361268E+00    0.2074727638E-03    0.3999825076E+00
    0.3900000000E+07    0.2807126456E+00    0.8133924761E-02    0.6677423275E+00    0.2019379258E-03    0.4000012024E+00
    0.4100000000E+07    0.2806996141E+00    0.7947856317E-02    0.6680264772E+00    0.1968140324E-03    0.4000188218E+00
    0.4300000000E+07    0.2806871173E+00    0.7774515605E-02    0.6682911227E+00    0.1920527801E-03    0.4000354811E+00
    0.4500000000E+07    0.2806751140E+00    0.7612502019E-02    0.6685384157E+00    0.1876134507E-03    0.4000512781E+00
    0.4700000000E+07    0.2806635676E+00    0.7460622498E-02    0.6687701886E+00    0.1834614457E-03    0.4000662967E+00
    0.4900000000E+07    0.2806524453E+00    0.7317853498E-02    0.6689880125E+00    0.1795671531E-03    0.4000806091E+00
    0.1000000000E+07    0.2810056636E+00    0.1517212766E-01    0.6569405819E+00    0.4038360344E-03    0.3994353392E+00
    0.3000000000E+07    0.2807792944E+00    0.9181774363E-02    0.6661407435E+00    0.2310337563E-03    0.3999063601E+00
    0.5000000000E+07    0.2806470337E+00    0.7249604464E-02    0.6690921250E+00    0.1777085363E-03    0.4000875204E+00
    0.7000000000E+07    0.2805552664E+00    0.6200412851E-02    0.6706913480E+00    0.1493933763E-03    0.4002003270E+00
    0.9000000000E+07    0.2804850732E+00    0.5515400566E-02    0.6717341363E+00    0.1311886675E-03    0.4002822669E+00
    0.1100000000E+08    0.2804282495E+00    0.5022350255E-02    0.6724840306E+00    0.1182388642E-03    0.4003466067E+00
    0.1300000000E+08    0.2803805192E+00    0.4645212471E-02    0.6730572409E+00    0.1084276699E-03    0.4003995709E+00
    0.1500000000E+08    0.2803393738E+00    0.4344457009E-02    0.6735141105E+00    0.1006662643E-03    0.4004445777E+00
    0.1700000000E+08    0.2803032170E+00    0.4097211628E-02    0.6738895263E+00    0.9432996984E-04    0.4004837059E+00
    0.1900000000E+08    0.2802709699E+00    0.3889192796E-02    0.6742052608E+00    0.8903149319E-04    0.4005183138E+00
    0.2100000000E+08    0.2802418697E+00    0.3710954447E-02    0.6744757052E+00    0.8451632161E-04    0.4005493378E+00
    0.2300000000E+08    0.2802153568E+00    0.3555964113E-02    0.6747108070E+00    0.8060943177E-04    0.4005774505E+00
    0.2500000000E+08    0.2801910086E+00    0.3419539231E-02    0.6749176941E+00    0.7718599738E-04    0.4006031516E+00
    0.2700000000E+08    0.2801684985E+00    0.3298222947E-02    0.6751016266E+00    0.7415428957E-04    0.4006268221E+00
