  Pressure (Pa) 22mC5-400 (mol/kg) 2mC6-400 (mol/kg) 3mC6-400 (mol/kg) 33mC5-400 (mol/kg) 23mC5-400 (mol/kg)
    0.1000000000E+01    0.5279964085E-03    0.7921868314E-02    0.1578857734E-02    0.2579981108E-03    0.1854208695E-03
    0.3000000000E+01    0.1556293243E-02    0.2310202587E-01    0.4624295194E-02    0.7523881142E-03    0.5465413867E-03
    0.5000000000E+01    0.2549737934E-02    0.3745604715E-01    0.7529597180E-02    0.1219879288E-02    0.8954288029E-03
    0.7000000000E+01    0.3510621282E-02    0.5104796761E-01    0.1030522247E-01    0.1662556908E-02    0.1232887096E-02
    0.9000000000E+01    0.4441028788E-02    0.6393540490E-01    0.1296059194E-01    0.2082297235E-02    0.1559648197E-02
    0.1100000000E+02    0.5342863524E-02    0.7617034168E-01    0.1550421522E-01    0.2480793011E-02    0.1876380017E-02
    0.1300000000E+02    0.6217865999E-02    0.8779979667E-01    0.1794379919E-01    0.2859575312E-02    0.2183693416E-02
    0.1500000000E+02    0.7067631452E-02    0.9886640212E-01    0.2028634127E-01    0.3220032362E-02    0.2482148274E-02
    0.1700000000E+02    0.7893624970E-02    0.1094089026E+00    0.2253820994E-01    0.3563425776E-02    0.2772258795E-02
    0.1900000000E+02    0.8697194739E-02    0.1194625872E+00    0.2470521447E-01    0.3890904638E-02    0.3054498156E-02
    0.2100000000E+02    0.9479583695E-02    0.1290596656E+00    0.2679266558E-01    0.4203517743E-02    0.3329302597E-02
    0.2300000000E+02    0.1024193979E-01    0.1382295960E+00    0.2880542829E-01    0.4502224283E-02    0.3597075027E-02
    0.2500000000E+02    0.1098532508E-01    0.1469993718E+00    0.3074796818E-01    0.4787903188E-02    0.3858188203E-02
    0.2700000000E+02    0.1171072375E-01    0.1553937737E+00    0.3262439197E-01    0.5061361329E-02    0.4112987563E-02
    0.2900000000E+02    0.1241904932E-01    0.1634355914E+00    0.3443848325E-01    0.5323340733E-02    0.4361793731E-02
    0.3100000000E+02    0.1311115093E-01    0.1711458187E+00    0.3619373396E-01    0.5574524957E-02    0.4604904751E-02
    0.3300000000E+02    0.1378781911E-01    0.1785438268E+00    0.3789337226E-01    0.5815544711E-02    0.4842598084E-02
    0.3500000000E+02    0.1444979080E-01    0.1856475176E+00    0.3954038729E-01    0.6046982863E-02    0.5075132393E-02
    0.3700000000E+02    0.1509775396E-01    0.1924734600E+00    0.4113755109E-01    0.6269378870E-02    0.5302749146E-02
    0.3900000000E+02    0.1573235164E-01    0.1990370113E+00    0.4268743823E-01    0.6483232740E-02    0.5525674047E-02
    0.4100000000E+02    0.1635418565E-01    0.2053524257E+00    0.4419244327E-01    0.6689008558E-02    0.5744118338E-02
    0.4300000000E+02    0.1696381996E-01    0.2114329512E+00    0.4565479642E-01    0.6887137646E-02    0.5958279963E-02
    0.4500000000E+02    0.1756178361E-01    0.2172909167E+00    0.4707657756E-01    0.7078021399E-02    0.6168344620E-02
    0.4700000000E+02    0.1814857350E-01    0.2229378100E+00    0.4845972890E-01    0.7262033821E-02    0.6374486724E-02
    0.4900000000E+02    0.1872465685E-01    0.2283843482E+00    0.4980606628E-01    0.7439523820E-02    0.6576870264E-02
    0.1000000000E+02    0.4895405374E-02    0.7013138802E-01    0.1424587252E-01    0.2284101445E-02    0.1719228327E-02
    0.3000000000E+02    0.1276707740E-01    0.1673309070E+00    0.3532325604E-01    0.5450241646E-02    0.4484043332E-02
    0.5000000000E+02    0.1900882200E-01    0.2310356381E+00    0.5046596519E-01    0.7525925595E-02    0.6676701165E-02
    0.7000000000E+02    0.2422426106E-01    0.2756531146E+00    0.6209133411E-01    0.8980236395E-02    0.8509070264E-02
    0.9000000000E+02    0.2874093057E-01    0.3083976674E+00    0.7143734295E-01    0.1004803444E-01    0.1009612039E-01
    0.1100000000E+03    0.3275397784E-01    0.3332742308E+00    0.7920837215E-01    0.1085968704E-01    0.1150635425E-01
    0.1300000000E+03    0.3638800950E-01    0.3526806885E+00    0.8583720874E-01    0.1149324315E-01    0.1278351443E-01
    0.1500000000E+03    0.3972695609E-01    0.3681383820E+00    0.9160584446E-01    0.1199821794E-01    0.1395706552E-01
    0.1700000000E+03    0.4282980367E-01    0.3806578629E+00    0.9670673727E-01    0.1240750034E-01    0.1504771581E-01
    0.1900000000E+03    0.4573946661E-01    0.3909358923E+00    0.1012762680E+00    0.1274376608E-01    0.1607053179E-01
    0.2100000000E+03    0.4848807591E-01    0.3994679566E+00    0.1054141299E+00    0.1302314031E-01    0.1703679441E-01
    0.2300000000E+03    0.5110027806E-01    0.4066157086E+00    0.1091951271E+00    0.1325739275E-01    0.1795515711E-01
    0.2500000000E+03    0.5359537321E-01    0.4126490558E+00    0.1126766526E+00    0.1345530751E-01    0.1883239638E-01
    0.2700000000E+03    0.5598874695E-01    0.4177733464E+00    0.1159035953E+00    0.1362356790E-01    0.1967391442E-01
    0.2900000000E+03    0.5829285661E-01    0.4221474563E+00    0.1189116564E+00    0.1376734505E-01    0.2048408531E-01
    0.3100000000E+03    0.6051792738E-01    0.4258961374E+00    0.1217296512E+00    0.1389069971E-01    0.2126649947E-01
    0.3300000000E+03    0.6267245452E-01    0.4291186396E+00    0.1243811418E+00    0.1399686287E-01    0.2202413994E-01
    0.3500000000E+03    0.6476357261E-01    0.4318948556E+00    0.1268856200E+00    0.1408843562E-01    0.2275951198E-01
    0.3700000000E+03    0.6679733168E-01    0.4342897759E+00    0.1292593793E+00    0.1416753421E-01    0.2347474010E-01
    0.3900000000E+03    0.6877890703E-01    0.4363567746E+00    0.1315161681E+00    0.1423589686E-01    0.2417164164E-01
    0.4100000000E+03    0.7071276074E-01    0.4381400654E+00    0.1336676863E+00    0.1429496374E-01    0.2485178351E-01
    0.4300000000E+03    0.7260276768E-01    0.4396765633E+00    0.1357239683E+00    0.1434593752E-01    0.2551652644E-01
    0.4500000000E+03    0.7445231488E-01    0.4409973124E+00    0.1376936806E+00    0.1438982980E-01    0.2616705986E-01
    0.4700000000E+03    0.7626438075E-01    0.4421285932E+00    0.1395843575E+00    0.1442749717E-01    0.2680442972E-01
    0.4900000000E+03    0.7804159891E-01    0.4430927892E+00    0.1414025880E+00    0.1445966938E-01    0.2742956088E-01
    0.1000000000E+03    0.3080141137E-01    0.3216429872E+00    0.7548813968E-01    0.1048013516E-01    0.1082018152E-01
    0.3000000000E+03    0.5941470522E-01    0.4240932564E+00    0.1203428320E+00    0.1383135647E-01    0.2087856301E-01
    0.5000000000E+03    0.7891788176E-01    0.4435183316E+00    0.1422863742E+00    0.1447389376E-01    0.2773779741E-01
    0.7000000000E+03    0.9506672923E-01    0.4467188118E+00    0.1572580830E+00    0.1458284292E-01    0.3341897832E-01
    0.9000000000E+03    0.1093380478E+00    0.4445849635E+00    0.1688088001E+00    0.1451375245E-01    0.3844074379E-01
    0.1100000000E+04    0.1223490406E+00    0.4403027148E+00    0.1783024460E+00    0.1437118455E-01    0.4301985985E-01
    0.1300000000E+04    0.1344222056E+00    0.4350876548E+00    0.1864103591E+00    0.1419536636E-01    0.4726958980E-01
    0.1500000000E+04    0.1457497198E+00    0.4294803057E+00    0.1935146679E+00    0.1400440402E-01    0.5125742506E-01
    0.1700000000E+04    0.1564566038E+00    0.4237453083E+00    0.1998547864E+00    0.1380731781E-01    0.5502726936E-01
    0.1900000000E+04    0.1666295312E+00    0.4180203814E+00    0.2055912909E+00    0.1360891940E-01    0.5860955766E-01
    0.2100000000E+04    0.1763316080E+00    0.4123797054E+00    0.2108375011E+00    0.1341189451E-01    0.6202644720E-01
    0.2300000000E+04    0.1856106326E+00    0.4068636067E+00    0.2156766020E+00    0.1321778265E-01    0.6529471893E-01
    0.2500000000E+04    0.1945040243E+00    0.4014935135E+00    0.2201716065E+00    0.1302747350E-01    0.6842750847E-01
    0.2700000000E+04    0.2030419167E+00    0.3962799336E+00    0.2243714859E+00    0.1284147348E-01    0.7143539296E-01
    0.2900000000E+04    0.2112491821E+00    0.3912269085E+00    0.2283151173E+00    0.1266005583E-01    0.7432710185E-01
    0.3100000000E+04    0.2191467992E+00    0.3863345918E+00    0.2320339240E+00    0.1248334850E-01    0.7710999761E-01
    0.3300000000E+04    0.2267528047E+00    0.3816007890E+00    0.2355536976E+00    0.1231138720E-01    0.7979040972E-01
    0.3500000000E+04    0.2340829689E+00    0.3770218968E+00    0.2388958903E+00    0.1214414835E-01    0.8237387221E-01
    0.3700000000E+04    0.2411512868E+00    0.3725934890E+00    0.2420785530E+00    0.1198157008E-01    0.8486529592E-01
    0.3900000000E+04    0.2479703388E+00    0.3683106860E+00    0.2451170309E+00    0.1182356577E-01    0.8726909531E-01
    0.4100000000E+04    0.2545515611E+00    0.3641683908E+00    0.2480244873E+00    0.1167003298E-01    0.8958928340E-01
    0.4300000000E+04    0.2609054501E+00    0.3601614401E+00    0.2508123062E+00    0.1152085950E-01    0.9182954354E-01
    0.4500000000E+04    0.2670417187E+00    0.3562847009E+00    0.2534904041E+00    0.1137592733E-01    0.9399328434E-01
    0.4700000000E+04    0.2729694179E+00    0.3525331325E+00    0.2560674767E+00    0.1123511553E-01    0.9608368218E-01
    0.4900000000E+04    0.2786970304E+00    0.3489018245E+00    0.2585511945E+00    0.1109830205E-01    0.9810371435E-01
    0.1000000000E+04    0.1159767294E+00    0.4426127170E+00    0.1737613083E+00    0.1444836357E-01    0.4077707913E-01
    0.3000000000E+04    0.2152355095E+00    0.3887607569E+00    0.2302008970E+00    0.1257110944E-01    0.7573173474E-01
    0.5000000000E+04    0.2814883185E+00    0.3471297752E+00    0.2597602017E+00    0.1103135660E-01    0.9908822579E-01
    0.7000000000E+04    0.3285457577E+00    0.3169384671E+00    0.2803512109E+00    0.9873702553E-02    0.1156937849E+00
    0.9000000000E+04    0.3626324054E+00    0.2944187964E+00    0.2962521938E+00    0.8992425727E-02    0.1277341678E+00
    0.1100000000E+05    0.3877799268E+00    0.2771100934E+00    0.3092304002E+00    0.8308386448E-02    0.1366262775E+00
    0.1300000000E+05    0.4066955388E+00    0.2634235077E+00    0.3202001649E+00    0.7766126865E-02    0.1433222184E+00
    0.1500000000E+05    0.4212022020E+00    0.2523186591E+00    0.3296999017E+00    0.7327275864E-02    0.1484634860E+00
    0.1700000000E+05    0.4325353718E+00    0.2431011321E+00    0.3380748968E+00    0.6965203495E-02    0.1524850577E+00
    0.1900000000E+05    0.4415424885E+00    0.2352972472E+00    0.3455604815E+00    0.6661220065E-02    0.1556854403E+00
    0.2100000000E+05    0.4488138694E+00    0.2285765101E+00    0.3523245603E+00    0.6402006777E-02    0.1582726638E+00
    0.2300000000E+05    0.4547677078E+00    0.2227031295E+00    0.3584912909E+00    0.6177910247E-02    0.1603941651E+00
    0.2500000000E+05    0.4597053560E+00    0.2175052566E+00    0.3641551585E+00    0.5981812195E-02    0.1621562340E+00
    0.2700000000E+05    0.4638476012E+00    0.2128551159E+00    0.3693897861E+00    0.5808374881E-02    0.1636367777E+00
    0.2900000000E+05    0.4673587737E+00    0.2086559250E+00    0.3742536867E+00    0.5653531327E-02    0.1648938068E+00
    0.3100000000E+05    0.4703630053E+00    0.2048331150E+00    0.3787941523E+00    0.5514136046E-02    0.1659711609E+00
    0.3300000000E+05    0.4729553629E+00    0.2013283251E+00    0.3830499629E+00    0.5387722112E-02    0.1669024290E+00
    0.3500000000E+05    0.4752095892E+00    0.1980952197E+00    0.3870533210E+00    0.5272329641E-02    0.1677136780E+00
    0.3700000000E+05    0.4771835665E+00    0.1950965247E+00    0.3908312647E+00    0.5166382879E-02    0.1684253776E+00
    0.3900000000E+05    0.4789232275E+00    0.1923018925E+00    0.3944067190E+00    0.5068600875E-02    0.1690537790E+00
    0.4100000000E+05    0.4804653929E+00    0.1896863419E+00    0.3977992918E+00    0.4977931674E-02    0.1696119159E+00
    0.4300000000E+05    0.4818398575E+00    0.1872291000E+00    0.4010258859E+00    0.4893503218E-02    0.1701103400E+00
    0.4500000000E+05    0.4830709411E+00    0.1849127323E+00    0.4041011754E+00    0.4814586260E-02    0.1705576682E+00
    0.4700000000E+05    0.4841786559E+00    0.1827224814E+00    0.4070379818E+00    0.4740566055E-02    0.1709609947E+00
    0.4900000000E+05    0.4851795934E+00    0.1806457567E+00    0.4098475732E+00    0.4670920486E-02    0.1713262043E+00
    0.1000000000E+05    0.3761293457E+00    0.2852283058E+00    0.3030373711E+00    0.8629691658E-02    0.1325054682E+00
    0.3000000000E+05    0.4689177383E+00    0.2067014437E+00    0.3765617513E+00    0.5582070446E-02    0.1654526403E+00
    0.5000000000E+05    0.4856444412E+00    0.1796465254E+00    0.4112078202E+00    0.4637596087E-02    0.1714960838E+00
    0.7000000000E+05    0.4917353929E+00    0.1636447272E+00    0.4336391161E+00    0.4119980535E-02    0.1737449422E+00
    0.9000000000E+05    0.4947341982E+00    0.1523622613E+00    0.4500308445E+00    0.3772010582E-02    0.1748794601E+00
    0.1100000000E+06    0.4964748189E+00    0.1437041427E+00    0.4628304397E+00    0.3513450727E-02    0.1755554565E+00
    0.1300000000E+06    0.4975949677E+00    0.1367183870E+00    0.4732574727E+00    0.3309663299E-02    0.1760025862E+00
    0.1500000000E+06    0.4983684850E+00    0.1308906712E+00    0.4820065083E+00    0.3142687533E-02    0.1763202136E+00
    0.1700000000E+06    0.4989306432E+00    0.1259111735E+00    0.4895098733E+00    0.3002052303E-02    0.1765578172E+00
    0.1900000000E+06    0.4993552995E+00    0.1215787365E+00    0.4960543992E+00    0.2881136317E-02    0.1767426389E+00
    0.2100000000E+06    0.4996859285E+00    0.1177553859E+00    0.5018397901E+00    0.2775495568E-02    0.1768908539E+00
    0.2300000000E+06    0.4999496653E+00    0.1143424215E+00    0.5070104465E+00    0.2682008231E-02    0.1770126488E+00
    0.2500000000E+06    0.5001642606E+00    0.1112668486E+00    0.5116740126E+00    0.2598400863E-02    0.1771147487E+00
    0.2700000000E+06    0.5003417818E+00    0.1084732026E+00    0.5159127745E+00    0.2522968803E-02    0.1772017686E+00
    0.2900000000E+06    0.5004907004E+00    0.1059183822E+00    0.5197909741E+00    0.2454402635E-02    0.1772769791E+00
    0.3100000000E+06    0.5006171274E+00    0.1035682531E+00    0.5233596744E+00    0.2391675904E-02    0.1773427624E+00
    0.3300000000E+06    0.5007255746E+00    0.1013953402E+00    0.5266600961E+00    0.2333969894E-02    0.1774008946E+00
    0.3500000000E+06    0.5008194418E+00    0.9937721603E-01    0.5297259667E+00    0.2280621735E-02    0.1774527275E+00
    0.3700000000E+06    0.5009013360E+00    0.9749534659E-01    0.5325852115E+00    0.2231087674E-02    0.1774993077E+00
    0.3900000000E+06    0.5009732879E+00    0.9573424857E-01    0.5352611966E+00    0.2184916506E-02    0.1775414590E+00
    0.4100000000E+06    0.5010369016E+00    0.9408086164E-01    0.5377736571E+00    0.2141729979E-02    0.1775798386E+00
    0.4300000000E+06    0.5010934598E+00    0.9252407369E-01    0.5401394028E+00    0.2101208088E-02    0.1776149773E+00
    0.4500000000E+06    0.5011439997E+00    0.9105435621E-01    0.5423728610E+00    0.2063077873E-02    0.1776473088E+00
    0.4700000000E+06    0.5011893685E+00    0.8966348076E-01    0.5444865003E+00    0.2027104770E-02    0.1776771910E+00
    0.4900000000E+06    0.5012302649E+00    0.8834429582E-01    0.5464911647E+00    0.1993085839E-02    0.1777049221E+00
    0.1000000000E+06    0.4957087739E+00    0.1477793591E+00    0.4567863140E+00    0.3634287944E-02    0.1752557193E+00
    0.3000000000E+06    0.5005564126E+00    0.1047195829E+00    0.5216112361E+00    0.2422364681E-02    0.1773109264E+00
    0.5000000000E+06    0.5012492213E+00    0.8770960245E-01    0.5474556424E+00    0.1976753078E-02    0.1777180608E+00
    0.7000000000E+06    0.5014937683E+00    0.7760531594E-01    0.5628067902E+00    0.1719752769E-02    0.1779119242E+00
    0.9000000000E+06    0.5016076122E+00    0.7063242797E-01    0.5733945545E+00    0.1545716617E-02    0.1780326018E+00
    0.1100000000E+07    0.5016677794E+00    0.6541408893E-01    0.5813137970E+00    0.1417272423E-02    0.1781181949E+00
    0.1300000000E+07    0.5017015296E+00    0.6130307208E-01    0.5875495595E+00    0.1317193667E-02    0.1781837301E+00
    0.1500000000E+07    0.5017207347E+00    0.5794706615E-01    0.5926379514E+00    0.1236237763E-02    0.1782364729E+00
    0.1700000000E+07    0.5017313017E+00    0.5513471955E-01    0.5969004890E+00    0.1168923165E-02    0.1782804257E+00
    0.1900000000E+07    0.5017364565E+00    0.5273010043E-01    0.6005438888E+00    0.1111757639E-02    0.1783180038E+00
    0.2100000000E+07    0.5017380855E+00    0.5064106922E-01    0.6037082250E+00    0.1062393084E-02    0.1783507663E+00
    0.2300000000E+07    0.5017373522E+00    0.4880254864E-01    0.6064923999E+00    0.1019182713E-02    0.1783797730E+00
    0.2500000000E+07    0.5017350038E+00    0.4716702788E-01    0.6089685978E+00    0.9809317529E-03    0.1784057746E+00
    0.2700000000E+07    0.5017315370E+00    0.4569886220E-01    0.6111909599E+00    0.9467488487E-03    0.1784293208E+00
    0.2900000000E+07    0.5017272906E+00    0.4437069121E-01    0.6132010337E+00    0.9159532856E-03    0.1784508254E+00
    0.3100000000E+07    0.5017225010E+00    0.4316110122E-01    0.6150313290E+00    0.8880147780E-03    0.1784706072E+00
    0.3300000000E+07    0.5017173365E+00    0.4205304974E-01    0.6167077136E+00    0.8625130973E-03    0.1784889169E+00
    0.3500000000E+07    0.5017119181E+00    0.4103277402E-01    0.6182510729E+00    0.8391102346E-03    0.1785059547E+00
    0.3700000000E+07    0.5017063345E+00    0.4008901656E-01    0.6196784875E+00    0.8175307345E-03    0.1785218831E+00
    0.3900000000E+07    0.5017006508E+00    0.3921246401E-01    0.6210040854E+00    0.7975475037E-03    0.1785368357E+00
    0.4100000000E+07    0.5016949156E+00    0.3839533307E-01    0.6222396719E+00    0.7789713756E-03    0.1785509235E+00
    0.4300000000E+07    0.5016891651E+00    0.3763105970E-01    0.6233952011E+00    0.7616433089E-03    0.1785642399E+00
    0.4500000000E+07    0.5016834262E+00    0.3691406255E-01    0.6244791359E+00    0.7454284660E-03    0.1785768641E+00
    0.4700000000E+07    0.5016777193E+00    0.3623956040E-01    0.6254987248E+00    0.7302116588E-03    0.1785888636E+00
    0.4900000000E+07    0.5016720595E+00    0.3560342954E-01    0.6264602188E+00    0.7158938017E-03    0.1786002968E+00
    0.1000000000E+07    0.5016421489E+00    0.6785418161E-01    0.5776112743E+00    0.1477138784E-02    0.1780785735E+00
    0.3000000000E+07    0.5017249519E+00    0.4375222653E-01    0.6141369035E+00    0.9016553692E-03    0.1784609146E+00
    0.5000000000E+07    0.5016692509E+00    0.3529861628E-01    0.6269209036E+00    0.7090447188E-03    0.1786058170E+00
    0.7000000000E+07    0.5016170391E+00    0.3055329696E-01    0.6340901081E+00    0.6034229945E-03    0.1786958728E+00
    0.9000000000E+07    0.5015725949E+00    0.2739348131E-01    0.6388610235E+00    0.5342040815E-03    0.1787612541E+00
    0.1100000000E+08    0.5015345631E+00    0.2508814491E-01    0.6423402491E+00    0.4843135202E-03    0.1788125849E+00
    0.1300000000E+08    0.5015015090E+00    0.2330690537E-01    0.6450275850E+00    0.4461423917E-03    0.1788548395E+00
    0.1500000000E+08    0.5014723485E+00    0.2187515076E-01    0.6471870571E+00    0.4157130631E-03    0.1788907470E+00
    0.1700000000E+08    0.5014462910E+00    0.2069055020E-01    0.6489733384E+00    0.3907153382E-03    0.1789219660E+00
    0.1900000000E+08    0.5014227547E+00    0.1968853925E-01    0.6504839879E+00    0.3697027410E-03    0.1789495802E+00
    0.2100000000E+08    0.5014013029E+00    0.1882605515E-01    0.6517840575E+00    0.3517169198E-03    0.1789743362E+00
    0.2300000000E+08    0.5013816012E+00    0.1807310235E-01    0.6529188495E+00    0.3360942616E-03    0.1789967704E+00
    0.2500000000E+08    0.5013633884E+00    0.1740804564E-01    0.6539210326E+00    0.3223586470E-03    0.1790172814E+00
    0.2700000000E+08    0.5013464572E+00    0.1681482603E-01    0.6548148516E+00    0.3101583681E-03    0.1790361728E+00
