  Pressure (Pa) 22mC5-400 (mol/kg) 2mC6-400 (mol/kg) 3mC6-400 (mol/kg) 33mC5-400 (mol/kg) 23mC5-400 (mol/kg)
    0.1000000000E+01    0.1060012750E-02    0.2395739077E-02    0.5304915825E-03    0.5201469025E-03    0.5583795237E-03
    0.3000000000E+01    0.3147420601E-02    0.7096443863E-02    0.1577941593E-02    0.1540663244E-02    0.1657968137E-02
    0.5000000000E+01    0.5192713568E-02    0.1167978662E-01    0.2607769304E-02    0.2535608175E-02    0.2735386726E-02
    0.7000000000E+01    0.7197467613E-02    0.1614998388E-01    0.3620464208E-02    0.3505899406E-02    0.3791464793E-02
    0.9000000000E+01    0.9163178548E-02    0.2051105075E-01    0.4616497427E-02    0.4452410850E-02    0.4826989656E-02
    0.1100000000E+02    0.1109126709E-01    0.2476681293E-01    0.5596322566E-02    0.5375975234E-02    0.5842709113E-02
    0.1300000000E+02    0.1298308356E-01    0.2892091792E-01    0.6560376533E-02    0.6277386530E-02    0.6839333907E-02
    0.1500000000E+02    0.1483991219E-01    0.3297684538E-01    0.7509080302E-02    0.7157402212E-02    0.7817540004E-02
    0.1700000000E+02    0.1666297516E-01    0.3693791682E-01    0.8442839644E-02    0.8016745355E-02    0.8777970710E-02
    0.1900000000E+02    0.1845343632E-01    0.4080730457E-01    0.9362045809E-02    0.8856106592E-02    0.9721238634E-02
    0.2100000000E+02    0.2021240468E-01    0.4458804017E-01    0.1026707618E-01    0.9676145930E-02    0.1064792751E-01
    0.2300000000E+02    0.2194093758E-01    0.4828302220E-01    0.1115829488E-01    0.1047749445E-01    0.1155859389E-01
    0.2500000000E+02    0.2364004370E-01    0.5189502354E-01    0.1203605337E-01    0.1126075591E-01    0.1245376871E-01
    0.2700000000E+02    0.2531068588E-01    0.5542669821E-01    0.1290069098E-01    0.1202650818E-01    0.1333395878E-01
    0.2900000000E+02    0.2695378368E-01    0.5888058774E-01    0.1375253544E-01    0.1277530469E-01    0.1419964814E-01
    0.3100000000E+02    0.2857021582E-01    0.6225912711E-01    0.1459190340E-01    0.1350767566E-01    0.1505129932E-01
    0.3300000000E+02    0.3016082244E-01    0.6556465036E-01    0.1541910084E-01    0.1422412938E-01    0.1588935455E-01
    0.3500000000E+02    0.3172640722E-01    0.6879939580E-01    0.1623442360E-01    0.1492515329E-01    0.1671423686E-01
    0.3700000000E+02    0.3326773932E-01    0.7196551093E-01    0.1703815772E-01    0.1561121508E-01    0.1752635115E-01
    0.3900000000E+02    0.3478555527E-01    0.7506505703E-01    0.1783057991E-01    0.1628276368E-01    0.1832608509E-01
    0.4100000000E+02    0.3628056070E-01    0.7810001349E-01    0.1861195789E-01    0.1694023019E-01    0.1911381013E-01
    0.4300000000E+02    0.3775343192E-01    0.8107228189E-01    0.1938255079E-01    0.1758402879E-01    0.1988988227E-01
    0.4500000000E+02    0.3920481748E-01    0.8398368980E-01    0.2014260945E-01    0.1821455755E-01    0.2065464288E-01
    0.4700000000E+02    0.4063533956E-01    0.8683599437E-01    0.2089237681E-01    0.1883219922E-01    0.2140841951E-01
    0.4900000000E+02    0.4204559535E-01    0.8963088573E-01    0.2163208816E-01    0.1943732196E-01    0.2215152648E-01
    0.1000000000E+02    0.1013183963E-01    0.2265186291E-01    0.5108408318E-02    0.4917010920E-02    0.5337279798E-02
    0.3000000000E+02    0.2776527957E-01    0.6057912801E-01    0.1417375962E-01    0.1314351110E-01    0.1462720040E-01
    0.5000000000E+02    0.4274330348E-01    0.9100731210E-01    0.2199824436E-01    0.1973529996E-01    0.2251917365E-01
    0.7000000000E+02    0.5576152307E-01    0.1158863983E+00    0.2884533807E-01    0.2511707858E-01    0.2937935962E-01
    0.9000000000E+02    0.6728381920E-01    0.1365443333E+00    0.3490736645E-01    0.2957817014E-01    0.3545194799E-01
    0.1100000000E+03    0.7763211735E-01    0.1539178394E+00    0.4032818010E-01    0.3332272367E-01    0.4090640812E-01
    0.1300000000E+03    0.8703732704E-01    0.1686870748E+00    0.4521764692E-01    0.3649901422E-01    0.4586430014E-01
    0.1500000000E+03    0.9566974507E-01    0.1813580304E+00    0.4966121823E-01    0.3921737702E-01    0.5041527767E-01
    0.1700000000E+03    0.1036579861E+00    0.1923149806E+00    0.5372642171E-01    0.4156162687E-01    0.5462705223E-01
    0.1900000000E+03    0.1111012014E+00    0.2018550038E+00    0.5746737724E-01    0.4359657549E-01    0.5855182508E-01
    0.2100000000E+03    0.1180772139E+00    0.2102113592E+00    0.6092800586E-01    0.4537312354E-01    0.6223056916E-01
    0.2300000000E+03    0.1246480809E+00    0.2175697142E+00    0.6414435415E-01    0.4693179575E-01    0.6569595775E-01
    0.2500000000E+03    0.1308639903E+00    0.2240796547E+00    0.6714630673E-01    0.4830524911E-01    0.6897441521E-01
    0.2700000000E+03    0.1367660462E+00    0.2298630076E+00    0.6995886774E-01    0.4952008650E-01    0.7208758343E-01
    0.2900000000E+03    0.1423882977E+00    0.2350199613E+00    0.7260313300E-01    0.5059819085E-01    0.7505339021E-01
    0.3100000000E+03    0.1477592431E+00    0.2396336361E+00    0.7509703711E-01    0.5155772136E-01    0.7788684060E-01
    0.3300000000E+03    0.1529029595E+00    0.2437735440E+00    0.7745593409E-01    0.5241386792E-01    0.8060061213E-01
    0.3500000000E+03    0.1578399653E+00    0.2474982415E+00    0.7969305360E-01    0.5317942951E-01    0.8320550847E-01
    0.3700000000E+03    0.1625878851E+00    0.2508573858E+00    0.8181986283E-01    0.5386526258E-01    0.8571080973E-01
    0.3900000000E+03    0.1671619691E+00    0.2538933460E+00    0.8384635624E-01    0.5448063254E-01    0.8812454589E-01
    0.4100000000E+03    0.1715755030E+00    0.2566424776E+00    0.8578128933E-01    0.5503349165E-01    0.9045371252E-01
    0.4300000000E+03    0.1758401342E+00    0.2591361391E+00    0.8763236893E-01    0.5553070090E-01    0.9270444259E-01
    0.4500000000E+03    0.1799661342E+00    0.2614015102E+00    0.8940640905E-01    0.5597820846E-01    0.9488214461E-01
    0.4700000000E+03    0.1839626109E+00    0.2634622549E+00    0.9110945942E-01    0.5638119438E-01    0.9699161447E-01
    0.4900000000E+03    0.1878376825E+00    0.2653390628E+00    0.9274691229E-01    0.5674418873E-01    0.9903712684E-01
    0.1000000000E+03    0.7258858116E-01    0.1455942683E+00    0.3769039249E-01    0.3152968801E-01    0.3824794907E-01
    0.3000000000E+03    0.1451035864E+00    0.2373900796E+00    0.7386786596E-01    0.5109176638E-01    0.7648581896E-01
    0.5000000000E+03    0.1897319933E+00    0.2662142538E+00    0.9354256718E-01    0.5691195123E-01    0.1000371110E+00
    0.7000000000E+03    0.2226722394E+00    0.2774736611E+00    0.1069520720E+00    0.5891527498E-01    0.1174308590E+00
    0.9000000000E+03    0.2486401736E+00    0.2819849224E+00    0.1171513024E+00    0.5947199851E-01    0.1311502973E+00
    0.1100000000E+04    0.2697905998E+00    0.2834767494E+00    0.1254180676E+00    0.5940003731E-01    0.1423301738E+00
    0.1300000000E+04    0.2873636027E+00    0.2835039480E+00    0.1323980619E+00    0.5903959969E-01    0.1516236214E+00
    0.1500000000E+04    0.3021712345E+00    0.2827932628E+00    0.1384600694E+00    0.5854836080E-01    0.1594584134E+00
    0.1700000000E+04    0.3147867747E+00    0.2817102314E+00    0.1438336590E+00    0.5800423638E-01    0.1661366057E+00
    0.1900000000E+04    0.3256339486E+00    0.2804477181E+00    0.1486711652E+00    0.5744705394E-01    0.1718815047E+00
    0.2100000000E+04    0.3350354313E+00    0.2791105214E+00    0.1530787757E+00    0.5689731914E-01    0.1768632000E+00
    0.2300000000E+04    0.3432421214E+00    0.2777563681E+00    0.1571334608E+00    0.5636532820E-01    0.1812139749E+00
    0.2500000000E+04    0.3504521778E+00    0.2764169541E+00    0.1608928118E+00    0.5585584430E-01    0.1850383287E+00
    0.2700000000E+04    0.3568240663E+00    0.2751092310E+00    0.1644010670E+00    0.5537059758E-01    0.1884198456E+00
    0.2900000000E+04    0.3624858392E+00    0.2738416718E+00    0.1676929650E+00    0.5490966230E-01    0.1914260818E+00
    0.3100000000E+04    0.3675419157E+00    0.2726178440E+00    0.1707963021E+00    0.5447223140E-01    0.1941121363E+00
    0.3300000000E+04    0.3720781362E+00    0.2714384883E+00    0.1737336818E+00    0.5405705737E-01    0.1965233135E+00
    0.3500000000E+04    0.3761655893E+00    0.2703027461E+00    0.1765237452E+00    0.5366270419E-01    0.1986971392E+00
    0.3700000000E+04    0.3798635484E+00    0.2692088911E+00    0.1791820559E+00    0.5328769012E-01    0.2006649085E+00
    0.3900000000E+04    0.3832217477E+00    0.2681547663E+00    0.1817217502E+00    0.5293056680E-01    0.2024528846E+00
    0.4100000000E+04    0.3862821643E+00    0.2671380448E+00    0.1841540234E+00    0.5258996090E-01    0.2040832387E+00
    0.4300000000E+04    0.3890804246E+00    0.2661563827E+00    0.1864884998E+00    0.5226459376E-01    0.2055747912E+00
    0.4500000000E+04    0.3916469229E+00    0.2652075060E+00    0.1887335175E+00    0.5195328822E-01    0.2069436016E+00
    0.4700000000E+04    0.3940077181E+00    0.2642892581E+00    0.1908963515E+00    0.5165496814E-01    0.2082034409E+00
    0.4900000000E+04    0.3961852559E+00    0.2633996221E+00    0.1929833901E+00    0.5136865385E-01    0.2093661732E+00
    0.1000000000E+04    0.2597266354E+00    0.2829828098E+00    0.1214768951E+00    0.5948711237E-01    0.1370097867E+00
    0.3000000000E+04    0.3650838389E+00    0.2732241964E+00    0.1692666857E+00    0.5468808008E-01    0.1928060970E+00
    0.5000000000E+04    0.3972114762E+00    0.2629649436E+00    0.1940002751E+00    0.5122971755E-01    0.2099143875E+00
    0.7000000000E+04    0.4116731592E+00    0.2553949338E+00    0.2114394513E+00    0.4890563463E-01    0.2176623311E+00
    0.9000000000E+04    0.4196555275E+00    0.2493078928E+00    0.2251018063E+00    0.4715499569E-01    0.2219669688E+00
    0.1100000000E+05    0.4246416570E+00    0.2441571614E+00    0.2364078854E+00    0.4574279289E-01    0.2246743393E+00
    0.1300000000E+05    0.4280231234E+00    0.2396629067E+00    0.2460866950E+00    0.4455434510E-01    0.2265234917E+00
    0.1500000000E+05    0.4304540528E+00    0.2356611993E+00    0.2545666930E+00    0.4352565032E-01    0.2278625570E+00
    0.1700000000E+05    0.4322791084E+00    0.2320462403E+00    0.2621229674E+00    0.4261730288E-01    0.2288753652E+00
    0.1900000000E+05    0.4336959037E+00    0.2287449138E+00    0.2689435305E+00    0.4180322744E-01    0.2296675502E+00
    0.2100000000E+05    0.4348253505E+00    0.2257041179E+00    0.2751630229E+00    0.4106520834E-01    0.2303038920E+00
    0.2300000000E+05    0.4357453427E+00    0.2228838182E+00    0.2808814251E+00    0.4038997640E-01    0.2308262201E+00
    0.2500000000E+05    0.4365082058E+00    0.2202529427E+00    0.2861751648E+00    0.3976753994E-01    0.2312626996E+00
    0.2700000000E+05    0.4371503290E+00    0.2177868091E+00    0.2911040697E+00    0.3919017082E-01    0.2316329646E+00
    0.2900000000E+05    0.4376977672E+00    0.2154654341E+00    0.2957159101E+00    0.3865175806E-01    0.2319511072E+00
    0.3100000000E+05    0.4381696455E+00    0.2132723799E+00    0.3000494753E+00    0.3814737911E-01    0.2322274966E+00
    0.3300000000E+05    0.4385803065E+00    0.2111939413E+00    0.3041367189E+00    0.3767300588E-01    0.2324699285E+00
    0.3500000000E+05    0.4389407091E+00    0.2092185574E+00    0.3080042952E+00    0.3722529726E-01    0.2326843740E+00
    0.3700000000E+05    0.4392593654E+00    0.2073363775E+00    0.3116746832E+00    0.3680144916E-01    0.2328754830E+00
    0.3900000000E+05    0.4395429841E+00    0.2055389320E+00    0.3151670255E+00    0.3639908379E-01    0.2330469290E+00
    0.4100000000E+05    0.4397969212E+00    0.2038188812E+00    0.3184977643E+00    0.3601616629E-01    0.2332016529E+00
    0.4300000000E+05    0.4400255032E+00    0.2021698195E+00    0.3216811327E+00    0.3565094109E-01    0.2333420358E+00
    0.4500000000E+05    0.4402322617E+00    0.2005861200E+00    0.3247295372E+00    0.3530188240E-01    0.2334700267E+00
    0.4700000000E+05    0.4404201070E+00    0.1990628119E+00    0.3276538608E+00    0.3496765541E-01    0.2335872357E+00
    0.4900000000E+05    0.4405914585E+00    0.1975954802E+00    0.3304637052E+00    0.3464708537E-01    0.2336950047E+00
    0.1000000000E+05    0.4224104791E+00    0.2466367563E+00    0.2309940882E+00    0.4641542796E-01    0.2234605218E+00
    0.3000000000E+05    0.4379421621E+00    0.2143537798E+00    0.2979153402E+00    0.3839558431E-01    0.2320939838E+00
    0.5000000000E+05    0.4406715955E+00    0.1968815577E+00    0.3318283968E+00    0.3449159214E-01    0.2337457087E+00
    0.7000000000E+05    0.4417627155E+00    0.1847744650E+00    0.3547531345E+00    0.3189914993E-01    0.2344621637E+00
    0.9000000000E+05    0.4423373714E+00    0.1755227344E+00    0.3720314343E+00    0.2996962714E-01    0.2348710026E+00
    0.1100000000E+06    0.4426862526E+00    0.1680550922E+00    0.3858517408E+00    0.2844142118E-01    0.2351396758E+00
    0.1300000000E+06    0.4429173238E+00    0.1618101791E+00    0.3973334298E+00    0.2718212606E-01    0.2353321571E+00
    0.1500000000E+06    0.4430796150E+00    0.1564559146E+00    0.4071279797E+00    0.2611532623E-01    0.2354783175E+00
    0.1700000000E+06    0.4431984959E+00    0.1517792023E+00    0.4156484994E+00    0.2519291046E-01    0.2355940441E+00
    0.1900000000E+06    0.4432883612E+00    0.1476350232E+00    0.4231735585E+00    0.2438263838E-01    0.2356886002E+00
    0.2100000000E+06    0.4433579600E+00    0.1439201881E+00    0.4298999279E+00    0.2366186337E-01    0.2357677709E+00
    0.2300000000E+06    0.4434129017E+00    0.1405586519E+00    0.4359717456E+00    0.2301407996E-01    0.2358353663E+00
    0.2500000000E+06    0.4434569393E+00    0.1374927629E+00    0.4414977333E+00    0.2242689552E-01    0.2358940050E+00
    0.2700000000E+06    0.4434926732E+00    0.1346777791E+00    0.4465619016E+00    0.2189077468E-01    0.2359455504E+00
    0.2900000000E+06    0.4435219584E+00    0.1320782876E+00    0.4512304929E+00    0.2139822828E-01    0.2359913675E+00
    0.3100000000E+06    0.4435461513E+00    0.1296657860E+00    0.4555566468E+00    0.2094327047E-01    0.2360324812E+00
    0.3300000000E+06    0.4435662647E+00    0.1274169987E+00    0.4595836293E+00    0.2052104429E-01    0.2360696773E+00
    0.3500000000E+06    0.4435830687E+00    0.1253126779E+00    0.4633471258E+00    0.2012755664E-01    0.2361035692E+00
    0.3700000000E+06    0.4435971588E+00    0.1233367280E+00    0.4668769052E+00    0.1975948652E-01    0.2361346437E+00
    0.3900000000E+06    0.4436090015E+00    0.1214755564E+00    0.4701980528E+00    0.1941404347E-01    0.2361632924E+00
    0.4100000000E+06    0.4436189673E+00    0.1197175829E+00    0.4733318979E+00    0.1908886130E-01    0.2361898346E+00
    0.4300000000E+06    0.4436273535E+00    0.1180528629E+00    0.4762967228E+00    0.1878191704E-01    0.2362145331E+00
    0.4500000000E+06    0.4436344012E+00    0.1164727956E+00    0.4791083135E+00    0.1849146831E-01    0.2362376067E+00
    0.4700000000E+06    0.4436403078E+00    0.1149698935E+00    0.4817803904E+00    0.1821600421E-01    0.2362592393E+00
    0.4900000000E+06    0.4436452359E+00    0.1135375998E+00    0.4843249515E+00    0.1795420654E-01    0.2362795865E+00
    0.1000000000E+06    0.4425311948E+00    0.1716083464E+00    0.3792887360E+00    0.2916545232E-01    0.2350176600E+00
    0.3000000000E+06    0.4435346215E+00    0.1308502243E+00    0.4534334695E+00    0.2116637728E-01    0.2360124585E+00
    0.5000000000E+06    0.4436473763E+00    0.1128460998E+00    0.4855527604E+00    0.1782806560E-01    0.2362893204E+00
    0.7000000000E+06    0.4436621160E+00    0.1016254844E+00    0.5054152728E+00    0.1580420990E-01    0.2364404817E+00
    0.9000000000E+06    0.4436521228E+00    0.9364399049E-01    0.5194772138E+00    0.1439096336E-01    0.2365423890E+00
    0.1100000000E+07    0.4436343108E+00    0.8753928586E-01    0.5301966398E+00    0.1332495865E-01    0.2366186178E+00
    0.1300000000E+07    0.4436140911E+00    0.8264856748E-01    0.5387624065E+00    0.1248039993E-01    0.2366792596E+00
    0.1500000000E+07    0.4435934953E+00    0.7860169979E-01    0.5458356218E+00    0.1178802015E-01    0.2367294969E+00
    0.1700000000E+07    0.4435733427E+00    0.7517209531E-01    0.5518196858E+00    0.1120589693E-01    0.2367723221E+00
    0.1900000000E+07    0.4435539612E+00    0.7221157188E-01    0.5569777203E+00    0.1070687581E-01    0.2368096114E+00
    0.2100000000E+07    0.4435354634E+00    0.6961825851E-01    0.5614902192E+00    0.1027244260E-01    0.2368426150E+00
    0.2300000000E+07    0.4435178643E+00    0.6731932282E-01    0.5654859855E+00    0.9889456406E-02    0.2368722059E+00
    0.2500000000E+07    0.4435011347E+00    0.6526102133E-01    0.5690599095E+00    0.9548283023E-02    0.2368990171E+00
    0.2700000000E+07    0.4434852260E+00    0.6340264928E-01    0.5722837577E+00    0.9241668062E-02    0.2369235215E+00
    0.2900000000E+07    0.4434700831E+00    0.6171269569E-01    0.5752130159E+00    0.8964025380E-02    0.2369460818E+00
    0.3100000000E+07    0.4434556502E+00    0.6016630816E-01    0.5778913950E+00    0.8710970653E-02    0.2369669816E+00
    0.3300000000E+07    0.4434418738E+00    0.5874356863E-01    0.5803538907E+00    0.8479005800E-02    0.2369864472E+00
    0.3500000000E+07    0.4434287040E+00    0.5742828868E-01    0.5826289184E+00    0.8265299605E-02    0.2370046617E+00
    0.3700000000E+07    0.4434160947E+00    0.5620714829E-01    0.5847398382E+00    0.8067531564E-02    0.2370217755E+00
    0.3900000000E+07    0.4434040041E+00    0.5506906737E-01    0.5867060659E+00    0.7883778434E-02    0.2370379133E+00
    0.4100000000E+07    0.4433923942E+00    0.5400473894E-01    0.5885438980E+00    0.7712430278E-02    0.2370531801E+00
    0.4300000000E+07    0.4433812303E+00    0.5300627670E-01    0.5902671335E+00    0.7552127324E-02    0.2370676648E+00
    0.4500000000E+07    0.4433704813E+00    0.5206694515E-01    0.5918875501E+00    0.7401711785E-02    0.2370814432E+00
    0.4700000000E+07    0.4433601187E+00    0.5118095027E-01    0.5934152729E+00    0.7260190605E-02    0.2370945810E+00
    0.4900000000E+07    0.4433501169E+00    0.5034327519E-01    0.5948590635E+00    0.7126706306E-02    0.2371071348E+00
    0.1000000000E+07    0.4436437320E+00    0.9040807838E-01    0.5251630701E+00    0.1382428536E-01    0.2365829148E+00
    0.3000000000E+07    0.4434627813E+00    0.6092290056E-01    0.5765812025E+00    0.8834660980E-02    0.2369567240E+00
    0.5000000000E+07    0.4433452438E+00    0.4994116968E-01    0.5955519070E+00    0.7062741326E-02    0.2371132085E+00
    0.7000000000E+07    0.4432620433E+00    0.4362047883E-01    0.6064242104E+00    0.6067020743E-02    0.2372133275E+00
    0.9000000000E+07    0.4431978402E+00    0.3934733168E-01    0.6137541709E+00    0.5404756401E-02    0.2372870702E+00
    0.1100000000E+08    0.4431456050E+00    0.3619663862E-01    0.6191477045E+00    0.4922483794E-02    0.2373454718E+00
    0.1300000000E+08    0.4431015861E+00    0.3374283738E-01    0.6233415011E+00    0.4550636580E-02    0.2373938297E+00
    0.1500000000E+08    0.4430635534E+00    0.3175809633E-01    0.6267291304E+00    0.4252394684E-02    0.2374350978E+00
    0.1700000000E+08    0.4430300750E+00    0.3010755442E-01    0.6295431682E+00    0.4006166610E-02    0.2374710928E+00
    0.1900000000E+08    0.4430001774E+00    0.2870543227E-01    0.6319313396E+00    0.3798327906E-02    0.2375030117E+00
    0.2100000000E+08    0.4429731689E+00    0.2749413109E-01    0.6339927200E+00    0.3619793219E-02    0.2375316853E+00
    0.2300000000E+08    0.4429485406E+00    0.2643329974E-01    0.6357966451E+00    0.3464236656E-02    0.2375577135E+00
    0.2500000000E+08    0.4429259069E+00    0.2549368913E-01    0.6373933277E+00    0.3327097937E-02    0.2375815441E+00
    0.2700000000E+08    0.4429049690E+00    0.2465349413E-01    0.6388201704E+00    0.3204994285E-02    0.2376035197E+00
