  Pressure (Pa) 22mC5-400 (mol/kg) 2mC6-400 (mol/kg) 3mC6-400 (mol/kg) 33mC5-400 (mol/kg) 23mC5-400 (mol/kg)
    0.1000000000E+01    0.1057926492E-02    0.4776331089E-02    0.5290030260E-03    0.4536901408E-03    0.3715206625E-03
    0.3000000000E+01    0.3129250011E-02    0.1406069142E-01    0.1564879772E-02    0.1335527588E-02    0.1098933498E-02
    0.5000000000E+01    0.5143840936E-02    0.2300330979E-01    0.2572381657E-02    0.2184830478E-02    0.1806434802E-02
    0.7000000000E+01    0.7104666438E-02    0.3162219959E-01    0.3552792315E-02    0.3003313635E-02    0.2495065843E-02
    0.9000000000E+01    0.9014482725E-02    0.3993413144E-01    0.4507317265E-02    0.3792573595E-02    0.3165793858E-02
    0.1100000000E+02    0.1087585367E-01    0.4795473886E-01    0.5437089825E-02    0.4554098650E-02    0.3819518597E-02
    0.1300000000E+02    0.1269116750E-01    0.5569861324E-01    0.6343176481E-02    0.5289277897E-02    0.4457078174E-02
    0.1500000000E+02    0.1446265177E-01    0.6317938945E-01    0.7226581792E-02    0.5999409385E-02    0.5079254318E-02
    0.1700000000E+02    0.1619238680E-01    0.7040982314E-01    0.8088252863E-02    0.6685707464E-02    0.5686777098E-02
    0.1900000000E+02    0.1788231782E-01    0.7740186057E-01    0.8929083431E-02    0.7349309439E-02    0.6280329175E-02
    0.2100000000E+02    0.1953426587E-01    0.8416670194E-01    0.9749917614E-02    0.7991281595E-02    0.6860549636E-02
    0.2300000000E+02    0.2114993773E-01    0.9071485883E-01    0.1055155334E-01    0.8612624663E-02    0.7428037462E-02
    0.2500000000E+02    0.2273093483E-01    0.9705620635E-01    0.1133474548E-01    0.9214278787E-02    0.7983354673E-02
    0.2700000000E+02    0.2427876138E-01    0.1032000307E+00    0.1210020879E-01    0.9797128047E-02    0.8527029170E-02
    0.2900000000E+02    0.2579483174E-01    0.1091550724E+00    0.1284862051E-01    0.1036200458E-01    0.9059557324E-02
    0.3100000000E+02    0.2728047712E-01    0.1149295660E+00    0.1358062285E-01    0.1090969234E-01    0.9581406334E-02
    0.3300000000E+02    0.2873695174E-01    0.1205312759E+00    0.1429682527E-01    0.1144093055E-01    0.1009301636E-01
    0.3500000000E+02    0.3016543831E-01    0.1259675298E+00    0.1499780650E-01    0.1195641682E-01    0.1059480250E-01
    0.3700000000E+02    0.3156705322E-01    0.1312452485E+00    0.1568411655E-01    0.1245681007E-01    0.1108715655E-01
    0.3900000000E+02    0.3294285116E-01    0.1363709744E+00    0.1635627845E-01    0.1294273317E-01    0.1157044866E-01
    0.4100000000E+02    0.3429382940E-01    0.1413508965E+00    0.1701478990E-01    0.1341477534E-01    0.1204502885E-01
    0.4300000000E+02    0.3562093169E-01    0.1461908743E+00    0.1766012480E-01    0.1387349442E-01    0.1251122833E-01
    0.4500000000E+02    0.3692505191E-01    0.1508964590E+00    0.1829273472E-01    0.1431941895E-01    0.1296936082E-01
    0.4700000000E+02    0.3820703731E-01    0.1554729139E+00    0.1891305014E-01    0.1475305002E-01    0.1341972368E-01
    0.4900000000E+02    0.3946769164E-01    0.1599252329E+00    0.1952148175E-01    0.1517486306E-01    0.1386259900E-01
    0.1000000000E+02    0.9951070668E-02    0.4397991536E-01    0.4975229431E-02    0.4176713941E-02    0.3494727875E-02
    0.3000000000E+02    0.2654137743E-01    0.1120643919E+00    0.1321663402E-01    0.1063794985E-01    0.9321788602E-02
    0.5000000000E+02    0.4009025960E-01    0.1621063324E+00    0.1982136432E-01    0.1538147977E-01    0.1408131305E-01
    0.7000000000E+02    0.5158807847E-01    0.2002446376E+00    0.2528154251E-01    0.1899175876E-01    0.1812087956E-01
    0.9000000000E+02    0.6162257295E-01    0.2301271817E+00    0.2990604757E-01    0.2181608547E-01    0.2164677142E-01
    0.1100000000E+03    0.7056668560E-01    0.2540572461E+00    0.3389916985E-01    0.2407374278E-01    0.2478988862E-01
    0.1300000000E+03    0.7866972552E-01    0.2735600329E+00    0.3740181109E-01    0.2590993351E-01    0.2763773997E-01
    0.1500000000E+03    0.8610546359E-01    0.2896850531E+00    0.4051454914E-01    0.2742457083E-01    0.3025132197E-01
    0.1700000000E+03    0.9299923864E-01    0.3031777312E+00    0.4331126602E-01    0.2868861710E-01    0.3267463198E-01
    0.1900000000E+03    0.9944407688E-01    0.3145817815E+00    0.4584756828E-01    0.2975383117E-01    0.3494032557E-01
    0.2100000000E+03    0.1055107145E+00    0.3243028785E+00    0.4816618960E-01    0.3065883052E-01    0.3707323430E-01
    0.2300000000E+03    0.1112540678E+00    0.3326496754E+00    0.5030057062E-01    0.3143299664E-01    0.3909263667E-01
    0.2500000000E+03    0.1167175472E+00    0.3398610415E+00    0.5227729805E-01    0.3209906806E-01    0.4101377226E-01
    0.2700000000E+03    0.1219360140E+00    0.3461246283E+00    0.5411780750E-01    0.3267490802E-01    0.4284887964E-01
    0.2900000000E+03    0.1269378574E+00    0.3515898214E+00    0.5583959819E-01    0.3317473741E-01    0.4460792534E-01
    0.3100000000E+03    0.1317464846E+00    0.3563769604E+00    0.5745711607E-01    0.3361001250E-01    0.4629912706E-01
    0.3300000000E+03    0.1363814113E+00    0.3605840228E+00    0.5898240694E-01    0.3399006116E-01    0.4792933626E-01
    0.3500000000E+03    0.1408590722E+00    0.3642915490E+00    0.6042560701E-01    0.3432255170E-01    0.4950432289E-01
    0.3700000000E+03    0.1451934340E+00    0.3675663244E+00    0.6179531641E-01    0.3461384335E-01    0.5102899036E-01
    0.3900000000E+03    0.1493964644E+00    0.3704641701E+00    0.6309888729E-01    0.3486925182E-01    0.5250754040E-01
    0.4100000000E+03    0.1534784963E+00    0.3730320825E+00    0.6434264858E-01    0.3509325299E-01    0.5394360073E-01
    0.4300000000E+03    0.1574485135E+00    0.3753098929E+00    0.6553208319E-01    0.3528964086E-01    0.5534032540E-01
    0.4500000000E+03    0.1613143767E+00    0.3773315681E+00    0.6667196912E-01    0.3546165127E-01    0.5670047427E-01
    0.4700000000E+03    0.1650830056E+00    0.3791262380E+00    0.6776649276E-01    0.3561205979E-01    0.5802647668E-01
    0.4900000000E+03    0.1687605246E+00    0.3807190166E+00    0.6881934076E-01    0.3574325972E-01    0.5932048287E-01
    0.1000000000E+03    0.6621314888E-01    0.2427271102E+00    0.3197157041E-01    0.2300535508E-01    0.2325993671E-01
    0.3000000000E+03    0.1293650227E+00    0.3540615648E+00    0.5666058853E-01    0.3339981754E-01    0.4546155019E-01
    0.5000000000E+03    0.1705668442E+00    0.3814466115E+00    0.6933117054E-01    0.3580231556E-01    0.5995609349E-01
    0.7000000000E+03    0.2029669190E+00    0.3894010652E+00    0.7800431707E-01    0.3635660438E-01    0.7135958243E-01
    0.9000000000E+03    0.2300299375E+00    0.3905515378E+00    0.8469796318E-01    0.3626727074E-01    0.8088839730E-01
    0.1100000000E+04    0.2532584579E+00    0.3888978961E+00    0.9020711970E-01    0.3591723411E-01    0.8907002398E-01
    0.1300000000E+04    0.2734939473E+00    0.3860332276E+00    0.9492418253E-01    0.3545964552E-01    0.9619985586E-01
    0.1500000000E+04    0.2912872826E+00    0.3826786895E+00    0.9907152804E-01    0.3496406700E-01    0.1024712813E+00
    0.1700000000E+04    0.3070365507E+00    0.3791850272E+00    0.1027875661E+00    0.3446433989E-01    0.1080240641E+00
    0.1900000000E+04    0.3210479735E+00    0.3757282835E+00    0.1061644864E+00    0.3397733631E-01    0.1129657301E+00
    0.2100000000E+04    0.3335665954E+00    0.3723961238E+00    0.1092669213E+00    0.3351127736E-01    0.1173823381E+00
    0.2300000000E+04    0.3447935129E+00    0.3692294289E+00    0.1121420343E+00    0.3306977062E-01    0.1213445251E+00
    0.2500000000E+04    0.3548964980E+00    0.3662436745E+00    0.1148253653E+00    0.3265390397E-01    0.1249112336E+00
    0.2700000000E+04    0.3640170928E+00    0.3634404532E+00    0.1173444088E+00    0.3226338510E-01    0.1281321998E+00
    0.2900000000E+04    0.3722756609E+00    0.3608138947E+00    0.1197209066E+00    0.3189718319E-01    0.1310497258E+00
    0.3100000000E+04    0.3797751680E+00    0.3583543231E+00    0.1219723735E+00    0.3155389805E-01    0.1337000051E+00
    0.3300000000E+04    0.3866041152E+00    0.3560503610E+00    0.1241131442E+00    0.3123197482E-01    0.1361141523E+00
    0.3500000000E+04    0.3928388752E+00    0.3538901395E+00    0.1261551134E+00    0.3092982835E-01    0.1383190221E+00
    0.3700000000E+04    0.3985455861E+00    0.3518619827E+00    0.1281082700E+00    0.3064591399E-01    0.1403378743E+00
    0.3900000000E+04    0.4037817067E+00    0.3499547780E+00    0.1299810914E+00    0.3037876611E-01    0.1421909193E+00
    0.4100000000E+04    0.4085973055E+00    0.3481581612E+00    0.1317808402E+00    0.3012701699E-01    0.1438957707E+00
    0.4300000000E+04    0.4130361364E+00    0.3464625893E+00    0.1335137903E+00    0.2988940403E-01    0.1454678231E+00
    0.4500000000E+04    0.4171365408E+00    0.3448593486E+00    0.1351854025E+00    0.2966476987E-01    0.1469205684E+00
    0.4700000000E+04    0.4209322064E+00    0.3433405256E+00    0.1368004623E+00    0.2945205863E-01    0.1482658629E+00
    0.4900000000E+04    0.4244528101E+00    0.3418989584E+00    0.1383631891E+00    0.2925030977E-01    0.1495141526E+00
    0.1000000000E+04    0.2420615733E+00    0.3899455239E+00    0.8757050705E-01    0.3611238417E-01    0.8512586656E-01
    0.3000000000E+04    0.3761144566E+00    0.3595639242E+00    0.1208613083E+00    0.3172277136E-01    0.1324062180E+00
    0.5000000000E+04    0.4261182765E+00    0.3412050989E+00    0.1391261134E+00    0.2915327044E-01    0.1501048469E+00
    0.7000000000E+04    0.4499476284E+00    0.3301213309E+00    0.1523586725E+00    0.2761589325E-01    0.1585728316E+00
    0.9000000000E+04    0.4632722685E+00    0.3223268578E+00    0.1629148598E+00    0.2656240362E-01    0.1633289065E+00
    0.1100000000E+05    0.4715783743E+00    0.3162768485E+00    0.1717729589E+00    0.2576986513E-01    0.1663079430E+00
    0.1300000000E+05    0.4771696112E+00    0.3112840264E+00    0.1794438853E+00    0.2513560366E-01    0.1683235288E+00
    0.1500000000E+05    0.4811522913E+00    0.3069980177E+00    0.1862316856E+00    0.2460618313E-01    0.1697669394E+00
    0.1700000000E+05    0.4841140601E+00    0.3032196724E+00    0.1923334533E+00    0.2415093569E-01    0.1708463184E+00
    0.1900000000E+05    0.4863922713E+00    0.2998257567E+00    0.1978849496E+00    0.2375085553E-01    0.1716813396E+00
    0.2100000000E+05    0.4881928490E+00    0.2967347591E+00    0.2029840407E+00    0.2339342591E-01    0.1723451689E+00
    0.2300000000E+05    0.4896478794E+00    0.2938898442E+00    0.2077038177E+00    0.2306999167E-01    0.1728848143E+00
    0.2500000000E+05    0.4908456149E+00    0.2912496710E+00    0.2121004400E+00    0.2277432579E-01    0.1733317368E+00
    0.2700000000E+05    0.4918470681E+00    0.2887831213E+00    0.2162180731E+00    0.2250179939E-01    0.1737077239E+00
    0.2900000000E+05    0.4926956579E+00    0.2864661039E+00    0.2200921320E+00    0.2224887648E-01    0.1740283083E+00
    0.3100000000E+05    0.4934230602E+00    0.2842795274E+00    0.2237514869E+00    0.2201279318E-01    0.1743048417E+00
    0.3300000000E+05    0.4940528867E+00    0.2822079638E+00    0.2272200084E+00    0.2179134637E-01    0.1745458018E+00
    0.3500000000E+05    0.4946030730E+00    0.2802387366E+00    0.2305176777E+00    0.2158275015E-01    0.1747576400E+00
    0.3700000000E+05    0.4950874713E+00    0.2783612810E+00    0.2336614016E+00    0.2138553550E-01    0.1749453486E+00
    0.3900000000E+05    0.4955169391E+00    0.2765666833E+00    0.2366656229E+00    0.2119847859E-01    0.1751128479E+00
    0.4100000000E+05    0.4959001000E+00    0.2748473417E+00    0.2395427846E+00    0.2102054828E-01    0.1752632579E+00
    0.4300000000E+05    0.4962438847E+00    0.2731967118E+00    0.2423036888E+00    0.2085086715E-01    0.1753990908E+00
    0.4500000000E+05    0.4965539237E+00    0.2716091127E+00    0.2449577774E+00    0.2068868191E-01    0.1755223918E+00
    0.4700000000E+05    0.4968348358E+00    0.2700795759E+00    0.2475133556E+00    0.2053334064E-01    0.1756348419E+00
    0.4900000000E+05    0.4970904439E+00    0.2686037274E+00    0.2499777695E+00    0.2038427517E-01    0.1757378351E+00
    0.1000000000E+05    0.4678675809E+00    0.3191381668E+00    0.1675175789E+00    0.2614158064E-01    0.1649752222E+00
    0.3000000000E+05    0.4930728755E+00    0.2853575483E+00    0.2219470531E+00    0.2212887878E-01    0.1741714958E+00
    0.5000000000E+05    0.4972097768E+00    0.2678847081E+00    0.2511778594E+00    0.2031193768E-01    0.1757861573E+00
    0.7000000000E+05    0.4988217712E+00    0.2555765830E+00    0.2716582074E+00    0.1910023356E-01    0.1764592422E+00
    0.9000000000E+05    0.4996628060E+00    0.2459936659E+00    0.2875167115E+00    0.1818741659E-01    0.1768346734E+00
    0.1100000000E+06    0.5001726615E+00    0.2381251013E+00    0.3004823312E+00    0.1745511257E-01    0.1770777581E+00
    0.1300000000E+06    0.5005114602E+00    0.2314434241E+00    0.3114552124E+00    0.1684423914E-01    0.1772501020E+00
    0.1500000000E+06    0.5007509767E+00    0.2256356086E+00    0.3209672673E+00    0.1632082855E-01    0.1773799669E+00
    0.1700000000E+06    0.5009280217E+00    0.2204996020E+00    0.3293603613E+00    0.1586348206E-01    0.1774821852E+00
    0.1900000000E+06    0.5010633540E+00    0.2158969494E+00    0.3368678431E+00    0.1545782030E-01    0.1775653159E+00
    0.2100000000E+06    0.5011695389E+00    0.2117284171E+00    0.3436563847E+00    0.1509370349E-01    0.1776346591E+00
    0.2300000000E+06    0.5012546102E+00    0.2079203428E+00    0.3498493358E+00    0.1476370839E-01    0.1776936812E+00
    0.2500000000E+06    0.5013239348E+00    0.2044164812E+00    0.3555406303E+00    0.1446223484E-01    0.1777447511E+00
    0.2700000000E+06    0.5013812286E+00    0.2011728781E+00    0.3608035028E+00    0.1418495274E-01    0.1777895459E+00
    0.2900000000E+06    0.5014291423E+00    0.1981545097E+00    0.3656961862E+00    0.1392844439E-01    0.1778292888E+00
    0.3100000000E+06    0.5014696150E+00    0.1953330032E+00    0.3702657659E+00    0.1368996474E-01    0.1778648951E+00
    0.3300000000E+06    0.5015040963E+00    0.1926850442E+00    0.3745508677E+00    0.1346727566E-01    0.1778970638E+00
    0.3500000000E+06    0.5015336905E+00    0.1901912357E+00    0.3785835775E+00    0.1325852837E-01    0.1779263395E+00
    0.3700000000E+06    0.5015592524E+00    0.1878352633E+00    0.3823908441E+00    0.1306217811E-01    0.1779531528E+00
    0.3900000000E+06    0.5015814539E+00    0.1856032724E+00    0.3859955242E+00    0.1287692101E-01    0.1779778497E+00
    0.4100000000E+06    0.5016008293E+00    0.1834833953E+00    0.3894171729E+00    0.1270164657E-01    0.1780007114E+00
    0.4300000000E+06    0.5016178089E+00    0.1814653875E+00    0.3926726522E+00    0.1253540127E-01    0.1780219690E+00
    0.4500000000E+06    0.5016327426E+00    0.1795403439E+00    0.3957766049E+00    0.1237736037E-01    0.1780418148E+00
    0.4700000000E+06    0.5016459179E+00    0.1777004742E+00    0.3987418282E+00    0.1222680581E-01    0.1780604097E+00
    0.4900000000E+06    0.5016575725E+00    0.1759389242E+00    0.4015795721E+00    0.1208310860E-01    0.1780778901E+00
    0.1000000000E+06    0.4999459714E+00    0.2418849544E+00    0.2942930190E+00    0.1780321258E-01    0.1769677259E+00
    0.3000000000E+06    0.5014502086E+00    0.1967207093E+00    0.3680187771E+00    0.1380710117E-01    0.1778475611E+00
    0.5000000000E+06    0.5016628930E+00    0.1750855969E+00    0.4029537916E+00    0.1201365577E-01    0.1780862493E+00
    0.7000000000E+06    0.5017238985E+00    0.1609685348E+00    0.4256488918E+00    0.1087918381E-01    0.1782158267E+00
    0.9000000000E+06    0.5017418750E+00    0.1505988843E+00    0.4422752637E+00    0.1006281903E-01    0.1783029787E+00
    0.1100000000E+07    0.5017433901E+00    0.1424702716E+00    0.4552841872E+00    0.9432631144E-02    0.1783680919E+00
    0.1300000000E+07    0.5017376380E+00    0.1358279875E+00    0.4658993976E+00    0.8923931098E-02    0.1784198550E+00
    0.1500000000E+07    0.5017284616E+00    0.1302404303E+00    0.4748189454E+00    0.8500325767E-02    0.1784627181E+00
    0.1700000000E+07    0.5017176668E+00    0.1254380476E+00    0.4824779429E+00    0.8139384498E-02    0.1784992464E+00
    0.1900000000E+07    0.5017061696E+00    0.1212414947E+00    0.4891654374E+00    0.7826347310E-02    0.1785310464E+00
    0.2100000000E+07    0.5016944583E+00    0.1175255985E+00    0.4950829079E+00    0.7551009859E-02    0.1785591874E+00
    0.2300000000E+07    0.5016828002E+00    0.1141996546E+00    0.5003761923E+00    0.7306038976E-02    0.1785844157E+00
    0.2500000000E+07    0.5016713428E+00    0.1111959169E+00    0.5051541118E+00    0.7085997899E-02    0.1786072723E+00
    0.2700000000E+07    0.5016601658E+00    0.1084625089E+00    0.5094999269E+00    0.6886750985E-02    0.1786281612E+00
    0.2900000000E+07    0.5016493097E+00    0.1059588660E+00    0.5134786942E+00    0.6705083827E-02    0.1786473917E+00
    0.3100000000E+07    0.5016387915E+00    0.1036526986E+00    0.5171421648E+00    0.6538451824E-02    0.1786652061E+00
    0.3300000000E+07    0.5016286146E+00    0.1015179064E+00    0.5205321452E+00    0.6384808527E-02    0.1786817975E+00
    0.3500000000E+07    0.5016187740E+00    0.9953310704E-01    0.5236828654E+00    0.6242485316E-02    0.1786973222E+00
    0.3700000000E+07    0.5016092601E+00    0.9768057640E-01    0.5266226855E+00    0.6110105079E-02    0.1787119083E+00
    0.3900000000E+07    0.5016000606E+00    0.9594546823E-01    0.5293753493E+00    0.5986519038E-02    0.1787256625E+00
    0.4100000000E+07    0.5015911618E+00    0.9431523057E-01    0.5319609228E+00    0.5870759675E-02    0.1787386741E+00
    0.4300000000E+07    0.5015825496E+00    0.9277916194E-01    0.5343965070E+00    0.5762005102E-02    0.1787510189E+00
    0.4500000000E+07    0.5015742098E+00    0.9132806929E-01    0.5366967866E+00    0.5659551699E-02    0.1787627618E+00
    0.4700000000E+07    0.5015661288E+00    0.8995400098E-01    0.5388744591E+00    0.5562792834E-02    0.1787739585E+00
    0.4900000000E+07    0.5015582933E+00    0.8865003590E-01    0.5409405727E+00    0.5471202131E-02    0.1787846575E+00
    0.1000000000E+07    0.5017439225E+00    0.1463121371E+00    0.4491382885E+00    0.9729423456E-02    0.1783376021E+00
    0.3000000000E+07    0.5016440079E+00    0.1047828546E+00    0.5153470273E+00    0.6620026400E-02    0.1786564629E+00
    0.5000000000E+07    0.5015544636E+00    0.8802241892E-01    0.5419348639E+00    0.5427198957E-02    0.1787898338E+00
    0.7000000000E+07    0.5014880642E+00    0.7801025915E-01    0.5577824644E+00    0.4732442262E-02    0.1788751582E+00
    0.9000000000E+07    0.5014358304E+00    0.7107971135E-01    0.5687368115E+00    0.4259697548E-02    0.1789380029E+00
    0.1100000000E+08    0.5013928804E+00    0.6588234630E-01    0.5769431856E+00    0.3909753947E-02    0.1789877735E+00
    0.1300000000E+08    0.5013564417E+00    0.6178157803E-01    0.5834128208E+00    0.3636520586E-02    0.1790289845E+00
    0.1500000000E+08    0.5013248111E+00    0.5842990417E-01    0.5886971097E+00    0.3415147656E-02    0.1790641535E+00
    0.1700000000E+08    0.5012968727E+00    0.5561842194E-01    0.5931272274E+00    0.3230847369E-02    0.1790948285E+00
    0.1900000000E+08    0.5012718571E+00    0.5321255384E-01    0.5969163626E+00    0.3074174691E-02    0.1791220297E+00
    0.2100000000E+08    0.5012492119E+00    0.5112095575E-01    0.6002091255E+00    0.2938766351E-02    0.1791464651E+00
    0.2300000000E+08    0.5012285276E+00    0.4927903927E-01    0.6031077124E+00    0.2820152398E-02    0.1791686460E+00
    0.2500000000E+08    0.5012094920E+00    0.4763960460E-01    0.6056867703E+00    0.2715085420E-02    0.1791889539E+00
    0.2700000000E+08    0.5011918620E+00    0.4616721021E-01    0.6080023262E+00    0.2621139917E-02    0.1792076810E+00
