  Pressure (Pa) 22mC5-400 (mol/kg) 2mC6-400 (mol/kg) 3mC6-400 (mol/kg) 33mC5-400 (mol/kg) 23mC5-400 (mol/kg)
    0.1000000000E+01    0.1060257869E-02    0.3175327910E-02    0.5264943231E-02    0.1939106474E-03    0.9308473510E-04
    0.3000000000E+01    0.3149586719E-02    0.9297019423E-02    0.1543139867E-01    0.5678136665E-03    0.2765178518E-03
    0.5000000000E+01    0.5198623140E-02    0.1513076641E-01    0.2514186750E-01    0.9242139098E-03    0.4564156760E-03
    0.7000000000E+01    0.7208846488E-02    0.2069573222E-01    0.3442785661E-01    0.1264277018E-02    0.6329079916E-03
    0.9000000000E+01    0.9181662023E-02    0.2600938897E-01    0.4331800321E-01    0.1589065625E-02    0.8061180824E-03
    0.1100000000E+02    0.1111840553E-01    0.3108770292E-01    0.5183839546E-01    0.1899550664E-02    0.9761631379E-03
    0.1300000000E+02    0.1302034761E-01    0.3594529577E-01    0.6001285094E-01    0.2196621196E-02    0.1143154629E-02
    0.1500000000E+02    0.1488869766E-01    0.4059558539E-01    0.6786315939E-01    0.2481092994E-02    0.1307198658E-02
    0.1700000000E+02    0.1672460750E-01    0.4505090916E-01    0.7540929488E-01    0.2753716055E-02    0.1468396277E-02
    0.1900000000E+02    0.1852917489E-01    0.4932263216E-01    0.8266960184E-01    0.3015181200E-02    0.1626843793E-02
    0.2100000000E+02    0.2030344659E-01    0.5342124255E-01    0.8966095869E-01    0.3266125879E-02    0.1782633044E-02
    0.2300000000E+02    0.2204842141E-01    0.5735643585E-01    0.9639892206E-01    0.3507139311E-02    0.1935851656E-02
    0.2500000000E+02    0.2376505292E-01    0.6113718945E-01    0.1028978543E+00    0.3738767020E-02    0.2086583289E-02
    0.2700000000E+02    0.2545425200E-01    0.6477182892E-01    0.1091710365E+00    0.3961514877E-02    0.2234907858E-02
    0.2900000000E+02    0.2711688924E-01    0.6826808693E-01    0.1152307689E+00    0.4175852687E-02    0.2380901745E-02
    0.3100000000E+02    0.2875379719E-01    0.7163315584E-01    0.1210884600E+00    0.4382217392E-02    0.2524637991E-02
    0.3300000000E+02    0.3036577242E-01    0.7487373477E-01    0.1267547070E+00    0.4581015938E-02    0.2666186484E-02
    0.3500000000E+02    0.3195357747E-01    0.7799607169E-01    0.1322393662E+00    0.4772627835E-02    0.2805614125E-02
    0.3700000000E+02    0.3351794267E-01    0.8100600132E-01    0.1375516176E+00    0.4957407467E-02    0.2942984990E-02
    0.3900000000E+02    0.3505956786E-01    0.8390897917E-01    0.1427000223E+00    0.5135686165E-02    0.3078360480E-02
    0.4100000000E+02    0.3657912395E-01    0.8671011223E-01    0.1476925737E+00    0.5307774072E-02    0.3211799458E-02
    0.4300000000E+02    0.3807725447E-01    0.8941418674E-01    0.1525367442E+00    0.5473961834E-02    0.3343358385E-02
    0.4500000000E+02    0.3955457693E-01    0.9202569327E-01    0.1572395276E+00    0.5634522126E-02    0.3473091440E-02
    0.4700000000E+02    0.4101168417E-01    0.9454884945E-01    0.1618074766E+00    0.5789711037E-02    0.3601050634E-02
    0.4900000000E+02    0.4244914555E-01    0.9698762067E-01    0.1662467375E+00    0.5939769328E-02    0.3727285926E-02
    0.1000000000E+02    0.1015446189E-01    0.2857702017E-01    0.4762287981E-01    0.1746038712E-02    0.8915291428E-03
    0.3000000000E+02    0.2793850877E-01    0.6996659028E-01    0.1181841891E+00    0.4280005572E-02    0.2453047633E-02
    0.5000000000E+02    0.4316068086E-01    0.9817653679E-01    0.1684199272E+00    0.6012945820E-02    0.3789772181E-02
    0.7000000000E+02    0.5648231880E-01    0.1183238227E+00    0.2063576241E+00    0.7255633668E-02    0.4959726154E-02
    0.9000000000E+02    0.6834742748E-01    0.1331819832E+00    0.2362469380E+00    0.8176432402E-02    0.6001866152E-02
    0.1100000000E+03    0.7906602046E-01    0.1443909354E+00    0.2605561202E+00    0.8874870461E-02    0.6943393381E-02
    0.1300000000E+03    0.8886168803E-01    0.1529840922E+00    0.2808214189E+00    0.9413669615E-02    0.7803926681E-02
    0.1500000000E+03    0.9790014502E-01    0.1596452088E+00    0.2980517251E+00    0.9834340127E-02    0.8598007030E-02
    0.1700000000E+03    0.1063070987E+00    0.1648444892E+00    0.3129386512E+00    0.1016544020E-01    0.9336665139E-02
    0.1900000000E+03    0.1141798384E+00    0.1689155797E+00    0.3259732491E+00    0.1042724626E-01    0.1002843825E-01
    0.2100000000E+03    0.1215949867E+00    0.1721014647E+00    0.3375145240E+00    0.1063453616E-01    0.1068005024E-01
    0.2300000000E+03    0.1286138236E+00    0.1745830275E+00    0.3478315239E+00    0.1079832067E-01    0.1129687871E-01
    0.2500000000E+03    0.1352860311E+00    0.1764974722E+00    0.3571302073E+00    0.1092696036E-01    0.1188328356E-01
    0.2700000000E+03    0.1416523802E+00    0.1779505760E+00    0.3655711655E+00    0.1102690831E-01    0.1244284277E-01
    0.2900000000E+03    0.1477466965E+00    0.1790250538E+00    0.3732816486E+00    0.1110321716E-01    0.1297852484E-01
    0.3100000000E+03    0.1535973215E+00    0.1797864009E+00    0.3803639297E+00    0.1115989346E-01    0.1349281702E-01
    0.3300000000E+03    0.1592282151E+00    0.1802870577E+00    0.3869012517E+00    0.1120015012E-01    0.1398782206E-01
    0.3500000000E+03    0.1646597989E+00    0.1805694310E+00    0.3929621374E+00    0.1122658974E-01    0.1446533219E-01
    0.3700000000E+03    0.1699096092E+00    0.1806681207E+00    0.3986035680E+00    0.1124133969E-01    0.1492688647E-01
    0.3900000000E+03    0.1749928090E+00    0.1806115856E+00    0.4038733638E+00    0.1124615321E-01    0.1537381565E-01
    0.4100000000E+03    0.1799225923E+00    0.1804234046E+00    0.4088119934E+00    0.1124248598E-01    0.1580727768E-01
    0.4300000000E+03    0.1847105073E+00    0.1801232438E+00    0.4134539649E+00    0.1123155489E-01    0.1622828611E-01
    0.4500000000E+03    0.1893667175E+00    0.1797276050E+00    0.4178289097E+00    0.1121438348E-01    0.1663773294E-01
    0.4700000000E+03    0.1939002131E+00    0.1792504119E+00    0.4219624348E+00    0.1119183765E-01    0.1703640719E-01
    0.4900000000E+03    0.1983189841E+00    0.1787034726E+00    0.4258768006E+00    0.1116465374E-01    0.1742501014E-01
    0.1000000000E+03    0.7383443982E-01    0.1391676311E+00    0.2489872496E+00    0.8548895977E-02    0.6483837681E-02
    0.3000000000E+03    0.1507008812E+00    0.1794413251E+00    0.3768957228E+00    0.1113379240E-01    0.1323820520E-01
    0.5000000000E+03    0.2004876072E+00    0.1784070519E+00    0.4277579758E+00    0.1114952280E-01    0.1761573315E-01
    0.7000000000E+03    0.2392263586E+00    0.1706082421E+00    0.4575235735E+00    0.1071613696E-01    0.2102338620E-01
    0.9000000000E+03    0.2714601892E+00    0.1615959432E+00    0.4778812664E+00    0.1018454722E-01    0.2385989137E-01
    0.1100000000E+04    0.2991509152E+00    0.1527772994E+00    0.4930372609E+00    0.9648653032E-02    0.2629742773E-01
    0.1300000000E+04    0.3233656244E+00    0.1445556288E+00    0.5049399830E+00    0.9138384031E-02    0.2842964619E-01
    0.1500000000E+04    0.3447777585E+00    0.1370253954E+00    0.5146380231E+00    0.8663116362E-02    0.3031565021E-01
    0.1700000000E+04    0.3638574039E+00    0.1301747517E+00    0.5227551431E+00    0.8224630447E-02    0.3199669794E-01
    0.1900000000E+04    0.3809561541E+00    0.1239550106E+00    0.5296900283E+00    0.7821713870E-02    0.3350365034E-01
    0.2100000000E+04    0.3963497021E+00    0.1183069263E+00    0.5357116774E+00    0.7451995647E-02    0.3486070898E-01
    0.2300000000E+04    0.4102613431E+00    0.1131711043E+00    0.5410094279E+00    0.7112733539E-02    0.3608747833E-01
    0.2500000000E+04    0.4228760300E+00    0.1084920612E+00    0.5457211514E+00    0.6801165261E-02    0.3720019894E-01
    0.2700000000E+04    0.4343493901E+00    0.1042196006E+00    0.5499500832E+00    0.6514664549E-02    0.3821253833E-01
    0.2900000000E+04    0.4448138697E+00    0.1003090279E+00    0.5537753479E+00    0.6250805396E-02    0.3913612997E-01
    0.3100000000E+04    0.4543831408E+00    0.9672086976E-01    0.5572588029E+00    0.6007381751E-02    0.3998095981E-01
    0.3300000000E+04    0.4631553978E+00    0.9342040313E-01    0.5604496371E+00    0.5782405492E-02    0.4075565536E-01
    0.3500000000E+04    0.4712159054E+00    0.9037713304E-01    0.5633875476E+00    0.5574094114E-02    0.4146770921E-01
    0.3700000000E+04    0.4786390204E+00    0.8756428297E-01    0.5661049900E+00    0.5380854029E-02    0.4212365635E-01
    0.3900000000E+04    0.4854898267E+00    0.8495832535E-01    0.5686288052E+00    0.5201262544E-02    0.4272921756E-01
    0.4100000000E+04    0.4918254785E+00    0.8253856147E-01    0.5709814191E+00    0.5034050101E-02    0.4328941733E-01
    0.4300000000E+04    0.4976963153E+00    0.8028675194E-01    0.5731817412E+00    0.4878083559E-02    0.4380868164E-01
    0.4500000000E+04    0.5031467968E+00    0.7818679472E-01    0.5752458481E+00    0.4732350871E-02    0.4429091997E-01
    0.4700000000E+04    0.5082162907E+00    0.7622444618E-01    0.5771875109E+00    0.4595947260E-02    0.4473959455E-01
    0.4900000000E+04    0.5129397422E+00    0.7438708019E-01    0.5790186062E+00    0.4468062874E-02    0.4515777899E-01
    0.1000000000E+04    0.2857940427E+00    0.1571258628E+00    0.4859576825E+00    0.9914526054E-02    0.2512156245E-01
    0.3000000000E+04    0.4497039393E+00    0.9847692246E-01    0.5555564731E+00    0.6126668388E-02    0.3956782194E-01
    0.5000000000E+04    0.5151815548E+00    0.7351171053E-01    0.5798959660E+00    0.4407085547E-02    0.4535630412E-01
    0.7000000000E+04    0.5478150924E+00    0.6042100937E-01    0.5935496085E+00    0.3493940049E-02    0.4825087866E-01
    0.9000000000E+04    0.5665716037E+00    0.5239677238E-01    0.6026328049E+00    0.2937895617E-02    0.4992067532E-01
    0.1100000000E+05    0.5784774871E+00    0.4693648515E-01    0.6092527437E+00    0.2564963864E-02    0.5098477889E-01
    0.1300000000E+05    0.5865952306E+00    0.4294373294E-01    0.6143622508E+00    0.2296975165E-02    0.5171334048E-01
    0.1500000000E+05    0.5924333785E+00    0.3987001659E-01    0.6184650153E+00    0.2094368092E-02    0.5223959341E-01
    0.1700000000E+05    0.5968079172E+00    0.3741201338E-01    0.6218562156E+00    0.1935182974E-02    0.5263569401E-01
    0.1900000000E+05    0.6001936862E+00    0.3538850257E-01    0.6247220567E+00    0.1806314603E-02    0.5294368502E-01
    0.2100000000E+05    0.6028835964E+00    0.3368440919E-01    0.6271866958E+00    0.1699476234E-02    0.5318953507E-01
    0.2300000000E+05    0.6050671136E+00    0.3222298953E-01    0.6293365841E+00    0.1609175691E-02    0.5339006428E-01
    0.2500000000E+05    0.6068717005E+00    0.3095096811E-01    0.6312340520E+00    0.1531628777E-02    0.5355660398E-01
    0.2700000000E+05    0.6083859840E+00    0.2983010747E-01    0.6329253450E+00    0.1464141850E-02    0.5369704420E-01
    0.2900000000E+05    0.6096733434E+00    0.2883218219E-01    0.6344456074E+00    0.1404743850E-02    0.5381703539E-01
    0.3100000000E+05    0.6107802113E+00    0.2793585321E-01    0.6358220973E+00    0.1351957879E-02    0.5392072328E-01
    0.3300000000E+05    0.6117413273E+00    0.2712465230E-01    0.6370763303E+00    0.1304654361E-02    0.5401121421E-01
    0.3500000000E+05    0.6125831659E+00    0.2638564109E-01    0.6382255503E+00    0.1261953734E-02    0.5409087907E-01
    0.3700000000E+05    0.6133262341E+00    0.2570849408E-01    0.6392837642E+00    0.1223160209E-02    0.5416155717E-01
    0.3900000000E+05    0.6139866479E+00    0.2508485648E-01    0.6402624852E+00    0.1187715620E-02    0.5422469622E-01
    0.4100000000E+05    0.6145772378E+00    0.2450788466E-01    0.6411712775E+00    0.1155166575E-02    0.5428145063E-01
    0.4300000000E+05    0.6151083388E+00    0.2397191110E-01    0.6420181615E+00    0.1125140644E-02    0.5433275175E-01
    0.4500000000E+05    0.6155883637E+00    0.2347219590E-01    0.6428099213E+00    0.1097328793E-02    0.5437935893E-01
    0.4700000000E+05    0.6160242269E+00    0.2300473952E-01    0.6435523399E+00    0.1071472242E-02    0.5442189727E-01
    0.4900000000E+05    0.6164216611E+00    0.2256613991E-01    0.6442503814E+00    0.1047352480E-02    0.5446088592E-01
    0.1000000000E+05    0.5731367719E+00    0.4943324108E-01    0.6061760458E+00    0.2734724436E-02    0.5050691272E-01
    0.3000000000E+05    0.6102469405E+00    0.2837244333E-01    0.6351503644E+00    0.1377601772E-02    0.5387070291E-01
    0.5000000000E+05    0.6166074961E+00    0.2235673389E-01    0.6445841244E+00    0.1035884695E-02    0.5447918774E-01
    0.7000000000E+05    0.6191407067E+00    0.1915383012E-01    0.6497186131E+00    0.8643321873E-03    0.5473474354E-01
    0.9000000000E+05    0.6204874134E+00    0.1707229584E-01    0.6530741980E+00    0.7566670073E-03    0.5487781599E-01
    0.1100000000E+06    0.6213186151E+00    0.1557490462E-01    0.6554906673E+00    0.6810397268E-03    0.5497066531E-01
    0.1300000000E+06    0.6218808790E+00    0.1442862432E-01    0.6573395712E+00    0.6241607507E-03    0.5503659875E-01
    0.1500000000E+06    0.6222855788E+00    0.1351333933E-01    0.6588142619E+00    0.5793700181E-03    0.5508633939E-01
    0.1700000000E+06    0.6225902310E+00    0.1275983872E-01    0.6600266985E+00    0.5429119000E-03    0.5512552656E-01
    0.1900000000E+06    0.6228274830E+00    0.1212498724E-01    0.6610468355E+00    0.5124857071E-03    0.5515741940E-01
    0.2100000000E+06    0.6230172191E+00    0.1158028186E-01    0.6619209535E+00    0.4865925906E-03    0.5518403860E-01
    0.2300000000E+06    0.6231722311E+00    0.1110601404E-01    0.6626810674E+00    0.4642084765E-03    0.5520670721E-01
    0.2500000000E+06    0.6233011151E+00    0.1068805279E-01    0.6633501307E+00    0.4446066025E-03    0.5522632997E-01
    0.2700000000E+06    0.6234098586E+00    0.1031596084E-01    0.6639450916E+00    0.4272549596E-03    0.5524354795E-01
    0.2900000000E+06    0.6235027575E+00    0.9981835825E-02    0.6644787758E+00    0.4117539196E-03    0.5525882906E-01
    0.3100000000E+06    0.6235829734E+00    0.9679567741E-02    0.6649610935E+00    0.3977966683E-03    0.5527252347E-01
    0.3300000000E+06    0.6236528834E+00    0.9404346523E-02    0.6653998414E+00    0.3851432004E-03    0.5528489890E-01
    0.3500000000E+06    0.6237143089E+00    0.9152325811E-02    0.6658012493E+00    0.3736027015E-03    0.5529616386E-01
    0.3700000000E+06    0.6237686687E+00    0.8920387429E-02    0.6661703642E+00    0.3630212974E-03    0.5530648344E-01
    0.3900000000E+06    0.6238170838E+00    0.8705972734E-02    0.6665113241E+00    0.3532733377E-03    0.5531599020E-01
    0.4100000000E+06    0.6238604516E+00    0.8506959456E-02    0.6668275588E+00    0.3442550697E-03    0.5532479196E-01
    0.4300000000E+06    0.6238994991E+00    0.8321570190E-02    0.6671219388E+00    0.3358799625E-03    0.5533297740E-01
    0.4500000000E+06    0.6239348207E+00    0.8148303346E-02    0.6673968872E+00    0.3280751980E-03    0.5534062023E-01
    0.4700000000E+06    0.6239669077E+00    0.7985880303E-02    0.6676544661E+00    0.3207789970E-03    0.5534778228E-01
    0.4900000000E+06    0.6239961694E+00    0.7833204457E-02    0.6678964425E+00    0.3139385566E-03    0.5535451583E-01
    0.1000000000E+06    0.6209472297E+00    0.1626898648E-01    0.6543705764E+00    0.7159071988E-03    0.5492861597E-01
    0.3000000000E+06    0.6235442870E+00    0.9827046225E-02    0.6647258260E+00    0.4045986481E-03    0.5526585626E-01
    0.5000000000E+06    0.6240098502E+00    0.7760220771E-02    0.6680120646E+00    0.3106747967E-03    0.5535773611E-01
    0.7000000000E+06    0.6241953924E+00    0.6638276101E-02    0.6697852760E+00    0.2610211133E-03    0.5540767497E-01
    0.9000000000E+06    0.6242916631E+00    0.5905712207E-02    0.6709386620E+00    0.2291536509E-03    0.5544128291E-01
    0.1100000000E+07    0.6243488281E+00    0.5378366020E-02    0.6717666894E+00    0.2065056056E-03    0.5546640092E-01
    0.1300000000E+07    0.6243856472E+00    0.4974940975E-02    0.6723988307E+00    0.1893559030E-03    0.5548637354E-01
    0.1500000000E+07    0.6244106599E+00    0.4653182702E-02    0.6729021771E+00    0.1757938145E-03    0.5550291475E-01
    0.1700000000E+07    0.6244282833E+00    0.4388642269E-02    0.6733154555E+00    0.1647244836E-03    0.5551701297E-01
    0.1900000000E+07    0.6244410177E+00    0.4166050616E-02    0.6736628041E+00    0.1554696907E-03    0.5552928732E-01
    0.2100000000E+07    0.6244503771E+00    0.3975309171E-02    0.6739601610E+00    0.1475840122E-03    0.5554015007E-01
    0.2300000000E+07    0.6244573273E+00    0.3809433673E-02    0.6742185334E+00    0.1407612798E-03    0.5554988904E-01
    0.2500000000E+07    0.6244625110E+00    0.3663417315E-02    0.6744458022E+00    0.1347832116E-03    0.5555871278E-01
    0.2700000000E+07    0.6244663703E+00    0.3533563587E-02    0.6746477794E+00    0.1294894470E-03    0.5556677713E-01
    0.2900000000E+07    0.6244692184E+00    0.3417075343E-02    0.6748288589E+00    0.1247591874E-03    0.5557420146E-01
    0.3100000000E+07    0.6244712826E+00    0.3311791280E-02    0.6749924325E+00    0.1204994803E-03    0.5558107925E-01
    0.3300000000E+07    0.6244727309E+00    0.3216011126E-02    0.6751411666E+00    0.1166374806E-03    0.5558748495E-01
    0.3500000000E+07    0.6244736902E+00    0.3128376251E-02    0.6752771901E+00    0.1131151877E-03    0.5559347887E-01
    0.3700000000E+07    0.6244742574E+00    0.3047786051E-02    0.6754022267E+00    0.1098857721E-03    0.5559911050E-01
    0.3900000000E+07    0.6244745078E+00    0.2973338075E-02    0.6755176886E+00    0.1069109559E-03    0.5560442094E-01
    0.4100000000E+07    0.6244745005E+00    0.2904284327E-02    0.6756247459E+00    0.1041591057E-03    0.5560944472E-01
    0.4300000000E+07    0.6244742823E+00    0.2839998803E-02    0.6757243771E+00    0.1016038210E-03    0.5561421108E-01
    0.4500000000E+07    0.6244738910E+00    0.2779953006E-02    0.6758174080E+00    0.9922287226E-04    0.5561874504E-01
    0.4700000000E+07    0.6244733568E+00    0.2723697217E-02    0.6759045412E+00    0.9699739103E-04    0.5562306813E-01
    0.4900000000E+07    0.6244727044E+00    0.2670845989E-02    0.6759863782E+00    0.9491124416E-04    0.5562719905E-01
    0.1000000000E+07    0.6243235995E+00    0.5622788617E-02    0.6713831408E+00    0.2169712928E-03    0.5545463835E-01
    0.3000000000E+07    0.6244703369E+00    0.3363148250E-02    0.6749126528E+00    0.1225754678E-03    0.5557770364E-01
    0.5000000000E+07    0.6244723404E+00    0.2645591358E-02    0.6760254756E+00    0.9391600483E-04    0.5562919762E-01
    0.7000000000E+07    0.6244622544E+00    0.2258185394E-02    0.6766245873E+00    0.7878671106E-04    0.5566214131E-01
    0.9000000000E+07    0.6244506634E+00    0.2006089455E-02    0.6770137867E+00    0.6909205988E-04    0.5568640449E-01
    0.1100000000E+08    0.6244394990E+00    0.1825046516E-02    0.6772929622E+00    0.6221132721E-04    0.5570561877E-01
    0.1300000000E+08    0.6244291542E+00    0.1686794811E-02    0.6775059637E+00    0.5700686274E-04    0.5572152747E-01
    0.1500000000E+08    0.6244196527E+00    0.1576685456E-02    0.6776754885E+00    0.5289500459E-04    0.5573510281E-01
    0.1700000000E+08    0.6244109234E+00    0.1486260763E-02    0.6778146271E+00    0.4954160925E-04    0.5574694268E-01
    0.1900000000E+08    0.6244028769E+00    0.1410247991E-02    0.6779315336E+00    0.4673986214E-04    0.5575744104E-01
    0.2100000000E+08    0.6243954285E+00    0.1345165035E-02    0.6780315890E+00    0.4435404225E-04    0.5576687132E-01
    0.2300000000E+08    0.6243885035E+00    0.1288606676E-02    0.6781185080E+00    0.4229092595E-04    0.5577543101E-01
    0.2500000000E+08    0.6243820381E+00    0.1238850571E-02    0.6781949492E+00    0.4048409279E-04    0.5578326742E-01
    0.2700000000E+08    0.6243759782E+00    0.1194626340E-02    0.6782628727E+00    0.3888477604E-04    0.5579049340E-01
