  Pressure (Pa) 22mC5-400 (mol/kg) 2mC6-400 (mol/kg) 3mC6-400 (mol/kg) 33mC5-400 (mol/kg) 23mC5-400 (mol/kg)
    0.1000000000E+01    0.1059441996E-02    0.3967145182E-02    0.4737586548E-02    0.1938105307E-03    0.9301313929E-04
    0.3000000000E+01    0.3142447217E-02    0.1160390939E-01    0.1388098807E-01    0.5669502440E-03    0.2758913309E-03
    0.5000000000E+01    0.5179332358E-02    0.1886722168E-01    0.2260873831E-01    0.9219135770E-03    0.4547228212E-03
    0.7000000000E+01    0.7172053386E-02    0.2578272343E-01    0.3095021014E-01    0.1259948973E-02    0.6296792110E-03
    0.9000000000E+01    0.9122453134E-02    0.3237374093E-01    0.3893203640E-01    0.1582192055E-02    0.8009221765E-03
    0.1100000000E+02    0.1103226945E-01    0.3866154393E-01    0.4657842347E-01    0.1889678236E-02    0.9686041847E-03
    0.1300000000E+02    0.1290314267E-01    0.4466556998E-01    0.5391142271E-01    0.2183353658E-02    0.1132869147E-02
    0.1500000000E+02    0.1473662242E-01    0.5040361974E-01    0.6095116616E-01    0.2464084721E-02    0.1293853019E-02
    0.1700000000E+02    0.1653417391E-01    0.5589202763E-01    0.6771607190E-01    0.2732666397E-02    0.1451684349E-02
    0.1900000000E+02    0.1829718364E-01    0.6114581133E-01    0.7422302360E-01    0.2989829524E-02    0.1606484780E-02
    0.2100000000E+02    0.2002696470E-01    0.6617880324E-01    0.8048752784E-01    0.3236247208E-02    0.1758369519E-02
    0.2300000000E+02    0.2172476165E-01    0.7100376624E-01    0.8652385249E-01    0.3472540477E-02    0.1907447754E-02
    0.2500000000E+02    0.2339175492E-01    0.7563249619E-01    0.9234514866E-01    0.3699283263E-02    0.2053823055E-02
    0.2700000000E+02    0.2502906505E-01    0.8007591258E-01    0.9796355848E-01    0.3917006831E-02    0.2197593731E-02
    0.2900000000E+02    0.2663775640E-01    0.8434413924E-01    0.1033903106E+00    0.4126203705E-02    0.2338853167E-02
    0.3100000000E+02    0.2821884072E-01    0.8844657608E-01    0.1086358051E+00    0.4327331168E-02    0.2477690130E-02
    0.3300000000E+02    0.2977328039E-01    0.9239196320E-01    0.1137096890E+00    0.4520814382E-02    0.2614189057E-02
    0.3500000000E+02    0.3130199146E-01    0.9618843829E-01    0.1186209235E+00    0.4707049188E-02    0.2748430320E-02
    0.3700000000E+02    0.3280584642E-01    0.9984358796E-01    0.1233778446E+00    0.4886404604E-02    0.2880490471E-02
    0.3900000000E+02    0.3428567683E-01    0.1033644940E+00    0.1279882166E+00    0.5059225080E-02    0.3010442467E-02
    0.4100000000E+02    0.3574227568E-01    0.1067577751E+00    0.1324592810E+00    0.5225832522E-02    0.3138355887E-02
    0.4300000000E+02    0.3717639970E-01    0.1100296239E+00    0.1367978000E+00    0.5386528117E-02    0.3264297124E-02
    0.4500000000E+02    0.3858877136E-01    0.1131858415E+00    0.1410100959E+00    0.5541593988E-02    0.3388329568E-02
    0.4700000000E+02    0.3998008091E-01    0.1162318677E+00    0.1451020861E+00    0.5691294684E-02    0.3510513782E-02
    0.4900000000E+02    0.4135098811E-01    0.1191728090E+00    0.1490793160E+00    0.5835878537E-02    0.3630907652E-02
    0.1000000000E+02    0.1008232950E-01    0.3555428887E-01    0.4279573404E-01    0.1737718650E-02    0.8851991126E-03
    0.3000000000E+02    0.2743168817E-01    0.8641552037E-01    0.1060350953E+00    0.4227748822E-02    0.2408569082E-02
    0.5000000000E+02    0.4202898910E-01    0.1206053837E+00    0.1510265341E+00    0.5906325121E-02    0.3690450604E-02
    0.7000000000E+02    0.5465759584E-01    0.1447641341E+00    0.1850526558E+00    0.7096426976E-02    0.4799575018E-02
    0.9000000000E+02    0.6581914153E-01    0.1624341879E+00    0.2119308299E+00    0.7970307915E-02    0.5779956739E-02
    0.1100000000E+03    0.7585104040E-01    0.1756807685E+00    0.2338637314E+00    0.8628385629E-02    0.6661202308E-02
    0.1300000000E+03    0.8498943756E-01    0.1857889975E+00    0.2522162079E+00    0.9133154325E-02    0.7464033038E-02
    0.1500000000E+03    0.9340510095E-01    0.1935996249E+00    0.2678818556E+00    0.9525509968E-02    0.8203433956E-02
    0.1700000000E+03    0.1012249574E+00    0.1996849975E+00    0.2814719898E+00    0.9833304076E-02    0.8890543291E-02
    0.1900000000E+03    0.1085455767E+00    0.2044475756E+00    0.2934200725E+00    0.1007613148E-01    0.9533835560E-02
    0.2100000000E+03    0.1154419244E+00    0.2081780874E+00    0.3040427561E+00    0.1026815613E-01    0.1013988954E-01
    0.2300000000E+03    0.1219732221E+00    0.2110913853E+00    0.3135772609E+00    0.1041985325E-01    0.1071390245E-01
    0.2500000000E+03    0.1281869781E+00    0.2133493770E+00    0.3222051746E+00    0.1053912351E-01    0.1126004367E-01
    0.2700000000E+03    0.1341218258E+00    0.2150761516E+00    0.3300681177E+00    0.1063202799E-01    0.1178170375E-01
    0.2900000000E+03    0.1398095643E+00    0.2163682307E+00    0.3372783570E+00    0.1070328628E-01    0.1228167350E-01
    0.3100000000E+03    0.1452766538E+00    0.2173016782E+00    0.3439261783E+00    0.1075662206E-01    0.1276227518E-01
    0.3300000000E+03    0.1505453283E+00    0.2179371350E+00    0.3500851229E+00    0.1079500782E-01    0.1322546018E-01
    0.3500000000E+03    0.1556344375E+00    0.2183234492E+00    0.3558157801E+00    0.1082084133E-01    0.1367288290E-01
    0.3700000000E+03    0.1605600921E+00    0.2185003375E+00    0.3611685825E+00    0.1083607512E-01    0.1410595731E-01
    0.3900000000E+03    0.1653361635E+00    0.2185003645E+00    0.3661858991E+00    0.1084231270E-01    0.1452590092E-01
    0.4100000000E+03    0.1699746772E+00    0.2183504345E+00    0.3709036251E+00    0.1084088122E-01    0.1493376916E-01
    0.4300000000E+03    0.1744861235E+00    0.2180729303E+00    0.3753524047E+00    0.1083288687E-01    0.1533048279E-01
    0.4500000000E+03    0.1788797070E+00    0.2176865908E+00    0.3795585837E+00    0.1081925761E-01    0.1571684968E-01
    0.4700000000E+03    0.1831635475E+00    0.2172071951E+00    0.3835449584E+00    0.1080077655E-01    0.1609358253E-01
    0.4900000000E+03    0.1873448442E+00    0.2166481011E+00    0.3873313714E+00    0.1077810812E-01    0.1646131320E-01
    0.1000000000E+03    0.7095967643E-01    0.1695168239E+00    0.2234160061E+00    0.8321771360E-02    0.6231513148E-02
    0.3000000000E+03    0.1425692125E+00    0.2168756800E+00    0.3406676313E+00    0.1073199344E-01    0.1252426566E-01
    0.5000000000E+03    0.1893990700E+00    0.2163422864E+00    0.3891551050E+00    0.1076538405E-01    0.1664198102E-01
    0.7000000000E+03    0.2263444058E+00    0.2080609471E+00    0.4183965033E+00    0.1039227712E-01    0.1989194336E-01
    0.9000000000E+03    0.2574686061E+00    0.1982969477E+00    0.4388716255E+00    0.9927898405E-02    0.2263079863E-01
    0.1100000000E+04    0.2845023441E+00    0.1886383135E+00    0.4544085977E+00    0.9455887292E-02    0.2501044445E-01
    0.1300000000E+04    0.3083793176E+00    0.1795527408E+00    0.4668062530E+00    0.9003150992E-02    0.2711282529E-01
    0.1500000000E+04    0.3296858550E+00    0.1711630014E+00    0.4770455777E+00    0.8578486610E-02    0.2898939767E-01
    0.1700000000E+04    0.3488306013E+00    0.1634714897E+00    0.4857172637E+00    0.8183986062E-02    0.3067602490E-01
    0.1900000000E+04    0.3661198187E+00    0.1564372246E+00    0.4932031050E+00    0.7819061533E-02    0.3219958651E-01
    0.2100000000E+04    0.3817949117E+00    0.1500051801E+00    0.4997633694E+00    0.7482046060E-02    0.3358127167E-01
    0.2300000000E+04    0.3960529099E+00    0.1441181193E+00    0.5055829990E+00    0.7170883138E-02    0.3483837665E-01
    0.2500000000E+04    0.4090585443E+00    0.1387214088E+00    0.5107978562E+00    0.6883438597E-02    0.3598536436E-01
    0.2700000000E+04    0.4209518680E+00    0.1337648396E+00    0.5155105081E+00    0.6617643741E-02    0.3703453285E-01
    0.2900000000E+04    0.4318533694E+00    0.1292031259E+00    0.5198001696E+00    0.6371558811E-02    0.3799646378E-01
    0.3100000000E+04    0.4418675925E+00    0.1249958185E+00    0.5237292128E+00    0.6143397351E-02    0.3888033987E-01
    0.3300000000E+04    0.4510858224E+00    0.1211069693E+00    0.5273475688E+00    0.5931530990E-02    0.3969418043E-01
    0.3500000000E+04    0.4595881540E+00    0.1175047067E+00    0.5306957884E+00    0.5734484492E-02    0.4044502274E-01
    0.3700000000E+04    0.4674451360E+00    0.1141607964E+00    0.5338072228E+00    0.5550926151E-02    0.4113906618E-01
    0.3900000000E+04    0.4747191076E+00    0.1110502228E+00    0.5367096087E+00    0.5379656258E-02    0.4178178952E-01
    0.4100000000E+04    0.4814653054E+00    0.1081508051E+00    0.5394262440E+00    0.5219595101E-02    0.4237804793E-01
    0.4300000000E+04    0.4877327923E+00    0.1054428532E+00    0.5419768727E+00    0.5069771244E-02    0.4293215450E-01
    0.4500000000E+04    0.4935652446E+00    0.1029088627E+00    0.5443783617E+00    0.4929310503E-02    0.4344794928E-01
    0.4700000000E+04    0.4990016246E+00    0.1005332475E+00    0.5466452249E+00    0.4797425787E-02    0.4392885827E-01
    0.4900000000E+04    0.5040767577E+00    0.9830210572E-01    0.5487900348E+00    0.4673407855E-02    0.4437794411E-01
    0.1000000000E+04    0.2714271775E+00    0.1934125879E+00    0.4471177792E+00    0.9690511355E-02    0.2385941384E-01
    0.3000000000E+04    0.4369654014E+00    0.1270575189E+00    0.5218063973E+00    0.6255343100E-02    0.3844763255E-01
    0.5000000000E+04    0.5064887326E+00    0.9723677753E-01    0.5498201492E+00    0.4614146514E-02    0.4459142194E-01
    0.7000000000E+04    0.5418111794E+00    0.8111544727E-01    0.5660609771E+00    0.3716413910E-02    0.4772235980E-01
    0.9000000000E+04    0.5622468998E+00    0.7104371004E-01    0.5770935999E+00    0.3159609855E-02    0.4953984192E-01
    0.1100000000E+05    0.5752347845E+00    0.6409775029E-01    0.5852554856E+00    0.2781333795E-02    0.5069914329E-01
    0.1300000000E+05    0.5840805265E+00    0.5896633529E-01    0.5916276555E+00    0.2506817027E-02    0.5149177590E-01
    0.1500000000E+05    0.5904286281E+00    0.5498332176E-01    0.5967913563E+00    0.2297612142E-02    0.5206292117E-01
    0.1700000000E+05    0.5951730284E+00    0.5177620574E-01    0.6010918533E+00    0.2132135389E-02    0.5249158864E-01
    0.1900000000E+05    0.5988350877E+00    0.4912050029E-01    0.6047493859E+00    0.1997394623E-02    0.5282391212E-01
    0.2100000000E+05    0.6017366215E+00    0.4687264131E-01    0.6079121936E+00    0.1885117530E-02    0.5308840278E-01
    0.2300000000E+05    0.6040857301E+00    0.4493630455E-01    0.6106843355E+00    0.1789789553E-02    0.5330352019E-01
    0.2500000000E+05    0.6060222901E+00    0.4324426613E-01    0.6131413705E+00    0.1707591906E-02    0.5348168807E-01
    0.2700000000E+05    0.6076434406E+00    0.4174804819E-01    0.6153397109E+00    0.1635794175E-02    0.5363154561E-01
    0.2900000000E+05    0.6090185483E+00    0.4041171222E-01    0.6173224684E+00    0.1572390325E-02    0.5375927030E-01
    0.3100000000E+05    0.6101983528E+00    0.3920798092E-01    0.6191232496E+00    0.1515871714E-02    0.5386938703E-01
    0.3300000000E+05    0.6112207548E+00    0.3811572679E-01    0.6207687027E+00    0.1465080556E-02    0.5396528047E-01
    0.3500000000E+05    0.6121145897E+00    0.3711829498E-01    0.6222802752E+00    0.1419112467E-02    0.5404952939E-01
    0.3700000000E+05    0.6129021566E+00    0.3620235236E-01    0.6236754553E+00    0.1377249906E-02    0.5412413093E-01
    0.3900000000E+05    0.6136009512E+00    0.3535707887E-01    0.6249686689E+00    0.1338915651E-02    0.5419065432E-01
    0.4100000000E+05    0.6142248805E+00    0.3457358715E-01    0.6261719391E+00    0.1303639601E-02    0.5425034878E-01
    0.4300000000E+05    0.6147851285E+00    0.3384449813E-01    0.6272953796E+00    0.1271034639E-02    0.5430422046E-01
    0.4500000000E+05    0.6152907857E+00    0.3316362542E-01    0.6283475693E+00    0.1240778788E-02    0.5435308840E-01
    0.4700000000E+05    0.6157493122E+00    0.3252573693E-01    0.6293358408E+00    0.1212601824E-02    0.5439762580E-01
    0.4900000000E+05    0.6161668842E+00    0.3192637249E-01    0.6302665044E+00    0.1186275083E-02    0.5443839087E-01
    0.1000000000E+05    0.5694092306E+00    0.6728367888E-01    0.5814491490E+00    0.2954040679E-02    0.5017861560E-01
    0.3000000000E+05    0.6096302455E+00    0.3979471279E-01    0.6182438011E+00    0.1543349622E-02    0.5381629598E-01
    0.5000000000E+05    0.6163619574E+00    0.3163991857E-01    0.6307119702E+00    0.1173743485E-02    0.5445750766E-01
    0.7000000000E+05    0.6190085696E+00    0.2723497495E-01    0.6376067359E+00    0.9851284602E-03    0.5472307029E-01
    0.9000000000E+05    0.6204046043E+00    0.2434853928E-01    0.6421554628E+00    0.8656178235E-03    0.5487049789E-01
    0.1100000000E+06    0.6212617193E+00    0.2226065991E-01    0.6454524765E+00    0.7811294842E-03    0.5496563602E-01
    0.1300000000E+06    0.6218393045E+00    0.2065592452E-01    0.6479873248E+00    0.7172887364E-03    0.5503292323E-01
    0.1500000000E+06    0.6222538301E+00    0.1937060366E-01    0.6500167956E+00    0.6668352746E-03    0.5508353232E-01
    0.1700000000E+06    0.6225651693E+00    0.1830984975E-01    0.6516904902E+00    0.6256503402E-03    0.5512331069E-01
    0.1900000000E+06    0.6228071830E+00    0.1741429829E-01    0.6531023423E+00    0.5911986599E-03    0.5515562462E-01
    0.2100000000E+06    0.6230004334E+00    0.1664458589E-01    0.6543147494E+00    0.5618220356E-03    0.5518255468E-01
    0.2300000000E+06    0.6231581150E+00    0.1597341528E-01    0.6553710238E+00    0.5363837628E-03    0.5520545948E-01
    0.2500000000E+06    0.6232890761E+00    0.1538116568E-01    0.6563023115E+00    0.5140748629E-03    0.5522526605E-01
    0.2700000000E+06    0.6233994684E+00    0.1485331382E-01    0.6571316693E+00    0.4943016889E-03    0.5524262997E-01
    0.2900000000E+06    0.6234936987E+00    0.1437884287E-01    0.6578765855E+00    0.4766173523E-03    0.5525802896E-01
    0.3100000000E+06    0.6235750056E+00    0.1394922046E-01    0.6585506011E+00    0.4606781010E-03    0.5527181999E-01
    0.3300000000E+06    0.6236458212E+00    0.1355771948E-01    0.6591643887E+00    0.4462145765E-03    0.5528427563E-01
    0.3500000000E+06    0.6237080070E+00    0.1319895328E-01    0.6597264905E+00    0.4330122995E-03    0.5529560795E-01
    0.3700000000E+06    0.6237630114E+00    0.1286854966E-01    0.6602438372E+00    0.4208980714E-03    0.5530598465E-01
    0.3900000000E+06    0.6238119780E+00    0.1256291692E-01    0.6607221195E+00    0.4097302831E-03    0.5531554030E-01
    0.4100000000E+06    0.6238558215E+00    0.1227907286E-01    0.6611660601E+00    0.3993918684E-03    0.5532438422E-01
    0.4300000000E+06    0.6238952821E+00    0.1201451751E-01    0.6615796164E+00    0.3897850888E-03    0.5533260629E-01
    0.4500000000E+06    0.6239309650E+00    0.1176713696E-01    0.6619661327E+00    0.3808276131E-03    0.5534028117E-01
    0.4700000000E+06    0.6239633698E+00    0.1153512973E-01    0.6623284579E+00    0.3724495274E-03    0.5534747141E-01
    0.4900000000E+06    0.6239929125E+00    0.1131694960E-01    0.6626690359E+00    0.3645910251E-03    0.5535422990E-01
    0.1000000000E+06    0.6208792165E+00    0.2322963622E-01    0.6439219945E+00    0.8201381797E-03    0.5492260463E-01
    0.3000000000E+06    0.6235357999E+00    0.1415888208E-01    0.6582217316E+00    0.4684479056E-03    0.5526510678E-01
    0.5000000000E+06    0.6240067219E+00    0.1121262008E-01    0.6628318406E+00    0.3608402395E-03    0.5535746158E-01
    0.7000000000E+06    0.6241938198E+00    0.9606147761E-02    0.6653342282E+00    0.3036752713E-03    0.5540753871E-01
    0.9000000000E+06    0.6242907548E+00    0.8554528823E-02    0.6669675556E+00    0.2668866257E-03    0.5544120588E-01
    0.1100000000E+07    0.6243482663E+00    0.7796198411E-02    0.6681429044E+00    0.2406934387E-03    0.5546635492E-01
    0.1300000000E+07    0.6243852901E+00    0.7215330961E-02    0.6690417670E+00    0.2208328985E-03    0.5548634597E-01
    0.1500000000E+07    0.6244104345E+00    0.6751593353E-02    0.6697584656E+00    0.2051109598E-03    0.5550289911E-01
    0.1700000000E+07    0.6244281481E+00    0.6370018063E-02    0.6703475670E+00    0.1922682105E-03    0.5551700555E-01
    0.1900000000E+07    0.6244409473E+00    0.6048738056E-02    0.6708431432E+00    0.1815234121E-03    0.5552928584E-01
    0.2100000000E+07    0.6244503549E+00    0.5773275372E-02    0.6712677240E+00    0.1723629024E-03    0.5554015308E-01
    0.2300000000E+07    0.6244573423E+00    0.5533607807E-02    0.6716368884E+00    0.1644332734E-03    0.5554989552E-01
    0.2500000000E+07    0.6244625552E+00    0.5322545135E-02    0.6719618025E+00    0.1574823604E-03    0.5555872203E-01
    0.2700000000E+07    0.6244664381E+00    0.5134775232E-02    0.6722507088E+00    0.1513247808E-03    0.5556678862E-01
    0.2900000000E+07    0.6244693057E+00    0.4966276008E-02    0.6725098435E+00    0.1458208013E-03    0.5557421483E-01
    0.3100000000E+07    0.6244713860E+00    0.4813938017E-02    0.6727440243E+00    0.1408628405E-03    0.5558109419E-01
    0.3300000000E+07    0.6244728480E+00    0.4675313925E-02    0.6729570409E+00    0.1363665480E-03    0.5558750125E-01
    0.3500000000E+07    0.6244738189E+00    0.4548447301E-02    0.6731519211E+00    0.1322647324E-03    0.5559349634E-01
    0.3700000000E+07    0.6244743963E+00    0.4431752648E-02    0.6733311173E+00    0.1285031223E-03    0.5559912900E-01
    0.3900000000E+07    0.6244746555E+00    0.4323929456E-02    0.6734966401E+00    0.1250373402E-03    0.5560444035E-01
    0.4100000000E+07    0.6244746560E+00    0.4223899438E-02    0.6736501559E+00    0.1218306997E-03    0.5560946494E-01
    0.4300000000E+07    0.6244744449E+00    0.4130759891E-02    0.6737930591E+00    0.1188525738E-03    0.5561423204E-01
    0.4500000000E+07    0.6244740597E+00    0.4043748499E-02    0.6739265269E+00    0.1160771665E-03    0.5561876666E-01
    0.4700000000E+07    0.6244735311E+00    0.3962216408E-02    0.6740515609E+00    0.1134825765E-03    0.5562309036E-01
    0.4900000000E+07    0.6244728838E+00    0.3885607355E-02    0.6741690194E+00    0.1110500727E-03    0.5562722183E-01
    0.1000000000E+07    0.6243228891E+00    0.8147817066E-02    0.6675981855E+00    0.2528022630E-03    0.5545457903E-01
    0.3000000000E+07    0.6244704325E+00    0.4888253025E-02    0.6726297957E+00    0.1432793029E-03    0.5557771783E-01
    0.5000000000E+07    0.6244725222E+00    0.3848996355E-02    0.6742251432E+00    0.1098894747E-03    0.5562922066E-01
    0.7000000000E+07    0.6244624686E+00    0.3287072552E-02    0.6750858343E+00    0.9223670119E-04    0.5566216815E-01
    0.9000000000E+07    0.6244508960E+00    0.2921099225E-02    0.6756456441E+00    0.8091534968E-04    0.5568643370E-01
    0.1100000000E+08    0.6244397442E+00    0.2658122556E-02    0.6760475321E+00    0.7287543624E-04    0.5570564975E-01
    0.1300000000E+08    0.6244294091E+00    0.2457217062E-02    0.6763543464E+00    0.6679160872E-04    0.5572155988E-01
    0.1500000000E+08    0.6244199156E+00    0.2297154446E-02    0.6765986514E+00    0.6198341573E-04    0.5573513644E-01
    0.1700000000E+08    0.6244111929E+00    0.2165671545E-02    0.6767992436E+00    0.5806108932E-04    0.5574697736E-01
    0.1900000000E+08    0.6244031524E+00    0.2055119824E-02    0.6769678381E+00    0.5478328216E-04    0.5575747669E-01
    0.2100000000E+08    0.6243957092E+00    0.1960446380E-02    0.6771121702E+00    0.5199155492E-04    0.5576690783E-01
    0.2300000000E+08    0.6243887890E+00    0.1878159926E-02    0.6772375820E+00    0.4957704667E-04    0.5577546832E-01
    0.2500000000E+08    0.6243823279E+00    0.1805759743E-02    0.6773478982E+00    0.4746217576E-04    0.5578330548E-01
    0.2700000000E+08    0.6243762721E+00    0.1741400911E-02    0.6774459395E+00    0.4558996802E-04    0.5579053215E-01
