  Pressure (Pa) 22mC5-400 (mol/kg) 2mC6-400 (mol/kg) 3mC6-400 (mol/kg) 33mC5-400 (mol/kg) 23mC5-400 (mol/kg)
    0.1000000000E+01    0.1059919717E-02    0.3183947989E-02    0.2641674759E-02    0.5184781706E-03    0.9305506171E-04
    0.3000000000E+01    0.3146623298E-02    0.9371249843E-02    0.7795215029E-02    0.1526075792E-02    0.2762578055E-03
    0.5000000000E+01    0.5190604618E-02    0.1532824813E-01    0.1278317113E-01    0.2496233360E-02    0.4557120306E-03
    0.7000000000E+01    0.7193531591E-02    0.2106678163E-01    0.1761399224E-01    0.3430875209E-02    0.6315640644E-03
    0.9000000000E+01    0.9156983302E-02    0.2659789891E-01    0.2229555306E-01    0.4331797193E-02    0.8039524417E-03
    0.1100000000E+02    0.1108245591E-01    0.3193192314E-01    0.2683520206E-01    0.5200677227E-02    0.9730084228E-03
    0.1300000000E+02    0.1297136807E-01    0.3707851065E-01    0.3123980497E-01    0.6039084807E-02    0.1138856469E-02
    0.1500000000E+02    0.1482506597E-01    0.4204670384E-01    0.3551578399E-01    0.6848489618E-02    0.1301614684E-02
    0.1700000000E+02    0.1664482789E-01    0.4684497918E-01    0.3966915331E-01    0.7630269337E-02    0.1461395216E-02
    0.1900000000E+02    0.1843186855E-01    0.5148129068E-01    0.4370555114E-01    0.8385716711E-02    0.1618304635E-02
    0.2100000000E+02    0.2018734303E-01    0.5596310953E-01    0.4763026883E-01    0.9116045992E-02    0.1772444281E-02
    0.2300000000E+02    0.2191235041E-01    0.6029746007E-01    0.5144827735E-01    0.9822398793E-02    0.1923910580E-02
    0.2500000000E+02    0.2360793720E-01    0.6449095266E-01    0.5516425129E-01    0.1050584943E-01    0.2072795346E-02
    0.2700000000E+02    0.2527510046E-01    0.6854981362E-01    0.5878259080E-01    0.1116740980E-01    0.2219186056E-02
    0.2900000000E+02    0.2691479072E-01    0.7247991270E-01    0.6230744158E-01    0.1180803383E-01    0.2363166107E-02
    0.3100000000E+02    0.2852791472E-01    0.7628678812E-01    0.6574271310E-01    0.1242862157E-01    0.2504815049E-02
    0.3300000000E+02    0.3011533793E-01    0.7997566962E-01    0.6909209535E-01    0.1303002291E-01    0.2644208817E-02
    0.3500000000E+02    0.3167788689E-01    0.8355149954E-01    0.7235907413E-01    0.1361304104E-01    0.2781419927E-02
    0.3700000000E+02    0.3321635141E-01    0.8701895223E-01    0.7554694508E-01    0.1417843561E-01    0.2916517674E-02
    0.3900000000E+02    0.3473148662E-01    0.9038245194E-01    0.7865882657E-01    0.1472692557E-01    0.3049568312E-02
    0.4100000000E+02    0.3622401489E-01    0.9364618919E-01    0.8169767156E-01    0.1525919194E-01    0.3180635219E-02
    0.4300000000E+02    0.3769462758E-01    0.9681413601E-01    0.8466627852E-01    0.1577588019E-01    0.3309779052E-02
    0.4500000000E+02    0.3914398676E-01    0.9989005988E-01    0.8756730146E-01    0.1627760257E-01    0.3437057901E-02
    0.4700000000E+02    0.4057272670E-01    0.1028775367E+00    0.9040325922E-01    0.1676494017E-01    0.3562527415E-02
    0.4900000000E+02    0.4198145541E-01    0.1057799628E+00    0.9317654405E-01    0.1723844491E-01    0.3686240940E-02
    0.1000000000E+02    0.1012437657E-01    0.2928892915E-01    0.2458267660E-01    0.4770141924E-02    0.8888890489E-03
    0.3000000000E+02    0.2772461847E-01    0.7439841953E-01    0.6403603916E-01    0.1212077798E-01    0.2434277138E-02
    0.5000000000E+02    0.4267849869E-01    0.1072002967E+00    0.9454039902E-01    0.1747017489E-01    0.3747455275E-02
    0.7000000000E+02    0.5569861715E-01    0.1318467958E+00    0.1190238942E+00    0.2149311217E-01    0.4890944859E-02
    0.9000000000E+02    0.6725407478E-01    0.1508309870E+00    0.1392447334E+00    0.2459472516E-01    0.5905904968E-02
    0.1100000000E+03    0.7766731980E-01    0.1657375703E+00    0.1563253658E+00    0.2703254274E-01    0.6820628283E-02
    0.1300000000E+03    0.8716797798E-01    0.1776202191E+00    0.1710178083E+00    0.2897781156E-01    0.7655263562E-02
    0.1500000000E+03    0.9592446976E-01    0.1872055673E+00    0.1838459557E+00    0.3054864256E-01    0.8424589452E-02
    0.1700000000E+03    0.1040634489E+00    0.1950100937E+00    0.1951867415E+00    0.3182900210E-01    0.9139719920E-02
    0.1900000000E+03    0.1116822226E+00    0.2014103698E+00    0.2053188103E+00    0.3288012485E-01    0.9809193971E-02
    0.2100000000E+03    0.1188569536E+00    0.2066869961E+00    0.2144529577E+00    0.3374765171E-01    0.1043969524E-01
    0.2300000000E+03    0.1256482318E+00    0.2110530289E+00    0.2227518584E+00    0.3446624786E-01    0.1103654088E-01
    0.2500000000E+03    0.1321049556E+00    0.2146729162E+00    0.2303432472E+00    0.3506267905E-01    0.1160402215E-01
    0.2700000000E+03    0.1382670949E+00    0.2176754354E+00    0.2373289651E+00    0.3555791344E-01    0.1214564677E-01
    0.2900000000E+03    0.1441676969E+00    0.2201627320E+00    0.2437913119E+00    0.3596859007E-01    0.1266431501E-01
    0.3100000000E+03    0.1498343677E+00    0.2222167605E+00    0.2497976023E+00    0.3630806529E-01    0.1316244965E-01
    0.3300000000E+03    0.1552903840E+00    0.2239039556E+00    0.2554034928E+00    0.3658717177E-01    0.1364209351E-01
    0.3500000000E+03    0.1605555392E+00    0.2252786732E+00    0.2606554518E+00    0.3681477767E-01    0.1410498377E-01
    0.3700000000E+03    0.1656467954E+00    0.2263857635E+00    0.2655926212E+00    0.3699820470E-01    0.1455260908E-01
    0.3900000000E+03    0.1705787920E+00    0.2272625178E+00    0.2702482381E+00    0.3714354465E-01    0.1498625430E-01
    0.4100000000E+03    0.1753642467E+00    0.2279401612E+00    0.2746507348E+00    0.3725590188E-01    0.1540703562E-01
    0.4300000000E+03    0.1800142749E+00    0.2284450077E+00    0.2788245977E+00    0.3733958124E-01    0.1581592861E-01
    0.4500000000E+03    0.1845386464E+00    0.2287993649E+00    0.2827910472E+00    0.3739823501E-01    0.1621379073E-01
    0.4700000000E+03    0.1889459925E+00    0.2290222472E+00    0.2865685792E+00    0.3743497900E-01    0.1660137955E-01
    0.4900000000E+03    0.1932439766E+00    0.2291299439E+00    0.2901734013E+00    0.3745248491E-01    0.1697936767E-01
    0.1000000000E+03    0.7258739404E-01    0.1587186357E+00    0.1481239589E+00    0.2588436367E-01    0.6374385297E-02
    0.3000000000E+03    0.1470287284E+00    0.2212394342E+00    0.2468477448E+00    0.3614649903E-01    0.1291581341E-01
    0.5000000000E+03    0.1953541228E+00    0.2291450572E+00    0.2919155737E+00    0.3745475562E-01    0.1716495148E-01
    0.7000000000E+03    0.2331446058E+00    0.2259452029E+00    0.3204019921E+00    0.3690887218E-01    0.2048924155E-01
    0.9000000000E+03    0.2647434012E+00    0.2196023492E+00    0.3410310251E+00    0.3582086029E-01    0.2326988261E-01
    0.1100000000E+04    0.2920143931E+00    0.2124251633E+00    0.3571180494E+00    0.3457742598E-01    0.2567046269E-01
    0.1300000000E+04    0.3159670368E+00    0.2052322302E+00    0.3702573767E+00    0.3331928807E-01    0.2777957616E-01
    0.1500000000E+04    0.3372361683E+00    0.1983372003E+00    0.3813333504E+00    0.3210269080E-01    0.2965293860E-01
    0.1700000000E+04    0.3562638496E+00    0.1918555244E+00    0.3908860749E+00    0.3095006081E-01    0.3132934820E-01
    0.1900000000E+04    0.3733803732E+00    0.1858178456E+00    0.3992691002E+00    0.2986893336E-01    0.3283779561E-01
    0.2100000000E+04    0.3888448380E+00    0.1802170736E+00    0.4067262872E+00    0.2885992827E-01    0.3420102496E-01
    0.2300000000E+04    0.4028674549E+00    0.1750295549E+00    0.4134328494E+00    0.2792041238E-01    0.3543749124E-01
    0.2500000000E+04    0.4156228102E+00    0.1702251079E+00    0.4195188684E+00    0.2704628626E-01    0.3656252397E-01
    0.2700000000E+04    0.4272583124E+00    0.1657719158E+00    0.4250835453E+00    0.2623289081E-01    0.3758906824E-01
    0.2900000000E+04    0.4378999046E+00    0.1616389115E+00    0.4302042429E+00    0.2547547598E-01    0.3852818574E-01
    0.3100000000E+04    0.4476561326E+00    0.1577968945E+00    0.4349424472E+00    0.2476944148E-01    0.3938941152E-01
    0.3300000000E+04    0.4566211702E+00    0.1542189891E+00    0.4393478254E+00    0.2411045498E-01    0.4018101937E-01
    0.3500000000E+04    0.4648771499E+00    0.1508807593E+00    0.4434610658E+00    0.2349450304E-01    0.4091022619E-01
    0.3700000000E+04    0.4724960077E+00    0.1477601474E+00    0.4473159144E+00    0.2291790496E-01    0.4158335383E-01
    0.3900000000E+04    0.4795409765E+00    0.1448373262E+00    0.4509406645E+00    0.2237730635E-01    0.4220596003E-01
    0.4100000000E+04    0.4860678133E+00    0.1420945139E+00    0.4543592678E+00    0.2186966214E-01    0.4278294614E-01
    0.4300000000E+04    0.4921258223E+00    0.1395157799E+00    0.4575921765E+00    0.2139221439E-01    0.4331864678E-01
    0.4500000000E+04    0.4977587139E+00    0.1370868544E+00    0.4606569907E+00    0.2094246833E-01    0.4381690534E-01
    0.4700000000E+04    0.5030053332E+00    0.1347949500E+00    0.4635689630E+00    0.2051816838E-01    0.4428113781E-01
    0.4900000000E+04    0.5079002804E+00    0.1326285980E+00    0.4663413959E+00    0.2011727505E-01    0.4471438725E-01
    0.1000000000E+04    0.2788446759E+00    0.2160489966E+00    0.3495192093E+00    0.3520679953E-01    0.2451108062E-01
    0.3000000000E+04    0.4428824965E+00    0.1596832663E+00    0.4326178135E+00    0.2511631407E-01    0.3896799106E-01
    0.5000000000E+04    0.5102256611E+00    0.1315892441E+00    0.4676789886E+00    0.1992502230E-01    0.4492025394E-01
    0.7000000000E+04    0.5442295048E+00    0.1153891456E+00    0.4893109312E+00    0.1694524985E-01    0.4793525756E-01
    0.9000000000E+04    0.5638917221E+00    0.1046748141E+00    0.5046297212E+00    0.1500920348E-01    0.4968469711E-01
    0.1100000000E+05    0.5764056913E+00    0.9691346136E-01    0.5163152482E+00    0.1363632050E-01    0.5080229388E-01
    0.1300000000E+05    0.5849461508E+00    0.9093541354E-01    0.5256594271E+00    0.1260099440E-01    0.5156805343E-01
    0.1500000000E+05    0.5910885749E+00    0.8612851949E-01    0.5333800524E+00    0.1178467891E-01    0.5212108893E-01
    0.1700000000E+05    0.5956890209E+00    0.8214020235E-01    0.5399151331E+00    0.1111929894E-01    0.5253707850E-01
    0.1900000000E+05    0.5992470421E+00    0.7875181032E-01    0.5455504826E+00    0.1056293189E-01    0.5286023769E-01
    0.2100000000E+05    0.6020713225E+00    0.7581964505E-01    0.5504822685E+00    0.1008828006E-01    0.5311792222E-01
    0.2300000000E+05    0.6043617304E+00    0.7324478560E-01    0.5548505615E+00    0.9676747205E-02    0.5332786721E-01
    0.2500000000E+05    0.6062527968E+00    0.7095652039E-01    0.5587586132E+00    0.9315185101E-02    0.5350202586E-01
    0.2700000000E+05    0.6078380816E+00    0.6890270607E-01    0.5622845570E+00    0.8994004850E-02    0.5364872223E-01
    0.2900000000E+05    0.6091844888E+00    0.6704387809E-01    0.5654888323E+00    0.8706027877E-02    0.5377391699E-01
    0.3100000000E+05    0.6103410235E+00    0.6534950223E-01    0.5684190752E+00    0.8445758616E-02    0.5388198228E-01
    0.3300000000E+05    0.6113443383E+00    0.6379550368E-01    0.5711134403E+00    0.8208908066E-02    0.5397619283E-01
    0.3500000000E+05    0.6122223540E+00    0.6236258811E-01    0.5736029205E+00    0.7992072296E-02    0.5405904689E-01
    0.3700000000E+05    0.6129966881E+00    0.6103507065E-01    0.5759130041E+00    0.7792509783E-02    0.5413248151E-01
    0.3900000000E+05    0.6136843206E+00    0.5980003984E-01    0.5780648826E+00    0.7607983646E-02    0.5419802051E-01
    0.4100000000E+05    0.6142987628E+00    0.5864674866E-01    0.5800763485E+00    0.7436647547E-02    0.5425687825E-01
    0.4300000000E+05    0.6148508920E+00    0.5756616264E-01    0.5819624717E+00    0.7276961686E-02    0.5431003383E-01
    0.4500000000E+05    0.6153495575E+00    0.5655061930E-01    0.5837361175E+00    0.7127629917E-02    0.5435828504E-01
    0.4700000000E+05    0.6158020281E+00    0.5559356748E-01    0.5854083489E+00    0.6987551996E-02    0.5440228824E-01
    0.4900000000E+05    0.6162143272E+00    0.5468936543E-01    0.5869887411E+00    0.6855786824E-02    0.5444258815E-01
    0.1000000000E+05    0.5707898005E+00    0.1005167423E+00    0.5108269836E+00    0.1427002051E-01    0.5030021827E-01
    0.3000000000E+05    0.6097839596E+00    0.6617776702E-01    0.5669856320E+00    0.8572721767E-02    0.5382986482E-01
    0.5000000000E+05    0.6164070177E+00    0.5425552896E-01    0.5877471457E+00    0.6792763763E-02    0.5446149475E-01
    0.7000000000E+05    0.6190267541E+00    0.4744731081E-01    0.5996483442E+00    0.5820180813E-02    0.5472468615E-01
    0.9000000000E+05    0.6204130882E+00    0.4284844830E-01    0.6076710063E+00    0.5180191837E-02    0.5487125795E-01
    0.1100000000E+06    0.6212659422E+00    0.3945534585E-01    0.6135730502E+00    0.4716515212E-02    0.5496602044E-01
    0.1300000000E+06    0.6218414234E+00    0.3681006068E-01    0.6181612513E+00    0.4359985581E-02    0.5503312243E-01
    0.1500000000E+06    0.6222548312E+00    0.3466817872E-01    0.6218666940E+00    0.4074479742E-02    0.5508363339E-01
    0.1700000000E+06    0.6225655497E+00    0.3288517670E-01    0.6249441319E+00    0.3838987997E-02    0.5512335751E-01
    0.1900000000E+06    0.6228072115E+00    0.3136914351E-01    0.6275553709E+00    0.3640324431E-02    0.5515564092E-01
    0.2100000000E+06    0.6230002631E+00    0.3005834542E-01    0.6298089224E+00    0.3469728821E-02    0.5518255396E-01
    0.2300000000E+06    0.6231578364E+00    0.2890951300E-01    0.6317807186E+00    0.3321117840E-02    0.5520544973E-01
    0.2500000000E+06    0.6232887443E+00    0.2789126297E-01    0.6335257435E+00    0.3190114604E-02    0.5522525209E-01
    0.2700000000E+06    0.6233991174E+00    0.2698018424E-01    0.6350849494E+00    0.3073477090E-02    0.5524261481E-01
    0.2900000000E+06    0.6234933499E+00    0.2615839715E-01    0.6364895656E+00    0.2968744853E-02    0.5525801446E-01
    0.3100000000E+06    0.6235746722E+00    0.2541197102E-01    0.6377638891E+00    0.2874011730E-02    0.5527180730E-01
    0.3300000000E+06    0.6236455116E+00    0.2472986373E-01    0.6389271529E+00    0.2787774591E-02    0.5528426547E-01
    0.3500000000E+06    0.6237077260E+00    0.2410319101E-01    0.6399948118E+00    0.2708829749E-02    0.5529560074E-01
    0.3700000000E+06    0.6237627618E+00    0.2352471027E-01    0.6409794495E+00    0.2636200213E-02    0.5530598062E-01
    0.3900000000E+06    0.6238117611E+00    0.2298844825E-01    0.6418914324E+00    0.2569083467E-02    0.5531553955E-01
    0.4100000000E+06    0.6238556377E+00    0.2248942731E-01    0.6427393898E+00    0.2506813273E-02    0.5532438678E-01
    0.4300000000E+06    0.6238951311E+00    0.2202346077E-01    0.6435305723E+00    0.2448831226E-02    0.5533261212E-01
    0.4500000000E+06    0.6239308462E+00    0.2158699752E-01    0.6442711238E+00    0.2394665262E-02    0.5534029020E-01
    0.4700000000E+06    0.6239632823E+00    0.2117700261E-01    0.6449662904E+00    0.2343913186E-02    0.5534748356E-01
    0.4900000000E+06    0.6239928553E+00    0.2079086417E-01    0.6456205828E+00    0.2296229891E-02    0.5535424506E-01
    0.1000000000E+06    0.6208851757E+00    0.4103695102E-01    0.6108241202E+00    0.4931754231E-02    0.5492314206E-01
    0.3000000000E+06    0.6235354575E+00    0.2577651196E-01    0.6371417105E+00    0.2920230397E-02    0.5526509307E-01
    0.5000000000E+06    0.6240066794E+00    0.2060602226E-01    0.6459336418E+00    0.2273444287E-02    0.5535747822E-01
    0.7000000000E+06    0.6241940134E+00    0.1774368007E-01    0.6507691376E+00    0.1924032598E-02    0.5540757917E-01
    0.9000000000E+06    0.6242911010E+00    0.1585358451E-01    0.6539491042E+00    0.1697048762E-02    0.5544126229E-01
    0.1100000000E+07    0.6243487169E+00    0.1448260757E-01    0.6562489347E+00    0.1534428800E-02    0.5546642266E-01
    0.1300000000E+07    0.6243858163E+00    0.1342792805E-01    0.6580141914E+00    0.1410565188E-02    0.5548642226E-01
    0.1500000000E+07    0.6244110183E+00    0.1258309865E-01    0.6594256521E+00    0.1312169915E-02    0.5550298217E-01
    0.1700000000E+07    0.6244287775E+00    0.1188607301E-01    0.6605884213E+00    0.1231568850E-02    0.5551709418E-01
    0.1900000000E+07    0.6244416139E+00    0.1129787469E-01    0.6615683862E+00    0.1163978723E-02    0.5552937919E-01
    0.2100000000E+07    0.6244510527E+00    0.1079260199E-01    0.6624092549E+00    0.1106242257E-02    0.5554025051E-01
    0.2300000000E+07    0.6244580667E+00    0.1035226887E-01    0.6631413326E+00    0.1056180109E-02    0.5554999655E-01
    0.2500000000E+07    0.6244633028E+00    0.9963937130E-02    0.6637863901E+00    0.1012232942E-02    0.5555882628E-01
    0.2700000000E+07    0.6244672062E+00    0.9618025878E-02    0.6643605300E+00    0.9732516300E-03    0.5556689579E-01
    0.2900000000E+07    0.6244700919E+00    0.9307266076E-02    0.6648759569E+00    0.9383681811E-03    0.5557432467E-01
    0.3100000000E+07    0.6244721887E+00    0.9026027869E-02    0.6653421139E+00    0.9069130737E-03    0.5558120650E-01
    0.3300000000E+07    0.6244736657E+00    0.8769872963E-02    0.6657664392E+00    0.8783604825E-03    0.5558761584E-01
    0.3500000000E+07    0.6244746504E+00    0.8535248095E-02    0.6661548831E+00    0.8522909158E-03    0.5559361308E-01
    0.3700000000E+07    0.6244752404E+00    0.8319269818E-02    0.6665122706E+00    0.8283650798E-03    0.5559924775E-01
    0.3900000000E+07    0.6244755114E+00    0.8119570068E-02    0.6668425616E+00    0.8063051880E-03    0.5560456100E-01
    0.4100000000E+07    0.6244755229E+00    0.7934183197E-02    0.6671490411E+00    0.7858813333E-03    0.5560958740E-01
    0.4300000000E+07    0.6244753220E+00    0.7761461916E-02    0.6674344604E+00    0.7669013767E-03    0.5561435621E-01
    0.4500000000E+07    0.6244749466E+00    0.7600013771E-02    0.6677011438E+00    0.7492033296E-03    0.5561889247E-01
    0.4700000000E+07    0.6244744271E+00    0.7448652485E-02    0.6679510706E+00    0.7326495334E-03    0.5562321774E-01
    0.4900000000E+07    0.6244737885E+00    0.7306360205E-02    0.6681859381E+00    0.7171221553E-03    0.5562735072E-01
    0.1000000000E+07    0.6243232920E+00    0.1511912922E-01    0.6551818804E+00    0.1609710578E-02    0.5545464154E-01
    0.3000000000E+07    0.6244712272E+00    0.9163257961E-02    0.6651146892E+00    0.9222478122E-03    0.5557782893E-01
    0.5000000000E+07    0.6244734311E+00    0.7238335495E-02    0.6682981905E+00    0.7097110880E-03    0.5562935028E-01
    0.7000000000E+07    0.6244634450E+00    0.6192303512E-02    0.6700218730E+00    0.5967776928E-03    0.5566231011E-01
    0.9000000000E+07    0.6244519213E+00    0.5509063638E-02    0.6711451361E+00    0.5241400656E-03    0.5568658524E-01
    0.1100000000E+08    0.6244408084E+00    0.5017148544E-02    0.6719524987E+00    0.4724557361E-03    0.5570580924E-01
    0.1300000000E+08    0.6244305058E+00    0.4640800403E-02    0.6725693757E+00    0.4332901981E-03    0.5572172624E-01
    0.1500000000E+08    0.6244210404E+00    0.4340626132E-02    0.6730608683E+00    0.4023024776E-03    0.5573530889E-01
    0.1700000000E+08    0.6244123427E+00    0.4093826495E-02    0.6734646030E+00    0.3770014286E-03    0.5574715531E-01
    0.1900000000E+08    0.6244043245E+00    0.3886160420E-02    0.6738040557E+00    0.3558422501E-03    0.5575765965E-01
    0.2100000000E+08    0.6243969017E+00    0.3708208220E-02    0.6740947396E+00    0.3378095929E-03    0.5576709544E-01
    0.2300000000E+08    0.6243900002E+00    0.3553454684E-02    0.6743473753E+00    0.3222051227E-03    0.5577566023E-01
    0.2500000000E+08    0.6243835565E+00    0.3417229017E-02    0.6745696430E+00    0.3085307283E-03    0.5578350143E-01
    0.2700000000E+08    0.6243775168E+00    0.3296082661E-02    0.6747672092E+00    0.2964203328E-03    0.5579073191E-01
