  Pressure (Pa) 22mC5-400 (mol/kg) 2mC6-400 (mol/kg) 3mC6-400 (mol/kg) 33mC5-400 (mol/kg) 23mC5-400 (mol/kg)
    0.1000000000E+01    0.1060428103E-02    0.2389205598E-02    0.3171569756E-02    0.2593748922E-03    0.4654984824E-03
    0.3000000000E+01    0.3151066548E-02    0.7039168013E-02    0.9367763520E-02    0.7642089437E-03    0.1383239575E-02
    0.5000000000E+01    0.5202594648E-02    0.1152475563E-01    0.1537591376E-01    0.1251234935E-02    0.2283823741E-02
    0.7000000000E+01    0.7216369234E-02    0.1585378456E-01    0.2120495009E-01    0.1721299368E-02    0.3167846115E-02
    0.9000000000E+01    0.9193683121E-02    0.2003358993E-01    0.2686323826E-01    0.2175196630E-02    0.4035873753E-02
    0.1100000000E+02    0.1113576886E-01    0.2407106230E-01    0.3235862410E-01    0.2613672939E-02    0.4888447282E-02
    0.1300000000E+02    0.1304380223E-01    0.2797268080E-01    0.3769847349E-01    0.3037429938E-02    0.5726082430E-02
    0.1500000000E+02    0.1491890548E-01    0.3174454340E-01    0.4288970869E-01    0.3447127975E-02    0.6549271448E-02
    0.1700000000E+02    0.1676215037E-01    0.3539239444E-01    0.4793884135E-01    0.3843389088E-02    0.7358484443E-02
    0.1900000000E+02    0.1857456100E-01    0.3892164988E-01    0.5285200268E-01    0.4226799742E-02    0.8154170615E-02
    0.2100000000E+02    0.2035711644E-01    0.4233742038E-01    0.5763497098E-01    0.4597913332E-02    0.8936759414E-02
    0.2300000000E+02    0.2211075317E-01    0.4564453246E-01    0.6229319676E-01    0.4957252474E-02    0.9706661622E-02
    0.2500000000E+02    0.2383636744E-01    0.4884754795E-01    0.6683182580E-01    0.5305311110E-02    0.1046427036E-01
    0.2700000000E+02    0.2553481738E-01    0.5195078177E-01    0.7125572027E-01    0.5642556446E-02    0.1120996205E-01
    0.2900000000E+02    0.2720692504E-01    0.5495831841E-01    0.7556947807E-01    0.5969430725E-02    0.1194409725E-01
    0.3100000000E+02    0.2885347826E-01    0.5787402705E-01    0.7977745069E-01    0.6286352873E-02    0.1266702157E-01
    0.3300000000E+02    0.3047523248E-01    0.6070157546E-01    0.8388375954E-01    0.6593720003E-02    0.1337906637E-01
    0.3500000000E+02    0.3207291237E-01    0.6344444294E-01    0.8789231109E-01    0.6891908818E-02    0.1408054952E-01
    0.3700000000E+02    0.3364721341E-01    0.6610593217E-01    0.9180681074E-01    0.7181276893E-02    0.1477177609E-01
    0.3900000000E+02    0.3519880336E-01    0.6868918025E-01    0.9563077570E-01    0.7462163873E-02    0.1545303899E-01
    0.4100000000E+02    0.3672832360E-01    0.7119716886E-01    0.9936754685E-01    0.7734892575E-02    0.1612461958E-01
    0.4300000000E+02    0.3823639052E-01    0.7363273376E-01    0.1030202997E+00    0.7999770012E-02    0.1678678822E-01
    0.4500000000E+02    0.3972359662E-01    0.7599857353E-01    0.1065920546E+00    0.8257088345E-02    0.1743980482E-01
    0.4700000000E+02    0.4119051178E-01    0.7829725770E-01    0.1100856862E+00    0.8507125762E-02    0.1808391937E-01
    0.4900000000E+02    0.4263768426E-01    0.8053123436E-01    0.1135039320E+00    0.8750147302E-02    0.1871937235E-01
    0.1000000000E+02    0.1016905473E-01    0.2206970352E-01    0.2963082280E-01    0.2396317546E-02    0.4464059482E-02
    0.3000000000E+02    0.2803334800E-01    0.5642741743E-01    0.7768642473E-01    0.6129110501E-02    0.1230693974E-01
    0.5000000000E+02    0.4335403267E-01    0.8162469093E-01    0.1151856053E+00    0.8869106536E-02    0.1903392344E-01
    0.7000000000E+02    0.5676293337E-01    0.1006096220E+00    0.1454344078E+00    0.1093549056E-01    0.2492216113E-01
    0.9000000000E+02    0.6869152337E-01    0.1152080642E+00    0.1704727994E+00    0.1252593776E-01    0.3016092590E-01
    0.1100000000E+03    0.7944505647E-01    0.1266088078E+00    0.1916302430E+00    0.1376916172E-01    0.3488412691E-01
    0.1300000000E+03    0.8924597916E-01    0.1356173843E+00    0.2098118074E+00    0.1475239456E-01    0.3918935013E-01
    0.1500000000E+03    0.9826052606E-01    0.1427977526E+00    0.2256560203E+00    0.1553672419E-01    0.4314952369E-01
    0.1700000000E+03    0.1066156465E+00    0.1485556539E+00    0.2396269538E+00    0.1616611565E-01    0.4682034232E-01
    0.1900000000E+03    0.1144101350E+00    0.1531898210E+00    0.2520704782E+00    0.1667295270E-01    0.5024514982E-01
    0.2100000000E+03    0.1217221616E+00    0.1569246061E+00    0.2632499870E+00    0.1708156829E-01    0.5345824203E-01
    0.2300000000E+03    0.1286144930E+00    0.1599314251E+00    0.2733698491E+00    0.1741056489E-01    0.5648715736E-01
    0.2500000000E+03    0.1351381939E+00    0.1623432380E+00    0.2825912506E+00    0.1767438120E-01    0.5935430045E-01
    0.2700000000E+03    0.1413353021E+00    0.1642645577E+00    0.2910431686E+00    0.1788437515E-01    0.6207811564E-01
    0.2900000000E+03    0.1472407958E+00    0.1657785137E+00    0.2988301399E+00    0.1804958823E-01    0.6467394997E-01
    0.3100000000E+03    0.1528840630E+00    0.1669519299E+00    0.3060378711E+00    0.1817729502E-01    0.6715469796E-01
    0.3300000000E+03    0.1582900155E+00    0.1678390359E+00    0.3127373606E+00    0.1827340481E-01    0.6953129012E-01
    0.3500000000E+03    0.1634799432E+00    0.1684842196E+00    0.3189879748E+00    0.1834275959E-01    0.7181306798E-01
    0.3700000000E+03    0.1684721783E+00    0.1689240966E+00    0.3248397779E+00    0.1838935805E-01    0.7400807530E-01
    0.3900000000E+03    0.1732826164E+00    0.1691890852E+00    0.3303353179E+00    0.1841652614E-01    0.7612328674E-01
    0.4100000000E+03    0.1779251295E+00    0.1693046183E+00    0.3355110129E+00    0.1842704838E-01    0.7816478916E-01
    0.4300000000E+03    0.1824118969E+00    0.1692920863E+00    0.3403982388E+00    0.1842326990E-01    0.8013792669E-01
    0.4500000000E+03    0.1867536722E+00    0.1691695769E+00    0.3450241910E+00    0.1840717667E-01    0.8204741780E-01
    0.4700000000E+03    0.1909599998E+00    0.1689524605E+00    0.3494125730E+00    0.1838045895E-01    0.8389745058E-01
    0.4900000000E+03    0.1950393933E+00    0.1686538579E+00    0.3535841520E+00    0.1834456199E-01    0.8569176074E-01
    0.1000000000E+03    0.7419969995E-01    0.1212508550E+00    0.1814724005E+00    0.1318474872E-01    0.3258018443E-01
    0.3000000000E+03    0.1500935569E+00    0.1664041408E+00    0.3025016687E+00    0.1811773249E-01    0.6592798543E-01
    0.5000000000E+03    0.1970339051E+00    0.1684775786E+00    0.3555944402E+00    0.1832356617E-01    0.8656907962E-01
    0.7000000000E+03    0.2317588737E+00    0.1626955754E+00    0.3878859466E+00    0.1764562193E-01    0.1018476779E+00
    0.9000000000E+03    0.2592132751E+00    0.1553205515E+00    0.4105197182E+00    0.1677915706E-01    0.1139335741E+00
    0.1100000000E+04    0.2816488991E+00    0.1479989642E+00    0.4276886038E+00    0.1591220730E-01    0.1238149249E+00
    0.1300000000E+04    0.3003538849E+00    0.1412073401E+00    0.4413821855E+00    0.1510190104E-01    0.1320570733E+00
    0.1500000000E+04    0.3161683118E+00    0.1350558412E+00    0.4526886034E+00    0.1436323494E-01    0.1390287776E+00
    0.1700000000E+04    0.3296843873E+00    0.1295296776E+00    0.4622631888E+00    0.1369622090E-01    0.1449900415E+00
    0.1900000000E+04    0.3413401151E+00    0.1245729237E+00    0.4705291412E+00    0.1309555343E-01    0.1501332070E+00
    0.2100000000E+04    0.3514697257E+00    0.1201198991E+00    0.4777745952E+00    0.1255436230E-01    0.1546050769E+00
    0.2300000000E+04    0.3603338447E+00    0.1161070673E+00    0.4842040289E+00    0.1206571595E-01    0.1585201484E+00
    0.2500000000E+04    0.3681389840E+00    0.1124771923E+00    0.4899674741E+00    0.1162320255E-01    0.1619691645E+00
    0.2700000000E+04    0.3750508526E+00    0.1091803304E+00    0.4951780730E+00    0.1122111698E-01    0.1650249537E+00
    0.2900000000E+04    0.3812038116E+00    0.1061735514E+00    0.4999231276E+00    0.1085447862E-01    0.1677465785E+00
    0.3100000000E+04    0.3867077860E+00    0.1034202000E+00    0.5042713243E+00    0.1051897978E-01    0.1701823693E+00
    0.3300000000E+04    0.3916534266E+00    0.1008890462E+00    0.5082776144E+00    0.1021091011E-01    0.1723721896E+00
    0.3500000000E+04    0.3961160291E+00    0.9855347220E-01    0.5119866036E+00    0.9927077252E-02    0.1743491568E+00
    0.3700000000E+04    0.4001585491E+00    0.9639074685E-01    0.5154349632E+00    0.9664732607E-02    0.1761409656E+00
    0.3900000000E+04    0.4038339480E+00    0.9438140328E-01    0.5186531821E+00    0.9421505365E-02    0.1777709186E+00
    0.4100000000E+04    0.4071870342E+00    0.9250871377E-01    0.5216668645E+00    0.9195345466E-02    0.1792587346E+00
    0.4300000000E+04    0.4102559229E+00    0.9075825149E-01    0.5244977059E+00    0.8984475044E-02    0.1806211897E+00
    0.4500000000E+04    0.4130731995E+00    0.8911752640E-01    0.5271642386E+00    0.8787347430E-02    0.1818726290E+00
    0.4700000000E+04    0.4156668552E+00    0.8757568337E-01    0.5296824096E+00    0.8602612677E-02    0.1830253770E+00
    0.4900000000E+04    0.4180610437E+00    0.8612325175E-01    0.5320660327E+00    0.8429088619E-02    0.1840900705E+00
    0.1000000000E+04    0.2709638173E+00    0.1516098547E+00    0.4196330668E+00    0.1634064341E-01    0.1191082937E+00
    0.3000000000E+04    0.3840308555E+00    0.1047672664E+00    0.5021431223E+00    0.1068308172E-01    0.1689975356E+00
    0.5000000000E+04    0.4191899903E+00    0.8542793230E-01    0.5332112119E+00    0.8346200990E-02    0.1845923270E+00
    0.7000000000E+04    0.4351426464E+00    0.7466266738E-01    0.5513001268E+00    0.7081660521E-02    0.1917090521E+00
    0.9000000000E+04    0.4439839251E+00    0.6754509560E-01    0.5636279028E+00    0.6270277961E-02    0.1956778037E+00
    0.1100000000E+05    0.4495206049E+00    0.6235710774E-01    0.5727702147E+00    0.5694210896E-02    0.1981793770E+00
    0.1300000000E+05    0.4532822661E+00    0.5833755177E-01    0.5799213737E+00    0.5257687070E-02    0.1998904386E+00
    0.1500000000E+05    0.4559903851E+00    0.5509178068E-01    0.5857251074E+00    0.4911727899E-02    0.2011307999E+00
    0.1700000000E+05    0.4580259893E+00    0.5239172217E-01    0.5905646186E+00    0.4628468615E-02    0.2020697078E+00
    0.1900000000E+05    0.4596079052E+00    0.5009479752E-01    0.5946848070E+00    0.4390763198E-02    0.2028045675E+00
    0.2100000000E+05    0.4608701944E+00    0.4810643995E-01    0.5982507816E+00    0.4187410736E-02    0.2033951818E+00
    0.2300000000E+05    0.4618993102E+00    0.4636097202E-01    0.6013786109E+00    0.4010741960E-02    0.2038802011E+00
    0.2500000000E+05    0.4627533773E+00    0.4481107190E-01    0.6041526816E+00    0.3855303348E-02    0.2042856690E+00
    0.2700000000E+05    0.4634728472E+00    0.4342160474E-01    0.6066360688E+00    0.3717094712E-02    0.2046297514E+00
    0.2900000000E+05    0.4640867016E+00    0.4216582533E-01    0.6088770244E+00    0.3593104885E-02    0.2049254935E+00
    0.3100000000E+05    0.4646162265E+00    0.4102294180E-01    0.6109131968E+00    0.3481016915E-02    0.2051824983E+00
    0.3300000000E+05    0.4650773931E+00    0.3997649687E-01    0.6127744636E+00    0.3379014181E-02    0.2054079884E+00
    0.3500000000E+05    0.4654824106E+00    0.3901325988E-01    0.6144848896E+00    0.3285648956E-02    0.2056074978E+00
    0.3700000000E+05    0.4658407665E+00    0.3812244854E-01    0.6160641103E+00    0.3199750945E-02    0.2057853372E+00
    0.3900000000E+05    0.4661599412E+00    0.3729517002E-01    0.6175283334E+00    0.3120362159E-02    0.2059449136E+00
    0.4100000000E+05    0.4664459095E+00    0.3652401139E-01    0.6188910744E+00    0.3046689607E-02    0.2060889546E+00
    0.4300000000E+05    0.4667034993E+00    0.3580273437E-01    0.6201637089E+00    0.2978070295E-02    0.2062196697E+00
    0.4500000000E+05    0.4669366530E+00    0.3512604413E-01    0.6213558906E+00    0.2913944923E-02    0.2063388676E+00
    0.4700000000E+05    0.4671486207E+00    0.3448941172E-01    0.6224758745E+00    0.2853837823E-02    0.2064480427E+00
    0.4900000000E+05    0.4673421048E+00    0.3388893602E-01    0.6235307681E+00    0.2797341461E-02    0.2065484409E+00
    0.1000000000E+05    0.4470416576E+00    0.6476988003E-01    0.5685042445E+00    0.5960402125E-02    0.1970573007E+00
    0.3000000000E+05    0.4643609038E+00    0.4158138681E-01    0.6099186854E+00    0.3535696655E-02    0.2050583403E+00
    0.5000000000E+05    0.4674326381E+00    0.3360118229E-01    0.6240357630E+00    0.2770335549E-02    0.2065956826E+00
    0.7000000000E+05    0.4686690659E+00    0.2911816173E-01    0.6318570009E+00    0.2355247103E-02    0.2072636219E+00
    0.9000000000E+05    0.4693245867E+00    0.2612815712E-01    0.6370216393E+00    0.2084308216E-02    0.2076451631E+00
    0.1100000000E+06    0.4697252550E+00    0.2394360990E-01    0.6407670098E+00    0.1889386571E-02    0.2078960756E+00
    0.1300000000E+06    0.4699924896E+00    0.2225374327E-01    0.6436474862E+00    0.1740397470E-02    0.2080759285E+00
    0.1500000000E+06    0.4701815637E+00    0.2089415258E-01    0.6459541524E+00    0.1621691168E-02    0.2082125560E+00
    0.1700000000E+06    0.4703211436E+00    0.1976838430E-01    0.6478567089E+00    0.1524205203E-02    0.2083207703E+00
    0.1900000000E+06    0.4704275310E+00    0.1881551859E-01    0.6494617650E+00    0.1442276140E-02    0.2084092123E+00
    0.2100000000E+06    0.4705106563E+00    0.1799488461E-01    0.6508401663E+00    0.1372156559E-02    0.2084832802E+00
    0.2300000000E+06    0.4705768998E+00    0.1727812849E-01    0.6520411045E+00    0.1311253903E-02    0.2085465309E+00
    0.2500000000E+06    0.4706305402E+00    0.1664478339E-01    0.6530999623E+00    0.1257709316E-02    0.2086014093E+00
    0.2700000000E+06    0.4706745485E+00    0.1607964703E-01    0.6540429379E+00    0.1210150330E-02    0.2086496559E+00
    0.2900000000E+06    0.4707110489E+00    0.1557115409E-01    0.6548899056E+00    0.1167538430E-02    0.2086925460E+00
    0.3100000000E+06    0.4707415980E+00    0.1511032541E-01    0.6556562560E+00    0.1129071263E-02    0.2087310371E+00
    0.3300000000E+06    0.4707673606E+00    0.1469006666E-01    0.6563541208E+00    0.1094117739E-02    0.2087658636E+00
    0.3500000000E+06    0.4707892250E+00    0.1430468679E-01    0.6569932113E+00    0.1062173686E-02    0.2087975990E+00
    0.3700000000E+06    0.4708078790E+00    0.1394955911E-01    0.6575814069E+00    0.1032830794E-02    0.2088266982E+00
    0.3900000000E+06    0.4708238632E+00    0.1362087747E-01    0.6581251780E+00    0.1005754368E-02    0.2088535276E+00
    0.4100000000E+06    0.4708376078E+00    0.1331547763E-01    0.6586298946E+00    0.9806670872E-03    0.2088783855E+00
    0.4300000000E+06    0.4708494588E+00    0.1303070400E-01    0.6591000566E+00    0.9573369440E-03    0.2089015179E+00
    0.4500000000E+06    0.4708596976E+00    0.1276430880E-01    0.6595394672E+00    0.9355681427E-03    0.2089231294E+00
    0.4700000000E+06    0.4708685551E+00    0.1251437469E-01    0.6599513661E+00    0.9151941387E-03    0.2089433920E+00
    0.4900000000E+06    0.4708762221E+00    0.1227925462E-01    0.6603385327E+00    0.8960722477E-03    0.2089624512E+00
    0.1000000000E+06    0.4695468432E+00    0.2495954154E-01    0.6390282175E+00    0.1979713752E-02    0.2077821071E+00
    0.3000000000E+06    0.4707269870E+00    0.1533526280E-01    0.6552823346E+00    0.1147829614E-02    0.2087122912E+00
    0.5000000000E+06    0.4708796600E+00    0.1216679721E-01    0.6605236043E+00    0.8869417212E-03    0.2089715692E+00
    0.7000000000E+06    0.4709134603E+00    0.1043302774E-01    0.6633678844E+00    0.7474949066E-03    0.2091131809E+00
    0.9000000000E+06    0.4709151339E+00    0.9296040447E-02    0.6652238872E+00    0.6574881074E-03    0.2092086614E+00
    0.1100000000E+07    0.4709054295E+00    0.8475228964E-02    0.6665591586E+00    0.5932901799E-03    0.2092800849E+00
    0.1300000000E+07    0.4708912944E+00    0.7846008360E-02    0.6675801074E+00    0.5445547122E-03    0.2093369035E+00
    0.1500000000E+07    0.4708755062E+00    0.7343372675E-02    0.6683939950E+00    0.5059411725E-03    0.2093839722E+00
    0.1700000000E+07    0.4708592939E+00    0.6929600610E-02    0.6690628667E+00    0.4743779077E-03    0.2094240950E+00
    0.1900000000E+07    0.4708432312E+00    0.6581081461E-02    0.6696254601E+00    0.4479566947E-03    0.2094590298E+00
    0.2100000000E+07    0.4708275884E+00    0.6282171484E-02    0.6701073875E+00    0.4254214440E-03    0.2094899482E+00
    0.2300000000E+07    0.4708124868E+00    0.6022035082E-02    0.6705263574E+00    0.4059071530E-03    0.2095176683E+00
    0.2500000000E+07    0.4707979717E+00    0.5792894639E-02    0.6708950611E+00    0.3887961565E-03    0.2095427834E+00
    0.2700000000E+07    0.4707840487E+00    0.5589001656E-02    0.6712228659E+00    0.3736340818E-03    0.2095657367E+00
    0.2900000000E+07    0.4707707033E+00    0.5406002060E-02    0.6715168584E+00    0.3600782578E-03    0.2095868680E+00
    0.3100000000E+07    0.4707579105E+00    0.5240528682E-02    0.6717825130E+00    0.3478647371E-03    0.2096064432E+00
    0.3300000000E+07    0.4707456408E+00    0.5089930597E-02    0.6720241355E+00    0.3367864846E-03    0.2096246743E+00
    0.3500000000E+07    0.4707338635E+00    0.4952088089E-02    0.6722451655E+00    0.3266785218E-03    0.2096417331E+00
    0.3700000000E+07    0.4707225478E+00    0.4825282946E-02    0.6724483891E+00    0.3174075508E-03    0.2096577603E+00
    0.3900000000E+07    0.4707116646E+00    0.4708105509E-02    0.6726360903E+00    0.3088645430E-03    0.2096728730E+00
    0.4100000000E+07    0.4707011859E+00    0.4599386776E-02    0.6728101617E+00    0.3009593425E-03    0.2096871695E+00
    0.4300000000E+07    0.4706910861E+00    0.4498147930E-02    0.6729721872E+00    0.2936166656E-03    0.2097007330E+00
    0.4500000000E+07    0.4706813411E+00    0.4403562254E-02    0.6731235036E+00    0.2867730911E-03    0.2097136349E+00
    0.4700000000E+07    0.4706719287E+00    0.4314925968E-02    0.6732652482E+00    0.2803747617E-03    0.2097259364E+00
    0.4900000000E+07    0.4706628285E+00    0.4231635647E-02    0.6733983959E+00    0.2743756075E-03    0.2097376907E+00
    0.1000000000E+07    0.4709111182E+00    0.8855911245E-02    0.6659403600E+00    0.6229794137E-03    0.2092466324E+00
    0.3000000000E+07    0.4707642396E+00    0.5321254568E-02    0.6716529355E+00    0.3538177824E-03    0.2095968358E+00
    0.5000000000E+07    0.4706583895E+00    0.4191829651E-02    0.6734620132E+00    0.2715131056E-03    0.2097433775E+00
    0.7000000000E+07    0.4705821609E+00    0.3580702472E-02    0.6744373447E+00    0.2279601490E-03    0.2098371045E+00
    0.9000000000E+07    0.4705229047E+00    0.3182519867E-02    0.6750714077E+00    0.2000145393E-03    0.2099061212E+00
    0.1100000000E+08    0.4704744960E+00    0.2896320499E-02    0.6755264265E+00    0.1801626119E-03    0.2099607679E+00
    0.1300000000E+08    0.4704335944E+00    0.2677630212E-02    0.6758736915E+00    0.1651372412E-03    0.2100060079E+00
    0.1500000000E+08    0.4703981900E+00    0.2503371707E-02    0.6761501305E+00    0.1532603214E-03    0.2100446085E+00
    0.1700000000E+08    0.4703669828E+00    0.2360210114E-02    0.6763770526E+00    0.1435703170E-03    0.2100782717E+00
    0.1900000000E+08    0.4703390844E+00    0.2239826716E-02    0.6765677362E+00    0.1354716917E-03    0.2101081185E+00
    0.2100000000E+08    0.4703138610E+00    0.2136724919E-02    0.6767309472E+00    0.1285734126E-03    0.2101349271E+00
    0.2300000000E+08    0.4702908449E+00    0.2047106325E-02    0.6768727379E+00    0.1226067637E-03    0.2101592594E+00
    0.2500000000E+08    0.4702696809E+00    0.1968249906E-02    0.6769974414E+00    0.1173802139E-03    0.2101815346E+00
    0.2700000000E+08    0.4702500932E+00    0.1898147995E-02    0.6771082526E+00    0.1127530906E-03    0.2102020737E+00
