  Pressure (Pa) 22mC5-400 (mol/kg) 2mC6-400 (mol/kg) 3mC6-400 (mol/kg) 33mC5-400 (mol/kg) 23mC5-400 (mol/kg)
    0.1000000000E+01    0.1059104530E-02    0.3977916149E-02    0.2112952701E-02    0.5182106713E-03    0.9298352606E-04
    0.3000000000E+01    0.3139501492E-02    0.1169659477E-01    0.6232843975E-02    0.1523760398E-02    0.2756328373E-03
    0.5000000000E+01    0.5171392200E-02    0.1911363604E-01    0.1021770010E-01    0.2490044047E-02    0.4540260516E-03
    0.7000000000E+01    0.7156944305E-02    0.2624542687E-01    0.1407462698E-01    0.3419194488E-02    0.6283533428E-03
    0.9000000000E+01    0.9098193373E-02    0.3310720218E-01    0.1781023140E-01    0.4313194633E-02    0.7987932970E-03
    0.1100000000E+02    0.1099705291E-01    0.3971314393E-01    0.2143066435E-01    0.5173890335E-02    0.9655137931E-03
    0.1300000000E+02    0.1285532349E-01    0.4607647020E-01    0.2494165991E-01    0.6003001976E-02    0.1128672802E-02
    0.1500000000E+02    0.1467470106E-01    0.5220951528E-01    0.2834857029E-01    0.6802134903E-02    0.1288419118E-02
    0.1700000000E+02    0.1645678455E-01    0.5812380202E-01    0.3165639725E-01    0.7572788841E-02    0.1444893022E-02
    0.1900000000E+02    0.1820308276E-01    0.6383010712E-01    0.3486982057E-01    0.8316366398E-02    0.1598226889E-02
    0.2100000000E+02    0.1991502076E-01    0.6933852031E-01    0.3799322373E-01    0.9034180761E-02    0.1748545748E-02
    0.2300000000E+02    0.2159394565E-01    0.7465849792E-01    0.4103071714E-01    0.9727462677E-02    0.1895967789E-02
    0.2500000000E+02    0.2324113192E-01    0.7979891159E-01    0.4398615931E-01    0.1039736679E-01    0.2040604832E-02
    0.2700000000E+02    0.2485778634E-01    0.8476809249E-01    0.4686317593E-01    0.1104497739E-01    0.2182562754E-02
    0.2900000000E+02    0.2644505246E-01    0.8957387168E-01    0.4966517734E-01    0.1167131369E-01    0.2321941888E-02
    0.3100000000E+02    0.2800401475E-01    0.9422361685E-01    0.5239537444E-01    0.1227733458E-01    0.2458837383E-02
    0.3300000000E+02    0.2953570245E-01    0.9872426588E-01    0.5505679314E-01    0.1286394302E-01    0.2593339542E-02
    0.3500000000E+02    0.3104109307E-01    0.1030823576E+00    0.5765228763E-01    0.1343199003E-01    0.2725534130E-02
    0.3700000000E+02    0.3252111565E-01    0.1073040599E+00    0.6018455248E-01    0.1398227833E-01    0.2855502662E-02
    0.3900000000E+02    0.3397665379E-01    0.1113951954E+00    0.6265613376E-01    0.1451556574E-01    0.2983322662E-02
    0.4100000000E+02    0.3540854842E-01    0.1153612654E+00    0.6506943922E-01    0.1503256822E-01    0.3109067915E-02
    0.4300000000E+02    0.3681760041E-01    0.1192074711E+00    0.6742674763E-01    0.1553396273E-01    0.3232808689E-02
    0.4500000000E+02    0.3820457294E-01    0.1229387343E+00    0.6973021738E-01    0.1602038979E-01    0.3354611945E-02
    0.4700000000E+02    0.3957019376E-01    0.1265597153E+00    0.7198189442E-01    0.1649245596E-01    0.3474541536E-02
    0.4900000000E+02    0.4091515721E-01    0.1300748302E+00    0.7418371956E-01    0.1695073596E-01    0.3592658385E-02
    0.1000000000E+02    0.1005280675E-01    0.3644130451E-01    0.1963447659E-01    0.4747595203E-02    0.8826083808E-03
    0.3000000000E+02    0.2722800600E-01    0.9191780520E-01    0.5103905814E-01    0.1197680586E-01    0.2390694336E-02
    0.5000000000E+02    0.4158010077E-01    0.1317940049E+00    0.7526651708E-01    0.1717487756E-01    0.3651055312E-02
    0.7000000000E+02    0.5394068841E-01    0.1615298046E+00    0.9470680851E-01    0.2105240701E-01    0.4736655317E-02
    0.9000000000E+02    0.6483273986E-01    0.1843285263E+00    0.1107779601E+00    0.2402630468E-01    0.5693381506E-02
    0.1100000000E+03    0.7460313301E-01    0.2021890884E+00    0.1243773545E+00    0.2635673914E-01    0.6551671200E-02
    0.1300000000E+03    0.8349196263E-01    0.2164207855E+00    0.1361022731E+00    0.2821413303E-01    0.7332592578E-02
    0.1500000000E+03    0.9167131077E-01    0.2279154435E+00    0.1463667242E+00    0.2971458089E-01    0.8051246206E-02
    0.1700000000E+03    0.9926815185E-01    0.2373004723E+00    0.1554674229E+00    0.3093976663E-01    0.8718774669E-02
    0.1900000000E+03    0.1063785112E+00    0.2450293970E+00    0.1636230502E+00    0.3194874445E-01    0.9343604844E-02
    0.2100000000E+03    0.1130765575E+00    0.2514377100E+00    0.1709986503E+00    0.3278520705E-01    0.9932245683E-02
    0.2300000000E+03    0.1194206351E+00    0.2567785816E+00    0.1777213576E+00    0.3348213253E-01    0.1048981752E-01
    0.2500000000E+03    0.1254573806E+00    0.2612464013E+00    0.1838908603E+00    0.3406484806E-01    0.1102041332E-01
    0.2700000000E+03    0.1312246029E+00    0.2649927181E+00    0.1895865536E+00    0.3455310414E-01    0.1152735131E-01
    0.2900000000E+03    0.1367533407E+00    0.2681372864E+00    0.1948725487E+00    0.3496251215E-01    0.1201335563E-01
    0.3100000000E+03    0.1420693632E+00    0.2707758824E+00    0.1998012547E+00    0.3530556155E-01    0.1248068796E-01
    0.3300000000E+03    0.1471942816E+00    0.2729859357E+00    0.2044159888E+00    0.3559235294E-01    0.1293124506E-01
    0.3500000000E+03    0.1521463868E+00    0.2748306564E+00    0.2087529101E+00    0.3583113504E-01    0.1336663229E-01
    0.3700000000E+03    0.1569412884E+00    0.2763621032E+00    0.2128424757E+00    0.3602870419E-01    0.1378821971E-01
    0.3900000000E+03    0.1615924096E+00    0.2776234963E+00    0.2167105495E+00    0.3619070535E-01    0.1419718548E-01
    0.4100000000E+03    0.1661113738E+00    0.2786509820E+00    0.2203792605E+00    0.3632186183E-01    0.1459454980E-01
    0.4300000000E+03    0.1705083106E+00    0.2794749944E+00    0.2238676715E+00    0.3642615254E-01    0.1498120177E-01
    0.4500000000E+03    0.1747921003E+00    0.2801213170E+00    0.2271923083E+00    0.3650695030E-01    0.1535792083E-01
    0.4700000000E+03    0.1789705709E+00    0.2806119186E+00    0.2303675810E+00    0.3656713053E-01    0.1572539404E-01
    0.4900000000E+03    0.1830506574E+00    0.2809656163E+00    0.2334061224E+00    0.3660915774E-01    0.1608423015E-01
    0.1000000000E+03    0.6984119134E-01    0.1937820530E+00    0.1178439655E+00    0.2525971658E-01    0.6133343368E-02
    0.3000000000E+03    0.1394365041E+00    0.2695146160E+00    0.1973786679E+00    0.3514165148E-01    0.1224922966E-01
    0.5000000000E+03    0.1850557626E+00    0.2810962777E+00    0.2348776493E+00    0.3662403907E-01    0.1626058096E-01
    0.7000000000E+03    0.2211895761E+00    0.2794649462E+00    0.2592458834E+00    0.3635488098E-01    0.1943920203E-01
    0.9000000000E+03    0.2517449533E+00    0.2738489001E+00    0.2773028115E+00    0.3554675324E-01    0.2212802177E-01
    0.1100000000E+04    0.2783795488E+00    0.2669668641E+00    0.2916603870E+00    0.3456104798E-01    0.2447253256E-01
    0.1300000000E+04    0.3019848953E+00    0.2598174145E+00    0.3035856734E+00    0.3353290475E-01    0.2655097982E-01
    0.1500000000E+04    0.3231190525E+00    0.2528085347E+00    0.3137876808E+00    0.3251906085E-01    0.2841233970E-01
    0.1700000000E+04    0.3421698433E+00    0.2461110250E+00    0.3227031418E+00    0.3154433345E-01    0.3009064807E-01
    0.1900000000E+04    0.3594273360E+00    0.2397905226E+00    0.3306202983E+00    0.3061910741E-01    0.3161136281E-01
    0.2100000000E+04    0.3751199676E+00    0.2338631960E+00    0.3377395375E+00    0.2974678830E-01    0.3299453441E-01
    0.2300000000E+04    0.3894342350E+00    0.2283213735E+00    0.3442059274E+00    0.2892728086E-01    0.3425653399E-01
    0.2500000000E+04    0.4025262638E+00    0.2231460929E+00    0.3501279495E+00    0.2815872553E-01    0.3541106837E-01
    0.2700000000E+04    0.4145290691E+00    0.2183135139E+00    0.3555889069E+00    0.2743840884E-01    0.3646981707E-01
    0.2900000000E+04    0.4255573919E+00    0.2137982737E+00    0.3606541969E+00    0.2676325671E-01    0.3744285652E-01
    0.3100000000E+04    0.4357110985E+00    0.2095752488E+00    0.3653761276E+00    0.2613010639E-01    0.3833895814E-01
    0.3300000000E+04    0.4450776821E+00    0.2056204591E+00    0.3697972118E+00    0.2553585618E-01    0.3916580773E-01
    0.3500000000E+04    0.4537341804E+00    0.2019114970E+00    0.3739524829E+00    0.2497754571E-01    0.3993017357E-01
    0.3700000000E+04    0.4617486909E+00    0.1984276928E+00    0.3778711620E+00    0.2445239585E-01    0.4063803935E-01
    0.3900000000E+04    0.4691816012E+00    0.1951501323E+00    0.3815778830E+00    0.2395782498E-01    0.4129471202E-01
    0.4100000000E+04    0.4760866066E+00    0.1920615952E+00    0.3850936107E+00    0.2349145143E-01    0.4190491100E-01
    0.4300000000E+04    0.4825115646E+00    0.1891464517E+00    0.3884363381E+00    0.2305108795E-01    0.4247284319E-01
    0.4500000000E+04    0.4884992202E+00    0.1863905409E+00    0.3916216261E+00    0.2263473172E-01    0.4300226651E-01
    0.4700000000E+04    0.4940878274E+00    0.1837810439E+00    0.3946630243E+00    0.2224055223E-01    0.4349654451E-01
    0.4900000000E+04    0.4993116842E+00    0.1813063598E+00    0.3975724056E+00    0.2186687818E-01    0.4395869323E-01
    0.1000000000E+04    0.2654858231E+00    0.2704829226E+00    0.2848464480E+00    0.3506490132E-01    0.2333747706E-01
    0.3000000000E+04    0.4307378387E+00    0.2116517666E+00    0.3630552265E+00    0.2644162780E-01    0.3790002093E-01
    0.5000000000E+04    0.5017965830E+00    0.1801162510E+00    0.3989809083E+00    0.2168724875E-01    0.4417857674E-01
    0.7000000000E+04    0.5383511921E+00    0.1613205401E+00    0.4222140720E+00    0.1886627895E-01    0.4741779443E-01
    0.9000000000E+04    0.5596329039E+00    0.1486126825E+00    0.4392150446E+00    0.1699330387E-01    0.4930966538E-01
    0.1100000000E+05    0.5732005782E+00    0.1392458645E+00    0.4525124293E+00    0.1564288880E-01    0.5051996942E-01
    0.1300000000E+05    0.5824544049E+00    0.1319239120E+00    0.4633616742E+00    0.1461024994E-01    0.5134851185E-01
    0.1500000000E+05    0.5890986390E+00    0.1259596628E+00    0.4724772555E+00    0.1378611501E-01    0.5194572258E-01
    0.1700000000E+05    0.5940641290E+00    0.1209536910E+00    0.4803040751E+00    0.1310705389E-01    0.5239385473E-01
    0.1900000000E+05    0.5978954433E+00    0.1166564257E+00    0.4871375665E+00    0.1253367368E-01    0.5274108240E-01
    0.2100000000E+05    0.6009294024E+00    0.1129027404E+00    0.4931836411E+00    0.1204013989E-01    0.5301723621E-01
    0.2300000000E+05    0.6033840939E+00    0.1095782381E+00    0.4985913534E+00    0.1160873996E-01    0.5324165421E-01
    0.2500000000E+05    0.6054062270E+00    0.1066006403E+00    0.5034719391E+00    0.1122687594E-01    0.5342736119E-01
    0.2700000000E+05    0.6070977338E+00    0.1039089091E+00    0.5079105193E+00    0.1088530845E-01    0.5358341809E-01
    0.2900000000E+05    0.6085314199E+00    0.1014565768E+00    0.5119736159E+00    0.1057708327E-01    0.5371630502E-01
    0.3100000000E+05    0.6097605428E+00    0.9920748402E-01    0.5157141536E+00    0.1029684888E-01    0.5383076848E-01
    0.3300000000E+05    0.6108248800E+00    0.9713296154E-01    0.5191748937E+00    0.1004040774E-01    0.5393035836E-01
    0.3500000000E+05    0.6117546899E+00    0.9520990782E-01    0.5223908528E+00    0.9804412245E-02    0.5401777869E-01
    0.3700000000E+05    0.6125733652E+00    0.9341944386E-01    0.5253910458E+00    0.9586153544E-02    0.5409512292E-01
    0.3900000000E+05    0.6132992545E+00    0.9174594937E-01    0.5281997678E+00    0.9383411288E-02    0.5416403537E-01
    0.4100000000E+05    0.6139469371E+00    0.9017635818E-01    0.5308375522E+00    0.9194344669E-02    0.5422582447E-01
    0.4300000000E+05    0.6145281336E+00    0.8869963373E-01    0.5333218994E+00    0.9017411896E-02    0.5428154362E-01
    0.4500000000E+05    0.6150523665E+00    0.8730637213E-01    0.5356678386E+00    0.8851309748E-02    0.5433204992E-01
    0.4700000000E+05    0.6155274472E+00    0.8598849753E-01    0.5378883654E+00    0.8694927512E-02    0.5437804752E-01
    0.4900000000E+05    0.6159598402E+00    0.8473902507E-01    0.5399947879E+00    0.8547311419E-02    0.5442012002E-01
    0.1000000000E+05    0.5671115559E+00    0.1436128627E+00    0.4462305545E+00    0.1626872020E-01    0.4997626280E-01
    0.3000000000E+05    0.6091688040E+00    0.1003085669E+00    0.5138813261E+00    0.1043375250E-01    0.5377559458E-01
    0.5000000000E+05    0.6161617498E+00    0.8413800849E-01    0.5410083513E+00    0.8476528573E-02    0.5443983993E-01
    0.7000000000E+05    0.6188947071E+00    0.7457399533E-01    0.5571506112E+00    0.7368971149E-02    0.5471302260E-01
    0.9000000000E+05    0.6203303233E+00    0.6796824644E-01    0.5682924151E+00    0.6623704838E-02    0.5486394582E-01
    0.1100000000E+06    0.6212090748E+00    0.6301638878E-01    0.5766288098E+00    0.6075069935E-02    0.5496099604E-01
    0.1300000000E+06    0.6217998711E+00    0.5910873266E-01    0.5831938701E+00    0.5648042845E-02    0.5502945152E-01
    0.1500000000E+06    0.6222231020E+00    0.5591386524E-01    0.5885510560E+00    0.5302741341E-02    0.5508083094E-01
    0.1700000000E+06    0.6225405062E+00    0.5323294092E-01    0.5930385548E+00    0.5015637751E-02    0.5512114638E-01
    0.1900000000E+06    0.6227869294E+00    0.5093797213E-01    0.5968739221E+00    0.4771791357E-02    0.5515385106E-01
    0.2100000000E+06    0.6229834951E+00    0.4894211632E-01    0.6002046348E+00    0.4561176897E-02    0.5518107514E-01
    0.2300000000E+06    0.6231437381E+00    0.4718397090E-01    0.6031348518E+00    0.4376772635E-02    0.5520420731E-01
    0.2500000000E+06    0.6232767233E+00    0.4561865933E-01    0.6057406097E+00    0.4213488495E-02    0.5522419369E-01
    0.2700000000E+06    0.6233887455E+00    0.4421247809E-01    0.6080789474E+00    0.4067529099E-02    0.5524170254E-01
    0.2900000000E+06    0.6234843097E+00    0.4293953124E-01    0.6101936409E+00    0.3935996928E-02    0.5525722025E-01
    0.3100000000E+06    0.6235667234E+00    0.4177953236E-01    0.6121189460E+00    0.3816635190E-02    0.5527110990E-01
    0.3300000000E+06    0.6236384686E+00    0.4071632205E-01    0.6138821211E+00    0.3707655620E-02    0.5528364846E-01
    0.3500000000E+06    0.6237014437E+00    0.3973684000E-01    0.6155051750E+00    0.3607619843E-02    0.5529505126E-01
    0.3700000000E+06    0.6237571244E+00    0.3883039515E-01    0.6170061071E+00    0.3515355628E-02    0.5530548844E-01
    0.3900000000E+06    0.6238066755E+00    0.3798813644E-01    0.6183998053E+00    0.3429896470E-02    0.5531509641E-01
    0.4100000000E+06    0.6238510280E+00    0.3720266194E-01    0.6196987099E+00    0.3350437192E-02    0.5532398596E-01
    0.4300000000E+06    0.6238909349E+00    0.3646772530E-01    0.6209133101E+00    0.3276300755E-02    0.5533224810E-01
    0.4500000000E+06    0.6239270115E+00    0.3577801220E-01    0.6220525233E+00    0.3206913074E-02    0.5533995837E-01
    0.4700000000E+06    0.6239597656E+00    0.3512896758E-01    0.6231239874E+00    0.3141783647E-02    0.5534718006E-01
    0.4900000000E+06    0.6239896199E+00    0.3451666077E-01    0.6241342887E+00    0.3080490475E-02    0.5535396665E-01
    0.1000000000E+06    0.6208171969E+00    0.6533294107E-01    0.5727310471E+00    0.6330677292E-02    0.5491713598E-01
    0.3000000000E+06    0.6235269892E+00    0.4234650619E-01    0.6111781229E+00    0.3874915906E-02    0.5526434959E-01
    0.5000000000E+06    0.6240035727E+00    0.3422319973E-01    0.6246183190E+00    0.3051166366E-02    0.5535721128E-01
    0.7000000000E+06    0.6241924645E+00    0.2964938342E-01    0.6321471703E+00    0.2598615193E-02    0.5540745171E-01
    0.9000000000E+06    0.6242902181E+00    0.2659845477E-01    0.6371530509E+00    0.2301679622E-02    0.5544119506E-01
    0.1100000000E+07    0.6243481819E+00    0.2436997810E-01    0.6408010331E+00    0.2087476031E-02    0.5546638732E-01
    0.1300000000E+07    0.6243854871E+00    0.2264667904E-01    0.6436170348E+00    0.1923484020E-02    0.5548640611E-01
    0.1500000000E+07    0.6244108219E+00    0.2126060694E-01    0.6458787381E+00    0.1792686452E-02    0.5550297863E-01
    0.1700000000E+07    0.6244286721E+00    0.2011321708E-01    0.6477487427E+00    0.1685192008E-02    0.5551709949E-01
    0.1900000000E+07    0.6244415741E+00    0.1914227531E-01    0.6493295649E+00    0.1594803441E-02    0.5552939102E-01
    0.2100000000E+07    0.6244510619E+00    0.1830624138E-01    0.6506895370E+00    0.1517412570E-02    0.5554026734E-01
    0.2300000000E+07    0.6244581137E+00    0.1757616181E-01    0.6518762290E+00    0.1450173352E-02    0.5555001735E-01
    0.2500000000E+07    0.6244633797E+00    0.1693114170E-01    0.6529239347E+00    0.1391043023E-02    0.5555885032E-01
    0.2700000000E+07    0.6244673073E+00    0.1635566434E-01    0.6538580972E+00    0.1338512069E-02    0.5556692254E-01
    0.2900000000E+07    0.6244702130E+00    0.1583792770E-01    0.6546980523E+00    0.1291437507E-02    0.5557435371E-01
    0.3100000000E+07    0.6244723264E+00    0.1536877064E-01    0.6554587979E+00    0.1248935785E-02    0.5558123752E-01
    0.3300000000E+07    0.6244738175E+00    0.1494095644E-01    0.6561521731E+00    0.1210311625E-02    0.5558764860E-01
    0.3500000000E+07    0.6244748144E+00    0.1454868079E-01    0.6567876677E+00    0.1175009366E-02    0.5559364737E-01
    0.3700000000E+07    0.6244754149E+00    0.1418722566E-01    0.6573729909E+00    0.1142578847E-02    0.5559928342E-01
    0.3900000000E+07    0.6244756952E+00    0.1385271039E-01    0.6579144805E+00    0.1112650963E-02    0.5560459793E-01
    0.4100000000E+07    0.6244757149E+00    0.1354190917E-01    0.6584174018E+00    0.1084919809E-02    0.5560962547E-01
    0.4300000000E+07    0.6244755213E+00    0.1325211512E-01    0.6588861712E+00    0.1059129408E-02    0.5561439533E-01
    0.4500000000E+07    0.6244751525E+00    0.1298103731E-01    0.6593245249E+00    0.1035063694E-02    0.5561893257E-01
    0.4700000000E+07    0.6244746390E+00    0.1272672179E-01    0.6597356481E+00    0.1012538851E-02    0.5562325874E-01
    0.4900000000E+07    0.6244740058E+00    0.1248749025E-01    0.6601222755E+00    0.9913973735E-03    0.5562739256E-01
    0.1000000000E+07    0.6243226078E+00    0.2540625223E-01    0.6391055679E+00    0.2186791577E-02    0.5545459247E-01
    0.3000000000E+07    0.6244713569E+00    0.1559776749E-01    0.6550875232E+00    0.1269662252E-02    0.5557785899E-01
    0.5000000000E+07    0.6244736509E+00    0.1237306979E-01    0.6603071546E+00    0.9813022046E-03    0.5562939253E-01
    0.7000000000E+07    0.6244637000E+00    0.1060929792E-01    0.6631538005E+00    0.8271003344E-03    0.5566235866E-01
    0.9000000000E+07    0.6244521968E+00    0.9452870670E-02    0.6650167694E+00    0.7275502842E-03    0.5568663821E-01
    0.1100000000E+08    0.6244410983E+00    0.8618119544E-02    0.6663597156E+00    0.6565376282E-03    0.5570586574E-01
    0.1300000000E+08    0.6244308069E+00    0.7978257345E-02    0.6673880395E+00    0.6026247958E-03    0.5572178571E-01
    0.1500000000E+08    0.6244213507E+00    0.7467143929E-02    0.6682087425E+00    0.5599068745E-03    0.5573537097E-01
    0.1700000000E+08    0.6244126609E+00    0.7046405778E-02    0.6688838369E+00    0.5249871689E-03    0.5574721972E-01
    0.1900000000E+08    0.6244046496E+00    0.6692026614E-02    0.6694520981E+00    0.4957553353E-03    0.5575772619E-01
    0.2100000000E+08    0.6243972330E+00    0.6388095296E-02    0.6699391956E+00    0.4708221428E-03    0.5576716393E-01
    0.2300000000E+08    0.6243903371E+00    0.6123591716E-02    0.6703628959E+00    0.4492308494E-03    0.5577573054E-01
    0.2500000000E+08    0.6243838986E+00    0.5890606215E-02    0.6707359436E+00    0.4302982519E-03    0.5578357345E-01
    0.2700000000E+08    0.6243778636E+00    0.5683292936E-02    0.6710677527E+00    0.4135217479E-03    0.5579080553E-01
