  Pressure (Pa) 22mC5-400 (mol/kg) 2mC6-400 (mol/kg) 3mC6-400 (mol/kg) 33mC5-400 (mol/kg) 23mC5-400 (mol/kg)
    0.1000000000E+01    0.1061339116E-02    0.7994038771E-03    0.1592556606E-02    0.2603448058E-03    0.9317966953E-03
    0.3000000000E+01    0.3159057549E-02    0.2372694670E-02    0.4743371445E-02    0.7727066976E-03    0.2773494104E-02
    0.5000000000E+01    0.5224233446E-02    0.3912752530E-02    0.7849312921E-02    0.1274221832E-02    0.4586643452E-02
    0.7000000000E+01    0.7257723640E-02    0.5420495683E-02    0.1091138324E-01    0.1765188906E-02    0.6371996255E-02
    0.9000000000E+01    0.9260354452E-02    0.6896810066E-02    0.1393055464E-01    0.2245896134E-02    0.8130277272E-02
    0.1100000000E+02    0.1123292304E-01    0.8342550719E-02    0.1690777050E-01    0.2716621698E-02    0.9862185682E-02
    0.1300000000E+02    0.1317619866E-01    0.9758543094E-02    0.1984394639E-01    0.3177634169E-02    0.1156839620E-01
    0.1500000000E+02    0.1509092388E-01    0.1114558431E-01    0.2273997113E-01    0.3629192920E-02    0.1324956014E-01
    0.1700000000E+02    0.1697781572E-01    0.1250444432E-01    0.2559670771E-01    0.4071548505E-02    0.1490630640E-01
    0.1900000000E+02    0.1883756676E-01    0.1383586709E-01    0.2841499430E-01    0.4504943026E-02    0.1653924243E-01
    0.2100000000E+02    0.2067084612E-01    0.1514057160E-01    0.3119564505E-01    0.4929610484E-02    0.1814895514E-01
    0.2300000000E+02    0.2247830050E-01    0.1641925291E-01    0.3393945103E-01    0.5345777108E-02    0.1973601176E-01
    0.2500000000E+02    0.2426055507E-01    0.1767258314E-01    0.3664718098E-01    0.5753661669E-02    0.2130096064E-01
    0.2700000000E+02    0.2601821438E-01    0.1890121236E-01    0.3931958215E-01    0.6153475784E-02    0.2284433203E-01
    0.2900000000E+02    0.2775186318E-01    0.2010576950E-01    0.4195738101E-01    0.6545424197E-02    0.2436663884E-01
    0.3100000000E+02    0.2946206725E-01    0.2128686316E-01    0.4456128398E-01    0.6929705057E-02    0.2586837733E-01
    0.3300000000E+02    0.3114937415E-01    0.2244508244E-01    0.4713197814E-01    0.7306510170E-02    0.2735002777E-01
    0.3500000000E+02    0.3281431393E-01    0.2358099768E-01    0.4967013185E-01    0.7676025256E-02    0.2881205511E-01
    0.3700000000E+02    0.3445739985E-01    0.2469516122E-01    0.5217639543E-01    0.8038430175E-02    0.3025490953E-01
    0.3900000000E+02    0.3607912905E-01    0.2578810804E-01    0.5465140174E-01    0.8393899160E-02    0.3167902709E-01
    0.4100000000E+02    0.3767998311E-01    0.2686035649E-01    0.5709576677E-01    0.8742601031E-02    0.3308483023E-01
    0.4300000000E+02    0.3926042876E-01    0.2791240884E-01    0.5951009021E-01    0.9084699395E-02    0.3447272831E-01
    0.4500000000E+02    0.4082091835E-01    0.2894475199E-01    0.6189495597E-01    0.9420352849E-02    0.3584311812E-01
    0.4700000000E+02    0.4236189045E-01    0.2995785793E-01    0.6425093272E-01    0.9749715162E-02    0.3719638437E-01
    0.4900000000E+02    0.4388377037E-01    0.3095218439E-01    0.6657857437E-01    0.1007293546E-01    0.3853290010E-01
    0.1000000000E+02    0.1025034781E-01    0.7623449839E-02    0.1542434915E-01    0.2482489618E-02    0.8999485322E-02
    0.3000000000E+02    0.2860986116E-01    0.2069921200E-01    0.4326352609E-01    0.6738510938E-02    0.2512004874E-01
    0.5000000000E+02    0.4463768017E-01    0.3144244458E-01    0.6773193871E-01    0.1023228773E-01    0.3919499004E-01
    0.7000000000E+02    0.5880769333E-01    0.4036302105E-01    0.8943600398E-01    0.1312988777E-01    0.5163997793E-01
    0.9000000000E+02    0.7146970652E-01    0.4783700196E-01    0.1088432973E+00    0.1555389348E-01    0.6276185340E-01
    0.1100000000E+03    0.8288766050E-01    0.5414727068E-01    0.1263202813E+00    0.1759659273E-01    0.7279214612E-01
    0.1300000000E+03    0.9326458075E-01    0.5951030300E-01    0.1421583481E+00    0.1932867073E-01    0.8190895600E-01
    0.1500000000E+03    0.1027593232E+00    0.6409427290E-01    0.1565921939E+00    0.2080509064E-01    0.9025164009E-01
    0.1700000000E+03    0.1114980911E+00    0.6803158507E-01    0.1698130377E+00    0.2206916556E-01    0.9793091346E-01
    0.1900000000E+03    0.1195825276E+00    0.7142772945E-01    0.1819782995E+00    0.2315543645E-01    0.1050359478E+00
    0.2100000000E+03    0.1270955150E+00    0.7436765254E-01    0.1932187966E+00    0.2409174404E-01    0.1116394571E+00
    0.2300000000E+03    0.1341054005E+00    0.7692041766E-01    0.2036441720E+00    0.2490074486E-01    0.1178014055E+00
    0.2500000000E+03    0.1406691268E+00    0.7914266456E-01    0.2133470417E+00    0.2560103735E-01    0.1235717519E+00
    0.2700000000E+03    0.1468345823E+00    0.8108121241E-01    0.2224062013E+00    0.2620800953E-01    0.1289925127E+00
    0.2900000000E+03    0.1526423902E+00    0.8277504233E-01    0.2308891317E+00    0.2673448503E-01    0.1340993308E+00
    0.3100000000E+03    0.1581272860E+00    0.8425682437E-01    0.2388539765E+00    0.2719122089E-01    0.1389226837E+00
    0.3300000000E+03    0.1633191901E+00    0.8555410568E-01    0.2463511178E+00    0.2758729524E-01    0.1434888244E+00
    0.3500000000E+03    0.1682440507E+00    0.8669024393E-01    0.2534244414E+00    0.2793041195E-01    0.1478205216E+00
    0.3700000000E+03    0.1729245146E+00    0.8768514692E-01    0.2601123615E+00    0.2822714230E-01    0.1519376471E+00
    0.3900000000E+03    0.1773804625E+00    0.8855586347E-01    0.2664486567E+00    0.2848311808E-01    0.1558576462E+00
    0.4100000000E+03    0.1816294433E+00    0.8931705897E-01    0.2724631558E+00    0.2870318717E-01    0.1595959182E+00
    0.4300000000E+03    0.1856870258E+00    0.8998140086E-01    0.2781823061E+00    0.2889153974E-01    0.1631661253E+00
    0.4500000000E+03    0.1895670881E+00    0.9055987312E-01    0.2836296442E+00    0.2905181126E-01    0.1665804464E+00
    0.4700000000E+03    0.1932820561E+00    0.9106203437E-01    0.2888261911E+00    0.2918716714E-01    0.1698497859E+00
    0.4900000000E+03    0.1968431013E+00    0.9149623097E-01    0.2937907835E+00    0.2930037265E-01    0.1729839480E+00
    0.1000000000E+03    0.7732030155E-01    0.5112275948E-01    0.1178033519E+00    0.1661806194E-01    0.6790126357E-01
    0.3000000000E+03    0.1554232301E+00    0.8354060959E-01    0.2349330001E+00    0.2697096760E-01    0.1365447101E+00
    0.5000000000E+03    0.1985690923E+00    0.9169016344E-01    0.2961914559E+00    0.2934943825E-01    0.1745031367E+00
    0.7000000000E+03    0.2270101219E+00    0.9336498257E-01    0.3353530770E+00    0.2962023645E-01    0.1995473186E+00
    0.9000000000E+03    0.2473563264E+00    0.9284633114E-01    0.3632440110E+00    0.2920195009E-01    0.2174789207E+00
    0.1100000000E+04    0.2626434663E+00    0.9151669706E-01    0.3844862500E+00    0.2855049214E-01    0.2309632550E+00
    0.1300000000E+04    0.2745286350E+00    0.8989857157E-01    0.4014173439E+00    0.2783489744E-01    0.2414556627E+00
    0.1500000000E+04    0.2840117408E+00    0.8820789395E-01    0.4153610718E+00    0.2712218128E-01    0.2498345925E+00
    0.1700000000E+04    0.2917368483E+00    0.8653769274E-01    0.4271304904E+00    0.2643892940E-01    0.2566660526E+00
    0.1900000000E+04    0.2981386361E+00    0.8492767160E-01    0.4372564627E+00    0.2579461241E-01    0.2623321603E+00
    0.2100000000E+04    0.3035211453E+00    0.8339317942E-01    0.4461025457E+00    0.2519121846E-01    0.2671002734E+00
    0.2300000000E+04    0.3081032432E+00    0.8193813295E-01    0.4539274322E+00    0.2462748154E-01    0.2711629106E+00
    0.2500000000E+04    0.3120462982E+00    0.8056108072E-01    0.4609210631E+00    0.2410081169E-01    0.2746620564E+00
    0.2700000000E+04    0.3154717369E+00    0.7925815110E-01    0.4672265945E+00    0.2360819290E-01    0.2777045828E+00
    0.2900000000E+04    0.3184725610E+00    0.7802451595E-01    0.4729543364E+00    0.2314659855E-01    0.2803723681E+00
    0.3100000000E+04    0.3211211176E+00    0.7685512047E-01    0.4781909162E+00    0.2271317493E-01    0.2827291254E+00
    0.3300000000E+04    0.3234744692E+00    0.7574504044E-01    0.4830054898E+00    0.2230531234E-01    0.2848251221E+00
    0.3500000000E+04    0.3255781827E+00    0.7468964695E-01    0.4874540634E+00    0.2192066154E-01    0.2867005103E+00
    0.3700000000E+04    0.3274690530E+00    0.7368467106E-01    0.4915825718E+00    0.2155712473E-01    0.2883877225E+00
    0.3900000000E+04    0.3291770936E+00    0.7272621674E-01    0.4954291146E+00    0.2121283560E-01    0.2899132213E+00
    0.4100000000E+04    0.3307270129E+00    0.7181074815E-01    0.4990256116E+00    0.2088613558E-01    0.2912987983E+00
    0.4300000000E+04    0.3321393238E+00    0.7093506480E-01    0.5023990474E+00    0.2057555014E-01    0.2925625504E+00
    0.4500000000E+04    0.3334311887E+00    0.7009627229E-01    0.5055724208E+00    0.2027976646E-01    0.2937196230E+00
    0.4700000000E+04    0.3346170695E+00    0.6929175226E-01    0.5085654797E+00    0.1999761343E-01    0.2947827822E+00
    0.4900000000E+04    0.3357092333E+00    0.6851913370E-01    0.5113952943E+00    0.1972804384E-01    0.2957628597E+00
    0.1000000000E+04    0.2555080137E+00    0.9223947663E-01    0.3745172732E+00    0.2889121542E-01    0.2246678704E+00
    0.3000000000E+04    0.3198369987E+00    0.7743210166E-01    0.4756293478E+00    0.2292653459E-01    0.2815862129E+00
    0.5000000000E+04    0.3362235040E+00    0.6814410759E-01    0.5127537014E+00    0.1959768062E-01    0.2962246865E+00
    0.7000000000E+04    0.3434699243E+00    0.6189047023E-01    0.5341158422E+00    0.1746783542E-01    0.3027619290E+00
    0.9000000000E+04    0.3475089574E+00    0.5727272994E-01    0.5485767308E+00    0.1594395832E-01    0.3064422792E+00
    0.1100000000E+05    0.3500692768E+00    0.5366178333E-01    0.5592521015E+00    0.1477831201E-01    0.3087989496E+00
    0.1300000000E+05    0.3518308948E+00    0.5072680740E-01    0.5675737587E+00    0.1384650280E-01    0.3104370675E+00
    0.1500000000E+05    0.3531138175E+00    0.4827380141E-01    0.5743087935E+00    0.1307793079E-01    0.3116423487E+00
    0.1700000000E+05    0.3540878879E+00    0.4617988679E-01    0.5799118529E+00    0.1242896896E-01    0.3125669441E+00
    0.1900000000E+05    0.3548514139E+00    0.4436265533E-01    0.5846725218E+00    0.1187092329E-01    0.3132992179E+00
    0.2100000000E+05    0.3554651545E+00    0.4276434754E-01    0.5887855096E+00    0.1138399907E-01    0.3138939679E+00
    0.2300000000E+05    0.3559686423E+00    0.4134303292E-01    0.5923873874E+00    0.1095401587E-01    0.3143869692E+00
    0.2500000000E+05    0.3563886864E+00    0.4006738698E-01    0.5955772578E+00    0.1057049947E-01    0.3148025652E+00
    0.2700000000E+05    0.3567440972E+00    0.3891344375E-01    0.5984290716E+00    0.1022551455E-01    0.3151578951E+00
    0.2900000000E+05    0.3570484555E+00    0.3786249352E-01    0.6009993168E+00    0.9912919524E-02    0.3154653748E+00
    0.3100000000E+05    0.3573118067E+00    0.3689967525E-01    0.6033320085E+00    0.9627873564E-02    0.3157342201E+00
    0.3300000000E+05    0.3575417378E+00    0.3601300651E-01    0.6054620346E+00    0.9366500399E-02    0.3159714154E+00
    0.3500000000E+05    0.3577440845E+00    0.3519269821E-01    0.6074174634E+00    0.9125653070E-02    0.3161823509E+00
    0.3700000000E+05    0.3579234069E+00    0.3443065979E-01    0.6092211735E+00    0.8902745481E-02    0.3163712538E+00
    0.3900000000E+05    0.3580833196E+00    0.3372013513E-01    0.6108920306E+00    0.8695629391E-02    0.3165414858E+00
    0.4100000000E+05    0.3582267233E+00    0.3305543004E-01    0.6124457528E+00    0.8502502981E-02    0.3166957543E+00
    0.4300000000E+05    0.3583559726E+00    0.3243170518E-01    0.6138955576E+00    0.8321841811E-02    0.3168362646E+00
    0.4500000000E+05    0.3584729981E+00    0.3184481656E-01    0.6152526529E+00    0.8152345952E-02    0.3169648310E+00
    0.4700000000E+05    0.3585793976E+00    0.3129119119E-01    0.6165266151E+00    0.7992898980E-02    0.3170829603E+00
    0.4900000000E+05    0.3586765042E+00    0.3076772895E-01    0.6177256833E+00    0.7842535796E-02    0.3171919144E+00
    0.1000000000E+05    0.3489188739E+00    0.5536646407E-01    0.5542758994E+00    0.1532587994E-01    0.3077371004E+00
    0.3000000000E+05    0.3571847348E+00    0.3737087512E-01    0.6021929935E+00    0.9767214636E-02    0.3156041467E+00
    0.5000000000E+05    0.3587219302E+00    0.3051644996E-01    0.6182993991E+00    0.7770494022E-02    0.3172432900E+00
    0.7000000000E+05    0.3593396631E+00    0.2656828272E-01    0.6271590497E+00    0.6650458267E-02    0.3179774465E+00
    0.9000000000E+05    0.3596615385E+00    0.2390390395E-01    0.6329805325E+00    0.5907671403E-02    0.3184037073E+00
    0.1100000000E+06    0.3598532267E+00    0.2194375651E-01    0.6371863715E+00    0.5368283608E-02    0.3186869108E+00
    0.1300000000E+06    0.3599769908E+00    0.2042049178E-01    0.6404112006E+00    0.4953455435E-02    0.3188913380E+00
    0.1500000000E+06    0.3600612612E+00    0.1919089865E-01    0.6429871147E+00    0.4621492555E-02    0.3190474264E+00
    0.1700000000E+06    0.3601207745E+00    0.1817023644E-01    0.6451071761E+00    0.4347975985E-02    0.3191715319E+00
    0.1900000000E+06    0.3601638861E+00    0.1730464796E-01    0.6468923759E+00    0.4117518918E-02    0.3192732669E+00
    0.2100000000E+06    0.3601956620E+00    0.1655800532E-01    0.6484229462E+00    0.3919875651E-02    0.3193586724E+00
    0.2300000000E+06    0.3602193377E+00    0.1590502629E-01    0.6497544912E+00    0.3747922519E-02    0.3194317476E+00
    0.2500000000E+06    0.3602370674E+00    0.1532740500E-01    0.6509269379E+00    0.3596531185E-02    0.3194952530E+00
    0.2700000000E+06    0.3602503353E+00    0.1481150950E-01    0.6519698042E+00    0.3461902478E-02    0.3195511599E+00
    0.2900000000E+06    0.3602601931E+00    0.1434694664E-01    0.6529054512E+00    0.3341153538E-02    0.3196009171E+00
    0.3100000000E+06    0.3602674041E+00    0.1392563240E-01    0.6537511731E+00    0.3232051704E-02    0.3196456150E+00
    0.3300000000E+06    0.3602725340E+00    0.1354116939E-01    0.6545205854E+00    0.3132837208E-02    0.3196860919E+00
    0.3500000000E+06    0.3602760092E+00    0.1318841842E-01    0.6552245754E+00    0.3042101632E-02    0.3197230034E+00
    0.3700000000E+06    0.3602781564E+00    0.1286319623E-01    0.6558719676E+00    0.2958702514E-02    0.3197568709E+00
    0.3900000000E+06    0.3602792292E+00    0.1256205764E-01    0.6564700013E+00    0.2881702031E-02    0.3197881145E+00
    0.4100000000E+06    0.3602794268E+00    0.1228213566E-01    0.6570246791E+00    0.2810322136E-02    0.3198170769E+00
    0.4300000000E+06    0.3602789075E+00    0.1202102196E-01    0.6575410269E+00    0.2743911158E-02    0.3198440410E+00
    0.4500000000E+06    0.3602777980E+00    0.1177667643E-01    0.6580232888E+00    0.2681918570E-02    0.3198692425E+00
    0.4700000000E+06    0.3602762011E+00    0.1154735753E-01    0.6584750772E+00    0.2623875646E-02    0.3198928795E+00
    0.4900000000E+06    0.3602742003E+00    0.1133156822E-01    0.6588994893E+00    0.2569380466E-02    0.3199151201E+00
    0.1000000000E+06    0.3597685681E+00    0.2285665464E-01    0.6352355413E+00    0.5618726390E-02    0.3185579879E+00
    0.3000000000E+06    0.3602640903E+00    0.1413131704E-01    0.6533386284E+00    0.3285266164E-02    0.3196238411E+00
    0.5000000000E+06    0.3602730703E+00    0.1122833553E-01    0.6591022789E+00    0.2543352998E-02    0.3199257623E+00
    0.7000000000E+06    0.3602407691E+00    0.9635132593E-02    0.6622116064E+00    0.2145347196E-02    0.3200912239E+00
    0.9000000000E+06    0.3602030516E+00    0.8588756981E-02    0.6642328152E+00    0.1887989612E-02    0.3202029326E+00
    0.1100000000E+07    0.3601665446E+00    0.7832654410E-02    0.6656828752E+00    0.1704226338E-02    0.3202865493E+00
    0.1300000000E+07    0.3601326399E+00    0.7252664446E-02    0.6667891635E+00    0.1564619277E-02    0.3203530915E+00
    0.1500000000E+07    0.3601014584E+00    0.6789134182E-02    0.6676695039E+00    0.1453946925E-02    0.3204082269E+00
    0.1700000000E+07    0.3600727877E+00    0.6407412847E-02    0.6683918974E+00    0.1363443813E-02    0.3204552321E+00
    0.1900000000E+07    0.3600463456E+00    0.6085794745E-02    0.6689987193E+00    0.1287659544E-02    0.3204961629E+00
    0.2100000000E+07    0.3600218596E+00    0.5809889496E-02    0.6695179421E+00    0.1223003832E-02    0.3205323899E+00
    0.2300000000E+07    0.3599990881E+00    0.5569724673E-02    0.6699688793E+00    0.1167002819E-02    0.3205648708E+00
    0.2500000000E+07    0.3599778239E+00    0.5358139264E-02    0.6703653548E+00    0.1117889179E-02    0.3205943001E+00
    0.2700000000E+07    0.3599578906E+00    0.5169838653E-02    0.6707175609E+00    0.1074362302E-02    0.3206211967E+00
    0.2900000000E+07    0.3599391385E+00    0.5000811340E-02    0.6710332005E+00    0.1035440977E-02    0.3206459586E+00
    0.3100000000E+07    0.3599214404E+00    0.4847954267E-02    0.6713182187E+00    0.1000369192E-02    0.3206688972E+00
    0.3300000000E+07    0.3599046876E+00    0.4708823876E-02    0.6715772874E+00    0.9685537922E-03    0.3206902610E+00
    0.3500000000E+07    0.3598887866E+00    0.4581465867E-02    0.6718141362E+00    0.9395220080E-03    0.3207102509E+00
    0.3700000000E+07    0.3598736569E+00    0.4464295819E-02    0.6720317834E+00    0.9128917764E-03    0.3207290321E+00
    0.3900000000E+07    0.3598592284E+00    0.4356013626E-02    0.6722327021E+00    0.8883505396E-03    0.3207467417E+00
    0.4100000000E+07    0.3598454401E+00    0.4255540971E-02    0.6724189402E+00    0.8656397995E-03    0.3207634949E+00
    0.4300000000E+07    0.3598322383E+00    0.4161974851E-02    0.6725922105E+00    0.8445436691E-03    0.3207793892E+00
    0.4500000000E+07    0.3598195759E+00    0.4074552481E-02    0.6727539579E+00    0.8248802527E-03    0.3207945080E+00
    0.4700000000E+07    0.3598074109E+00    0.3992624437E-02    0.6729054111E+00    0.8064950657E-03    0.3208089233E+00
    0.4900000000E+07    0.3597957061E+00    0.3915633835E-02    0.6730476224E+00    0.7892559461E-03    0.3208226974E+00
    0.1000000000E+07    0.3601845096E+00    0.8183396068E-02    0.6650113180E+00    0.1789230205E-02    0.3202473812E+00
    0.3000000000E+07    0.3599301649E+00    0.4922527406E-02    0.6711792200E+00    0.1017464207E-02    0.3206576390E+00
    0.5000000000E+07    0.3597900158E+00    0.3878837261E-02    0.6731155509E+00    0.7810299673E-03    0.3208293613E+00
    0.7000000000E+07    0.3596939033E+00    0.3313807705E-02    0.6741553485E+00    0.6558471688E-03    0.3209391933E+00
    0.9000000000E+07    0.3596207621E+00    0.2945558803E-02    0.6748295726E+00    0.5755007705E-03    0.3210200687E+00
    0.1100000000E+08    0.3595617225E+00    0.2680828109E-02    0.6753124863E+00    0.5184140517E-03    0.3210841056E+00
    0.1300000000E+08    0.3595122225E+00    0.2478517305E-02    0.6756804822E+00    0.4752011576E-03    0.3211371200E+00
    0.1500000000E+08    0.3594696065E+00    0.2317295382E-02    0.6759730574E+00    0.4410399176E-03    0.3211823550E+00
    0.1700000000E+08    0.3594321926E+00    0.2184834263E-02    0.6762129695E+00    0.4131667511E-03    0.3212218046E+00
    0.1900000000E+08    0.3593988484E+00    0.2073442203E-02    0.6764143822E+00    0.3898697581E-03    0.3212567827E+00
    0.2100000000E+08    0.3593687752E+00    0.1978036307E-02    0.6765866352E+00    0.3700247613E-03    0.3212882009E+00
    0.2300000000E+08    0.3593413884E+00    0.1895103729E-02    0.6767361717E+00    0.3528591587E-03    0.3213167178E+00
    0.2500000000E+08    0.3593162472E+00    0.1822127806E-02    0.6768676000E+00    0.3378222227E-03    0.3213428244E+00
    0.2700000000E+08    0.3592930112E+00    0.1757251533E-02    0.6769843160E+00    0.3245094365E-03    0.3213668969E+00
