  Pressure (Pa) 22mC5-400 (mol/kg) 2mC6-400 (mol/kg) 3mC6-400 (mol/kg) 33mC5-400 (mol/kg) 23mC5-400 (mol/kg)
    0.1000000000E+01    0.1058957275E-02    0.3191002968E-02    0.5301859653E-03    0.1948512980E-03    0.9297065398E-03
    0.3000000000E+01    0.3138184301E-02    0.9432897156E-02    0.1575246392E-02    0.5759644990E-03    0.2755176917E-02
    0.5000000000E+01    0.5167756679E-02    0.1549458497E-01    0.2600431700E-02    0.9460298628E-03    0.4537082298E-02
    0.7000000000E+01    0.7149865814E-02    0.2138360390E-01    0.3606365843E-02    0.1305508938E-02    0.6277345072E-02
    0.9000000000E+01    0.9086571994E-02    0.2710707031E-01    0.4593646327E-02    0.1654837514E-02    0.7977772618E-02
    0.1100000000E+02    0.1097981410E-01    0.3267170904E-01    0.5562845614E-02    0.1994427429E-02    0.9640065820E-02
    0.1300000000E+02    0.1283141847E-01    0.3808388034E-01    0.6514512428E-02    0.2324668217E-02    0.1126582684E-01
    0.1500000000E+02    0.1464310699E-01    0.4334960475E-01    0.7449172988E-02    0.2645928627E-02    0.1285656623E-01
    0.1700000000E+02    0.1641650451E-01    0.4847458580E-01    0.8367332153E-02    0.2958558013E-02    0.1441370941E-01
    0.1900000000E+02    0.1815314562E-01    0.5346423097E-01    0.9269474513E-02    0.3262887615E-02    0.1593860263E-01
    0.2100000000E+02    0.1985448087E-01    0.5832367097E-01    0.1015606540E-01    0.3559231734E-02    0.1743251841E-01
    0.2300000000E+02    0.2152188250E-01    0.6305777750E-01    0.1102755185E-01    0.3847888822E-02    0.1889666061E-01
    0.2500000000E+02    0.2315664967E-01    0.6767117964E-01    0.1188436349E-01    0.4129142483E-02    0.2033216894E-01
    0.2700000000E+02    0.2476001332E-01    0.7216827898E-01    0.1272691340E-01    0.4403262397E-02    0.2174012330E-01
    0.2900000000E+02    0.2633314061E-01    0.7655326368E-01    0.1355559890E-01    0.4670505180E-02    0.2312154763E-01
    0.3100000000E+02    0.2787713903E-01    0.8083012138E-01    0.1437080230E-01    0.4931115176E-02    0.2447741353E-01
    0.3300000000E+02    0.2939306020E-01    0.8500265130E-01    0.1517289162E-01    0.5185325193E-02    0.2580864360E-01
    0.3500000000E+02    0.3088190341E-01    0.8907447533E-01    0.1596222126E-01    0.5433357186E-02    0.2711611449E-01
    0.3700000000E+02    0.3234461879E-01    0.9304904843E-01    0.1673913261E-01    0.5675422888E-02    0.2840065979E-01
    0.3900000000E+02    0.3378211041E-01    0.9692966829E-01    0.1750395466E-01    0.5911724403E-02    0.2966307264E-01
    0.4100000000E+02    0.3519523901E-01    0.1007194842E+00    0.1825700457E-01    0.6142454754E-02    0.3090410817E-01
    0.4300000000E+02    0.3658482459E-01    0.1044215056E+00    0.1899858819E-01    0.6367798391E-02    0.3212448581E-01
    0.4500000000E+02    0.3795164885E-01    0.1080386096E+00    0.1972900057E-01    0.6587931673E-02    0.3332489135E-01
    0.4700000000E+02    0.3929645740E-01    0.1115735486E+00    0.2044852646E-01    0.6803023308E-02    0.3450597894E-01
    0.4900000000E+02    0.4061996184E-01    0.1150289565E+00    0.2115744071E-01    0.7013234768E-02    0.3566837289E-01
    0.1000000000E+02    0.1003850937E-01    0.2990883738E-01    0.5080471283E-02    0.1825824954E-02    0.8813583649E-02
    0.3000000000E+02    0.2710871393E-01    0.7870496667E-01    0.1396486253E-01    0.4801624463E-02    0.2380261661E-01
    0.5000000000E+02    0.4127393857E-01    0.1167276288E+00    0.2150800177E-01    0.7116559012E-02    0.3624274712E-01
    0.7000000000E+02    0.5338496954E-01    0.1470855714E+00    0.2802210316E-01    0.8961159857E-02    0.4688038408E-01
    0.9000000000E+02    0.6397826528E-01    0.1717939814E+00    0.3372753177E-01    0.1045898853E-01    0.5618619205E-01
    0.1100000000E+03    0.7340988682E-01    0.1922193754E+00    0.3878451371E-01    0.1169386440E-01    0.6447257496E-01
    0.1300000000E+03    0.8192616579E-01    0.2093223845E+00    0.4331251138E-01    0.1272473024E-01    0.7195566863E-01
    0.1500000000E+03    0.8970345944E-01    0.2237985332E+00    0.4740253169E-01    0.1359427534E-01    0.7879021666E-01
    0.1700000000E+03    0.9687171874E-01    0.2361639672E+00    0.5112520889E-01    0.1433418843E-01    0.8509024666E-01
    0.1900000000E+03    0.1035290844E+00    0.2468098151E+00    0.5453626687E-01    0.1496848951E-01    0.9094187576E-01
    0.2100000000E+03    0.1097512675E+00    0.2560378527E+00    0.5768030405E-01    0.1551571636E-01    0.9641154058E-01
    0.2300000000E+03    0.1155977723E+00    0.2640845896E+00    0.6059347430E-01    0.1599040150E-01    0.1015514572E+00
    0.2500000000E+03    0.1211161404E+00    0.2711379514E+00    0.6330542343E-01    0.1640409536E-01    0.1064033450E+00
    0.2700000000E+03    0.1263449156E+00    0.2773490891E+00    0.6584071257E-01    0.1676609066E-01    0.1110010275E+00
    0.2900000000E+03    0.1313157598E+00    0.2828409024E+00    0.6821988086E-01    0.1708394536E-01    0.1153722899E+00
    0.3100000000E+03    0.1360549921E+00    0.2877142987E+00    0.7046025035E-01    0.1736386670E-01    0.1195402286E+00
    0.3300000000E+03    0.1405847274E+00    0.2920528596E+00    0.7257654340E-01    0.1761099762E-01    0.1235242510E+00
    0.3500000000E+03    0.1449237318E+00    0.2959263698E+00    0.7458136196E-01    0.1782963332E-01    0.1273408256E+00
    0.3700000000E+03    0.1490880738E+00    0.2993935188E+00    0.7648556360E-01    0.1802338710E-01    0.1310040538E+00
    0.3900000000E+03    0.1530916272E+00    0.3025039937E+00    0.7829855950E-01    0.1819531889E-01    0.1345261110E+00
    0.4100000000E+03    0.1569464628E+00    0.3053001167E+00    0.8002855278E-01    0.1834803575E-01    0.1379175905E+00
    0.4300000000E+03    0.1606631580E+00    0.3078181390E+00    0.8168273066E-01    0.1848377137E-01    0.1411877747E+00
    0.4500000000E+03    0.1642510424E+00    0.3100892730E+00    0.8326742073E-01    0.1860444946E-01    0.1443448514E+00
    0.4700000000E+03    0.1677183962E+00    0.3121405214E+00    0.8478821887E-01    0.1871173463E-01    0.1473960873E+00
    0.4900000000E+03    0.1710726101E+00    0.3139953490E+00    0.8625009474E-01    0.1880707376E-01    0.1503479684E+00
    0.1000000000E+03    0.6882188744E-01    0.1824745017E+00    0.3632882683E-01    0.1110515101E-01    0.6044154657E-01
    0.3000000000E+03    0.1337128579E+00    0.2853493188E+00    0.6935644057E-01    0.1722830415E-01    0.1174803851E+00
    0.5000000000E+03    0.1727093885E+00    0.3148556073E+00    0.8696034044E-01    0.1885066457E-01    0.1517884930E+00
    0.7000000000E+03    0.2008148506E+00    0.3255552461E+00    0.9893069452E-01    0.1933013512E-01    0.1765323242E+00
    0.9000000000E+03    0.2223880367E+00    0.3294552646E+00    0.1080518024E+00    0.1940722892E-01    0.1955373688E+00
    0.1100000000E+04    0.2394908570E+00    0.3304790095E+00    0.1154655880E+00    0.1932340604E-01    0.2106135489E+00
    0.1300000000E+04    0.2533391710E+00    0.3301846471E+00    0.1217437129E+00    0.1917357982E-01    0.2228283831E+00
    0.1500000000E+04    0.2647333591E+00    0.3292661015E+00    0.1272112036E+00    0.1899903966E-01    0.2328847912E+00
    0.1700000000E+04    0.2742329195E+00    0.3280556248E+00    0.1320699891E+00    0.1881870688E-01    0.2412742789E+00
    0.1900000000E+04    0.2822435571E+00    0.3267197953E+00    0.1364539883E+00    0.1864136375E-01    0.2483533458E+00
    0.2100000000E+04    0.2890669288E+00    0.3253443302E+00    0.1404565768E+00    0.1847094686E-01    0.2543871333E+00
    0.2300000000E+04    0.2949316256E+00    0.3239736402E+00    0.1441454900E+00    0.1830900545E-01    0.2595766134E+00
    0.2500000000E+04    0.3000135717E+00    0.3226303418E+00    0.1475714621E+00    0.1815590132E-01    0.2640764936E+00
    0.2700000000E+04    0.3044499689E+00    0.3213253037E+00    0.1507735106E+00    0.1801141498E-01    0.2680074584E+00
    0.2900000000E+04    0.3083490846E+00    0.3200629952E+00    0.1537823141E+00    0.1787505848E-01    0.2714647644E+00
    0.3100000000E+04    0.3117972663E+00    0.3188444054E+00    0.1566224520E+00    0.1774623821E-01    0.2745244006E+00
    0.3300000000E+04    0.3148640518E+00    0.3176686665E+00    0.1593139384E+00    0.1762433908E-01    0.2772475769E+00
    0.3500000000E+04    0.3176059454E+00    0.3165339663E+00    0.1618732996E+00    0.1750876668E-01    0.2796840425E+00
    0.3700000000E+04    0.3200692429E+00    0.3154380633E+00    0.1643143509E+00    0.1739896686E-01    0.2818745680E+00
    0.3900000000E+04    0.3222921708E+00    0.3143785759E+00    0.1666487672E+00    0.1729443330E-01    0.2838528254E+00
    0.4100000000E+04    0.3243065199E+00    0.3133531418E+00    0.1688865097E+00    0.1719470861E-01    0.2856468244E+00
    0.4300000000E+04    0.3261389082E+00    0.3123595015E+00    0.1710361513E+00    0.1709938223E-01    0.2872800226E+00
    0.4500000000E+04    0.3278117630E+00    0.3113955391E+00    0.1731051270E+00    0.1700808682E-01    0.2887721890E+00
    0.4700000000E+04    0.3293440931E+00    0.3104592978E+00    0.1750999306E+00    0.1692049419E-01    0.2901400831E+00
    0.4900000000E+04    0.3307520993E+00    0.3095489807E+00    0.1770262696E+00    0.1683631105E-01    0.2913979923E+00
    0.1000000000E+04    0.2314094468E+00    0.3301993459E+00    0.1119283452E+00    0.1937764191E-01    0.2034886110E+00
    0.3000000000E+04    0.3101248518E+00    0.3194482593E+00    0.1552221228E+00    0.1780974489E-01    0.2730401629E+00
    0.5000000000E+04    0.3314138981E+00    0.3091030246E+00    0.1779653647E+00    0.1679541496E-01    0.2919895987E+00
    0.7000000000E+04    0.3406277773E+00    0.3012168739E+00    0.1941209595E+00    0.1610573199E-01    0.3002580483E+00
    0.9000000000E+04    0.3456344239E+00    0.2947341263E+00    0.2068422803E+00    0.1557833869E-01    0.3047902185E+00
    0.1100000000E+05    0.3487394382E+00    0.2891766352E+00    0.2174115362E+00    0.1514817188E-01    0.3076265751E+00
    0.1300000000E+05    0.3508376084E+00    0.2842884294E+00    0.2264896716E+00    0.1478334220E-01    0.3095611677E+00
    0.1500000000E+05    0.3523430131E+00    0.2799129718E+00    0.2344663937E+00    0.1446579150E-01    0.3109624878E+00
    0.1700000000E+05    0.3534718690E+00    0.2759457979E+00    0.2415925391E+00    0.1418423042E-01    0.3120235031E+00
    0.1900000000E+05    0.3543474716E+00    0.2723129143E+00    0.2480398984E+00    0.1393108738E-01    0.3128545757E+00
    0.2100000000E+05    0.3550450084E+00    0.2689596075E+00    0.2539317122E+00    0.1370101332E-01    0.3135232085E+00
    0.2300000000E+05    0.3556128174E+00    0.2658440807E+00    0.2593596371E+00    0.1349007574E-01    0.3140729316E+00
    0.2500000000E+05    0.3560833294E+00    0.2629335747E+00    0.2643938350E+00    0.1329529123E-01    0.3145330401E+00
    0.2700000000E+05    0.3564790817E+00    0.2602018739E+00    0.2690892985E+00    0.1311433809E-01    0.3149239566E+00
    0.2900000000E+05    0.3568162053E+00    0.2576276334E+00    0.2734899888E+00    0.1294537119E-01    0.3152603441E+00
    0.3100000000E+05    0.3571065391E+00    0.2551932177E+00    0.2776316413E+00    0.1278689807E-01    0.3155529989E+00
    0.3300000000E+05    0.3573589617E+00    0.2528838718E+00    0.2815437243E+00    0.1263769320E-01    0.3158100433E+00
    0.3500000000E+05    0.3575802576E+00    0.2506871155E+00    0.2852508431E+00    0.1249673708E-01    0.3160377042E+00
    0.3700000000E+05    0.3577756975E+00    0.2485922898E+00    0.2887737683E+00    0.1236317198E-01    0.3162408350E+00
    0.3900000000E+05    0.3579494362E+00    0.2465902141E+00    0.2921302031E+00    0.1223626904E-01    0.3164232736E+00
    0.4100000000E+05    0.3581047914E+00    0.2446729203E+00    0.2953353670E+00    0.1211540334E-01    0.3165880953E+00
    0.4300000000E+05    0.3582444436E+00    0.2428334452E+00    0.2984024451E+00    0.1200003493E-01    0.3167377925E+00
    0.4500000000E+05    0.3583705816E+00    0.2410656657E+00    0.3013429400E+00    0.1188969385E-01    0.3168744073E+00
    0.4700000000E+05    0.3584850090E+00    0.2393641675E+00    0.3041669497E+00    0.1178396847E-01    0.3169996282E+00
    0.4900000000E+05    0.3585892257E+00    0.2377241380E+00    0.3068833898E+00    0.1168249615E-01    0.3171148637E+00
    0.1000000000E+05    0.3473518414E+00    0.2918589126E+00    0.2123458393E+00    0.1535355037E-01    0.3063558217E+00
    0.3000000000E+05    0.3569666085E+00    0.2563939291E+00    0.2755912248E+00    0.1286490495E-01    0.3154115785E+00
    0.5000000000E+05    0.3586379059E+00    0.2369258128E+00    0.3082037791E+00    0.1163325305E-01    0.3171691146E+00
    0.7000000000E+05    0.3592951676E+00    0.2233483823E+00    0.3304912357E+00    0.1080991569E-01    0.3179382186E+00
    0.9000000000E+05    0.3596339619E+00    0.2129201140E+00    0.3474287033E+00    0.1019408759E-01    0.3183794615E+00
    0.1100000000E+06    0.3598344548E+00    0.2044662099E+00    0.3610678042E+00    0.9704335591E-02    0.3186704771E+00
    0.1300000000E+06    0.3599633927E+00    0.1973695646E+00    0.3724635949E+00    0.9299317586E-02    0.3188795059E+00
    0.1500000000E+06    0.3600509670E+00    0.1912643467E+00    0.3822329908E+00    0.8955117725E-02    0.3190385415E+00
    0.1700000000E+06    0.3601127219E+00    0.1859153316E+00    0.3907688128E+00    0.8656647713E-02    0.3191646535E+00
    0.1900000000E+06    0.3601574264E+00    0.1811621330E+00    0.3983369485E+00    0.8393777489E-02    0.3192678202E+00
    0.2100000000E+06    0.3601903762E+00    0.1768904141E+00    0.4051258593E+00    0.8159378776E-02    0.3193542857E+00
    0.2300000000E+06    0.3602149428E+00    0.1730157634E+00    0.4112740367E+00    0.7948247529E-02    0.3194281698E+00
    0.2500000000E+06    0.3602333655E+00    0.1694740750E+00    0.4168862537E+00    0.7756470148E-02    0.3194923079E+00
    0.2700000000E+06    0.3602471834E+00    0.1662155146E+00    0.4220436945E+00    0.7581030710E-02    0.3195487204E+00
    0.2900000000E+06    0.3602574855E+00    0.1632005751E+00    0.4268105400E+00    0.7419556957E-02    0.3195988889E+00
    0.3100000000E+06    0.3602650609E+00    0.1603974090E+00    0.4312384031E+00    0.7270150107E-02    0.3196439268E+00
    0.3300000000E+06    0.3602704935E+00    0.1577799703E+00    0.4353694047E+00    0.7131267348E-02    0.3196846886E+00
    0.3500000000E+06    0.3602742232E+00    0.1553266882E+00    0.4392383626E+00    0.7001638587E-02    0.3197218417E+00
    0.3700000000E+06    0.3602765865E+00    0.1530194998E+00    0.4428743834E+00    0.6880206144E-02    0.3197559164E+00
    0.3900000000E+06    0.3602778445E+00    0.1508431300E+00    0.4463020435E+00    0.6766080205E-02    0.3197873394E+00
    0.4100000000E+06    0.3602782022E+00    0.1487845481E+00    0.4495422799E+00    0.6658505335E-02    0.3198164585E+00
    0.4300000000E+06    0.3602778222E+00    0.1468325499E+00    0.4526130718E+00    0.6556834925E-02    0.3198435607E+00
    0.4500000000E+06    0.3602768349E+00    0.1449774329E+00    0.4555299707E+00    0.6460511414E-02    0.3198688846E+00
    0.4700000000E+06    0.3602753457E+00    0.1432107406E+00    0.4583065165E+00    0.6369050794E-02    0.3198926309E+00
    0.4900000000E+06    0.3602734404E+00    0.1415250589E+00    0.4609545686E+00    0.6282030334E-02    0.3199149697E+00
    0.1000000000E+06    0.3597460266E+00    0.2084929955E+00    0.3545804538E+00    0.9936601108E-02    0.3185382075E+00
    0.3000000000E+06    0.3602615736E+00    0.1617742666E+00    0.4290640185E+00    0.7343448828E-02    0.3196219907E+00
    0.5000000000E+06    0.3602723543E+00    0.1407105242E+00    0.4622337224E+00    0.6240067356E-02    0.3199256575E+00
    0.7000000000E+06    0.3602405924E+00    0.1274278641E+00    0.4830574825E+00    0.5563632218E-02    0.3200917174E+00
    0.9000000000E+06    0.3602031167E+00    0.1179011727E+00    0.4979545175E+00    0.5087545111E-02    0.3202037429E+00
    0.1100000000E+07    0.3601667441E+00    0.1105683161E+00    0.5094009363E+00    0.4726254275E-02    0.3202875687E+00
    0.1300000000E+07    0.3601329248E+00    0.1046636226E+00    0.5186060014E+00    0.4438613533E-02    0.3203542674E+00
    0.1500000000E+07    0.3601018029E+00    0.9975691825E-01    0.5262474079E+00    0.4201838421E-02    0.3204095292E+00
    0.1700000000E+07    0.3600731765E+00    0.9558351530E-01    0.5327413614E+00    0.4002073218E-02    0.3204566417E+00
    0.1900000000E+07    0.3600467692E+00    0.9196955146E-01    0.5383608450E+00    0.3830306031E-02    0.3204976666E+00
    0.2100000000E+07    0.3600223114E+00    0.8879503833E-01    0.5432940251E+00    0.3680370100E-02    0.3205339780E+00
    0.2300000000E+07    0.3599995637E+00    0.8597389482E-01    0.5476757572E+00    0.3547874231E-02    0.3205665358E+00
    0.2500000000E+07    0.3599783198E+00    0.8344240421E-01    0.5516057733E+00    0.3429589638E-02    0.3205960360E+00
    0.2700000000E+07    0.3599584043E+00    0.8115217236E-01    0.5551597643E+00    0.3323078650E-02    0.3206229988E+00
    0.2900000000E+07    0.3599396680E+00    0.7906563938E-01    0.5583964365E+00    0.3226459622E-02    0.3206478228E+00
    0.3100000000E+07    0.3599219842E+00    0.7715311214E-01    0.5613621725E+00    0.3138252432E-02    0.3206708201E+00
    0.3300000000E+07    0.3599052443E+00    0.7539074091E-01    0.5640942072E+00    0.3057273707E-02    0.3206922396E+00
    0.3500000000E+07    0.3598893552E+00    0.7375910247E-01    0.5666228498E+00    0.2982563832E-02    0.3207122826E+00
    0.3700000000E+07    0.3598742365E+00    0.7224218488E-01    0.5689730753E+00    0.2913334882E-02    0.3207311146E+00
    0.3900000000E+07    0.3598598182E+00    0.7082664524E-01    0.5711656870E+00    0.2848932725E-02    0.3207488729E+00
    0.4100000000E+07    0.3598460395E+00    0.6950125716E-01    0.5732181816E+00    0.2788808925E-02    0.3207656729E+00
    0.4300000000E+07    0.3598328467E+00    0.6825649301E-01    0.5751454032E+00    0.2732499579E-02    0.3207816124E+00
    0.4500000000E+07    0.3598201928E+00    0.6708420341E-01    0.5769600444E+00    0.2679609137E-02    0.3207967749E+00
    0.4700000000E+07    0.3598080358E+00    0.6597736826E-01    0.5786730355E+00    0.2629797876E-02    0.3208112324E+00
    0.4900000000E+07    0.3597963388E+00    0.6492990095E-01    0.5802938507E+00    0.2582772085E-02    0.3208250475E+00
    0.1000000000E+07    0.3601846504E+00    0.1140193655E+00    0.5040160329E+00    0.4895727098E-02    0.3202483049E+00
    0.3000000000E+07    0.3599307017E+00    0.7808923364E-01    0.5599106597E+00    0.3181384484E-02    0.3206595330E+00
    0.5000000000E+07    0.3597906521E+00    0.6442674450E-01    0.5810723156E+00    0.2560222589E-02    0.3208317314E+00
    0.7000000000E+07    0.3596946001E+00    0.5648777497E-01    0.5933463886E+00    0.2207922796E-02    0.3209419140E+00
    0.9000000000E+07    0.3596215034E+00    0.5108808683E-01    0.6016850422E+00    0.1972228326E-02    0.3210230748E+00
    0.1100000000E+08    0.3595624997E+00    0.4708952693E-01    0.6078548704E+00    0.1799869887E-02    0.3210873556E+00
    0.1300000000E+08    0.3595130299E+00    0.4396506046E-01    0.6126728830E+00    0.1666547764E-02    0.3211405847E+00
    0.1500000000E+08    0.3594704400E+00    0.4143113519E-01    0.6165782371E+00    0.1559339758E-02    0.3211860126E+00
    0.1700000000E+08    0.3594330492E+00    0.3931924895E-01    0.6198317154E+00    0.1470639780E-02    0.3212256381E+00
    0.1900000000E+08    0.3593997259E+00    0.3752187886E-01    0.6225996271E+00    0.1395633478E-02    0.3212607782E+00
    0.2100000000E+08    0.3593696716E+00    0.3596662912E-01    0.6249938937E+00    0.1331102061E-02    0.3212923471E+00
    0.2300000000E+08    0.3593423021E+00    0.3460266348E-01    0.6270930724E+00    0.1274799330E-02    0.3213210050E+00
    0.2500000000E+08    0.3593171769E+00    0.3339305688E-01    0.6289542019E+00    0.1225102829E-02    0.3213472444E+00
    0.2700000000E+08    0.3592939559E+00    0.3231023178E-01    0.6306198674E+00    0.1180806940E-02    0.3213714426E+00
