  Pressure (Pa) 22mC5-400 (mol/kg) 2mC6-400 (mol/kg) 3mC6-400 (mol/kg) 33mC5-400 (mol/kg) 23mC5-400 (mol/kg)
    0.1000000000E+01    0.1056439888E-02    0.6355080472E-02    0.5280701456E-03    0.3233840305E-03    0.3709988411E-03
    0.3000000000E+01    0.3116409128E-02    0.1863218602E-01    0.1556775887E-02    0.9480721504E-03    0.1094426111E-02
    0.5000000000E+01    0.5109576583E-02    0.3036318560E-01    0.2550639410E-02    0.1544916488E-02    0.1794407298E-02
    0.7000000000E+01    0.7040097297E-02    0.4158285568E-01    0.3511606064E-02    0.2115690396E-02    0.2472400564E-02
    0.9000000000E+01    0.8911775503E-02    0.5232308735E-01    0.4441475563E-02    0.2662020090E-02    0.3129740969E-02
    0.1100000000E+02    0.1072810136E-01    0.6261317979E-01    0.5341915495E-02    0.3185399616E-02    0.3767653363E-02
    0.1300000000E+02    0.1249228314E-01    0.7248009857E-01    0.6214473341E-02    0.3687204022E-02    0.4387263673E-02
    0.1500000000E+02    0.1420727550E-01    0.8194870366E-01    0.7060587200E-02    0.4168700979E-02    0.4989608831E-02
    0.1700000000E+02    0.1587580442E-01    0.9104195108E-01    0.7881595376E-02    0.4631061070E-02    0.5575645521E-02
    0.1900000000E+02    0.1750038921E-01    0.9978107184E-01    0.8678744980E-02    0.5075366911E-02    0.6146257904E-02
    0.2100000000E+02    0.1908336204E-01    0.1081857310E+00    0.9453199641E-02    0.5502621265E-02    0.6702264464E-02
    0.2300000000E+02    0.2062688524E-01    0.1162741696E+00    0.1020604645E-01    0.5913754267E-02    0.7244424089E-02
    0.2500000000E+02    0.2213296675E-01    0.1240633310E+00    0.1093830222E-01    0.6309629890E-02    0.7773441481E-02
    0.2700000000E+02    0.2360347384E-01    0.1315689744E+00    0.1165091912E-01    0.6691051714E-02    0.8289971987E-02
    0.2900000000E+02    0.2504014547E-01    0.1388057765E+00    0.1234478983E-01    0.7058768118E-02    0.8794625911E-02
    0.3100000000E+02    0.2644460325E-01    0.1457874229E+00    0.1302075210E-01    0.7413476934E-02    0.9287972388E-02
    0.3300000000E+02    0.2781836138E-01    0.1525266900E+00    0.1367959302E-01    0.7755829642E-02    0.9770542856E-02
    0.3500000000E+02    0.2916283555E-01    0.1590355197E+00    0.1432205282E-01    0.8086435152E-02    0.1024283418E-01
    0.3700000000E+02    0.3047935097E-01    0.1653250861E+00    0.1494882831E-01    0.8405863224E-02    0.1070531146E-01
    0.3900000000E+02    0.3176914958E-01    0.1714058560E+00    0.1556057612E-01    0.8714647560E-02    0.1115841060E-01
    0.4100000000E+02    0.3303339665E-01    0.1772876445E+00    0.1615791553E-01    0.9013288610E-02    0.1160254057E-01
    0.4300000000E+02    0.3427318671E-01    0.1829796642E+00    0.1674143115E-01    0.9302256119E-02    0.1203808554E-01
    0.4500000000E+02    0.3548954893E-01    0.1884905714E+00    0.1731167534E-01    0.9581991443E-02    0.1246540672E-01
    0.4700000000E+02    0.3668345202E-01    0.1938285067E+00    0.1786917045E-01    0.9852909658E-02    0.1288484411E-01
    0.4900000000E+02    0.3785580873E-01    0.1990011333E+00    0.1841441081E-01    0.1011540149E-01    0.1329671806E-01
    0.1000000000E+02    0.9826650701E-02    0.5752266374E-01    0.4895274824E-02    0.2926490038E-02    0.3451053101E-02
    0.3000000000E+02    0.2574630404E-01    0.1423276752E+00    0.1268495918E-01    0.7237706717E-02    0.9042678520E-02
    0.5000000000E+02    0.3843417812E-01    0.2015277285E+00    0.1868258275E-01    0.1024360338E-01    0.1349991384E-01
    0.7000000000E+02    0.4905555874E-01    0.2449301021E+00    0.2350423931E-01    0.1244424155E-01    0.1723174483E-01
    0.9000000000E+02    0.5825632768E-01    0.2779180217E+00    0.2750709523E-01    0.1411408118E-01    0.2046487172E-01
    0.1100000000E+03    0.6642652074E-01    0.3036901553E+00    0.3091347560E-01    0.1541618728E-01    0.2333620083E-01
    0.1300000000E+03    0.7381736464E-01    0.3242650879E+00    0.3386958059E-01    0.1645345430E-01    0.2593391876E-01
    0.1500000000E+03    0.8059903107E-01    0.3409785186E+00    0.3647584572E-01    0.1729396021E-01    0.2831776198E-01
    0.1700000000E+03    0.8689153936E-01    0.3547488134E+00    0.3880377088E-01    0.1798450753E-01    0.3052986303E-01
    0.1900000000E+03    0.9278238891E-01    0.3662277115E+00    0.4090578758E-01    0.1855830755E-01    0.3260093924E-01
    0.2100000000E+03    0.9833716022E-01    0.3758902083E+00    0.4282131894E-01    0.1903956297E-01    0.3455401374E-01
    0.2300000000E+03    0.1036061717E+00    0.3840904301E+00    0.4458064901E-01    0.1944631644E-01    0.3640675204E-01
    0.2500000000E+03    0.1086288163E+00    0.3910976103E+00    0.4620747699E-01    0.1979228453E-01    0.3817298427E-01
    0.2700000000E+03    0.1134364765E+00    0.3971199640E+00    0.4772065206E-01    0.2008807461E-01    0.3986372839E-01
    0.2900000000E+03    0.1180545381E+00    0.4023209526E+00    0.4913538179E-01    0.2034201385E-01    0.4148789721E-01
    0.3100000000E+03    0.1225038151E+00    0.4068306219E+00    0.5046409230E-01    0.2056072706E-01    0.4305279842E-01
    0.3300000000E+03    0.1268015786E+00    0.4107536693E+00    0.5171705290E-01    0.2074954775E-01    0.4456449598E-01
    0.3500000000E+03    0.1309623150E+00    0.4141752885E+00    0.5290283734E-01    0.2091281600E-01    0.4602807607E-01
    0.3700000000E+03    0.1349982927E+00    0.4171654731E+00    0.5402867012E-01    0.2105409765E-01    0.4744784619E-01
    0.3900000000E+03    0.1389199930E+00    0.4197822333E+00    0.5510068992E-01    0.2117634825E-01    0.4882748645E-01
    0.4100000000E+03    0.1427364423E+00    0.4220740312E+00    0.5612415282E-01    0.2128203711E-01    0.5017016604E-01
    0.4300000000E+03    0.1464554704E+00    0.4240816487E+00    0.5710359066E-01    0.2137324239E-01    0.5147863415E-01
    0.4500000000E+03    0.1500839152E+00    0.4258396346E+00    0.5804293609E-01    0.2145172486E-01    0.5275529158E-01
    0.4700000000E+03    0.1536277847E+00    0.4273774376E+00    0.5894562200E-01    0.2151898560E-01    0.5400224784E-01
    0.4900000000E+03    0.1570923884E+00    0.4287203029E+00    0.5981466146E-01    0.2157631163E-01    0.5522136712E-01
    0.1000000000E+03    0.6245214833E-01    0.2915596215E+00    0.2927436837E-01    0.1480363608E-01    0.2193940829E-01
    0.3000000000E+03    0.1202991222E+00    0.4046551418E+00    0.4980980313E-01    0.2045541404E-01    0.4227735162E-01
    0.5000000000E+03    0.1587964602E+00    0.4293255523E+00    0.6023740677E-01    0.2160160189E-01    0.5582101267E-01
    0.7000000000E+03    0.1896291000E+00    0.4351638388E+00    0.6743257620E-01    0.2178823839E-01    0.6667292002E-01
    0.9000000000E+03    0.2157850488E+00    0.4346718590E+00    0.7303197526E-01    0.2165340953E-01    0.7588215530E-01
    0.1100000000E+04    0.2385452480E+00    0.4316708858E+00    0.7767252003E-01    0.2139297029E-01    0.8389841152E-01
    0.1300000000E+04    0.2586207500E+00    0.4276519207E+00    0.8166818716E-01    0.2108381263E-01    0.9097129198E-01
    0.1500000000E+04    0.2764748615E+00    0.4232799813E+00    0.8519737328E-01    0.2076047479E-01    0.9726342863E-01
    0.1700000000E+04    0.2924427262E+00    0.4188737884E+00    0.8837155507E-01    0.2043961421E-01    0.1028924709E+00
    0.1900000000E+04    0.3067838405E+00    0.4145900102E+00    0.9126530624E-01    0.2012944181E-01    0.1079495227E+00
    0.2100000000E+04    0.3197081054E+00    0.4105037153E+00    0.9393113481E-01    0.1983386599E-01    0.1125082874E+00
    0.2300000000E+04    0.3313901137E+00    0.4066469186E+00    0.9640751449E-01    0.1955449500E-01    0.1166300808E+00
    0.2500000000E+04    0.3419777145E+00    0.4030283566E+00    0.9872354775E-01    0.1929167536E-01    0.1203668360E+00
    0.2700000000E+04    0.3515975815E+00    0.3996441525E+00    0.1009018285E+00    0.1904505944E-01    0.1237630561E+00
    0.2900000000E+04    0.3603591001E+00    0.3964837752E+00    0.1029602812E+00    0.1881392745E-01    0.1268571777E+00
    0.3100000000E+04    0.3683572468E+00    0.3935334444E+00    0.1049133882E+00    0.1859737472E-01    0.1296825797E+00
    0.3300000000E+04    0.3756748215E+00    0.3907780969E+00    0.1067730348E+00    0.1839442191E-01    0.1322683669E+00
    0.3500000000E+04    0.3823842389E+00    0.3882025165E+00    0.1085491075E+00    0.1820407983E-01    0.1346399975E+00
    0.3700000000E+04    0.3885489997E+00    0.3857919710E+00    0.1102499279E+00    0.1802538692E-01    0.1368197996E+00
    0.3900000000E+04    0.3942249184E+00    0.3835325517E+00    0.1118825735E+00    0.1785743002E-01    0.1388274015E+00
    0.4100000000E+04    0.3994611607E+00    0.3814113348E+00    0.1134531190E+00    0.1769935476E-01    0.1406800960E+00
    0.4300000000E+04    0.4043011243E+00    0.3794164359E+00    0.1149668217E+00    0.1755036973E-01    0.1423931493E+00
    0.4500000000E+04    0.4087831929E+00    0.3775370017E+00    0.1164282653E+00    0.1740974669E-01    0.1439800657E+00
    0.4700000000E+04    0.4129413824E+00    0.3757631652E+00    0.1178414727E+00    0.1727681854E-01    0.1454528143E+00
    0.4900000000E+04    0.4168058965E+00    0.3740859824E+00    0.1192099961E+00    0.1715097607E-01    0.1468220245E+00
    0.1000000000E+04    0.2275371677E+00    0.4333630982E+00    0.7544803486E-01    0.2153261618E-01    0.8002099397E-01
    0.3000000000E+04    0.3644481574E+00    0.3949832817E+00    0.1039492072E+00    0.1870388906E-01    0.1283015574E+00
    0.5000000000E+04    0.4186365409E+00    0.3732810761E+00    0.1198785008E+00    0.1709053643E-01    0.1474707998E+00
    0.7000000000E+04    0.4449783130E+00    0.3606719313E+00    0.1315123454E+00    0.1614340958E-01    0.1568225040E+00
    0.9000000000E+04    0.4597852491E+00    0.3521383044E+00    0.1408432041E+00    0.1550988695E-01    0.1621002333E+00
    0.1100000000E+05    0.4690122196E+00    0.3457184900E+00    0.1487058280E+00    0.1504382826E-01    0.1654034673E+00
    0.1300000000E+05    0.4752074544E+00    0.3405438459E+00    0.1555384537E+00    0.1467773046E-01    0.1676317603E+00
    0.1500000000E+05    0.4796053280E+00    0.3361778969E+00    0.1616028115E+00    0.1437667993E-01    0.1692214251E+00
    0.1700000000E+05    0.4828638712E+00    0.3323773800E+00    0.1670690220E+00    0.1412085436E-01    0.1704053675E+00
    0.1900000000E+05    0.4853612012E+00    0.3289950116E+00    0.1720545201E+00    0.1389812637E-01    0.1713176065E+00
    0.2100000000E+05    0.4873280052E+00    0.3259355027E+00    0.1766441140E+00    0.1370061678E-01    0.1720400244E+00
    0.2300000000E+05    0.4889120547E+00    0.3231338088E+00    0.1809012415E+00    0.1352295013E-01    0.1726251514E+00
    0.2500000000E+05    0.4902119034E+00    0.3205435471E+00    0.1848747124E+00    0.1336130873E-01    0.1731080758E+00
    0.2700000000E+05    0.4912955445E+00    0.3181304307E+00    0.1886029603E+00    0.1321288901E-01    0.1735130436E+00
    0.2900000000E+05    0.4922112587E+00    0.3158683444E+00    0.1921168390E+00    0.1307557345E-01    0.1738572999E+00
    0.3100000000E+05    0.4929941892E+00    0.3137368923E+00    0.1954415274E+00    0.1294772410E-01    0.1741534181E+00
    0.3300000000E+05    0.4936704737E+00    0.3117198043E+00    0.1985978646E+00    0.1282804776E-01    0.1744107656E+00
    0.3500000000E+05    0.4942599220E+00    0.3098038639E+00    0.2016033107E+00    0.1271550524E-01    0.1746364543E+00
    0.3700000000E+05    0.4947778008E+00    0.3079781674E+00    0.2044726525E+00    0.1260924854E-01    0.1748359749E+00
    0.3900000000E+05    0.4952360512E+00    0.3062335972E+00    0.2072185322E+00    0.1250857629E-01    0.1750136297E+00
    0.4100000000E+05    0.4956441376E+00    0.3045624386E+00    0.2098518507E+00    0.1241290148E-01    0.1751728350E+00
    0.4300000000E+05    0.4960096516E+00    0.3029580968E+00    0.2123820786E+00    0.1232172759E-01    0.1753163361E+00
    0.4500000000E+05    0.4963387490E+00    0.3014148819E+00    0.2148175004E+00    0.1223463066E-01    0.1754463632E+00
    0.4700000000E+05    0.4966364698E+00    0.2999278455E+00    0.2171654082E+00    0.1215124565E-01    0.1755647458E+00
    0.4900000000E+05    0.4969069786E+00    0.2984926520E+00    0.2194322568E+00    0.1207125586E-01    0.1756729984E+00
    0.1000000000E+05    0.4648921500E+00    0.3487331065E+00    0.1449249833E+00    0.1526123231E-01    0.1639266443E+00
    0.3000000000E+05    0.4926175141E+00    0.3147873881E+00    0.1938014405E+00    0.1301055318E-01    0.1740107288E+00
    0.5000000000E+05    0.4970331355E+00    0.2977932839E+00    0.2205371036E+00    0.1203244632E-01    0.1757237294E+00
    0.7000000000E+05    0.4987281899E+00    0.2857959964E+00    0.2394918647E+00    0.1138243398E-01    0.1764261407E+00
    0.9000000000E+05    0.4996048122E+00    0.2764065094E+00    0.2543035980E+00    0.1089182329E-01    0.1768141427E+00
    0.1100000000E+06    0.5001331573E+00    0.2686554097E+00    0.2665050600E+00    0.1049697778E-01    0.1770637604E+00
    0.1300000000E+06    0.5004827922E+00    0.2620402329E+00    0.2768982570E+00    0.1016646099E-01    0.1772399339E+00
    0.1500000000E+06    0.5007292068E+00    0.2562633822E+00    0.2859591913E+00    0.9882288297E-02    0.1773722370E+00
    0.1700000000E+06    0.5009109162E+00    0.2511327693E+00    0.2939950041E+00    0.9633156654E-02    0.1774761041E+00
    0.1900000000E+06    0.5010495511E+00    0.2465166477E+00    0.3012161016E+00    0.9411478191E-02    0.1775604022E+00
    0.2100000000E+06    0.5011581607E+00    0.2423204619E+00    0.3077732731E+00    0.9211903211E-02    0.1776306024E+00
    0.2300000000E+06    0.5012450653E+00    0.2384739079E+00    0.3137784637E+00    0.9030514024E-02    0.1776902725E+00
    0.2500000000E+06    0.5013158100E+00    0.2349232109E+00    0.3193171736E+00    0.8864353249E-02    0.1777418442E+00
    0.2700000000E+06    0.5013742265E+00    0.2316262710E+00    0.3244562479E+00    0.8711132298E-02    0.1777870356E+00
    0.2900000000E+06    0.5014230433E+00    0.2285494806E+00    0.3292489791E+00    0.8569043078E-02    0.1778270976E+00
    0.3100000000E+06    0.5014642533E+00    0.2256655646E+00    0.3337385667E+00    0.8436631814E-02    0.1778629642E+00
    0.3300000000E+06    0.5014993446E+00    0.2229520698E+00    0.3379605338E+00    0.8312711872E-02    0.1778953483E+00
    0.3500000000E+06    0.5015294491E+00    0.2203902829E+00    0.3419444569E+00    0.8196301914E-02    0.1779248041E+00
    0.3700000000E+06    0.5015554424E+00    0.2179644366E+00    0.3457152323E+00    0.8086581021E-02    0.1779517696E+00
    0.3900000000E+06    0.5015780117E+00    0.2156611183E+00    0.3492940204E+00    0.7982855466E-02    0.1779765963E+00
    0.4100000000E+06    0.5015977034E+00    0.2134688194E+00    0.3526989625E+00    0.7884533695E-02    0.1779995695E+00
    0.4300000000E+06    0.5016149570E+00    0.2113775895E+00    0.3559457323E+00    0.7791107175E-02    0.1780209237E+00
    0.4500000000E+06    0.5016301297E+00    0.2093787648E+00    0.3590479666E+00    0.7702135543E-02    0.1780408536E+00
    0.4700000000E+06    0.5016435146E+00    0.2074647548E+00    0.3620176056E+00    0.7617234937E-02    0.1780595223E+00
    0.4900000000E+06    0.5016553541E+00    0.2056288705E+00    0.3648651646E+00    0.7536068721E-02    0.1780770678E+00
    0.1000000000E+06    0.4998985564E+00    0.2723641724E+00    0.2606700082E+00    0.1068483514E-01    0.1769509329E+00
    0.3000000000E+06    0.5014444964E+00    0.2270849152E+00    0.3315292887E+00    0.8501707304E-02    0.1778455065E+00
    0.5000000000E+06    0.5016607589E+00    0.2047383471E+00    0.3662461153E+00    0.7496791865E-02    0.1780854567E+00
    0.7000000000E+06    0.5017227749E+00    0.1898903293E+00    0.3892438556E+00    0.6850698337E-02    0.1782153885E+00
    0.9000000000E+06    0.5017411733E+00    0.1788390367E+00    0.4063300774E+00    0.6380140959E-02    0.1783026873E+00
    0.1100000000E+07    0.5017429040E+00    0.1700858655E+00    0.4198462948E+00    0.6013409706E-02    0.1783678748E+00
    0.1300000000E+07    0.5017372768E+00    0.1628720091E+00    0.4309750998E+00    0.5715026097E-02    0.1784196803E+00
    0.1500000000E+07    0.5017281793E+00    0.1567596496E+00    0.4403975958E+00    0.5464876319E-02    0.1784625698E+00
    0.1700000000E+07    0.5017174374E+00    0.1514732451E+00    0.4485418475E+00    0.5250479577E-02    0.1784991157E+00
    0.1900000000E+07    0.5017059775E+00    0.1468282215E+00    0.4556942837E+00    0.5063573798E-02    0.1785309277E+00
    0.2100000000E+07    0.5016942934E+00    0.1426949741E+00    0.4620558476E+00    0.4898416077E-02    0.1785590773E+00
    0.2300000000E+07    0.5016826558E+00    0.1389790725E+00    0.4677728356E+00    0.4750859075E-02    0.1785843121E+00
    0.2500000000E+07    0.5016712143E+00    0.1356096349E+00    0.4729549893E+00    0.4617814128E-02    0.1786071735E+00
    0.2700000000E+07    0.5016600498E+00    0.1325321341E+00    0.4776866805E+00    0.4496921979E-02    0.1786280660E+00
    0.2900000000E+07    0.5016492037E+00    0.1297037520E+00    0.4820341300E+00    0.4386341839E-02    0.1786472994E+00
    0.3100000000E+07    0.5016386938E+00    0.1270902708E+00    0.4860502335E+00    0.4284611261E-02    0.1786651162E+00
    0.3300000000E+07    0.5016285236E+00    0.1246639293E+00    0.4897778881E+00    0.4190550143E-02    0.1786817094E+00
    0.3500000000E+07    0.5016186887E+00    0.1224019064E+00    0.4932523443E+00    0.4103193224E-02    0.1786972356E+00
    0.3700000000E+07    0.5016091796E+00    0.1202852237E+00    0.4965029069E+00    0.4021741501E-02    0.1787118230E+00
    0.3900000000E+07    0.5015999842E+00    0.1182979356E+00    0.4995541900E+00    0.3945526577E-02    0.1787255781E+00
    0.4100000000E+07    0.5015910889E+00    0.1164265218E+00    0.5024270581E+00    0.3873984017E-02    0.1787385906E+00
    0.4300000000E+07    0.5015824798E+00    0.1146594233E+00    0.5051393438E+00    0.3806633128E-02    0.1787509361E+00
    0.4500000000E+07    0.5015741427E+00    0.1129866847E+00    0.5077064023E+00    0.3743061399E-02    0.1787626796E+00
    0.4700000000E+07    0.5015660641E+00    0.1113996733E+00    0.5101415454E+00    0.3682912362E-02    0.1787738768E+00
    0.4900000000E+07    0.5015582306E+00    0.1098908575E+00    0.5124563843E+00    0.3625876024E-02    0.1787845762E+00
    0.1000000000E+07    0.5017433446E+00    0.1742330289E+00    0.4134442356E+00    0.6186516735E-02    0.1783373534E+00
    0.3000000000E+07    0.5016439062E+00    0.1283720150E+00    0.4840807159E+00    0.4334449826E-02    0.1786563718E+00
    0.5000000000E+07    0.5015544019E+00    0.1091636759E+00    0.5135719221E+00    0.3598439046E-02    0.1787897527E+00
    0.7000000000E+07    0.5014880143E+00    0.9747666936E-01    0.5314906321E+00    0.3162162439E-02    0.1788750789E+00
    0.9000000000E+07    0.5014357858E+00    0.8928882143E-01    0.5440334253E+00    0.2861852641E-02    0.1789379242E+00
    0.1100000000E+08    0.5013928389E+00    0.8309420927E-01    0.5535168281E+00    0.2637660204E-02    0.1789876950E+00
    0.1300000000E+08    0.5013564022E+00    0.7817289303E-01    0.5610472216E+00    0.2461450385E-02    0.1790289060E+00
    0.1500000000E+08    0.5013247731E+00    0.7412804816E-01    0.5672339931E+00    0.2317915689E-02    0.1790640750E+00
    0.1700000000E+08    0.5012968359E+00    0.7071924832E-01    0.5724461462E+00    0.2197879400E-02    0.1790947500E+00
    0.1900000000E+08    0.5012718212E+00    0.6779059272E-01    0.5769228441E+00    0.2095444019E-02    0.1791219513E+00
    0.2100000000E+08    0.5012491768E+00    0.6523567110E-01    0.5808272636E+00    0.2006615254E-02    0.1791463868E+00
    0.2300000000E+08    0.5012284931E+00    0.6297887516E-01    0.5842753085E+00    0.1928574320E-02    0.1791685678E+00
    0.2500000000E+08    0.5012094581E+00    0.6096471436E-01    0.5873520174E+00    0.1859265031E-02    0.1791888759E+00
    0.2700000000E+08    0.5011918286E+00    0.5915136188E-01    0.5901214726E+00    0.1797146025E-02    0.1792076031E+00
