  Pressure (Pa) 22mC5-400 (mol/kg) 2mC6-400 (mol/kg) 3mC6-400 (mol/kg) 33mC5-400 (mol/kg) 23mC5-400 (mol/kg)
    0.1000000000E+01    0.1061007619E-02    0.2383996391E-02    0.5269574860E-02    0.2588191852E-03    0.9315052853E-04
    0.3000000000E+01    0.3156172604E-02    0.6994283767E-02    0.1547108476E-01    0.7594231223E-03    0.2770957914E-03
    0.5000000000E+01    0.5216483883E-02    0.1140529206E-01    0.2524694054E-01    0.1238503249E-02    0.4579830400E-03
    0.7000000000E+01    0.7243034415E-02    0.1562924870E-01    0.3462436165E-01    0.1697381442E-02    0.6359081569E-03
    0.9000000000E+01    0.9236870408E-02    0.1967738032E-01    0.4362827258E-01    0.2137271211E-02    0.8109629231E-03
    0.1100000000E+02    0.1119899381E-01    0.2356001485E-01    0.5228154042E-01    0.2559288770E-02    0.9832352375E-03
    0.1300000000E+02    0.1313036464E-01    0.2728667117E-01    0.6060518356E-01    0.2964462754E-02    0.1152809321E-02
    0.1500000000E+02    0.1503190319E-01    0.3086613816E-01    0.6861855537E-01    0.3353742792E-02    0.1319765910E-02
    0.1700000000E+02    0.1690449206E-01    0.3430654459E-01    0.7633950650E-01    0.3728007073E-02    0.1484182432E-02
    0.1900000000E+02    0.1874897808E-01    0.3761542101E-01    0.8378452843E-01    0.4088069059E-02    0.1646133182E-02
    0.2100000000E+02    0.2056617416E-01    0.4079975473E-01    0.9096888089E-01    0.4434683440E-02    0.1805689473E-02
    0.2300000000E+02    0.2235686093E-01    0.4386603879E-01    0.9790670522E-01    0.4768551441E-02    0.1962919791E-02
    0.2500000000E+02    0.2412178838E-01    0.4682031567E-01    0.1046111254E+00    0.5090325552E-02    0.2117889934E-02
    0.2700000000E+02    0.2586167736E-01    0.4966821637E-01    0.1110943381E+00    0.5400613766E-02    0.2270663140E-02
    0.2900000000E+02    0.2757722096E-01    0.5241499546E-01    0.1173676940E+00    0.5699983373E-02    0.2421300216E-02
    0.3100000000E+02    0.2926908591E-01    0.5506556255E-01    0.1234417695E+00    0.5988964365E-02    0.2569859655E-02
    0.3300000000E+02    0.3093791377E-01    0.5762451065E-01    0.1293264327E+00    0.6268052509E-02    0.2716397741E-02
    0.3500000000E+02    0.3258432215E-01    0.6009614167E-01    0.1350309013E+00    0.6537712109E-02    0.2860968659E-02
    0.3700000000E+02    0.3420890584E-01    0.6248448956E-01    0.1405637961E+00    0.6798378507E-02    0.3003624590E-02
    0.3900000000E+02    0.3581223783E-01    0.6479334115E-01    0.1459331884E+00    0.7050460342E-02    0.3144415805E-02
    0.4100000000E+02    0.3739487034E-01    0.6702625515E-01    0.1511466437E+00    0.7294341603E-02    0.3283390752E-02
    0.4300000000E+02    0.3895733575E-01    0.6918657931E-01    0.1562112604E+00    0.7530383488E-02    0.3420596137E-02
    0.4500000000E+02    0.4050014752E-01    0.7127746610E-01    0.1611337061E+00    0.7758926100E-02    0.3556077007E-02
    0.4700000000E+02    0.4202380096E-01    0.7330188696E-01    0.1659202494E+00    0.7980289987E-02    0.3689876820E-02
    0.4900000000E+02    0.4352877413E-01    0.7526264530E-01    0.1705767900E+00    0.8194777550E-02    0.3822037515E-02
    0.1000000000E+02    0.1022183522E-01    0.2163877181E-01    0.4799738218E-01    0.2350447780E-02    0.8974415391E-03
    0.3000000000E+02    0.2842607260E-01    0.5375201133E-01    0.1204290092E+00    0.5845740692E-02    0.2495836072E-02
    0.5000000000E+02    0.4427440046E-01    0.7621998410E-01    0.1728580586E+00    0.8299532569E-02    0.3887515902E-02
    0.7000000000E+02    0.5831046149E-01    0.9259533816E-01    0.2128504511E+00    0.1009519214E-01    0.5120176229E-02
    0.9000000000E+02    0.7091695374E-01    0.1048729222E+00    0.2445498720E+00    0.1144783781E-01    0.6227393245E-02
    0.1100000000E+03    0.8237157675E-01    0.1142652084E+00    0.2704222597E+00    0.1248817157E-01    0.7233531769E-02
    0.1300000000E+03    0.9288108369E-01    0.1215537321E+00    0.2920304520E+00    0.1330043408E-01    0.8156732414E-02
    0.1500000000E+03    0.1026028369E+00    0.1272655987E+00    0.3104151134E+00    0.1394144998E-01    0.9010802564E-02
    0.1700000000E+03    0.1116589182E+00    0.1317693465E+00    0.3262973917E+00    0.1445096393E-01    0.9806454260E-02
    0.1900000000E+03    0.1201456382E+00    0.1353303156E+00    0.3401937152E+00    0.1485760702E-01    0.1055213840E-01
    0.2100000000E+03    0.1281401074E+00    0.1381442577E+00    0.3524842406E+00    0.1518251672E-01    0.1125462131E-01
    0.2300000000E+03    0.1357048820E+00    0.1403585896E+00    0.3634554498E+00    0.1544162523E-01    0.1191939229E-01
    0.2500000000E+03    0.1428913122E+00    0.1420863017E+00    0.3733276339E+00    0.1564715669E-01    0.1255095736E-01
    0.2700000000E+03    0.1497419990E+00    0.1434153304E+00    0.3822731874E+00    0.1580863589E-01    0.1315305490E-01
    0.2900000000E+03    0.1562926272E+00    0.1444150337E+00    0.3904291186E+00    0.1593358520E-01    0.1372881637E-01
    0.3100000000E+03    0.1625733502E+00    0.1451407647E+00    0.3979058081E+00    0.1602801684E-01    0.1428088789E-01
    0.3300000000E+03    0.1686098529E+00    0.1456371647E+00    0.4047932713E+00    0.1609678728E-01    0.1481152346E-01
    0.3500000000E+03    0.1744241749E+00    0.1459405750E+00    0.4111657202E+00    0.1614385689E-01    0.1532265721E-01
    0.3700000000E+03    0.1800353568E+00    0.1460808297E+00    0.4170849413E+00    0.1617248304E-01    0.1581596009E-01
    0.3900000000E+03    0.1854599512E+00    0.1460826083E+00    0.4226028360E+00    0.1618536574E-01    0.1629288475E-01
    0.4100000000E+03    0.1907124325E+00    0.1459664674E+00    0.4277633564E+00    0.1618475880E-01    0.1675470144E-01
    0.4300000000E+03    0.1958055259E+00    0.1457496370E+00    0.4326039993E+00    0.1617255571E-01    0.1720252692E-01
    0.4500000000E+03    0.2007504759E+00    0.1454466420E+00    0.4371569720E+00    0.1615035661E-01    0.1763734802E-01
    0.4700000000E+03    0.2055572656E+00    0.1450697912E+00    0.4414501117E+00    0.1611952109E-01    0.1806004087E-01
    0.4900000000E+03    0.2102347978E+00    0.1446295654E+00    0.4455076177E+00    0.1608121005E-01    0.1847138678E-01
    0.1000000000E+03    0.7677396218E-01    0.1098733883E+00    0.2581012633E+00    0.1200097105E-01    0.6741843806E-02
    0.3000000000E+03    0.1594650274E+00    0.1448091364E+00    0.3942463255E+00    0.1598428854E-01    0.1400766424E-01
    0.5000000000E+03    0.2125276165E+00    0.1443885402E+00    0.4474547227E+00    0.1605956808E-01    0.1867302615E-01
    0.7000000000E+03    0.2531588123E+00    0.1378466168E+00    0.4779889413E+00    0.1541378707E-01    0.2224708202E-01
    0.9000000000E+03    0.2864734282E+00    0.1301606585E+00    0.4985318622E+00    0.1460598463E-01    0.2517871822E-01
    0.1100000000E+04    0.3147215621E+00    0.1226261743E+00    0.5136184945E+00    0.1378965734E-01    0.2766541005E-01
    0.1300000000E+04    0.3391382513E+00    0.1156198753E+00    0.5253313675E+00    0.1301426475E-01    0.2981554922E-01
    0.1500000000E+04    0.3605053351E+00    0.1092307281E+00    0.5347812858E+00    0.1229523863E-01    0.3169775579E-01
    0.1700000000E+04    0.3793674611E+00    0.1034477012E+00    0.5426233941E+00    0.1163532642E-01    0.3335983576E-01
    0.1900000000E+04    0.3961294492E+00    0.9822508838E-01    0.5492730963E+00    0.1103228622E-01    0.3483732571E-01
    0.2100000000E+04    0.4111057647E+00    0.9350743801E-01    0.5550085935E+00    0.1048198082E-01    0.3615783420E-01
    0.2300000000E+04    0.4245482196E+00    0.8923944872E-01    0.5600243529E+00    0.9979708165E-02    0.3734347232E-01
    0.2500000000E+04    0.4366627974E+00    0.8536979581E-01    0.5644610777E+00    0.9520790071E-02    0.3841232980E-01
    0.2700000000E+04    0.4476205984E+00    0.8185238180E-01    0.5684234980E+00    0.9100827389E-02    0.3937943519E-01
    0.2900000000E+04    0.4575653777E+00    0.7864647522E-01    0.5719914400E+00    0.8715798613E-02    0.4025741713E-01
    0.3100000000E+04    0.4666189821E+00    0.7571638311E-01    0.5752269871E+00    0.8362083388E-02    0.4105698128E-01
    0.3300000000E+04    0.4748854176E+00    0.7303095118E-01    0.5781792684E+00    0.8036450362E-02    0.4178726713E-01
    0.3500000000E+04    0.4824539809E+00    0.7056302622E-01    0.5808877530E+00    0.7736029054E-02    0.4245612274E-01
    0.3700000000E+04    0.4894017226E+00    0.6828894114E-01    0.5833845714E+00    0.7458275729E-02    0.4307032089E-01
    0.3900000000E+04    0.4957954199E+00    0.6618804701E-01    0.5856961889E+00    0.7200938355E-02    0.4363573213E-01
    0.4100000000E+04    0.5016931754E+00    0.6424229971E-01    0.5878446326E+00    0.6962023128E-02    0.4415746510E-01
    0.4300000000E+04    0.5071457277E+00    0.6243590039E-01    0.5898484086E+00    0.6739763705E-02    0.4463998159E-01
    0.4500000000E+04    0.5121975348E+00    0.6075498561E-01    0.5917231965E+00    0.6532593527E-02    0.4508719159E-01
    0.4700000000E+04    0.5168876748E+00    0.5918736166E-01    0.5934823835E+00    0.6339121277E-02    0.4550253240E-01
    0.4900000000E+04    0.5212506004E+00    0.5772227732E-01    0.5951374792E+00    0.6158109282E-02    0.4588903489E-01
    0.1000000000E+04    0.3011390625E+00    0.1263404125E+00    0.5065945646E+00    0.1419457279E-01    0.2646963052E-01
    0.3000000000E+04    0.4621966987E+00    0.7714899956E-01    0.5736474331E+00    0.8535237600E-02    0.4066639706E-01
    0.5000000000E+04    0.5233190177E+00    0.5702517381E-01    0.5959291581E+00    0.6071926419E-02    0.4607232166E-01
    0.7000000000E+04    0.5532925128E+00    0.4666456094E-01    0.6081351434E+00    0.4790504613E-02    0.4873305271E-01
    0.9000000000E+04    0.5704543793E+00    0.4036498503E-01    0.6161342124E+00    0.4017656183E-02    0.5026259428E-01
    0.1100000000E+05    0.5813569944E+00    0.3609549411E-01    0.6219017849E+00    0.3501845347E-02    0.5123842382E-01
    0.1300000000E+05    0.5888101780E+00    0.3298066801E-01    0.6263169887E+00    0.3132197004E-02    0.5190849570E-01
    0.1500000000E+05    0.5941879381E+00    0.3058643514E-01    0.6298390267E+00    0.2853201104E-02    0.5239421852E-01
    0.1700000000E+05    0.5982313365E+00    0.2867397279E-01    0.6327344634E+00    0.2634245053E-02    0.5276116095E-01
    0.1900000000E+05    0.6013713597E+00    0.2710103287E-01    0.6351701439E+00    0.2457134522E-02    0.5304750895E-01
    0.2100000000E+05    0.6038740483E+00    0.2577746169E-01    0.6372565851E+00    0.2310395674E-02    0.5327686744E-01
    0.2300000000E+05    0.6059117267E+00    0.2464321151E-01    0.6390703042E+00    0.2186437846E-02    0.5346454832E-01
    0.2500000000E+05    0.6076005321E+00    0.2365663340E-01    0.6406661958E+00    0.2080037552E-02    0.5362088628E-01
    0.2700000000E+05    0.6090213775E+00    0.2278785356E-01    0.6420848100E+00    0.1987480008E-02    0.5375309238E-01
    0.2900000000E+05    0.6102322461E+00    0.2201483110E-01    0.6433568419E+00    0.1906048732E-02    0.5386634209E-01
    0.3100000000E+05    0.6112757069E+00    0.2132090930E-01    0.6445060146E+00    0.1833709307E-02    0.5396444099E-01
    0.3300000000E+05    0.6121836761E+00    0.2069323799E-01    0.6455509931E+00    0.1768906352E-02    0.5405024682E-01
    0.3500000000E+05    0.6129805262E+00    0.2012172454E-01    0.6465066929E+00    0.1710429122E-02    0.5412594536E-01
    0.3700000000E+05    0.6136851739E+00    0.1959831697E-01    0.6473851967E+00    0.1657320089E-02    0.5419323587E-01
    0.3900000000E+05    0.6143125141E+00    0.1911650192E-01    0.6481964114E+00    0.1608811286E-02    0.5425345851E-01
    0.4100000000E+05    0.6148744277E+00    0.1867094569E-01    0.6489485475E+00    0.1564279027E-02    0.5430768405E-01
    0.4300000000E+05    0.6153805015E+00    0.1825723241E-01    0.6496484759E+00    0.1523211083E-02    0.5435677792E-01
    0.4500000000E+05    0.6158385532E+00    0.1787167002E-01    0.6503019962E+00    0.1485182494E-02    0.5440144703E-01
    0.4700000000E+05    0.6162550185E+00    0.1751114403E-01    0.6509140429E+00    0.1449837455E-02    0.5444227434E-01
    0.4900000000E+05    0.6166352418E+00    0.1717300595E-01    0.6514888445E+00    0.1416875576E-02    0.5447974474E-01
    0.1000000000E+05    0.5764635413E+00    0.3804623456E-01    0.6192278205E+00    0.3736423666E-02    0.5079991421E-01
    0.3000000000E+05    0.6107727006E+00    0.2165886068E-01    0.6439455182E+00    0.1868849144E-02    0.5391708835E-01
    0.5000000000E+05    0.6168131897E+00    0.1701161049E-01    0.6517634381E+00    0.1401206950E-02    0.5449735079E-01
    0.7000000000E+05    0.6192501214E+00    0.1454697609E-01    0.6559693522E+00    0.1167083744E-02    0.5474441065E-01
    0.9000000000E+05    0.6205553812E+00    0.1294952045E-01    0.6586990537E+00    0.1020452012E-02    0.5488382382E-01
    0.1100000000E+06    0.6213649851E+00    0.1180262310E-01    0.6606553816E+00    0.9176182042E-03    0.5497476554E-01
    0.1300000000E+06    0.6219145648E+00    0.1092599095E-01    0.6621468439E+00    0.8403765659E-03    0.5503957830E-01
    0.1500000000E+06    0.6223111773E+00    0.1022687301E-01    0.6633330727E+00    0.7796150491E-03    0.5508860422E-01
    0.1700000000E+06    0.6226103543E+00    0.9651912836E-02    0.6643060949E+00    0.7302012376E-03    0.5512730739E-01
    0.1900000000E+06    0.6228437255E+00    0.9167902331E-02    0.6651232071E+00    0.6889942351E-03    0.5515885710E-01
    0.2100000000E+06    0.6230306098E+00    0.8752924291E-02    0.6658222038E+00    0.6539496802E-03    0.5518522411E-01
    0.2300000000E+06    0.6231834639E+00    0.8391839710E-02    0.6664291640E+00    0.6236719223E-03    0.5520770187E-01
    0.2500000000E+06    0.6233106753E+00    0.8073803894E-02    0.6669627452E+00    0.5971712283E-03    0.5522717666E-01
    0.2700000000E+06    0.6234180957E+00    0.7790813403E-02    0.6674366972E+00    0.5737235704E-03    0.5524427758E-01
    0.2900000000E+06    0.6235099298E+00    0.7536813025E-02    0.6678614075E+00    0.5527854124E-03    0.5525946447E-01
    0.3100000000E+06    0.6235892758E+00    0.7307124041E-02    0.6682448906E+00    0.5339396867E-03    0.5527308190E-01
    0.3300000000E+06    0.6236584659E+00    0.7098065383E-02    0.6685934428E+00    0.5168603087E-03    0.5528539361E-01
    0.3500000000E+06    0.6237192888E+00    0.6906695109E-02    0.6689120892E+00    0.5012881500E-03    0.5529660523E-01
    0.3700000000E+06    0.6237731391E+00    0.6730629447E-02    0.6692048959E+00    0.4870143385E-03    0.5530687971E-01
    0.3900000000E+06    0.6238211194E+00    0.6567913289E-02    0.6694751934E+00    0.4738683834E-03    0.5531634798E-01
    0.4100000000E+06    0.6238641133E+00    0.6416925671E-02    0.6697257394E+00    0.4617095589E-03    0.5532511662E-01
    0.4300000000E+06    0.6239028367E+00    0.6276309581E-02    0.6699588398E+00    0.4504205407E-03    0.5533327337E-01
    0.4500000000E+06    0.6239378757E+00    0.6144919017E-02    0.6701764397E+00    0.4399026293E-03    0.5534089117E-01
    0.4700000000E+06    0.6239697147E+00    0.6021778490E-02    0.6703801928E+00    0.4300721141E-03    0.5534803125E-01
    0.4900000000E+06    0.6239987575E+00    0.5906051653E-02    0.6705715155E+00    0.4208574690E-03    0.5535474541E-01
    0.1000000000E+06    0.6210028466E+00    0.1233399910E-01    0.6597495632E+00    0.9650110538E-03    0.5493353301E-01
    0.3000000000E+06    0.6235510031E+00    0.7419179568E-02    0.6680578747E+00    0.5431231830E-03    0.5526645130E-01
    0.5000000000E+06    0.6240123385E+00    0.5850738897E-02    0.6706629037E+00    0.4164615287E-03    0.5535795684E-01
    0.7000000000E+06    0.6241966827E+00    0.5001109262E-02    0.6720619832E+00    0.3496331299E-03    0.5540778956E-01
    0.9000000000E+06    0.6242924522E+00    0.4447030288E-02    0.6729694904E+00    0.3067933337E-03    0.5544135307E-01
    0.1100000000E+07    0.6243493606E+00    0.4048502330E-02    0.6736197499E+00    0.2763718028E-03    0.5546644832E-01
    0.1300000000E+07    0.6243860307E+00    0.3743813344E-02    0.6741154644E+00    0.2533495839E-03    0.5548640773E-01
    0.1500000000E+07    0.6244109494E+00    0.3500921155E-02    0.6745097327E+00    0.2351519897E-03    0.5550294059E-01
    0.1700000000E+07    0.6244285096E+00    0.3301300354E-02    0.6748331511E+00    0.2203048079E-03    0.5551703319E-01
    0.1900000000E+07    0.6244411995E+00    0.3133388593E-02    0.6751047635E+00    0.2078953681E-03    0.5552930359E-01
    0.2100000000E+07    0.6244505263E+00    0.2989542809E-02    0.6753371293E+00    0.1973245663E-03    0.5554016345E-01
    0.2300000000E+07    0.6244574520E+00    0.2864479319E-02    0.6755389139E+00    0.1881807720E-03    0.5554990024E-01
    0.2500000000E+07    0.6244626167E+00    0.2754411844E-02    0.6757163163E+00    0.1801706200E-03    0.5555872230E-01
    0.2700000000E+07    0.6244664611E+00    0.2656545911E-02    0.6758739046E+00    0.1730786580E-03    0.5556678531E-01
    0.2900000000E+07    0.6244692973E+00    0.2568767561E-02    0.6760151298E+00    0.1667426323E-03    0.5557420859E-01
    0.3100000000E+07    0.6244713517E+00    0.2489443804E-02    0.6761426546E+00    0.1610377222E-03    0.5558108550E-01
    0.3300000000E+07    0.6244727920E+00    0.2417290287E-02    0.6762585708E+00    0.1558661306E-03    0.5558749049E-01
    0.3500000000E+07    0.6244737445E+00    0.2351280944E-02    0.6763645480E+00    0.1511500049E-03    0.5559348381E-01
    0.3700000000E+07    0.6244743061E+00    0.2290584735E-02    0.6764619371E+00    0.1468264992E-03    0.5559911494E-01
    0.3900000000E+07    0.6244745517E+00    0.2234520366E-02    0.6765518446E+00    0.1428442525E-03    0.5560442495E-01
    0.4100000000E+07    0.6244745402E+00    0.2182523235E-02    0.6766351868E+00    0.1391608261E-03    0.5560944836E-01
    0.4300000000E+07    0.6244743185E+00    0.2134120896E-02    0.6767127301E+00    0.1357408068E-03    0.5561421441E-01
    0.4500000000E+07    0.6244739240E+00    0.2088914547E-02    0.6767851205E+00    0.1325543802E-03    0.5561874808E-01
    0.4700000000E+07    0.6244733871E+00    0.2046564877E-02    0.6768529078E+00    0.1295762431E-03    0.5562307093E-01
    0.4900000000E+07    0.6244727323E+00    0.2006781101E-02    0.6769165626E+00    0.1267847629E-03    0.5562720164E-01
    0.1000000000E+07    0.6243242414E+00    0.4233183505E-02    0.6733186757E+00    0.2904270704E-03    0.5545469546E-01
    0.3000000000E+07    0.6244704106E+00    0.2528136083E-02    0.6760804626E+00    0.1638179378E-03    0.5557771031E-01
    0.5000000000E+07    0.6244723672E+00    0.1987771671E-02    0.6769469693E+00    0.1254530980E-03    0.5562920011E-01
    0.7000000000E+07    0.6244622682E+00    0.1696248152E-02    0.6774125613E+00    0.1052150460E-03    0.5566214264E-01
    0.9000000000E+07    0.6244506717E+00    0.1506627424E-02    0.6777146651E+00    0.9225222686E-04    0.5568640533E-01
    0.1100000000E+08    0.6244395046E+00    0.1370490943E-02    0.6779311866E+00    0.8305455285E-04    0.5570561936E-01
    0.1300000000E+08    0.6244291582E+00    0.1266554057E-02    0.6780962811E+00    0.7609905973E-04    0.5572152792E-01
    0.1500000000E+08    0.6244196558E+00    0.1183788342E-02    0.6782276115E+00    0.7060467818E-04    0.5573510318E-01
    0.1700000000E+08    0.6244109258E+00    0.1115828187E-02    0.6783353570E+00    0.6612436950E-04    0.5574694298E-01
    0.1900000000E+08    0.6244028789E+00    0.1058705983E-02    0.6784258549E+00    0.6238150284E-04    0.5575744130E-01
    0.2100000000E+08    0.6243954301E+00    0.1009802009E-02    0.6785032848E+00    0.5919457249E-04    0.5576687155E-01
    0.2300000000E+08    0.6243885049E+00    0.9673070039E-03    0.6785705309E+00    0.5643892476E-04    0.5577543121E-01
    0.2500000000E+08    0.6243820393E+00    0.9299255518E-03    0.6786296569E+00    0.5402575710E-04    0.5578326761E-01
    0.2700000000E+08    0.6243759792E+00    0.8967022792E-03    0.6786821834E+00    0.5188987673E-04    0.5579049357E-01
