  Pressure (Pa) 22mC5-400 (mol/kg) 2mC6-400 (mol/kg) 3mC6-400 (mol/kg) 33mC5-400 (mol/kg) 23mC5-400 (mol/kg)
    0.1000000000E+01    0.1059037071E-02    0.3980080594E-02    0.1585822867E-02    0.5832995849E-03    0.9297760637E-04
    0.3000000000E+01    0.3138913217E-02    0.1171539238E-01    0.4684275851E-02    0.1716944432E-02    0.2755812148E-03
    0.5000000000E+01    0.5169808005E-02    0.1916405562E-01    0.7689185284E-02    0.2808577277E-02    0.4538870343E-03
    0.7000000000E+01    0.7153932532E-02    0.2634091076E-01    0.1060512447E-01    0.3860372834E-02    0.6280890503E-03
    0.9000000000E+01    0.9093361799E-02    0.3325980401E-01    0.1343636744E-01    0.4874360120E-02    0.7983693092E-03
    0.1100000000E+02    0.1099004515E-01    0.3993366875E-01    0.1618691325E-01    0.5852434387E-02    0.9648988340E-03
    0.1300000000E+02    0.1284581575E-01    0.4637459907E-01    0.1886050787E-01    0.6796367899E-02    0.1127838456E-02
    0.1500000000E+02    0.1466239924E-01    0.5259391640E-01    0.2146066404E-01    0.7707819689E-02    0.1287339573E-02
    0.1700000000E+02    0.1644142159E-01    0.5860222980E-01    0.2399067934E-01    0.8588344408E-02    0.1443544839E-02
    0.1900000000E+02    0.1818441628E-01    0.6440949084E-01    0.2645365247E-01    0.9439400353E-02    0.1596588796E-02
    0.2100000000E+02    0.1989283090E-01    0.7002504342E-01    0.2885249819E-01    0.1026235677E-01    0.1746598449E-02
    0.2300000000E+02    0.2156803313E-01    0.7545766914E-01    0.3118996086E-01    0.1105850053E-01    0.1893693792E-02
    0.2500000000E+02    0.2321131628E-01    0.8071562875E-01    0.3346862684E-01    0.1182904214E-01    0.2037988298E-02
    0.2700000000E+02    0.2482390434E-01    0.8580669994E-01    0.3569093574E-01    0.1257512135E-01    0.2179589354E-02
    0.2900000000E+02    0.2640695663E-01    0.9073821188E-01    0.3785919084E-01    0.1329781219E-01    0.2318598676E-02
    0.3100000000E+02    0.2796157207E-01    0.9551707696E-01    0.3997556852E-01    0.1399812758E-01    0.2455112683E-02
    0.3300000000E+02    0.2948879313E-01    0.1001498197E+00    0.4204212697E-01    0.1467702364E-01    0.2589222838E-02
    0.3500000000E+02    0.3098960947E-01    0.1046426035E+00    0.4406081420E-01    0.1533540356E-01    0.2721015973E-02
    0.3700000000E+02    0.3246496128E-01    0.1090012551E+00    0.4603347534E-01    0.1597412119E-01    0.2850574580E-02
    0.3900000000E+02    0.3391574240E-01    0.1132312871E+00    0.4796185945E-01    0.1659398435E-01    0.2977977082E-02
    0.4100000000E+02    0.3534280317E-01    0.1173379185E+00    0.4984762572E-01    0.1719575785E-01    0.3103298090E-02
    0.4300000000E+02    0.3674695309E-01    0.1213260943E+00    0.5169234925E-01    0.1778016632E-01    0.3226608628E-02
    0.4500000000E+02    0.3812896328E-01    0.1252005027E+00    0.5349752635E-01    0.1834789679E-01    0.3347976356E-02
    0.4700000000E+02    0.3948956880E-01    0.1289655917E+00    0.5526457944E-01    0.1889960109E-01    0.3467465769E-02
    0.4900000000E+02    0.4082947073E-01    0.1326255841E+00    0.5699486164E-01    0.1943589801E-01    0.3585138378E-02
    0.1000000000E+02    0.1004692952E-01    0.3662659020E-01    0.1482148768E-01    0.5367772851E-02    0.8820926318E-03
    0.3000000000E+02    0.2718775252E-01    0.9314630873E-01    0.3892373304E-01    0.1365070577E-01    0.2387161765E-02
    0.5000000000E+02    0.4149186813E-01    0.1344174305E+00    0.5784661859E-01    0.1969845357E-01    0.3643311833E-02
    0.7000000000E+02    0.5380036184E-01    0.1656121718E+00    0.7323361757E-01    0.2426896021E-01    0.4724339463E-02
    0.9000000000E+02    0.6464029713E-01    0.1898231415E+00    0.8608755265E-01    0.2781543183E-01    0.5676491003E-02
    0.1100000000E+03    0.7436031433E-01    0.2090089098E+00    0.9705696458E-01    0.3062489743E-01    0.6530358496E-02
    0.1300000000E+03    0.8320121080E-01    0.2244677863E+00    0.1065810385E+00    0.3288763400E-01    0.7307071830E-02
    0.1500000000E+03    0.9133527553E-01    0.2370929810E+00    0.1149685194E+00    0.3473455637E-01    0.8021749773E-02
    0.1700000000E+03    0.9888945779E-01    0.2475182536E+00    0.1224432866E+00    0.3625855976E-01    0.8685532737E-02
    0.1900000000E+03    0.1059596533E+00    0.2562051309E+00    0.1291719758E+00    0.3752730007E-01    0.9306836250E-02
    0.2100000000E+03    0.1126198595E+00    0.2634972767E+00    0.1352814138E+00    0.3859116089E-01    0.9892154265E-02
    0.2300000000E+03    0.1189282393E+00    0.2696555637E+00    0.1408700075E+00    0.3948839284E-01    0.1044659122E-01
    0.2500000000E+03    0.1249312529E+00    0.2748813761E+00    0.1460154078E+00    0.4024852820E-01    0.1097422457E-01
    0.2700000000E+03    0.1306665441E+00    0.2793324944E+00    0.1507798019E+00    0.4089470866E-01    0.1147835811E-01
    0.2900000000E+03    0.1361650011E+00    0.2831341724E+00    0.1552136515E+00    0.4144530850E-01    0.1196170277E-01
    0.3100000000E+03    0.1414522571E+00    0.2863870170E+00    0.1593583873E+00    0.4191508933E-01    0.1242650830E-01
    0.3300000000E+03    0.1465498017E+00    0.2891726952E+00    0.1632483856E+00    0.4231603650E-01    0.1287466078E-01
    0.3500000000E+03    0.1514758169E+00    0.2915581352E+00    0.1669124426E+00    0.4265797463E-01    0.1330775604E-01
    0.3700000000E+03    0.1562458152E+00    0.2935986628E+00    0.1703748892E+00    0.4294902737E-01    0.1372715562E-01
    0.3900000000E+03    0.1608731331E+00    0.2953403746E+00    0.1736564466E+00    0.4319596520E-01    0.1413403007E-01
    0.4100000000E+03    0.1653693166E+00    0.2968219565E+00    0.1767748893E+00    0.4340447186E-01    0.1452939280E-01
    0.4300000000E+03    0.1697444262E+00    0.2980760903E+00    0.1797455653E+00    0.4357935063E-01    0.1491412685E-01
    0.4500000000E+03    0.1740072800E+00    0.2991305550E+00    0.1825818089E+00    0.4372468570E-01    0.1528900619E-01
    0.4700000000E+03    0.1781656498E+00    0.3000090957E+00    0.1852952702E+00    0.4384396953E-01    0.1565471300E-01
    0.4900000000E+03    0.1822264207E+00    0.3007321160E+00    0.1878961812E+00    0.4394020432E-01    0.1601185158E-01
    0.1000000000E+03    0.6962328304E-01    0.1999512595E+00    0.9177660923E-01    0.2929867304E-01    0.6114217434E-02
    0.3000000000E+03    0.1388335999E+00    0.2848237061E+00    0.1573198641E+00    0.4168949524E-01    0.1219629748E-01
    0.5000000000E+03    0.1842221480E+00    0.3010409073E+00    0.1891572943E+00    0.4398050284E-01    0.1618737821E-01
    0.7000000000E+03    0.2202005860E+00    0.3022714999E+00    0.2101923296E+00    0.4405080550E-01    0.1935234008E-01
    0.9000000000E+03    0.2506462467E+00    0.2986384072E+00    0.2259782630E+00    0.4339320348E-01    0.2203150885E-01
    0.1100000000E+04    0.2772030754E+00    0.2932287196E+00    0.2386651734E+00    0.4246644360E-01    0.2436917433E-01
    0.1300000000E+04    0.3007547384E+00    0.2872228473E+00    0.2493025220E+00    0.4144795758E-01    0.2644289182E-01
    0.1500000000E+04    0.3218540384E+00    0.2811303523E+00    0.2584801204E+00    0.4041558033E-01    0.2830117622E-01
    0.1700000000E+04    0.3408849283E+00    0.2751840263E+00    0.2665625660E+00    0.3940567683E-01    0.2997772376E-01
    0.1900000000E+04    0.3581344613E+00    0.2694899169E+00    0.2737912489E+00    0.3843537641E-01    0.3149772766E-01
    0.2100000000E+04    0.3738286523E+00    0.2640919061E+00    0.2803344776E+00    0.3751220974E-01    0.3288102571E-01
    0.2300000000E+04    0.3881520220E+00    0.2590021045E+00    0.2863144410E+00    0.3663868798E-01    0.3414381544E-01
    0.2500000000E+04    0.4012590731E+00    0.2542161333E+00    0.2918227635E+00    0.3581463485E-01    0.3529966110E-01
    0.2700000000E+04    0.4132814859E+00    0.2497211898E+00    0.2969299942E+00    0.3503843794E-01    0.3636012490E-01
    0.2900000000E+04    0.4243329048E+00    0.2455004494E+00    0.3016916658E+00    0.3430774631E-01    0.3733518690E-01
    0.3100000000E+04    0.4345122979E+00    0.2415355163E+00    0.3061523141E+00    0.3361986955E-01    0.3823353952E-01
    0.3300000000E+04    0.4439064257E+00    0.2378077945E+00    0.3103482293E+00    0.3297200905E-01    0.3906280411E-01
    0.3500000000E+04    0.4525917305E+00    0.2342992436E+00    0.3143093948E+00    0.3236139191E-01    0.3982969660E-01
    0.3700000000E+04    0.4606358290E+00    0.2309927779E+00    0.3180608832E+00    0.3178534688E-01    0.4054015838E-01
    0.3900000000E+04    0.4680987231E+00    0.2278724551E+00    0.3216238849E+00    0.3124134528E-01    0.4119946240E-01
    0.4100000000E+04    0.4750338007E+00    0.2249235411E+00    0.3250164787E+00    0.3072702047E-01    0.4181230105E-01
    0.4300000000E+04    0.4814886763E+00    0.2221325034E+00    0.3282542193E+00    0.3024017425E-01    0.4238285980E-01
    0.4500000000E+04    0.4875059052E+00    0.2194869632E+00    0.3313505913E+00    0.2977877532E-01    0.4291487986E-01
    0.4700000000E+04    0.4931235948E+00    0.2169756261E+00    0.3343173649E+00    0.2934095310E-01    0.4341171184E-01
    0.4900000000E+04    0.4983759321E+00    0.2145882028E+00    0.3371648779E+00    0.2892498895E-01    0.4387636202E-01
    0.1000000000E+04    0.2643448148E+00    0.2960584399E+00    0.2326283940E+00    0.4294891056E-01    0.2323724125E-01
    0.3000000000E+04    0.4295259204E+00    0.2434871756E+00    0.3039571824E+00    0.3395863037E-01    0.3779345258E-01
    0.5000000000E+04    0.5008748189E+00    0.2134379980E+00    0.3385468071E+00    0.2872470564E-01    0.4409747420E-01
    0.7000000000E+04    0.5376677210E+00    0.1950769378E+00    0.3616721874E+00    0.2554882126E-01    0.4735763216E-01
    0.9000000000E+04    0.5591148137E+00    0.1824137486E+00    0.3790122481E+00    0.2340185698E-01    0.4926404509E-01
    0.1100000000E+05    0.5727965330E+00    0.1729150482E+00    0.3928389293E+00    0.2182892124E-01    0.5048438138E-01
    0.1300000000E+05    0.5821309454E+00    0.1653732869E+00    0.4043010090E+00    0.2060861855E-01    0.5132001506E-01
    0.1500000000E+05    0.5888338126E+00    0.1591438955E+00    0.4140626058E+00    0.1962189262E-01    0.5192238670E-01
    0.1700000000E+05    0.5938431599E+00    0.1538499148E+00    0.4225430092E+00    0.1879917173E-01    0.5237438009E-01
    0.1900000000E+05    0.5977080956E+00    0.1492543769E+00    0.4300240917E+00    0.1809697643E-01    0.5272456843E-01
    0.2100000000E+05    0.6007683877E+00    0.1451995148E+00    0.4367045042E+00    0.1748661650E-01    0.5300304155E-01
    0.2300000000E+05    0.6032440918E+00    0.1415753321E+00    0.4427295042E+00    0.1694830165E-01    0.5322931056E-01
    0.2500000000E+05    0.6052832663E+00    0.1383022046E+00    0.4482085015E+00    0.1646787121E-01    0.5341651899E-01
    0.2700000000E+05    0.6069887917E+00    0.1353206819E+00    0.4532259379E+00    0.1603487788E-01    0.5357381116E-01
    0.2900000000E+05    0.6084341546E+00    0.1325852151E+00    0.4578483285E+00    0.1564141224E-01    0.5370772717E-01
    0.3100000000E+05    0.6096731120E+00    0.1300601376E+00    0.4621289849E+00    0.1528135279E-01    0.5382305746E-01
    0.3300000000E+05    0.6107458141E+00    0.1277169968E+00    0.4661112791E+00    0.1494987113E-01    0.5392338473E-01
    0.3500000000E+05    0.6116828017E+00    0.1255327290E+00    0.4698309587E+00    0.1464309559E-01    0.5401143788E-01
    0.3700000000E+05    0.6125076852E+00    0.1234883770E+00    0.4733178259E+00    0.1435787661E-01    0.5408932952E-01
    0.3900000000E+05    0.6132389828E+00    0.1215681681E+00    0.4765969792E+00    0.1409161935E-01    0.5415871889E-01
    0.4100000000E+05    0.6138914075E+00    0.1197588376E+00    0.4796897473E+00    0.1384216181E-01    0.5422092622E-01
    0.4300000000E+05    0.6144767868E+00    0.1180491224E+00    0.4826144034E+00    0.1360768446E-01    0.5427701430E-01
    0.4500000000E+05    0.6150047291E+00    0.1164293778E+00    0.4853867173E+00    0.1338664215E-01    0.5432784783E-01
    0.4700000000E+05    0.6154831161E+00    0.1148912809E+00    0.4880203898E+00    0.1317771201E-01    0.5437413711E-01
    0.4900000000E+05    0.6159184694E+00    0.1134275996E+00    0.4905273963E+00    0.1297975317E-01    0.5441647080E-01
    0.1000000000E+05    0.5666556193E+00    0.1773629398E+00    0.3862772199E+00    0.2256083160E-01    0.4993610955E-01
    0.3000000000E+05    0.6090766605E+00    0.1312983005E+00    0.4600284607E+00    0.1545753427E-01    0.5376746816E-01
    0.5000000000E+05    0.6161217447E+00    0.1127216574E+00    0.4917367391E+00    0.1288457329E-01    0.5443631121E-01
    0.7000000000E+05    0.6188719557E+00    0.1013199635E+00    0.5112685461E+00    0.1137286903E-01    0.5471101699E-01
    0.9000000000E+05    0.6203154851E+00    0.9325564119E-01    0.5250585910E+00    0.1033093443E-01    0.5486263945E-01
    0.1100000000E+06    0.6211985635E+00    0.8710574983E-01    0.5355487349E+00    0.9550536801E-02    0.5496007242E-01
    0.1300000000E+06    0.6217920024E+00    0.8218792356E-01    0.5439171404E+00    0.8934986824E-02    0.5502876191E-01
    0.1500000000E+06    0.6222169750E+00    0.7812392133E-01    0.5508176802E+00    0.8431890531E-02    0.5508029575E-01
    0.1700000000E+06    0.6225355929E+00    0.7468321382E-01    0.5566486755E+00    0.8009859578E-02    0.5512071895E-01
    0.1900000000E+06    0.6227828987E+00    0.7171547743E-01    0.5616695600E+00    0.7648705144E-02    0.5515350210E-01
    0.2100000000E+06    0.6229801281E+00    0.6911758026E-01    0.5660580709E+00    0.7334732559E-02    0.5518078530E-01
    0.2300000000E+06    0.6231408841E+00    0.6681590102E-01    0.5699408997E+00    0.7058259458E-02    0.5520396323E-01
    0.2500000000E+06    0.6232742747E+00    0.6475617879E-01    0.5734112855E+00    0.6812208928E-02    0.5522398585E-01
    0.2700000000E+06    0.6233866235E+00    0.6289735653E-01    0.5765396799E+00    0.6591265317E-02    0.5524152396E-01
    0.2900000000E+06    0.6234824550E+00    0.6120767597E-01    0.5793805058E+00    0.6391343715E-02    0.5525706567E-01
    0.3100000000E+06    0.6235650906E+00    0.5966210683E-01    0.5819766030E+00    0.6209243543E-02    0.5527097528E-01
    0.3300000000E+06    0.6236370223E+00    0.5824060033E-01    0.5843622446E+00    0.6042414920E-02    0.5528353066E-01
    0.3500000000E+06    0.6237001556E+00    0.5692687035E-01    0.5865652408E+00    0.5888796678E-02    0.5529494778E-01
    0.3700000000E+06    0.6237559721E+00    0.5570752274E-01    0.5886084395E+00    0.5746701334E-02    0.5530539727E-01
    0.3900000000E+06    0.6238056406E+00    0.5457142049E-01    0.5905108198E+00    0.5614731662E-02    0.5531501592E-01
    0.4100000000E+06    0.6238500953E+00    0.5350921239E-01    0.5922883027E+00    0.5491719079E-02    0.5532391479E-01
    0.4300000000E+06    0.6238900918E+00    0.5251297749E-01    0.5939543621E+00    0.5376677362E-02    0.5533218514E-01
    0.4500000000E+06    0.6239262475E+00    0.5157595291E-01    0.5955204927E+00    0.5268767382E-02    0.5533990268E-01
    0.4700000000E+06    0.6239590719E+00    0.5069232287E-01    0.5969965717E+00    0.5167269871E-02    0.5534713085E-01
    0.4900000000E+06    0.6239889889E+00    0.4985705313E-01    0.5983911424E+00    0.5071564130E-02    0.5535392324E-01
    0.1000000000E+06    0.6208048105E+00    0.8999407514E-01    0.5306252491E+00    0.9915562780E-02    0.5491604646E-01
    0.3000000000E+06    0.6235252504E+00    0.6041823094E-01    0.5807068308E+00    0.6298238394E-02    0.5526420543E-01
    0.5000000000E+06    0.6240029705E+00    0.4945616099E-01    0.5990602237E+00    0.5025711945E-02    0.5535717055E-01
    0.7000000000E+06    0.6241922242E+00    0.4315963300E-01    0.6095475228E+00    0.4312727343E-02    0.5540744521E-01
    0.9000000000E+06    0.6242901438E+00    0.3890838673E-01    0.6166050972E+00    0.3839310942E-02    0.5544120509E-01
    0.1100000000E+07    0.6243481998E+00    0.3577681841E-01    0.6217916697E+00    0.3494956317E-02    0.5546640711E-01
    0.1300000000E+07    0.6243855630E+00    0.3333970735E-01    0.6258207601E+00    0.3229675391E-02    0.5548643242E-01
    0.1500000000E+07    0.6244109372E+00    0.3136963898E-01    0.6290729617E+00    0.3017048852E-02    0.5550300970E-01
    0.1700000000E+07    0.6244288161E+00    0.2973211045E-01    0.6317729061E+00    0.2841601251E-02    0.5551713425E-01
    0.1900000000E+07    0.6244417397E+00    0.2834162912E-01    0.6340631307E+00    0.2693575946E-02    0.5552942877E-01
    0.2100000000E+07    0.6244512446E+00    0.2714082244E-01    0.6360391524E+00    0.2566471494E-02    0.5554030761E-01
    0.2300000000E+07    0.6244583102E+00    0.2608951831E-01    0.6377677693E+00    0.2455763869E-02    0.5555005978E-01
    0.2500000000E+07    0.6244635877E+00    0.2515861049E-01    0.6392973271E+00    0.2358193461E-02    0.5555889465E-01
    0.2700000000E+07    0.6244675250E+00    0.2432640905E-01    0.6406638183E+00    0.2271343433E-02    0.5556696857E-01
    0.2900000000E+07    0.6244704390E+00    0.2357636551E-01    0.6418946802E+00    0.2193378319E-02    0.5557440128E-01
    0.3100000000E+07    0.6244725598E+00    0.2289559877E-01    0.6430112529E+00    0.2122875461E-02    0.5558128650E-01
    0.3300000000E+07    0.6244740574E+00    0.2227390801E-01    0.6440304242E+00    0.2058712645E-02    0.5558769889E-01
    0.3500000000E+07    0.6244750601E+00    0.2170309294E-01    0.6449657612E+00    0.1999991026E-02    0.5559369888E-01
    0.3700000000E+07    0.6244756659E+00    0.2117647405E-01    0.6458283083E+00    0.1945980956E-02    0.5559933608E-01
    0.3900000000E+07    0.6244759510E+00    0.2068854674E-01    0.6466271620E+00    0.1896083061E-02    0.5560465166E-01
    0.4100000000E+07    0.6244759750E+00    0.2023472727E-01    0.6473698933E+00    0.1849799744E-02    0.5560968022E-01
    0.4300000000E+07    0.6244757855E+00    0.1981116290E-01    0.6480628628E+00    0.1806713960E-02    0.5561445105E-01
    0.4500000000E+07    0.6244754204E+00    0.1941458792E-01    0.6487114593E+00    0.1766473171E-02    0.5561898921E-01
    0.4700000000E+07    0.6244749104E+00    0.1904221305E-01    0.6493202836E+00    0.1728777044E-02    0.5562331626E-01
    0.4900000000E+07    0.6244742806E+00    0.1869163920E-01    0.6498932912E+00    0.1693367901E-02    0.5562745094E-01
    0.1000000000E+07    0.6243225855E+00    0.3723583123E-01    0.6193765230E+00    0.3654916594E-02    0.5545460792E-01
    0.3000000000E+07    0.6244715868E+00    0.2322801376E-01    0.6424661081E+00    0.2157270249E-02    0.5557790728E-01
    0.5000000000E+07    0.6244739272E+00    0.1852386769E-01    0.6501674516E+00    0.1676450209E-02    0.5562945132E-01
    0.7000000000E+07    0.6244640007E+00    0.1592965619E-01    0.6544016700E+00    0.1417253424E-02    0.5566242444E-01
    0.9000000000E+07    0.6244525143E+00    0.1422050491E-01    0.6571858694E+00    0.1249128583E-02    0.5568670947E-01
    0.1100000000E+08    0.6244414289E+00    0.1298269517E-01    0.6591993716E+00    0.1128811635E-02    0.5570594158E-01
    0.1300000000E+08    0.6244311483E+00    0.1203154863E-01    0.6607448296E+00    0.1037248262E-02    0.5572186555E-01
    0.1500000000E+08    0.6244217014E+00    0.1127032949E-01    0.6619805452E+00    0.9645622040E-03    0.5573545436E-01
    0.1700000000E+08    0.6244130197E+00    0.1064273663E-01    0.6629985447E+00    0.9050550825E-03    0.5574730633E-01
    0.1900000000E+08    0.6244050157E+00    0.1011344504E-01    0.6638565127E+00    0.8551779449E-03    0.5575781575E-01
    0.2100000000E+08    0.6243976058E+00    0.9659002786E-02    0.6645927140E+00    0.8125898509E-03    0.5576725623E-01
    0.2300000000E+08    0.6243907159E+00    0.9263138461E-02    0.6652336784E+00    0.7756759023E-03    0.5577582540E-01
    0.2500000000E+08    0.6243842830E+00    0.8914155673E-02    0.6657984645E+00    0.7432812320E-03    0.5578367070E-01
    0.2700000000E+08    0.6243782533E+00    0.8603398472E-02    0.6663011685E+00    0.7145551753E-03    0.5579090505E-01
