  Pressure (Pa) 22mC5-400 (mol/kg) 2mC6-400 (mol/kg) 3mC6-400 (mol/kg) 33mC5-400 (mol/kg) 23mC5-400 (mol/kg)
    0.1000000000E+01    0.1056708056E-02    0.6341290365E-02    0.2632994850E-02    0.6453850978E-04    0.3710929698E-03
    0.3000000000E+01    0.3118719710E-02    0.1851346212E-01    0.7720433401E-02    0.1884241350E-03    0.1095237148E-02
    0.5000000000E+01    0.5115727528E-02    0.3004738244E-01    0.1258412464E-01    0.3058180487E-03    0.1796566353E-02
    0.7000000000E+01    0.7051662434E-02    0.4098954055E-01    0.1723981399E-01    0.4171930625E-03    0.2476460094E-02
    0.9000000000E+01    0.8930132589E-02    0.5138206516E-01    0.2170177578E-01    0.5229776352E-03    0.3136184617E-02
    0.1100000000E+02    0.1075445626E-01    0.6126322195E-01    0.2598298230E-01    0.6235609337E-03    0.3776904443E-02
    0.1300000000E+02    0.1252769076E-01    0.7066784463E-01    0.3009524993E-01    0.7192972180E-03    0.4399692514E-02
    0.1500000000E+02    0.1425265791E-01    0.7962770963E-01    0.3404936607E-01    0.8105096521E-03    0.5005539146E-02
    0.1700000000E+02    0.1593196665E-01    0.8817186277E-01    0.3785519952E-01    0.8974936281E-03    0.5595359936E-02
    0.1900000000E+02    0.1756803296E-01    0.9632690512E-01    0.4152179699E-01    0.9805196726E-03    0.6170002784E-02
    0.2100000000E+02    0.1916309768E-01    0.1041172437E+00    0.4505746763E-01    0.1059835998E-02    0.6730254120E-02
    0.2300000000E+02    0.2071924235E-01    0.1115653119E+00    0.4846985729E-01    0.1135670743E-02    0.7276844466E-02
    0.2500000000E+02    0.2223840327E-01    0.1186917643E+00    0.5176601394E-01    0.1208233956E-02    0.7810453387E-02
    0.2700000000E+02    0.2372238419E-01    0.1255156482E+00    0.5495244552E-01    0.1277719339E-02    0.8331713930E-02
    0.2900000000E+02    0.2517286767E-01    0.1320545567E+00    0.5803517110E-01    0.1344305805E-02    0.8841216601E-02
    0.3100000000E+02    0.2659142518E-01    0.1383247636E+00    0.6101976640E-01    0.1408158848E-02    0.9339512937E-02
    0.3300000000E+02    0.2797952633E-01    0.1443413446E+00    0.6391140418E-01    0.1469431777E-02    0.9827118725E-02
    0.3500000000E+02    0.2933854714E-01    0.1501182844E+00    0.6671489040E-01    0.1528266810E-02    0.1030451690E-01
    0.3700000000E+02    0.3066977746E-01    0.1556685737E+00    0.6943469642E-01    0.1584796052E-02    0.1077216015E-01
    0.3900000000E+02    0.3197442775E-01    0.1610042947E+00    0.7207498798E-01    0.1639142371E-02    0.1123047333E-01
    0.4100000000E+02    0.3325363521E-01    0.1661366995E+00    0.7463965104E-01    0.1691420191E-02    0.1167985556E-01
    0.4300000000E+02    0.3450846937E-01    0.1710762792E+00    0.7713231521E-01    0.1741736198E-02    0.1212068222E-01
    0.4500000000E+02    0.3573993707E-01    0.1758328267E+00    0.7955637472E-01    0.1790189980E-02    0.1255330670E-01
    0.4700000000E+02    0.3694898716E-01    0.1804154939E+00    0.8191500740E-01    0.1836874604E-02    0.1297806200E-01
    0.4900000000E+02    0.3813651463E-01    0.1848328425E+00    0.8421119187E-01    0.1881877137E-02    0.1339526227E-01
    0.1000000000E+02    0.9848865852E-02    0.5638431163E-01    0.2386420941E-01    0.5738965316E-03    0.3458851022E-02
    0.3000000000E+02    0.2588604303E-01    0.1352222789E+00    0.5953940274E-01    0.1376564150E-02    0.9091732522E-02
    0.5000000000E+02    0.3872247331E-01    0.1869820482E+00    0.8533674622E-01    0.1903773304E-02    0.1360112260E-01
    0.7000000000E+02    0.4949388964E-01    0.2229864062E+00    0.1051642888E+00    0.2270669088E-02    0.1738563262E-01
    0.9000000000E+02    0.5883703816E-01    0.2490714584E+00    0.1210759621E+00    0.2536600589E-02    0.2066875482E-01
    0.1100000000E+03    0.6713957795E-01    0.2685397790E+00    0.1342609009E+00    0.2735153989E-02    0.2358656027E-01
    0.1300000000E+03    0.7465270840E-01    0.2833947418E+00    0.1454586814E+00    0.2886704609E-02    0.2622722524E-01
    0.1500000000E+03    0.8154735914E-01    0.2949188431E+00    0.1551554210E+00    0.3004297636E-02    0.2865075174E-01
    0.1700000000E+03    0.8794450963E-01    0.3039691699E+00    0.1636850141E+00    0.3096652508E-02    0.3089960894E-01
    0.1900000000E+03    0.9393260373E-01    0.3111390037E+00    0.1712851762E+00    0.3169806099E-02    0.3300484545E-01
    0.2100000000E+03    0.9957807596E-01    0.3168512222E+00    0.1781302719E+00    0.3228062414E-02    0.3498978395E-01
    0.2300000000E+03    0.1049319901E+00    0.3214148035E+00    0.1843514589E+00    0.3274567112E-02    0.3687235146E-01
    0.2500000000E+03    0.1100343797E+00    0.3250603480E+00    0.1900495436E+00    0.3311668698E-02    0.3866660282E-01
    0.2700000000E+03    0.1149171746E+00    0.3279631547E+00    0.1953034626E+00    0.3341153165E-02    0.4038374807E-01
    0.2900000000E+03    0.1196062278E+00    0.3302586437E+00    0.2001760423E+00    0.3364400814E-02    0.4203286394E-01
    0.3100000000E+03    0.1241227527E+00    0.3320529221E+00    0.2047180095E+00    0.3382493703E-02    0.4362139828E-01
    0.3300000000E+03    0.1284843634E+00    0.3334301822E+00    0.2089708465E+00    0.3396290878E-02    0.4515553530E-01
    0.3500000000E+03    0.1327058413E+00    0.3344579829E+00    0.2129688639E+00    0.3406482089E-02    0.4664046476E-01
    0.3700000000E+03    0.1367997101E+00    0.3351910868E+00    0.2167407323E+00    0.3413626815E-02    0.4808058378E-01
    0.3900000000E+03    0.1407766733E+00    0.3356742900E+00    0.2203106310E+00    0.3418183048E-02    0.4947965035E-01
    0.4100000000E+03    0.1446459511E+00    0.3359445405E+00    0.2236991236E+00    0.3420528844E-02    0.5084090174E-01
    0.4300000000E+03    0.1484155436E+00    0.3360325431E+00    0.2269238324E+00    0.3420978652E-02    0.5216714686E-01
    0.4500000000E+03    0.1520924388E+00    0.3359639905E+00    0.2299999653E+00    0.3419795834E-02    0.5346083918E-01
    0.4700000000E+03    0.1556827778E+00    0.3357605169E+00    0.2329407305E+00    0.3417202382E-02    0.5472413490E-01
    0.4900000000E+03    0.1591919885E+00    0.3354404450E+00    0.2357576677E+00    0.3413386506E-02    0.5595893974E-01
    0.1000000000E+03    0.6310031750E-01    0.2594857571E+00    0.1279554576E+00    0.2642805013E-02    0.2216698044E-01
    0.3000000000E+03    0.1218848811E+00    0.3312127289E+00    0.2024855706E+00    0.3374033401E-02    0.4283429121E-01
    0.5000000000E+03    0.1609176988E+00    0.3352416526E+00    0.2371229172E+00    0.3411071244E-02    0.5656619462E-01
    0.7000000000E+03    0.1921060269E+00    0.3279260150E+00    0.2598461579E+00    0.3329268033E-02    0.6754322282E-01
    0.9000000000E+03    0.2185061149E+00    0.3179426551E+00    0.2768428089E+00    0.3218251772E-02    0.7683840150E-01
    0.1100000000E+04    0.2414302681E+00    0.3075897526E+00    0.2904591761E+00    0.3102286710E-02    0.8491242804E-01
    0.1300000000E+04    0.2616085659E+00    0.2976134349E+00    0.3018356660E+00    0.2989556467E-02    0.9202158260E-01
    0.1500000000E+04    0.2795178550E+00    0.2882623414E+00    0.3116138353E+00    0.2882993674E-02    0.9833324996E-01
    0.1700000000E+04    0.2955037150E+00    0.2795997055E+00    0.3201913027E+00    0.2783515439E-02    0.1039687439E+00
    0.1900000000E+04    0.3098339688E+00    0.2716143488E+00    0.3278320842E+00    0.2691191463E-02    0.1090220932E+00
    0.2100000000E+04    0.3227252428E+00    0.2642652022E+00    0.3347207560E+00    0.2605723321E-02    0.1135693642E+00
    0.2300000000E+04    0.3343575676E+00    0.2575006057E+00    0.3409916215E+00    0.2526659262E-02    0.1176737843E+00
    0.2500000000E+04    0.3448831734E+00    0.2512670330E+00    0.3467455728E+00    0.2453496157E-02    0.1213888268E+00
    0.2700000000E+04    0.3544322420E+00    0.2455130475E+00    0.3520604022E+00    0.2385729254E-02    0.1247602288E+00
    0.2900000000E+04    0.3631169478E+00    0.2401909927E+00    0.3569974053E+00    0.2322876294E-02    0.1278274079E+00
    0.3100000000E+04    0.3710344666E+00    0.2352575751E+00    0.3616057707E+00    0.2264488472E-02    0.1306245172E+00
    0.3300000000E+04    0.3782693184E+00    0.2306739025E+00    0.3659255940E+00    0.2210154469E-02    0.1331812669E+00
    0.3500000000E+04    0.3848952494E+00    0.2264052593E+00    0.3699900050E+00    0.2159500808E-02    0.1355235843E+00
    0.3700000000E+04    0.3909767793E+00    0.2224207682E+00    0.3738267035E+00    0.2112190310E-02    0.1376741564E+00
    0.3900000000E+04    0.3965704922E+00    0.2186930134E+00    0.3774590923E+00    0.2067919614E-02    0.1396528830E+00
    0.4100000000E+04    0.4017261244E+00    0.2151976666E+00    0.3809071280E+00    0.2026416315E-02    0.1414772580E+00
    0.4300000000E+04    0.4064874872E+00    0.2119131330E+00    0.3841879697E+00    0.1987436033E-02    0.1431626937E+00
    0.4500000000E+04    0.4108932538E+00    0.2088202297E+00    0.3873164817E+00    0.1950759572E-02    0.1447227967E+00
    0.4700000000E+04    0.4149776329E+00    0.2059018947E+00    0.3903056272E+00    0.1916190259E-02    0.1461696046E+00
    0.4900000000E+04    0.4187709456E+00    0.2031429310E+00    0.3931667811E+00    0.1883551505E-02    0.1475137883E+00
    0.1000000000E+04    0.2303488711E+00    0.3127478413E+00    0.2839858278E+00    0.3160188665E-02    0.8100916873E-01
    0.3000000000E+04    0.3671660504E+00    0.2376782363E+00    0.3593399770E+00    0.2293150844E-02    0.1292577686E+00
    0.5000000000E+04    0.4205669882E+00    0.2018189177E+00    0.3945525442E+00    0.1867905849E-02    0.1481504005E+00
    0.7000000000E+04    0.4463502182E+00    0.1810939780E+00    0.4174653086E+00    0.1625413119E-02    0.1573056924E+00
    0.9000000000E+04    0.4607974079E+00    0.1671879405E+00    0.4342938131E+00    0.1466807636E-02    0.1624568427E+00
    0.1100000000E+05    0.4697873092E+00    0.1569352615E+00    0.4474913906E+00    0.1352990107E-02    0.1656766279E+00
    0.1300000000E+05    0.4758199908E+00    0.1488990902E+00    0.4582818950E+00    0.1265986779E-02    0.1678476830E+00
    0.1500000000E+05    0.4801020684E+00    0.1423319062E+00    0.4673640398E+00    0.1196450037E-02    0.1693965626E+00
    0.1700000000E+05    0.4832753346E+00    0.1368028743E+00    0.4751739418E+00    0.1139032062E-02    0.1705504619E+00
    0.1900000000E+05    0.4857080615E+00    0.1320435972E+00    0.4820017467E+00    0.1090438346E-02    0.1714399362E+00
    0.2100000000E+05    0.4876247356E+00    0.1278764940E+00    0.4880499973E+00    0.1048517385E-02    0.1721446859E+00
    0.2300000000E+05    0.4891690811E+00    0.1241783504E+00    0.4934655075E+00    0.1011796803E-02    0.1727158168E+00
    0.2500000000E+05    0.4904369257E+00    0.1208603417E+00    0.4983579711E+00    0.9792297912E-03    0.1731874572E+00
    0.2700000000E+05    0.4914943733E+00    0.1178564009E+00    0.5028114185E+00    0.9500482244E-03    0.1735831884E+00
    0.2900000000E+05    0.4923883627E+00    0.1151160957E+00    0.5068915828E+00    0.9236733437E-03    0.1739197825E+00
    0.3100000000E+05    0.4931530629E+00    0.1126000786E+00    0.5106508077E+00    0.8996591598E-03    0.1742094701E+00
    0.3300000000E+05    0.4938138902E+00    0.1102770742E+00    0.5141314200E+00    0.8776553058E-03    0.1744613642E+00
    0.3500000000E+05    0.4943901113E+00    0.1081218222E+00    0.5173681069E+00    0.8573819031E-03    0.1746823857E+00
    0.3700000000E+05    0.4948965772E+00    0.1061136345E+00    0.5203896314E+00    0.8386120971E-03    0.1748778787E+00
    0.3900000000E+05    0.4953449065E+00    0.1042353601E+00    0.5232200937E+00    0.8211596385E-03    0.1750520318E+00
    0.4100000000E+05    0.4957443101E+00    0.1024726264E+00    0.5258798759E+00    0.8048698668E-03    0.1752081721E+00
    0.4300000000E+05    0.4961021786E+00    0.1008132727E+00    0.5283863602E+00    0.7896130442E-03    0.1753489738E+00
    0.4500000000E+05    0.4964245058E+00    0.9924692188E-01    0.5307544827E+00    0.7752793454E-03    0.1754766103E+00
    0.4700000000E+05    0.4967162009E+00    0.9776464955E-01    0.5329971658E+00    0.7617750360E-03    0.1755928648E+00
    0.4900000000E+05    0.4969813209E+00    0.9635872725E-01    0.5351256600E+00    0.7490195186E-03    0.1756992141E+00
    0.1000000000E+05    0.4657740599E+00    0.1617179067E+00    0.4412528541E+00    0.1405712219E-02    0.1642374096E+00
    0.3000000000E+05    0.4927851160E+00    0.1138321673E+00    0.5088084642E+00    0.9113949635E-03    0.1740698597E+00
    0.5000000000E+05    0.4971049941E+00    0.9568225836E-01    0.5361502130E+00    0.7429003830E-03    0.1757490677E+00
    0.7000000000E+05    0.4987687921E+00    0.8490182810E-01    0.5525009761E+00    0.6469303821E-03    0.1764404299E+00
    0.9000000000E+05    0.4996311595E+00    0.7744060690E-01    0.5638254662E+00    0.5821371268E-03    0.1768233839E+00
    0.1100000000E+06    0.5001517325E+00    0.7184022862E-01    0.5723207558E+00    0.5343394529E-03    0.1770702434E+00
    0.1300000000E+06    0.5004966279E+00    0.6741667859E-01    0.5790250688E+00    0.4970819903E-03    0.1772447306E+00
    0.1500000000E+06    0.5007399212E+00    0.6379738079E-01    0.5845055182E+00    0.4669217213E-03    0.1773759197E+00
    0.1700000000E+06    0.5009194558E+00    0.6075848187E-01    0.5891031817E+00    0.4418227811E-03    0.1774790080E+00
    0.1900000000E+06    0.5010565092E+00    0.5815575047E-01    0.5930378599E+00    0.4204900894E-03    0.1775627373E+00
    0.2100000000E+06    0.5011639287E+00    0.5589124377E-01    0.5964587805E+00    0.4020534601E-03    0.1776325075E+00
    0.2300000000E+06    0.5012499130E+00    0.5389566518E-01    0.5994714825E+00    0.3859027385E-03    0.1776918434E+00
    0.2500000000E+06    0.5013199296E+00    0.5211834067E-01    0.6021531041E+00    0.3715952160E-03    0.1777431492E+00
    0.2700000000E+06    0.5013777589E+00    0.5052119437E-01    0.6045615751E+00    0.3588005325E-03    0.1777881248E+00
    0.2900000000E+06    0.5014260943E+00    0.4907495845E-01    0.6067413999E+00    0.3472663094E-03    0.1778280088E+00
    0.3100000000E+06    0.5014669042E+00    0.4775669634E-01    0.6087274371E+00    0.3367958602E-03    0.1778637263E+00
    0.3300000000E+06    0.5015016588E+00    0.4654813132E-01    0.6105474484E+00    0.3272332498E-03    0.1778959839E+00
    0.3500000000E+06    0.5015314768E+00    0.4543448720E-01    0.6122238671E+00    0.3184529940E-03    0.1779253312E+00
    0.3700000000E+06    0.5015572240E+00    0.4440366480E-01    0.6137750533E+00    0.3103527833E-03    0.1779522027E+00
    0.3900000000E+06    0.5015795801E+00    0.4344564462E-01    0.6152162042E+00    0.3028482305E-03    0.1779769472E+00
    0.4100000000E+06    0.5015990857E+00    0.4255204545E-01    0.6165600265E+00    0.2958690092E-03    0.1779998479E+00
    0.4300000000E+06    0.5016161756E+00    0.4171579293E-01    0.6178172410E+00    0.2893559653E-03    0.1780211378E+00
    0.4500000000E+06    0.5016312035E+00    0.4093086692E-01    0.6189969673E+00    0.2832589247E-03    0.1780410101E+00
    0.4700000000E+06    0.5016444595E+00    0.4019210631E-01    0.6201070208E+00    0.2775350059E-03    0.1780596271E+00
    0.4900000000E+06    0.5016561837E+00    0.3949505658E-01    0.6211541442E+00    0.2721473066E-03    0.1780771257E+00
    0.1000000000E+06    0.4999204976E+00    0.7446090948E-01    0.5683462581E+00    0.5566182835E-03    0.1769586112E+00
    0.3000000000E+06    0.5014473384E+00    0.4840106662E-01    0.6077567643E+00    0.3419086756E-03    0.1778463399E+00
    0.5000000000E+06    0.5016615354E+00    0.3916094426E-01    0.6216559669E+00    0.2695693828E-03    0.1780854928E+00
    0.7000000000E+06    0.5017228747E+00    0.3395041650E-01    0.6294745721E+00    0.2297582343E-03    0.1782151311E+00
    0.9000000000E+06    0.5017409505E+00    0.3047137579E-01    0.6346872942E+00    0.2036086272E-03    0.1783022692E+00
    0.1100000000E+07    0.5017424937E+00    0.2792838912E-01    0.6384936206E+00    0.1847304523E-03    0.1783673490E+00
    0.1300000000E+07    0.5017367430E+00    0.2596079258E-01    0.6414364695E+00    0.1702691195E-03    0.1784190735E+00
    0.1500000000E+07    0.5017275571E+00    0.2437752258E-01    0.6438030891E+00    0.1587296086E-03    0.1784618974E+00
    0.1700000000E+07    0.5017167479E+00    0.2306640475E-01    0.6457619586E+00    0.1492423454E-03    0.1784983875E+00
    0.1900000000E+07    0.5017052344E+00    0.2195656162E-01    0.6474194476E+00    0.1412622127E-03    0.1785301507E+00
    0.2100000000E+07    0.5016935061E+00    0.2100066322E-01    0.6488465403E+00    0.1344276829E-03    0.1785582566E+00
    0.2300000000E+07    0.5016818311E+00    0.2016570831E-01    0.6500927038E+00    0.1284881994E-03    0.1785834516E+00
    0.2500000000E+07    0.5016703571E+00    0.1942787299E-01    0.6511936316E+00    0.1232638614E-03    0.1786062762E+00
    0.2700000000E+07    0.5016591641E+00    0.1876946023E-01    0.6521758271E+00    0.1186216890E-03    0.1786271345E+00
    0.2900000000E+07    0.5016482924E+00    0.1817700608E-01    0.6530594465E+00    0.1144609639E-03    0.1786463358E+00
    0.3100000000E+07    0.5016377594E+00    0.1764005690E-01    0.6538601344E+00    0.1107038094E-03    0.1786641222E+00
    0.3300000000E+07    0.5016275681E+00    0.1715035311E-01    0.6545902482E+00    0.1072889297E-03    0.1786806867E+00
    0.3500000000E+07    0.5016177138E+00    0.1670126869E-01    0.6552596985E+00    0.1041673270E-03    0.1786961854E+00
    0.3700000000E+07    0.5016081868E+00    0.1628741671E-01    0.6558765407E+00    0.1012992992E-03    0.1787107466E+00
    0.3900000000E+07    0.5015989745E+00    0.1590436551E-01    0.6564474004E+00    0.9865228742E-04    0.1787244766E+00
    0.4100000000E+07    0.5015900635E+00    0.1554843072E-01    0.6569777845E+00    0.9619930292E-04    0.1787374648E+00
    0.4300000000E+07    0.5015814395E+00    0.1521652017E-01    0.6574723143E+00    0.9391775857E-04    0.1787497870E+00
    0.4500000000E+07    0.5015730884E+00    0.1490601650E-01    0.6579349003E+00    0.9178858630E-04    0.1787615079E+00
    0.4700000000E+07    0.5015649965E+00    0.1461468703E-01    0.6583688782E+00    0.8979556189E-04    0.1787726832E+00
    0.4900000000E+07    0.5015571503E+00    0.1434061382E-01    0.6587771127E+00    0.8792478166E-04    0.1787833615E+00
    0.1000000000E+07    0.5017430171E+00    0.2911110883E-01    0.6367237399E+00    0.1934848474E-03    0.1783368771E+00
    0.3000000000E+07    0.5016429831E+00    0.1790215347E-01    0.6534693189E+00    0.1125361022E-03    0.1786553928E+00
    0.5000000000E+07    0.5015533155E+00    0.1420952122E-01    0.6589723634E+00    0.8703141994E-04    0.1787885276E+00
    0.7000000000E+07    0.5014868274E+00    0.1218809112E-01    0.6619820448E+00    0.7338105124E-04    0.1788736722E+00
    0.9000000000E+07    0.5014345244E+00    0.1086204185E-01    0.6639553015E+00    0.6456406498E-04    0.1789363693E+00
    0.1100000000E+08    0.5013915173E+00    0.9904504211E-02    0.6653796511E+00    0.5827232677E-04    0.1789860131E+00
    0.1300000000E+08    0.5013550299E+00    0.9170321433E-02    0.6664714514E+00    0.5349434252E-04    0.1790271123E+00
    0.1500000000E+08    0.5013233568E+00    0.8583738758E-02    0.6673435637E+00    0.4970768710E-04    0.1790621806E+00
    0.1700000000E+08    0.5012953806E+00    0.8100789982E-02    0.6680614673E+00    0.4661174745E-04    0.1790927638E+00
    0.1900000000E+08    0.5012703308E+00    0.7693951278E-02    0.6686661419E+00    0.4401970566E-04    0.1791198805E+00
    0.2100000000E+08    0.5012476544E+00    0.7344983633E-02    0.6691847371E+00    0.4180855333E-04    0.1791442372E+00
    0.2300000000E+08    0.5012269414E+00    0.7041252246E-02    0.6696360567E+00    0.3989356061E-04    0.1791663444E+00
    0.2500000000E+08    0.5012078792E+00    0.6773687014E-02    0.6700335968E+00    0.3821421266E-04    0.1791865830E+00
    0.2700000000E+08    0.5011902243E+00    0.6535583445E-02    0.6703873324E+00    0.3672598504E-04    0.1792052445E+00
