  Pressure (Pa) 22mC5-400 (mol/kg) 2mC6-400 (mol/kg) 3mC6-400 (mol/kg) 33mC5-400 (mol/kg) 23mC5-400 (mol/kg)
    0.1000000000E+01    0.1055320632E-02    0.7918540099E-02    0.1578857734E-02    0.2578878161E-03    0.9265147425E-04
    0.3000000000E+01    0.3106811527E-02    0.2307348800E-01    0.4624295191E-02    0.7514420263E-03    0.2727641461E-03
    0.5000000000E+01    0.5084144053E-02    0.3738042510E-01    0.7529597171E-02    0.1217371310E-02    0.4463695838E-03
    0.7000000000E+01    0.6992488471E-02    0.5090639905E-01    0.1030522245E-01    0.1657860062E-02    0.6139214137E-03
    0.9000000000E+01    0.8836525580E-02    0.6371162315E-01    0.1296059191E-01    0.2074869996E-02    0.7758303210E-03
    0.1100000000E+02    0.1062050416E-01    0.7585032246E-01    0.1550421518E-01    0.2470167719E-02    0.9324690888E-03
    0.1300000000E+02    0.1234829044E-01    0.8737145753E-01    0.1794379914E-01    0.2845348304E-02    0.1084176939E-02
    0.1500000000E+02    0.1402341089E-01    0.9831934579E-01    0.2028634121E-01    0.3201855546E-02    0.1231263286E-02
    0.1700000000E+02    0.1564908936E-01    0.1087341972E+00    0.2253820986E-01    0.3540999411E-02    0.1374010991E-02
    0.1900000000E+02    0.1722827937E-01    0.1186525777E+00    0.2470521437E-01    0.3863971136E-02    0.1512679202E-02
    0.2100000000E+02    0.1876369236E-01    0.1281078110E+00    0.2679266547E-01    0.4171856327E-02    0.1647505826E-02
    0.2300000000E+02    0.2025782243E-01    0.1371303291E+00    0.2880542816E-01    0.4465646370E-02    0.1778709702E-02
    0.2500000000E+02    0.2171296807E-01    0.1457479779E+00    0.3074796803E-01    0.4746248399E-02    0.1906492508E-02
    0.2700000000E+02    0.2313125134E-01    0.1539862851E+00    0.3262439180E-01    0.5014494018E-02    0.2031040441E-02
    0.2900000000E+02    0.2451463478E-01    0.1618686957E+00    0.3443848307E-01    0.5271146974E-02    0.2152525704E-02
    0.3100000000E+02    0.2586493640E-01    0.1694167792E+00    0.3619373376E-01    0.5516909914E-02    0.2271107818E-02
    0.3300000000E+02    0.2718384304E-01    0.1766504127E+00    0.3789337204E-01    0.5752430344E-02    0.2386934795E-02
    0.3500000000E+02    0.2847292220E-01    0.1835879430E+00    0.3954038705E-01    0.5978305916E-02    0.2500144178E-02
    0.3700000000E+02    0.2973363265E-01    0.1902463306E+00    0.4113755083E-01    0.6195089115E-02    0.2610863969E-02
    0.3900000000E+02    0.3096733385E-01    0.1966412773E+00    0.4268743795E-01    0.6403291427E-02    0.2719213457E-02
    0.4100000000E+02    0.3217529450E-01    0.2027873410E+00    0.4419244297E-01    0.6603387055E-02    0.2825303968E-02
    0.4300000000E+02    0.3335870011E-01    0.2086980367E+00    0.4565479609E-01    0.6795816245E-02    0.2929239528E-02
    0.4500000000E+02    0.3451865989E-01    0.2143859286E+00    0.4707657722E-01    0.6980988254E-02    0.3031117469E-02
    0.4700000000E+02    0.3565621290E-01    0.2198627115E+00    0.4845972854E-01    0.7159284020E-02    0.3131028966E-02
    0.4900000000E+02    0.3677233365E-01    0.2251392843E+00    0.4980606590E-01    0.7331058557E-02    0.3229059535E-02
    0.1000000000E+02    0.9735772111E-02    0.6986111272E-01    0.1424587248E-01    0.2275129424E-02    0.8547865310E-03
    0.3000000000E+02    0.2519381246E-01    0.1656832484E+00    0.3532325584E-01    0.5395348000E-02    0.2212170146E-02
    0.5000000000E+02    0.3732264507E-01    0.2277056968E+00    0.5046596479E-01    0.7414604754E-02    0.3277394756E-02
    0.7000000000E+02    0.4739879373E-01    0.2706626772E+00    0.6209133352E-01    0.8812860381E-02    0.4162471866E-02
    0.9000000000E+02    0.5609735025E-01    0.3018555550E+00    0.7143734218E-01    0.9827930397E-02    0.4926642352E-02
    0.1100000000E+03    0.6381310824E-01    0.3253047868E+00    0.7920837122E-01    0.1059075508E-01    0.5604551989E-02
    0.1300000000E+03    0.7079460820E-01    0.3434016846E+00    0.8583720764E-01    0.1117921008E-01    0.6218012818E-02
    0.1500000000E+03    0.7720740488E-01    0.3576549976E+00    0.9160584323E-01    0.1164242653E-01    0.6781554577E-02
    0.1700000000E+03    0.8316680937E-01    0.3690621010E+00    0.9670673591E-01    0.1201288178E-01    0.7305297771E-02
    0.1900000000E+03    0.8875609604E-01    0.3783077523E+00    0.1012762665E+00    0.1231287296E-01    0.7796551370E-02
    0.2100000000E+03    0.9403722880E-01    0.3858770428E+00    0.1054141283E+00    0.1255819566E-01    0.8260754083E-02
    0.2300000000E+03    0.9905748759E-01    0.3921228023E+00    0.1091951254E+00    0.1276033898E-01    0.8702055882E-02
    0.2500000000E+03    0.1038537282E+00    0.3973075038E+00    0.1126766508E+00    0.1292785014E-01    0.9123691836E-02
    0.2700000000E+03    0.1084552147E+00    0.4016302357E+00    0.1159035934E+00    0.1306721274E-01    0.9528230701E-02
    0.2900000000E+03    0.1128855588E+00    0.4052445911E+00    0.1189116544E+00    0.1318342921E-01    0.9917745112E-02
    0.3100000000E+03    0.1171640815E+00    0.4082708456E+00    0.1217296491E+00    0.1328041734E-01    0.1029393108E-01
    0.3300000000E+03    0.1213067901E+00    0.4108044381E+00    0.1243811397E+00    0.1336128634E-01    0.1065819378E-01
    0.3500000000E+03    0.1253270945E+00    0.4129219994E+00    0.1268856178E+00    0.1342853313E-01    0.1101171038E-01
    0.3700000000E+03    0.1292363404E+00    0.4146857139E+00    0.1292593771E+00    0.1348418431E-01    0.1135547687E-01
    0.3900000000E+03    0.1330442130E+00    0.4161465286E+00    0.1315161658E+00    0.1352990064E-01    0.1169034346E-01
    0.4100000000E+03    0.1367590471E+00    0.4173465472E+00    0.1336676840E+00    0.1356705499E-01    0.1201704183E-01
    0.4300000000E+03    0.1403880678E+00    0.4183208419E+00    0.1357239658E+00    0.1359679126E-01    0.1233620627E-01
    0.4500000000E+03    0.1439375811E+00    0.4190988390E+00    0.1376936780E+00    0.1362006954E-01    0.1264839035E-01
    0.4700000000E+03    0.1474131238E+00    0.4197053927E+00    0.1395843549E+00    0.1363770103E-01    0.1295408014E-01
    0.4900000000E+03    0.1508195853E+00    0.4201616239E+00    0.1414025854E+00    0.1365037535E-01    0.1325370488E-01
    0.1000000000E+03    0.6006006695E-01    0.3143718276E+00    0.7548813883E-01    0.1023513192E-01    0.5274799044E-02
    0.3000000000E+03    0.1150427292E+00    0.4068247643E+00    0.1203428300E+00    0.1323411616E-01    0.1010741034E-01
    0.5000000000E+03    0.1524982861E+00    0.4203391139E+00    0.1422863715E+00    0.1365504123E-01    0.1340136361E-01
    0.7000000000E+03    0.1832834271E+00    0.4192419740E+00    0.1572580797E+00    0.1359420864E-01    0.1610967954E-01
    0.9000000000E+03    0.2101312617E+00    0.4137220851E+00    0.1688087962E+00    0.1338503044E-01    0.1847229092E-01
    0.1100000000E+04    0.2341823839E+00    0.4066790803E+00    0.1783024415E+00    0.1312321627E-01    0.2058932174E-01
    0.1300000000E+04    0.2560407663E+00    0.3991812169E+00    0.1864103538E+00    0.1284454180E-01    0.2251378404E-01
    0.1500000000E+04    0.2760772901E+00    0.3916800129E+00    0.1935146618E+00    0.1256447379E-01    0.2427822667E-01
    0.1700000000E+04    0.2945448300E+00    0.3843795676E+00    0.1998547793E+00    0.1229025166E-01    0.2590483968E-01
    0.1900000000E+04    0.3116298258E+00    0.3773726013E+00    0.2055912827E+00    0.1202535678E-01    0.2740998224E-01
    0.2100000000E+04    0.3274781330E+00    0.3706976124E+00    0.2108374915E+00    0.1177140220E-01    0.2880645221E-01
    0.2300000000E+04    0.3422090665E+00    0.3643653119E+00    0.2156765911E+00    0.1152901471E-01    0.3010471903E-01
    0.2500000000E+04    0.3559235146E+00    0.3583717717E+00    0.2201715942E+00    0.1129827921E-01    0.3131363590E-01
    0.2700000000E+04    0.3687088686E+00    0.3527053394E+00    0.2243714719E+00    0.1107897671E-01    0.3244087246E-01
    0.2900000000E+04    0.3806421548E+00    0.3473504335E+00    0.2283151017E+00    0.1087071806E-01    0.3349318951E-01
    0.3100000000E+04    0.3917921076E+00    0.3422896911E+00    0.2320339066E+00    0.1067302203E-01    0.3447662090E-01
    0.3300000000E+04    0.4022205998E+00    0.3375052067E+00    0.2355536784E+00    0.1048536241E-01    0.3539659890E-01
    0.3500000000E+04    0.4119836707E+00    0.3329792513E+00    0.2388958691E+00    0.1030719681E-01    0.3625804436E-01
    0.3700000000E+04    0.4211322960E+00    0.3286946852E+00    0.2420785299E+00    0.1013798460E-01    0.3706543412E-01
    0.3900000000E+04    0.4297129867E+00    0.3246351863E+00    0.2451170058E+00    0.9977197946E-02    0.3782285350E-01
    0.4100000000E+04    0.4377682723E+00    0.3207853648E+00    0.2480244602E+00    0.9824328592E-02    0.3853403862E-01
    0.4300000000E+04    0.4453371030E+00    0.3171308080E+00    0.2508122769E+00    0.9678891723E-02    0.3920241165E-01
    0.4500000000E+04    0.4524551926E+00    0.3136580820E+00    0.2534903727E+00    0.9540428020E-02    0.3983111079E-01
    0.4700000000E+04    0.4591553171E+00    0.3103547061E+00    0.2560674432E+00    0.9408504463E-02    0.4042301647E-01
    0.4900000000E+04    0.4654675782E+00    0.3072091129E+00    0.2585511589E+00    0.9282714312E-02    0.4098077442E-01
    0.1000000000E+04    0.2224611011E+00    0.4103024274E+00    0.1737613041E+00    0.1325775161E-01    0.1955752672E-01
    0.3000000000E+04    0.3863110336E+00    0.3447844086E+00    0.2302008805E+00    0.1077058195E-01    0.3399316349E-01
    0.5000000000E+04    0.4684869942E+00    0.3056921074E+00    0.2597601650E+00    0.9221999215E-02    0.4124761575E-01
    0.7000000000E+04    0.5141326187E+00    0.2814431663E+00    0.2803511532E+00    0.8249973874E-02    0.4528582915E-01
    0.9000000000E+04    0.5416727441E+00    0.2648590707E+00    0.2962521173E+00    0.7589917028E-02    0.4772807634E-01
    0.1100000000E+05    0.5594984136E+00    0.2525959796E+00    0.3092303076E+00    0.7109743369E-02    0.4931299243E-01
    0.1300000000E+05    0.5717135239E+00    0.2429880096E+00    0.3202000588E+00    0.6741001603E-02    0.5040214831E-01
    0.1500000000E+05    0.5804768818E+00    0.2351338322E+00    0.3296997844E+00    0.6445793933E-02    0.5118590614E-01
    0.1700000000E+05    0.5870016178E+00    0.2285078607E+00    0.3380747700E+00    0.6201741437E-02    0.5177133033E-01
    0.1900000000E+05    0.5920094238E+00    0.2227833922E+00    0.3455603466E+00    0.5994857139E-02    0.5222216897E-01
    0.2100000000E+05    0.5959509638E+00    0.2177461622E+00    0.3523244185E+00    0.5815963641E-02    0.5257826554E-01
    0.2300000000E+05    0.5991195022E+00    0.2132491937E+00    0.3584911429E+00    0.5658785152E-02    0.5286557160E-01
    0.2500000000E+05    0.6017127196E+00    0.2091877876E+00    0.3641550051E+00    0.5518876311E-02    0.5310159697E-01
    0.2700000000E+05    0.6038679672E+00    0.2054849453E+00    0.3693896279E+00    0.5392992009E-02    0.5329851966E-01
    0.2900000000E+05    0.6056832195E+00    0.2020824817E+00    0.3742535242E+00    0.5278701096E-02    0.5346503518E-01
    0.3100000000E+05    0.6072299855E+00    0.1989353961E+00    0.3787939859E+00    0.5174140851E-02    0.5360749676E-01
    0.3300000000E+05    0.6085615223E+00    0.1960081797E+00    0.3830497929E+00    0.5077855872E-02    0.5373064104E-01
    0.3500000000E+05    0.6097182086E+00    0.1932723230E+00    0.3870531478E+00    0.4988689328E-02    0.5383806323E-01
    0.3700000000E+05    0.6107311505E+00    0.1907045859E+00    0.3908310885E+00    0.4905707691E-02    0.5393253602E-01
    0.3900000000E+05    0.6116246554E+00    0.1882857695E+00    0.3944065400E+00    0.4828147459E-02    0.5401622856E-01
    0.4100000000E+05    0.6124179631E+00    0.1859998255E+00    0.3977991102E+00    0.4755376682E-02    0.5409085978E-01
    0.4300000000E+05    0.6131264806E+00    0.1838331980E+00    0.4010257018E+00    0.4686866671E-02    0.5415780783E-01
    0.4500000000E+05    0.6137626767E+00    0.1817743287E+00    0.4041009891E+00    0.4622170847E-02    0.5421818935E-01
    0.4700000000E+05    0.6143367399E+00    0.1798132800E+00    0.4070377933E+00    0.4560908700E-02    0.5427291791E-01
    0.4900000000E+05    0.6148570692E+00    0.1779414423E+00    0.4098473827E+00    0.4502753447E-02    0.5432274759E-01
    0.1000000000E+05    0.5514799651E+00    0.2583163843E+00    0.3030372862E+00    0.7332601869E-02    0.4859952118E-01
    0.3000000000E+05    0.6064864806E+00    0.2004794247E+00    0.3765615869E+00    0.5225303675E-02    0.5353894529E-01
    0.5000000000E+05    0.6150993122E+00    0.1770365930E+00    0.4112076287E+00    0.4474751069E-02    0.5434602564E-01
    0.7000000000E+05    0.6183266039E+00    0.1622142381E+00    0.4336389088E+00    0.4025561353E-02    0.5466282992E-01
    0.9000000000E+05    0.6199763071E+00    0.1514576327E+00    0.4500306261E+00    0.3709726133E-02    0.5483265488E-01
    0.1100000000E+06    0.6209670141E+00    0.1430791713E+00    0.4628302126E+00    0.3468941817E-02    0.5493959379E-01
    0.1300000000E+06    0.6216237243E+00    0.1362599465E+00    0.4732572383E+00    0.3276081136E-02    0.5501387329E-01
    0.1500000000E+06    0.6220890619E+00    0.1305395160E+00    0.4820062677E+00    0.3116335107E-02    0.5506897434E-01
    0.1700000000E+06    0.6224350192E+00    0.1256332574E+00    0.4895096272E+00    0.2980750181E-02    0.5511181415E-01
    0.1900000000E+06    0.6227017076E+00    0.1213530889E+00    0.4960541483E+00    0.2863512115E-02    0.5514631096E-01
    0.2100000000E+06    0.6229131833E+00    0.1175683754E+00    0.5018395349E+00    0.2760639658E-02    0.5517485392E-01
    0.2300000000E+06    0.6230847204E+00    0.1141847980E+00    0.5070101872E+00    0.2669292483E-02    0.5519898534E-01
    0.2500000000E+06    0.6232264689E+00    0.1111321101E+00    0.5116737497E+00    0.2587376738E-02    0.5521974726E-01
    0.2700000000E+06    0.6233454296E+00    0.1083566430E+00    0.5159125082E+00    0.2513306931E-02    0.5523787030E-01
    0.2900000000E+06    0.6234465829E+00    0.1058165096E+00    0.5197907046E+00    0.2445855362E-02    0.5525388287E-01
    0.3100000000E+06    0.6235335662E+00    0.1034784210E+00    0.5233594019E+00    0.2384053206E-02    0.5526817720E-01
    0.3300000000E+06    0.6236090961E+00    0.1013155055E+00    0.5266598209E+00    0.2327123377E-02    0.5528105102E-01
    0.3500000000E+06    0.6236752415E+00    0.9930577584E-01    0.5297256888E+00    0.2274433719E-02    0.5529273472E-01
    0.3700000000E+06    0.6237336050E+00    0.9743102527E-01    0.5325849312E+00    0.2225463560E-02    0.5530340966E-01
    0.3900000000E+06    0.6237854468E+00    0.9567601807E-01    0.5352609139E+00    0.2179779324E-02    0.5531322069E-01
    0.4100000000E+06    0.6238317710E+00    0.9402788401E-01    0.5377733722E+00    0.2137016422E-02    0.5532228508E-01
    0.4300000000E+06    0.6238733874E+00    0.9247565891E-01    0.5401391157E+00    0.2096865578E-02    0.5533069885E-01
    0.4500000000E+06    0.6239109561E+00    0.9100993082E-01    0.5423725718E+00    0.2059062358E-02    0.5533854150E-01
    0.4700000000E+06    0.6239450204E+00    0.8962256417E-01    0.5444862092E+00    0.2023379039E-02    0.5534587946E-01
    0.4900000000E+06    0.6239760316E+00    0.8830648215E-01    0.5464908717E+00    0.1989618236E-02    0.5535276875E-01
    0.1000000000E+06    0.6205271646E+00    0.1470341076E+00    0.4567860910E+00    0.3582058570E-02    0.5489149610E-01
    0.3000000000E+06    0.6234916582E+00    0.1046240191E+00    0.5216109651E+00    0.2414300542E-02    0.5526122437E-01
    0.5000000000E+06    0.6239905126E+00    0.8767320747E-01    0.5474553485E+00    0.1973404120E-02    0.5535606028E-01
    0.7000000000E+06    0.6241857558E+00    0.7758607511E-01    0.5628064808E+00    0.1717878329E-02    0.5540686552E-01
    0.9000000000E+06    0.6242861819E+00    0.7062048141E-01    0.5733942336E+00    0.1544502107E-02    0.5544084755E-01
    0.1100000000E+07    0.6243455217E+00    0.6540592558E-01    0.5813134668E+00    0.1416413788E-02    0.5546616339E-01
    0.1300000000E+07    0.6243836298E+00    0.6129712725E-01    0.5875492217E+00    0.1316550404E-02    0.5548625477E-01
    0.1500000000E+07    0.6244094747E+00    0.5794253590E-01    0.5926376070E+00    0.1235735515E-02    0.5550287382E-01
    0.1700000000E+07    0.6244276699E+00    0.5513114788E-01    0.5969001387E+00    0.1168518686E-02    0.5551702645E-01
    0.1900000000E+07    0.6244408165E+00    0.5272720912E-01    0.6005435334E+00    0.1111423960E-02    0.5552934077E-01
    0.2100000000E+07    0.6244504844E+00    0.5063867869E-01    0.6037078650E+00    0.1062112463E-02    0.5554023409E-01
    0.2300000000E+07    0.6244576729E+00    0.4880053771E-01    0.6064920358E+00    0.1018942968E-02    0.5554999718E-01
    0.2500000000E+07    0.6244630452E+00    0.4716531176E-01    0.6089682298E+00    0.9807242249E-03    0.5555884049E-01
    0.2700000000E+07    0.6244670573E+00    0.4569737973E-01    0.6111905884E+00    0.9465672039E-03    0.5556692106E-01
    0.2900000000E+07    0.6244700314E+00    0.4436939715E-01    0.6132006590E+00    0.9157927765E-03    0.5557435912E-01
    0.3100000000E+07    0.6244722011E+00    0.4315996137E-01    0.6150309513E+00    0.8878717715E-03    0.5558124870E-01
    0.3300000000E+07    0.6244737391E+00    0.4205203777E-01    0.6167073330E+00    0.8623847626E-03    0.5558766469E-01
    0.3500000000E+07    0.6244747755E+00    0.4103186929E-01    0.6182506898E+00    0.8389943314E-03    0.5559366769E-01
    0.3700000000E+07    0.6244754097E+00    0.4008820268E-01    0.6196781018E+00    0.8174254650E-03    0.5559930743E-01
    0.3900000000E+07    0.6244757191E+00    0.3921172781E-01    0.6210036974E+00    0.7974514073E-03    0.5560462519E-01
    0.4100000000E+07    0.6244757640E+00    0.3839466379E-01    0.6222392816E+00    0.7788832526E-03    0.5560965561E-01
    0.4300000000E+07    0.6244755925E+00    0.3763044852E-01    0.6233948087E+00    0.7615621642E-03    0.5561442805E-01
    0.4500000000E+07    0.6244752431E+00    0.3691350214E-01    0.6244787415E+00    0.7453534666E-03    0.5561896762E-01
    0.4700000000E+07    0.6244747469E+00    0.3623904461E-01    0.6254983285E+00    0.7301421020E-03    0.5562329591E-01
    0.4900000000E+07    0.6244741291E+00    0.3560295319E-01    0.6264598207E+00    0.7158290901E-03    0.5562743168E-01
    0.1000000000E+07    0.6243193600E+00    0.6784439969E-01    0.5776109486E+00    0.1476126404E-02    0.5545431566E-01
    0.3000000000E+07    0.6244712048E+00    0.4375101330E-01    0.6141365273E+00    0.9015040094E-03    0.5557786741E-01
    0.5000000000E+07    0.6244737813E+00    0.3529815796E-01    0.6269205046E+00    0.7089822333E-03    0.5562943256E-01
    0.7000000000E+07    0.6244639209E+00    0.3055305636E-01    0.6340896946E+00    0.6033881237E-03    0.5566241167E-01
    0.9000000000E+07    0.6244524622E+00    0.2739333317E-01    0.6388605995E+00    0.5341815364E-03    0.5568669925E-01
    0.1100000000E+08    0.6244413910E+00    0.2508804473E-01    0.6423398170E+00    0.4842976122E-03    0.5570593271E-01
    0.1300000000E+08    0.6244311187E+00    0.2330683334E-01    0.6450271464E+00    0.4461304970E-03    0.5572185748E-01
    0.1500000000E+08    0.6244216770E+00    0.2187509671E-01    0.6471866130E+00    0.4157037946E-03    0.5573544682E-01
    0.1700000000E+08    0.6244129989E+00    0.2069050835E-01    0.6489728897E+00    0.3907078898E-03    0.5574729917E-01
    0.1900000000E+08    0.6244049975E+00    0.1968850607E-01    0.6504835352E+00    0.3696966103E-03    0.5575780887E-01
    0.2100000000E+08    0.6243975895E+00    0.1882602837E-01    0.6517836014E+00    0.3517117765E-03    0.5576724957E-01
    0.2300000000E+08    0.6243907011E+00    0.1807308043E-01    0.6529183902E+00    0.3360898789E-03    0.5577581891E-01
    0.2500000000E+08    0.6243842694E+00    0.1740802750E-01    0.6539205706E+00    0.3223548638E-03    0.5578366436E-01
    0.2700000000E+08    0.6243782406E+00    0.1681481089E-01    0.6548143871E+00    0.3101550664E-03    0.5579089882E-01
