  Pressure (Pa) 22mC5-400 (mol/kg) 2mC6-400 (mol/kg) 3mC6-400 (mol/kg) 33mC5-400 (mol/kg) 23mC5-400 (mol/kg)
    0.1000000000E+01    0.1056042580E-02    0.7126467210E-02    0.2630481571E-02    0.6447085037E-04    0.2781445164E-03
    0.3000000000E+01    0.3112997178E-02    0.2076395563E-01    0.7698980205E-02    0.1878483973E-03    0.8199211793E-03
    0.5000000000E+01    0.5100522843E-02    0.3363579910E-01    0.1252752535E-01    0.3043038625E-03    0.1343421495E-02
    0.7000000000E+01    0.7023127218E-02    0.4580197046E-01    0.1713430983E-01    0.4143794429E-03    0.1849831909E-02
    0.9000000000E+01    0.8884920650E-02    0.5731639424E-01    0.2153569750E-01    0.5185626480E-03    0.2340234300E-02
    0.1100000000E+02    0.1068965961E-01    0.6822768798E-01    0.2574644905E-01    0.6172930036E-03    0.2815617416E-02
    0.1300000000E+02    0.1244078451E-01    0.7857979720E-01    0.2977991502E-01    0.7109677935E-03    0.3276886817E-02
    0.1500000000E+02    0.1414145275E-01    0.8841254146E-01    0.3364820153E-01    0.7999469976E-03    0.3724873575E-02
    0.1700000000E+02    0.1579456761E-01    0.9776208573E-01    0.3736231311E-01    0.8845575534E-03    0.4160341889E-02
    0.1900000000E+02    0.1740280380E-01    0.1066613486E+00    0.4093227612E-01    0.9650970483E-03    0.4583995784E-02
    0.2100000000E+02    0.1896862975E-01    0.1151403572E+00    0.4436724603E-01    0.1041836927E-02    0.4996485007E-02
    0.2300000000E+02    0.2049432755E-01    0.1232265563E+00    0.4767560072E-01    0.1115025290E-02    0.5398410251E-02
    0.2500000000E+02    0.2198201041E-01    0.1309450793E+00    0.5086502206E-01    0.1184889338E-02    0.5790327766E-02
    0.2700000000E+02    0.2343363832E-01    0.1383189851E+00    0.5394256730E-01    0.1251637518E-02    0.6172753469E-02
    0.2900000000E+02    0.2485103191E-01    0.1453694670E+00    0.5691473194E-01    0.1315461414E-02    0.6546166598E-02
    0.3100000000E+02    0.2623588481E-01    0.1521160367E+00    0.5978750500E-01    0.1376537403E-02    0.6911012968E-02
    0.3300000000E+02    0.2758977479E-01    0.1585766871E+00    0.6256641795E-01    0.1435028134E-02    0.7267707891E-02
    0.3500000000E+02    0.2891417361E-01    0.1647680365E+00    0.6525658798E-01    0.1491083830E-02    0.7616638788E-02
    0.3700000000E+02    0.3021045603E-01    0.1707054569E+00    0.6786275651E-01    0.1544843445E-02    0.7958167536E-02
    0.3900000000E+02    0.3147990775E-01    0.1764031877E+00    0.7038932339E-01    0.1596435696E-02    0.8292632578E-02
    0.4100000000E+02    0.3272373269E-01    0.1818744379E+00    0.7284037743E-01    0.1645979985E-02    0.8620350831E-02
    0.4300000000E+02    0.3394305951E-01    0.1871314771E+00    0.7521972371E-01    0.1693587222E-02    0.8941619398E-02
    0.4500000000E+02    0.3513894751E-01    0.1921857170E+00    0.7753090808E-01    0.1739360560E-02    0.9256717131E-02
    0.4700000000E+02    0.3631239200E-01    0.1970477847E+00    0.7977723906E-01    0.1783396062E-02    0.9565906036E-02
    0.4900000000E+02    0.3746432917E-01    0.2017275887E+00    0.8196180763E-01    0.1825783293E-02    0.9869432557E-02
    0.1000000000E+02    0.9794199915E-02    0.6284458306E-01    0.2366403740E-01    0.5685836731E-03    0.2579744828E-02
    0.3000000000E+02    0.2554742474E-01    0.1487795825E+00    0.5836318651E-01    0.1346332425E-02    0.6729633988E-02
    0.5000000000E+02    0.3803250999E-01    0.2040020565E+00    0.8303184187E-01    0.1846385152E-02    0.1001914547E-01
    0.7000000000E+02    0.4845598913E-01    0.2418701980E+00    0.1018016526E+00    0.2189493252E-02    0.1276588135E-01
    0.9000000000E+02    0.5747505280E-01    0.2690336951E+00    0.1167722980E+00    0.2435764981E-02    0.1514284682E-01
    0.1100000000E+03    0.6548180403E-01    0.2891631677E+00    0.1291312540E+00    0.2618380498E-02    0.1725326774E-01
    0.1300000000E+03    0.7272661466E-01    0.3044441534E+00    0.1396045301E+00    0.2757096763E-02    0.1916306027E-01
    0.1500000000E+03    0.7937798926E-01    0.3162556655E+00    0.1486631941E+00    0.2864381007E-02    0.2091658877E-01
    0.1700000000E+03    0.8555419507E-01    0.3255087172E+00    0.1566275809E+00    0.2948470489E-02    0.2254499198E-01
    0.1900000000E+03    0.9134113340E-01    0.3328280164E+00    0.1637239599E+00    0.3015014701E-02    0.2407088766E-01
    0.2100000000E+03    0.9680300116E-01    0.3386553862E+00    0.1701172567E+00    0.3068010081E-02    0.2551117923E-01
    0.2300000000E+03    0.1019889438E+00    0.3433115425E+00    0.1759308990E+00    0.3110358358E-02    0.2687880731E-01
    0.2500000000E+03    0.1069373672E+00    0.3470345203E+00    0.1812593597E+00    0.3144213840E-02    0.2818388481E-01
    0.2700000000E+03    0.1116788237E+00    0.3500044108E+00    0.1861763653E+00    0.3171206992E-02    0.2943445691E-01
    0.2900000000E+03    0.1162379996E+00    0.3523597651E+00    0.1907404321E+00    0.3192592692E-02    0.3063702410E-01
    0.3100000000E+03    0.1206351159E+00    0.3542087564E+00    0.1949986986E+00    0.3209351122E-02    0.3179691125E-01
    0.3300000000E+03    0.1248869391E+00    0.3556369489E+00    0.1989896403E+00    0.3222257984E-02    0.3291853349E-01
    0.3500000000E+03    0.1290075226E+00    0.3567128149E+00    0.2027450311E+00    0.3231934381E-02    0.3400559159E-01
    0.3700000000E+03    0.1330087611E+00    0.3574917237E+00    0.2062913881E+00    0.3238882866E-02    0.3506121792E-01
    0.3900000000E+03    0.1369008116E+00    0.3580188726E+00    0.2096510516E+00    0.3243513941E-02    0.3608808721E-01
    0.4100000000E+03    0.1406924166E+00    0.3583314707E+00    0.2128430051E+00    0.3246165811E-02    0.3708850170E-01
    0.4300000000E+03    0.1443911562E+00    0.3584603895E+00    0.2158835062E+00    0.3247119296E-02    0.3806445755E-01
    0.4500000000E+03    0.1480036466E+00    0.3584314240E+00    0.2187865774E+00    0.3246609244E-02    0.3901769710E-01
    0.4700000000E+03    0.1515356984E+00    0.3582662677E+00    0.2215643929E+00    0.3244833345E-02    0.3994975053E-01
    0.4900000000E+03    0.1549924435E+00    0.3579832735E+00    0.2242275857E+00    0.3241959017E-02    0.4086196929E-01
    0.1000000000E+03    0.6158688963E-01    0.2798165778E+00    0.1232251700E+00    0.2533573416E-02    0.1622661600E-01
    0.3000000000E+03    0.1184556961E+00    0.3533417520E+00    0.1929052086E+00    0.3201497707E-02    0.3122200799E-01
    0.5000000000E+03    0.1566940200E+00    0.3578025593E+00    0.2255191618E+00    0.3240155342E-02    0.4131102093E-01
    0.7000000000E+03    0.1876523035E+00    0.3507824215E+00    0.2471009794E+00    0.3171867099E-02    0.4948256593E-01
    0.9000000000E+03    0.2142072830E+00    0.3409640935E+00    0.2633538764E+00    0.3076251123E-02    0.5649418876E-01
    0.1100000000E+04    0.2375759501E+00    0.3306516694E+00    0.2764445795E+00    0.2974876932E-02    0.6266633542E-01
    0.1300000000E+04    0.2584210325E+00    0.3206079705E+00    0.2874300159E+00    0.2875149619E-02    0.6817348826E-01
    0.1500000000E+04    0.2771657201E+00    0.3111013727E+00    0.2969070146E+00    0.2779854811E-02    0.7312705538E-01
    0.1700000000E+04    0.2941112036E+00    0.3022141889E+00    0.3052467787E+00    0.2689993498E-02    0.7760632647E-01
    0.1900000000E+04    0.3094884433E+00    0.2939522205E+00    0.3126965765E+00    0.2605801875E-02    0.8167210603E-01
    0.2100000000E+04    0.3234837323E+00    0.2862888459E+00    0.3194297796E+00    0.2527169695E-02    0.8537344428E-01
    0.2300000000E+04    0.3362524926E+00    0.2791843431E+00    0.3255728709E+00    0.2453828821E-02    0.8875126897E-01
    0.2500000000E+04    0.3479273127E+00    0.2725948343E+00    0.3312210958E+00    0.2385444183E-02    0.9184050067E-01
    0.2700000000E+04    0.3586229748E+00    0.2664765355E+00    0.3364480539E+00    0.2321659658E-02    0.9467137539E-01
    0.2900000000E+04    0.3684398176E+00    0.2607877545E+00    0.3413118540E+00    0.2262121741E-02    0.9727032889E-01
    0.3100000000E+04    0.3774661294E+00    0.2554897638E+00    0.3458592145E+00    0.2206491680E-02    0.9966062608E-01
    0.3300000000E+04    0.3857799473E+00    0.2505470961E+00    0.3501282834E+00    0.2154451370E-02    0.1018628339E+00
    0.3500000000E+04    0.3934504710E+00    0.2459275438E+00    0.3541506321E+00    0.2105705787E-02    0.1038951932E+00
    0.3700000000E+04    0.4005392143E+00    0.2416020071E+00    0.3579526976E+00    0.2059983482E-02    0.1057739211E+00
    0.3900000000E+04    0.4071009653E+00    0.2375442737E+00    0.3615568475E+00    0.2017035989E-02    0.1075134641E+00
    0.4100000000E+04    0.4131846037E+00    0.2337307706E+00    0.3649821813E+00    0.1976636647E-02    0.1091267124E+00
    0.4300000000E+04    0.4188338030E+00    0.2301403137E+00    0.3682451423E+00    0.1938579128E-02    0.1106251849E+00
    0.4500000000E+04    0.4240876405E+00    0.2267538672E+00    0.3713599916E+00    0.1902675854E-02    0.1120191897E+00
    0.4700000000E+04    0.4289811280E+00    0.2235543191E+00    0.3743391812E+00    0.1868756410E-02    0.1133179636E+00
    0.4900000000E+04    0.4335456780E+00    0.2205262760E+00    0.3771936492E+00    0.1836665996E-02    0.1145297950E+00
    0.1000000000E+04    0.2262407115E+00    0.3358041836E+00    0.2702133103E+00    0.3025655989E-02    0.5967224442E-01
    0.3000000000E+04    0.3730466904E+00    0.2580922045E+00    0.3436225307E+00    0.2233838635E-02    0.9849021562E-01
    0.5000000000E+04    0.4357135351E+00    0.2190721821E+00    0.3785771762E+00    0.1821262211E-02    0.1151054647E+00
    0.7000000000E+04    0.4672985807E+00    0.1962834845E+00    0.4015487275E+00    0.1581294148E-02    0.1235053500E+00
    0.9000000000E+04    0.4853500866E+00    0.1810458042E+00    0.4185374679E+00    0.1423982688E-02    0.1283225247E+00
    0.1100000000E+05    0.4966843057E+00    0.1698835065E+00    0.4319318623E+00    0.1311500753E-02    0.1313585444E+00
    0.1300000000E+05    0.5043185615E+00    0.1611873249E+00    0.4429307925E+00    0.1225954922E-02    0.1334117885E+00
    0.1500000000E+05    0.5097429746E+00    0.1541157123E+00    0.4522221175E+00    0.1157924305E-02    0.1348769865E+00
    0.1700000000E+05    0.5137610623E+00    0.1481844811E+00    0.4602369733E+00    0.1101997732E-02    0.1359672365E+00
    0.1900000000E+05    0.5168377513E+00    0.1430934365E+00    0.4672632284E+00    0.1054842853E-02    0.1368059886E+00
    0.2100000000E+05    0.5192578801E+00    0.1386451303E+00    0.4735024773E+00    0.1014289073E-02    0.1374689700E+00
    0.2300000000E+05    0.5212043552E+00    0.1347033944E+00    0.4791012638E+00    0.9788564021E-03    0.1380048711E+00
    0.2500000000E+05    0.5227993240E+00    0.1311706346E+00    0.4841693624E+00    0.9474969479E-03    0.1384462517E+00
    0.2700000000E+05    0.5241271043E+00    0.1279746461E+00    0.4887910646E+00    0.9194450316E-03    0.1388156186E+00
    0.2900000000E+05    0.5252475712E+00    0.1250605735E+00    0.4930324502E+00    0.8941261087E-03    0.1391289771E+00
    0.3100000000E+05    0.5262042939E+00    0.1223857982E+00    0.4969462452E+00    0.8710991650E-03    0.1393979906E+00
    0.3300000000E+05    0.5270296591E+00    0.1199165697E+00    0.5005751649E+00    0.8500190053E-03    0.1396313419E+00
    0.3500000000E+05    0.5277481954E+00    0.1176257164E+00    0.5039542761E+00    0.8306108108E-03    0.1398356172E+00
    0.3700000000E+05    0.5283787899E+00    0.1154910470E+00    0.5071127043E+00    0.8126525165E-03    0.1400158957E+00
    0.3900000000E+05    0.5289362020E+00    0.1134942092E+00    0.5100748910E+00    0.7959623201E-03    0.1401761530E+00
    0.4100000000E+05    0.5294321192E+00    0.1116198556E+00    0.5128615370E+00    0.7803896419E-03    0.1403195420E+00
    0.4300000000E+05    0.5298759067E+00    0.1098550247E+00    0.5154903205E+00    0.7658084625E-03    0.1404485937E+00
    0.4500000000E+05    0.5302751508E+00    0.1081886732E+00    0.5179764520E+00    0.7521123304E-03    0.1405653614E+00
    0.4700000000E+05    0.5306360571E+00    0.1066113169E+00    0.5203331076E+00    0.7392105658E-03    0.1406715277E+00
    0.4900000000E+05    0.5309637475E+00    0.1051147520E+00    0.5225717723E+00    0.7270253334E-03    0.1407684837E+00
    0.1000000000E+05    0.4916167374E+00    0.1750814421E+00    0.4255923968E+00    0.1363536940E-02    0.1299996629E+00
    0.3000000000E+05    0.5257441599E+00    0.1236955600E+00    0.4950274238E+00    0.8823496151E-03    0.1392684265E+00
    0.5000000000E+05    0.5311164973E+00    0.1043944977E+00    0.5236500531E+00    0.7211800332E-03    0.1408138778E+00
    0.7000000000E+05    0.5331643781E+00    0.9289723492E-01    0.5409203338E+00    0.6294848494E-03    0.1414392872E+00
    0.9000000000E+05    0.5342209855E+00    0.8491326117E-01    0.5529514258E+00    0.5674951007E-03    0.1417819137E+00
    0.1100000000E+06    0.5348579867E+00    0.7890298670E-01    0.5620151266E+00    0.5216859462E-03    0.1420011102E+00
    0.1300000000E+06    0.5352803405E+00    0.7414390020E-01    0.5691916149E+00    0.4859174784E-03    0.1421551933E+00
    0.1500000000E+06    0.5355789238E+00    0.7024183795E-01    0.5750737109E+00    0.4569169877E-03    0.1422705596E+00
    0.1700000000E+06    0.5357999736E+00    0.6695954652E-01    0.5800193102E+00    0.4327488198E-03    0.1423609198E+00
    0.1900000000E+06    0.5359694088E+00    0.6414388443E-01    0.5842597820E+00    0.4121808382E-03    0.1424341208E+00
    0.2100000000E+06    0.5361028462E+00    0.6169067971E-01    0.5879526324E+00    0.3943844616E-03    0.1424949889E+00
    0.2300000000E+06    0.5362102362E+00    0.5952611046E-01    0.5912095165E+00    0.3787781833E-03    0.1425466633E+00
    0.2500000000E+06    0.5362982080E+00    0.5759611326E-01    0.5941122111E+00    0.3649396925E-03    0.1425912788E+00
    0.2700000000E+06    0.5363713426E+00    0.5586000967E-01    0.5967222425E+00    0.3525535642E-03    0.1426303409E+00
    0.2900000000E+06    0.5364329028E+00    0.5428649152E-01    0.5990869565E+00    0.3413786168E-03    0.1426649436E+00
    0.3100000000E+06    0.5364852729E+00    0.5285099432E-01    0.6012434923E+00    0.3312267302E-03    0.1426959031E+00
    0.3300000000E+06    0.5365302342E+00    0.5153392261E-01    0.6032214689E+00    0.3219486395E-03    0.1427238410E+00
    0.3500000000E+06    0.5365691432E+00    0.5031941786E-01    0.6050448502E+00    0.3134241352E-03    0.1427492404E+00
    0.3700000000E+06    0.5366030498E+00    0.4919448218E-01    0.6067332716E+00    0.3055551352E-03    0.1427724826E+00
    0.3900000000E+06    0.5366327791E+00    0.4814834216E-01    0.6083030036E+00    0.2982606827E-03    0.1427938732E+00
    0.4100000000E+06    0.5366589878E+00    0.4717197837E-01    0.6097676637E+00    0.2914732642E-03    0.1428136603E+00
    0.4300000000E+06    0.5366822049E+00    0.4625777168E-01    0.6111387521E+00    0.2851360556E-03    0.1428320473E+00
    0.4500000000E+06    0.5367028608E+00    0.4539923349E-01    0.6124260597E+00    0.2792008294E-03    0.1428492034E+00
    0.4700000000E+06    0.5367213093E+00    0.4459079717E-01    0.6136379841E+00    0.2736263438E-03    0.1428652699E+00
    0.4900000000E+06    0.5367378435E+00    0.4382765492E-01    0.6147817762E+00    0.2683770876E-03    0.1428803664E+00
    0.1000000000E+06    0.5345750397E+00    0.8171747520E-01    0.5577705667E+00    0.5430478942E-03    0.1419021581E+00
    0.3000000000E+06    0.5364601136E+00    0.5355281494E-01    0.6001892443E+00    0.3361848988E-03    0.1426808361E+00
    0.5000000000E+06    0.5367454709E+00    0.4346174182E-01    0.6153301239E+00    0.2658646424E-03    0.1428875832E+00
    0.7000000000E+06    0.5368400877E+00    0.3774502437E-01    0.6238902299E+00    0.2270003840E-03    0.1429992804E+00
    0.9000000000E+06    0.5368784962E+00    0.3391713324E-01    0.6296148213E+00    0.2014048110E-03    0.1430742559E+00
    0.1100000000E+07    0.5368942252E+00    0.3111356439E-01    0.6338038546E+00    0.1828917858E-03    0.1431302129E+00
    0.1300000000E+07    0.5368991835E+00    0.2894107244E-01    0.6370478036E+00    0.1686898710E-03    0.1431746687E+00
    0.1500000000E+07    0.5368985125E+00    0.2719083932E-01    0.6396598819E+00    0.1573444684E-03    0.1432114656E+00
    0.1700000000E+07    0.5368947258E+00    0.2574003949E-01    0.6418241657E+00    0.1480080755E-03    0.1432428150E+00
    0.1900000000E+07    0.5368891624E+00    0.2451094839E-01    0.6436570603E+00    0.1401486717E-03    0.1432701004E+00
    0.2100000000E+07    0.5368825811E+00    0.2345159829E-01    0.6452363519E+00    0.1334130022E-03    0.1432942422E+00
    0.2300000000E+07    0.5368754317E+00    0.2252571518E-01    0.6466163101E+00    0.1275559982E-03    0.1433158823E+00
    0.2500000000E+07    0.5368679898E+00    0.2170708801E-01    0.6478361330E+00    0.1224015453E-03    0.1433354858E+00
    0.2700000000E+07    0.5368604282E+00    0.2097623052E-01    0.6489249512E+00    0.1178193623E-03    0.1433533999E+00
    0.2900000000E+07    0.5368528571E+00    0.2031830665E-01    0.6499049367E+00    0.1137107073E-03    0.1433698906E+00
    0.3100000000E+07    0.5368453468E+00    0.1972178985E-01    0.6507933103E+00    0.1099991844E-03    0.1433851658E+00
    0.3300000000E+07    0.5368379422E+00    0.1917756744E-01    0.6516036833E+00    0.1066246296E-03    0.1433993915E+00
    0.3500000000E+07    0.5368306717E+00    0.1867832507E-01    0.6523469779E+00    0.1035389260E-03    0.1434127018E+00
    0.3700000000E+07    0.5368235521E+00    0.1821811324E-01    0.6530320767E+00    0.1007030663E-03    0.1434252067E+00
    0.3900000000E+07    0.5368165931E+00    0.1779203526E-01    0.6536662887E+00    0.9808504801E-04    0.1434369979E+00
    0.4100000000E+07    0.5368097990E+00    0.1739601843E-01    0.6542556922E+00    0.9565833301E-04    0.1434481520E+00
    0.4300000000E+07    0.5368031709E+00    0.1702664334E-01    0.6548053894E+00    0.9340070302E-04    0.1434587341E+00
    0.4500000000E+07    0.5367967074E+00    0.1668101456E-01    0.6553197001E+00    0.9129339488E-04    0.1434687998E+00
    0.4700000000E+07    0.5367904057E+00    0.1635666140E-01    0.6558023098E+00    0.8932043868E-04    0.1434783971E+00
    0.4900000000E+07    0.5367842618E+00    0.1605146074E-01    0.6562563851E+00    0.8746814449E-04    0.1434875674E+00
    0.1000000000E+07    0.5368882086E+00    0.3241806963E-01    0.6318550784E+00    0.1914805414E-03    0.1431040160E+00
    0.3000000000E+07    0.5368490910E+00    0.2001299020E-01    0.6503596521E+00    0.1118093885E-03    0.1433776689E+00
    0.5000000000E+07    0.5367812476E+00    0.1590545898E-01    0.6564735928E+00    0.8658349015E-04    0.1434920039E+00
    0.7000000000E+07    0.5367280449E+00    0.1365244633E-01    0.6598243699E+00    0.7305639691E-04    0.1435651256E+00
    0.9000000000E+07    0.5366852804E+00    0.1217275454E-01    0.6620239642E+00    0.6430914002E-04    0.1436189710E+00
    0.1100000000E+08    0.5366497097E+00    0.1110341834E-01    0.6636130273E+00    0.5806231792E-04    0.1436616072E+00
    0.1300000000E+08    0.5366193141E+00    0.1028302880E-01    0.6648318465E+00    0.5331570930E-04    0.1436969057E+00
    0.1500000000E+08    0.5365927992E+00    0.9627266345E-02    0.6658058960E+00    0.4955222363E-04    0.1437270252E+00
    0.1700000000E+08    0.5365692953E+00    0.9087157008E-02    0.6666080304E+00    0.4647410203E-04    0.1437532931E+00
    0.1900000000E+08    0.5365481929E+00    0.8632023425E-02    0.6672838743E+00    0.4389619305E-04    0.1437765838E+00
    0.2100000000E+08    0.5365290490E+00    0.8241526685E-02    0.6678636707E+00    0.4169652700E-04    0.1437975043E+00
    0.2300000000E+08    0.5365115324E+00    0.7901571353E-02    0.6683683748E+00    0.3979105545E-04    0.1438164930E+00
    0.2500000000E+08    0.5364953889E+00    0.7602035099E-02    0.6688130331E+00    0.3811972924E-04    0.1438338768E+00
    0.2700000000E+08    0.5364804194E+00    0.7335433262E-02    0.6692087698E+00    0.3663835304E-04    0.1438499062E+00
