  Pressure (Pa) 22mC5-400 (mol/kg) 2mC6-400 (mol/kg) 3mC6-400 (mol/kg) 33mC5-400 (mol/kg) 23mC5-400 (mol/kg)
    0.1000000000E+01    0.1058330307E-02    0.4760780634E-02    0.3687536520E-02    0.6460494255E-04    0.3716624043E-03
    0.3000000000E+01    0.3132755526E-02    0.1392620015E-01    0.1081997482E-01    0.1889917959E-03    0.1100163965E-02
    0.5000000000E+01    0.5153239918E-02    0.2264399901E-01    0.1764749401E-01    0.3073167637E-03    0.1809733951E-02
    0.7000000000E+01    0.7122459959E-02    0.3094430948E-01    0.2419062468E-01    0.4199878914E-03    0.2501311610E-02
    0.9000000000E+01    0.9042911530E-02    0.3885463634E-01    0.3046806629E-01    0.5273776294E-03    0.3175772816E-02
    0.1100000000E+02    0.1091692506E-01    0.4640013763E-01    0.3649688795E-01    0.6298266388E-03    0.3833935389E-02
    0.1300000000E+02    0.1274667916E-01    0.5360386999E-01    0.4229270330E-01    0.7276471156E-03    0.4476563877E-02
    0.1500000000E+02    0.1453421295E-01    0.6048700382E-01    0.4786982325E-01    0.8211257064E-03    0.5104373873E-02
    0.1700000000E+02    0.1628143714E-01    0.6706901235E-01    0.5324138987E-01    0.9105260708E-03    0.5718035920E-02
    0.1900000000E+02    0.1799014414E-01    0.7336783843E-01    0.5841949406E-01    0.9960911411E-03    0.6318179041E-02
    0.2100000000E+02    0.1966201717E-01    0.7940004195E-01    0.6341527925E-01    0.1078045120E-02    0.6905393948E-02
    0.2300000000E+02    0.2129863856E-01    0.8518093048E-01    0.6823903299E-01    0.1156595249E-02    0.7480235946E-02
    0.2500000000E+02    0.2290149729E-01    0.9072467536E-01    0.7290026813E-01    0.1231933385E-02    0.8043227585E-02
    0.2700000000E+02    0.2447199588E-01    0.9604441510E-01    0.7740779491E-01    0.1304237396E-02    0.8594861073E-02
    0.2900000000E+02    0.2601145664E-01    0.1011523476E+00    0.8176978506E-01    0.1373672414E-02    0.9135600472E-02
    0.3100000000E+02    0.2752112741E-01    0.1060598128E+00    0.8599382909E-01    0.1440391955E-02    0.9665883715E-02
    0.3300000000E+02    0.2900218682E-01    0.1107773666E+00    0.9008698737E-01    0.1504538914E-02    0.1018612444E-01
    0.3500000000E+02    0.3045574908E-01    0.1153148470E+00    0.9405583605E-01    0.1566246474E-02    0.1069671368E-01
    0.3700000000E+02    0.3188286836E-01    0.1196814347E+00    0.9790650813E-01    0.1625638909E-02    0.1119802141E-01
    0.3900000000E+02    0.3328454291E-01    0.1238857062E+00    0.1016447305E+00    0.1682832319E-02    0.1169039796E-01
    0.4100000000E+02    0.3466171869E-01    0.1279356827E+00    0.1052758572E+00    0.1737935284E-02    0.1217417533E-01
    0.4300000000E+02    0.3601529287E-01    0.1318388744E+00    0.1088048998E+00    0.1791049467E-02    0.1264966840E-01
    0.4500000000E+02    0.3734611696E-01    0.1356023204E+00    0.1122365541E+00    0.1842270150E-02    0.1311717600E-01
    0.4700000000E+02    0.3865499972E-01    0.1392326246E+00    0.1155752254E+00    0.1891686726E-02    0.1357698198E-01
    0.4900000000E+02    0.3994270987E-01    0.1427359889E+00    0.1188250503E+00    0.1939383147E-02    0.1402935614E-01
    0.1000000000E+02    0.9985583479E-02    0.4267150254E-01    0.3351254654E-01    0.5791995818E-03    0.3506842452E-02
    0.3000000000E+02    0.2676994054E-01    0.1036304613E+00    0.8389859720E-01    0.1407362450E-02    0.9402022712E-02
    0.5000000000E+02    0.4057885511E-01    0.1444419042E+00    0.1204178697E+00    0.1962611146E-02    0.1425283697E-01
    0.7000000000E+02    0.5235022690E-01    0.1731408278E+00    0.1484405785E+00    0.2353714952E-02    0.1838844813E-01
    0.9000000000E+02    0.6265174378E-01    0.1940328809E+00    0.1708435922E+00    0.2638956508E-02    0.2200809952E-01
    0.1100000000E+03    0.7184896286E-01    0.2096270592E+00    0.1893139925E+00    0.2852300642E-02    0.2524009711E-01
    0.1300000000E+03    0.8018903150E-01    0.2214802799E+00    0.2049104275E+00    0.3014827104E-02    0.2817118959E-01
    0.1500000000E+03    0.8784574709E-01    0.2306072280E+00    0.2183331186E+00    0.3140277550E-02    0.3086238179E-01
    0.1700000000E+03    0.9494535729E-01    0.2376957749E+00    0.2300651625E+00    0.3237970746E-02    0.3335798928E-01
    0.1900000000E+03    0.1015821005E+00    0.2432275839E+00    0.2404515749E+00    0.3314434572E-02    0.3569109258E-01
    0.2100000000E+03    0.1078279708E+00    0.2475491882E+00    0.2497459662E+00    0.3374367805E-02    0.3788696433E-01
    0.2300000000E+03    0.1137390776E+00    0.2509157028E+00    0.2581393674E+00    0.3421231610E-02    0.3996530146E-01
    0.2500000000E+03    0.1193599173E+00    0.2535186933E+00    0.2657787210E+00    0.3457626651E-02    0.4194172447E-01
    0.2700000000E+03    0.1247263194E+00    0.2555044990E+00    0.2727791296E+00    0.3485541051E-02    0.4382881162E-01
    0.2900000000E+03    0.1298675283E+00    0.2569866060E+00    0.2792322024E+00    0.3506517855E-02    0.4563682941E-01
    0.3100000000E+03    0.1348077027E+00    0.2580542013E+00    0.2852118821E+00    0.3521770810E-02    0.4737425916E-01
    0.3300000000E+03    0.1395670177E+00    0.2587782093E+00    0.2907786020E+00    0.3532266080E-02    0.4904818375E-01
    0.3500000000E+03    0.1441624876E+00    0.2592156306E+00    0.2959823096E+00    0.3538780994E-02    0.5066457640E-01
    0.3700000000E+03    0.1486085890E+00    0.2594127129E+00    0.3008647028E+00    0.3541946989E-02    0.5222851946E-01
    0.3900000000E+03    0.1529177396E+00    0.2594073029E+00    0.3054609108E+00    0.3542281457E-02    0.5374437254E-01
    0.4100000000E+03    0.1571006710E+00    0.2592306137E+00    0.3098007745E+00    0.3540211696E-02    0.5521590319E-01
    0.4300000000E+03    0.1611667207E+00    0.2589085701E+00    0.3139098339E+00    0.3536093143E-02    0.5664638966E-01
    0.4500000000E+03    0.1651240653E+00    0.2584628437E+00    0.3178101001E+00    0.3530223396E-02    0.5803870257E-01
    0.4700000000E+03    0.1689799069E+00    0.2579116579E+00    0.3215206631E+00    0.3522853133E-02    0.5939537038E-01
    0.4900000000E+03    0.1727406237E+00    0.2572704189E+00    0.3250581767E+00    0.3514194675E-02    0.6071863240E-01
    0.1000000000E+03    0.6737082214E-01    0.2023786975E+00    0.1804935102E+00    0.2753079038E-02    0.2366638860E-01
    0.3000000000E+03    0.1323614013E+00    0.2575674144E+00    0.2822771626E+00    0.3514794406E-02    0.4651389612E-01
    0.5000000000E+03    0.1745871091E+00    0.2569201989E+00    0.3267666757E+00    0.3509439934E-02    0.6136836774E-01
    0.7000000000E+03    0.2076251463E+00    0.2475089698E+00    0.3546085038E+00    0.3378900616E-02    0.7299628706E-01
    0.9000000000E+03    0.2350909680E+00    0.2365319485E+00    0.3746701387E+00    0.3223298165E-02    0.8266693406E-01
    0.1100000000E+04    0.2585597527E+00    0.2257855254E+00    0.3902543700E+00    0.3068574950E-02    0.9093327826E-01
    0.1300000000E+04    0.2789172738E+00    0.2157806289E+00    0.4029385317E+00    0.2922679074E-02    0.9810626462E-01
    0.1500000000E+04    0.2967452262E+00    0.2066347767E+00    0.4135953686E+00    0.2787871245E-02    0.1043901022E+00
    0.1700000000E+04    0.3124645439E+00    0.1983303367E+00    0.4227574232E+00    0.2664349901E-02    0.1099325794E+00
    0.1900000000E+04    0.3263988564E+00    0.1908031514E+00    0.4307731711E+00    0.2551529204E-02    0.1148473384E+00
    0.2100000000E+04    0.3388065958E+00    0.1839761628E+00    0.4378829140E+00    0.2448544412E-02    0.1192251434E+00
    0.2300000000E+04    0.3498991587E+00    0.1777727456E+00    0.4442592560E+00    0.2354465726E-02    0.1231402529E+00
    0.2500000000E+04    0.3598522105E+00    0.1721218668E+00    0.4500302863E+00    0.2268390786E-02    0.1266543857E+00
    0.2700000000E+04    0.3688133024E+00    0.1669597714E+00    0.4552936319E+00    0.2189483069E-02    0.1298193922E+00
    0.2900000000E+04    0.3769073342E+00    0.1622301596E+00    0.4601253755E+00    0.2116985094E-02    0.1326791709E+00
    0.3100000000E+04    0.3842406604E+00    0.1578837281E+00    0.4645859368E+00    0.2050219723E-02    0.1352711088E+00
    0.3300000000E+04    0.3909042806E+00    0.1538774744E+00    0.4687240777E+00    0.1988585968E-02    0.1376272007E+00
    0.3500000000E+04    0.3969763791E+00    0.1501739482E+00    0.4725797059E+00    0.1931552479E-02    0.1397749398E+00
    0.3700000000E+04    0.4025243775E+00    0.1467405335E+00    0.4761858853E+00    0.1878650325E-02    0.1417380387E+00
    0.3900000000E+04    0.4076066152E+00    0.1435487957E+00    0.4795703069E+00    0.1829465865E-02    0.1435370189E+00
    0.4100000000E+04    0.4122737349E+00    0.1405739055E+00    0.4827563861E+00    0.1783634086E-02    0.1451896971E+00
    0.4300000000E+04    0.4165698338E+00    0.1377941366E+00    0.4857640939E+00    0.1740832577E-02    0.1467115896E+00
    0.4500000000E+04    0.4205334233E+00    0.1351904346E+00    0.4886105961E+00    0.1700776154E-02    0.1481162492E+00
    0.4700000000E+04    0.4241982338E+00    0.1327460463E+00    0.4913107509E+00    0.1663212144E-02    0.1494155480E+00
    0.4900000000E+04    0.4275938908E+00    0.1304462042E+00    0.4938775017E+00    0.1627916261E-02    0.1506199146E+00
    0.1000000000E+04    0.2472598669E+00    0.2310835200E+00    0.3829000387E+00    0.3145123663E-02    0.8695278306E-01
    0.3000000000E+04    0.3806630706E+00    0.1600118728E+00    0.4623987706E+00    0.2082925110E-02    0.1340065053E+00
    0.5000000000E+04    0.4291990645E+00    0.1293463488E+00    0.4951144500E+00    0.1611055647E-02    0.1511894127E+00
    0.7000000000E+04    0.4520873501E+00    0.1124615943E+00    0.5149884297E+00    0.1354692866E-02    0.1593264436E+00
    0.9000000000E+04    0.4648314730E+00    0.1015040665E+00    0.5289101854E+00    0.1192352256E-02    0.1638782512E+00
    0.1100000000E+05    0.4727636427E+00    0.9363877663E-01    0.5394435590E+00    0.1078775837E-02    0.1667256577E+00
    0.1300000000E+05    0.4781019234E+00    0.8761259943E-01    0.5478123051E+00    0.9937987444E-03    0.1686521714E+00
    0.1500000000E+05    0.4819059664E+00    0.8278456293E-01    0.5546907213E+00    0.9271401959E-03    0.1700326624E+00
    0.1700000000E+05    0.4847369554E+00    0.7879010441E-01    0.5604873825E+00    0.8730047447E-03    0.1710659670E+00
    0.1900000000E+05    0.4869165083E+00    0.7540475863E-01    0.5654672812E+00    0.8278656235E-03    0.1718662229E+00
    0.2100000000E+05    0.4886407676E+00    0.7248163814E-01    0.5698113338E+00    0.7894446200E-03    0.1725031539E+00
    0.2300000000E+05    0.4900354948E+00    0.6991989936E-01    0.5736481189E+00    0.7561982837E-03    0.1730215415E+00
    0.2500000000E+05    0.4911847107E+00    0.6764758770E-01    0.5770720234E+00    0.7270396702E-03    0.1734513571E+00
    0.2700000000E+05    0.4921465111E+00    0.6561171432E-01    0.5801542059E+00    0.7011784187E-03    0.1738133614E+00
    0.2900000000E+05    0.4929622516E+00    0.6377221811E-01    0.5829495251E+00    0.6780241853E-03    0.1741223602E+00
    0.3100000000E+05    0.4936621149E+00    0.6209813261E-01    0.5855010858E+00    0.6571258515E-03    0.1743891795E+00
    0.3300000000E+05    0.4942686104E+00    0.6056506367E-01    0.5878433162E+00    0.6381318697E-03    0.1746219085E+00
    0.3500000000E+05    0.4947988448E+00    0.5915347777E-01    0.5900041101E+00    0.6207635923E-03    0.1748267068E+00
    0.3700000000E+05    0.4952660376E+00    0.5784750902E-01    0.5920063522E+00    0.6047968467E-03    0.1750083436E+00
    0.3900000000E+05    0.4956805562E+00    0.5663410809E-01    0.5938690273E+00    0.5900489071E-03    0.1751705666E+00
    0.4100000000E+05    0.4960506394E+00    0.5550242246E-01    0.5956080423E+00    0.5763690884E-03    0.1753163602E+00
    0.4300000000E+05    0.4963829127E+00    0.5444333690E-01    0.5972368440E+00    0.5636318297E-03    0.1754481291E+00
    0.4500000000E+05    0.4966827616E+00    0.5344912712E-01    0.5987668917E+00    0.5517315234E-03    0.1755678321E+00
    0.4700000000E+05    0.4969546066E+00    0.5251319491E-01    0.6002080223E+00    0.5405785925E-03    0.1756770801E+00
    0.4900000000E+05    0.4972021081E+00    0.5162986292E-01    0.6015687365E+00    0.5300964731E-03    0.1757772102E+00
    0.1000000000E+05    0.4692205669E+00    0.9728394429E-01    0.5345057796E+00    0.1131062470E-02    0.1654519813E+00
    0.3000000000E+05    0.4933251124E+00    0.6291615455E-01    0.5842534489E+00    0.6673169746E-03    0.1742604836E+00
    0.5000000000E+05    0.4973177053E+00    0.5120635932E-01    0.6022212853E+00    0.5250860109E-03    0.1758242128E+00
    0.7000000000E+05    0.4988827210E+00    0.4458827638E-01    0.6124250076E+00    0.4480335719E-03    0.1764806925E+00
    0.9000000000E+05    0.4997023518E+00    0.4014867905E-01    0.6192660028E+00    0.3976274989E-03    0.1768485461E+00
    0.1100000000E+06    0.5002005432E+00    0.3688950819E-01    0.6242803566E+00    0.3612667463E-03    0.1770874934E+00
    0.1300000000E+06    0.5005322318E+00    0.3435842434E-01    0.6281681316E+00    0.3334032034E-03    0.1772573095E+00
    0.1500000000E+06    0.5007670671E+00    0.3231531885E-01    0.6313015348E+00    0.3111515805E-03    0.1773855058E+00
    0.1700000000E+06    0.5009408516E+00    0.3061884993E-01    0.6338996928E+00    0.2928397761E-03    0.1774865584E+00
    0.1900000000E+06    0.5010738133E+00    0.2917946715E-01    0.6361013645E+00    0.2774215799E-03    0.1775688386E+00
    0.2100000000E+06    0.5011782151E+00    0.2793721492E-01    0.6379993761E+00    0.2642037766E-03    0.1776375395E+00
    0.2300000000E+06    0.5012619078E+00    0.2685018652E-01    0.6396585496E+00    0.2527061016E-03    0.1776960630E+00
    0.2500000000E+06    0.5013301422E+00    0.2588806081E-01    0.6411257415E+00    0.2425837224E-03    0.1777467367E+00
    0.2700000000E+06    0.5013865571E+00    0.2502826759E-01    0.6424357974E+00    0.2335816877E-03    0.1777912104E+00
    0.2900000000E+06    0.5014337507E+00    0.2425360251E-01    0.6436152544E+00    0.2255068300E-03    0.1778306888E+00
    0.3100000000E+06    0.5014736251E+00    0.2355068418E-01    0.6446847346E+00    0.2182097231E-03    0.1778660739E+00
    0.3300000000E+06    0.5015076031E+00    0.2290892251E-01    0.6456605448E+00    0.2115726967E-03    0.1778980554E+00
    0.3500000000E+06    0.5015367693E+00    0.2231980905E-01    0.6465557762E+00    0.2055016400E-03    0.1779271708E+00
    0.3700000000E+06    0.5015619638E+00    0.2177641669E-01    0.6473810788E+00    0.1999202551E-03    0.1779538455E+00
    0.3900000000E+06    0.5015838471E+00    0.2127303925E-01    0.6481452193E+00    0.1947659369E-03    0.1779784215E+00
    0.4100000000E+06    0.5016029449E+00    0.2080492694E-01    0.6488554902E+00    0.1899867627E-03    0.1780011769E+00
    0.4300000000E+06    0.5016196806E+00    0.2036808884E-01    0.6495180148E+00    0.1855392543E-03    0.1780223403E+00
    0.4500000000E+06    0.5016343987E+00    0.1995914321E-01    0.6501379789E+00    0.1813866877E-03    0.1780421020E+00
    0.4700000000E+06    0.5016473822E+00    0.1957520241E-01    0.6507198079E+00    0.1774978000E-03    0.1780606215E+00
    0.4900000000E+06    0.5016588653E+00    0.1921378345E-01    0.6512673048E+00    0.1738457858E-03    0.1780780339E+00
    0.1000000000E+06    0.4999789040E+00    0.3840693493E-01    0.6219467703E+00    0.3781283590E-03    0.1769792539E+00
    0.3000000000E+06    0.5014545046E+00    0.2389389275E-01    0.6441626361E+00    0.2217690458E-03    0.1778488457E+00
    0.5000000000E+06    0.5016641067E+00    0.1904083674E-01    0.6515292244E+00    0.1721012516E-03    0.1780863615E+00
    0.7000000000E+06    0.5017241102E+00    0.1636779871E-01    0.6555716595E+00    0.1453973288E-03    0.1782155189E+00
    0.9000000000E+06    0.5017416137E+00    0.1460790732E-01    0.6582272044E+00    0.1280985965E-03    0.1783024479E+00
    0.1100000000E+07    0.5017428569E+00    0.1333392617E-01    0.6601465903E+00    0.1157287747E-03    0.1783674160E+00
    0.1300000000E+07    0.5017369280E+00    0.1235530943E-01    0.6616192904E+00    0.1063202820E-03    0.1784190726E+00
    0.1500000000E+07    0.5017276265E+00    0.1157230698E-01    0.6627965580E+00    0.9885454089E-04    0.1784618513E+00
    0.1700000000E+07    0.5017167376E+00    0.1092688890E-01    0.6637662575E+00    0.9274436622E-04    0.1784983093E+00
    0.1900000000E+07    0.5017051663E+00    0.1038265813E-01    0.6645834341E+00    0.8762429681E-04    0.1785300484E+00
    0.2100000000E+07    0.5016933945E+00    0.9915457829E-02    0.6652845861E+00    0.8325339217E-04    0.1785581356E+00
    0.2300000000E+07    0.5016816856E+00    0.9508531506E-02    0.6658950099E+00    0.7946550811E-04    0.1785833154E+00
    0.2500000000E+07    0.5016701847E+00    0.9149836527E-02    0.6664328728E+00    0.7614187019E-04    0.1786061276E+00
    0.2700000000E+07    0.5016589697E+00    0.8830462286E-02    0.6669116089E+00    0.7319501554E-04    0.1786269753E+00
    0.2900000000E+07    0.5016480798E+00    0.8543653058E-02    0.6673413979E+00    0.7055892322E-04    0.1786461675E+00
    0.3100000000E+07    0.5016375313E+00    0.8284179819E-02    0.6677301152E+00    0.6818269842E-04    0.1786639459E+00
    0.3300000000E+07    0.5016273268E+00    0.8047922594E-02    0.6680839632E+00    0.6602639090E-04    0.1786805033E+00
    0.3500000000E+07    0.5016174610E+00    0.7831584637E-02    0.6684079029E+00    0.6405814466E-04    0.1786959956E+00
    0.3700000000E+07    0.5016079239E+00    0.7632491903E-02    0.6687059569E+00    0.6225220515E-04    0.1787105509E+00
    0.3900000000E+07    0.5015987028E+00    0.7448449231E-02    0.6689814262E+00    0.6058749512E-04    0.1787242756E+00
    0.4100000000E+07    0.5015897838E+00    0.7277635204E-02    0.6692370490E+00    0.5904657665E-04    0.1787372589E+00
    0.4300000000E+07    0.5015811526E+00    0.7118523955E-02    0.6694751186E+00    0.5761488143E-04    0.1787495766E+00
    0.4500000000E+07    0.5015727950E+00    0.6969826097E-02    0.6696975722E+00    0.5628013110E-04    0.1787612932E+00
    0.4700000000E+07    0.5015646971E+00    0.6830443502E-02    0.6699060595E+00    0.5503189453E-04    0.1787724646E+00
    0.4900000000E+07    0.5015568455E+00    0.6699434225E-02    0.6701019949E+00    0.5386124539E-04    0.1787831391E+00
    0.1000000000E+07    0.5017435091E+00    0.1392514912E-01    0.6592561602E+00    0.1214526852E-03    0.1783369923E+00
    0.3000000000E+07    0.5016427624E+00    0.8410779077E-02    0.6675404695E+00    0.6934104229E-04    0.1786552204E+00
    0.5000000000E+07    0.5015530081E+00    0.6636811036E-02    0.6701956439E+00    0.5330257094E-04    0.1787883033E+00
    0.7000000000E+07    0.5014864831E+00    0.5674449751E-02    0.6716340399E+00    0.4479443265E-04    0.1788734190E+00
    0.9000000000E+07    0.5014341571E+00    0.5046475118E-02    0.6725718783E+00    0.3932726716E-04    0.1789360948E+00
    0.1100000000E+08    0.5013911333E+00    0.4594646750E-02    0.6732462780E+00    0.3543966049E-04    0.1789857215E+00
    0.1300000000E+08    0.5013546325E+00    0.4249134312E-02    0.6737617769E+00    0.3249507488E-04    0.1790268059E+00
    0.1500000000E+08    0.5013229481E+00    0.3973657429E-02    0.6741726506E+00    0.3016616775E-04    0.1790618613E+00
    0.1700000000E+08    0.5012949621E+00    0.3747231737E-02    0.6745102753E+00    0.2826520203E-04    0.1790924329E+00
    0.1900000000E+08    0.5012699037E+00    0.3556756391E-02    0.6747942317E+00    0.2667581507E-04    0.1791195389E+00
    0.2100000000E+08    0.5012472195E+00    0.3393569487E-02    0.6750374613E+00    0.2532155565E-04    0.1791438858E+00
    0.2300000000E+08    0.5012264993E+00    0.3251682021E-02    0.6752489097E+00    0.2414985984E-04    0.1791659839E+00
    0.2500000000E+08    0.5012074305E+00    0.3126801714E-02    0.6754349863E+00    0.2312324528E-04    0.1791862139E+00
    0.2700000000E+08    0.5011897696E+00    0.3015760298E-02    0.6756004213E+00    0.2221417190E-04    0.1792048673E+00
