  Pressure (Pa) 22mC5-400 (mol/kg) 2mC6-400 (mol/kg) 3mC6-400 (mol/kg) 33mC5-400 (mol/kg) 23mC5-400 (mol/kg)
    0.1000000000E+01    0.1590121868E-02    0.1598171839E-02    0.5309623923E-03    0.5855322989E-03    0.4653464563E-03
    0.3000000000E+01    0.4721998712E-02    0.4739888168E-02    0.1582106834E-02    0.1736480920E-02    0.1381895140E-02
    0.5000000000E+01    0.7791330367E-02    0.7810815786E-02    0.2619144459E-02    0.2861360241E-02    0.2280153261E-02
    0.7000000000E+01    0.1080034967E-01    0.1081331343E-01    0.3642387188E-02    0.3961036543E-02    0.3160773682E-02
    0.9000000000E+01    0.1375118142E-01    0.1374963307E-01    0.4652137607E-02    0.5036336989E-02    0.4024377683E-02
    0.1100000000E+02    0.1664584888E-01    0.1662192606E-01    0.5648689324E-02    0.6088051859E-02    0.4871556851E-02
    0.1300000000E+02    0.1948627973E-01    0.1943224884E-01    0.6632327297E-02    0.7116936641E-02    0.5702874836E-02
    0.1500000000E+02    0.2227431168E-01    0.2218256822E-01    0.7603328157E-02    0.8123713975E-02    0.6518868983E-02
    0.1700000000E+02    0.2501169769E-01    0.2487476635E-01    0.8561960508E-02    0.9109075465E-02    0.7320051850E-02
    0.1900000000E+02    0.2770011075E-01    0.2751064536E-01    0.9508485223E-02    0.1007368338E-01    0.8106912628E-02
    0.2100000000E+02    0.3034114848E-01    0.3009193166E-01    0.1044315572E-01    0.1101817220E-01    0.8879918459E-02
    0.2300000000E+02    0.3293633727E-01    0.3262027998E-01    0.1136621822E-01    0.1194315017E-01    0.9639515667E-02
    0.2500000000E+02    0.3548713626E-01    0.3509727712E-01    0.1227791203E-01    0.1284920058E-01    0.1038613091E-01
    0.2700000000E+02    0.3799494098E-01    0.3752444557E-01    0.1317846976E-01    0.1373688315E-01    0.1112017225E-01
    0.2900000000E+02    0.4046108685E-01    0.3990324671E-01    0.1406811756E-01    0.1460673518E-01    0.1184203018E-01
    0.3100000000E+02    0.4288685231E-01    0.4223508399E-01    0.1494707535E-01    0.1545927274E-01    0.1255207852E-01
    0.3300000000E+02    0.4527346193E-01    0.4452130586E-01    0.1581555705E-01    0.1629499169E-01    0.1325067534E-01
    0.3500000000E+02    0.4762208916E-01    0.4676320842E-01    0.1667377075E-01    0.1711436872E-01    0.1393816378E-01
    0.3700000000E+02    0.4993385901E-01    0.4896203810E-01    0.1752191895E-01    0.1791786226E-01    0.1461487281E-01
    0.3900000000E+02    0.5220985055E-01    0.5111899399E-01    0.1836019872E-01    0.1870591341E-01    0.1528111796E-01
    0.4100000000E+02    0.5445109923E-01    0.5323523020E-01    0.1918880187E-01    0.1947894671E-01    0.1593720201E-01
    0.4300000000E+02    0.5665859905E-01    0.5531185792E-01    0.2000791519E-01    0.2023737100E-01    0.1658341562E-01
    0.4500000000E+02    0.5883330468E-01    0.5734994751E-01    0.2081772053E-01    0.2098158010E-01    0.1722003796E-01
    0.4700000000E+02    0.6097613334E-01    0.5935053035E-01    0.2161839502E-01    0.2171195354E-01    0.1784733723E-01
    0.4900000000E+02    0.6308796667E-01    0.6131460071E-01    0.2241011122E-01    0.2242885722E-01    0.1846557125E-01
    0.1000000000E+02    0.1520541304E-01    0.1519365221E-01    0.5152045294E-02    0.5565094611E-02    0.4449984508E-02
    0.3000000000E+02    0.4167893936E-01    0.4107495030E-01    0.1450891920E-01    0.1503513682E-01    0.1219850781E-01
    0.5000000000E+02    0.6413252630E-01    0.6228324466E-01    0.2280266266E-01    0.2278236866E-01    0.1877136664E-01
    0.7000000000E+02    0.8358632397E-01    0.7995530670E-01    0.3022213536E-01    0.2922498016E-01    0.2446686804E-01
    0.9000000000E+02    0.1007304327E+00    0.9488248921E-01    0.3691308264E-01    0.3465434920E-01    0.2948681561E-01
    0.1100000000E+03    0.1160490878E+00    0.1076345108E+00    0.4298986301E-01    0.3928041948E-01    0.3397281756E-01
    0.1300000000E+03    0.1298926757E+00    0.1186329766E+00    0.4854353219E-01    0.4325867211E-01    0.3802734307E-01
    0.1500000000E+03    0.1425214629E+00    0.1281971273E+00    0.5364754162E-01    0.4670692078E-01    0.4172650821E-01
    0.1700000000E+03    0.1541332006E+00    0.1365734331E+00    0.5836183600E-01    0.4971618363E-01    0.4512814766E-01
    0.1900000000E+03    0.1648811409E+00    0.1439553773E+00    0.6273585219E-01    0.5235795525E-01    0.4827708294E-01
    0.2100000000E+03    0.1748861403E+00    0.1504970555E+00    0.6681074935E-01    0.5468920911E-01    0.5120866150E-01
    0.2300000000E+03    0.1842449978E+00    0.1563227561E+00    0.7062109139E-01    0.5675592285E-01    0.5395119519E-01
    0.2500000000E+03    0.1930363292E+00    0.1615338508E+00    0.7419613284E-01    0.5859561593E-01    0.5652767806E-01
    0.2700000000E+03    0.2013247888E+00    0.1662138463E+00    0.7756081350E-01    0.6023921036E-01    0.5895702085E-01
    0.2900000000E+03    0.2091641568E+00    0.1704321480E+00    0.8073653622E-01    0.6171241794E-01    0.6125495404E-01
    0.3100000000E+03    0.2165996343E+00    0.1742469058E+00    0.8374178118E-01    0.6303678974E-01    0.6343469894E-01
    0.3300000000E+03    0.2236695739E+00    0.1777071950E+00    0.8659259565E-01    0.6423052068E-01    0.6550747387E-01
    0.3500000000E+03    0.2304068022E+00    0.1808547081E+00    0.8930298771E-01    0.6530907371E-01    0.6748288087E-01
    0.3700000000E+03    0.2368396422E+00    0.1837250805E+00    0.9188524540E-01    0.6628566945E-01    0.6936920474E-01
    0.3900000000E+03    0.2429927127E+00    0.1863489404E+00    0.9435019722E-01    0.6717167397E-01    0.7117364691E-01
    0.4100000000E+03    0.2488875602E+00    0.1887527480E+00    0.9670742642E-01    0.6797690881E-01    0.7290251020E-01
    0.4300000000E+03    0.2545431626E+00    0.1909594708E+00    0.9896544814E-01    0.6870990083E-01    0.7456134608E-01
    0.4500000000E+03    0.2599763341E+00    0.1929891332E+00    0.1011318570E+00    0.6937808523E-01    0.7615507318E-01
    0.4700000000E+03    0.2652020537E+00    0.1948592649E+00    0.1032134507E+00    0.6998797157E-01    0.7768807342E-01
    0.4900000000E+03    0.2702337341E+00    0.1965852706E+00    0.1052163338E+00    0.7054528056E-01    0.7916427054E-01
    0.1000000000E+03    0.1085935185E+00    0.1015012092E+00    0.4002208268E-01    0.3705703600E-01    0.3178941731E-01
    0.3000000000E+03    0.2129298415E+00    0.1723867119E+00    0.8225941347E-01    0.6239200054E-01    0.6235885696E-01
    0.5000000000E+03    0.2726806281E+00    0.1973985354E+00    0.1061899990E+00    0.7080581885E-01    0.7988218496E-01
    0.7000000000E+03    0.3138210887E+00    0.2086701767E+00    0.1226159116E+00    0.7421151296E-01    0.9195740879E-01
    0.9000000000E+03    0.3442785596E+00    0.2143779399E+00    0.1350814632E+00    0.7564200762E-01    0.1009038057E+00
    0.1100000000E+04    0.3677550074E+00    0.2174337169E+00    0.1451339155E+00    0.7617072578E-01    0.1078047169E+00
    0.1300000000E+04    0.3863538604E+00    0.2190832756E+00    0.1535725862E+00    0.7625023815E-01    0.1132758657E+00
    0.1500000000E+04    0.4014002154E+00    0.2199277904E+00    0.1608594587E+00    0.7609372098E-01    0.1177052560E+00
    0.1700000000E+04    0.4137816786E+00    0.2202839186E+00    0.1672839181E+00    0.7580962534E-01    0.1213528672E+00
    0.1900000000E+04    0.4241177004E+00    0.2203301509E+00    0.1730385480E+00    0.7545631897E-01    0.1244001891E+00
    0.2100000000E+04    0.4328538433E+00    0.2201727450E+00    0.1782577049E+00    0.7506656182E-01    0.1269778026E+00
    0.2300000000E+04    0.4403183409E+00    0.2198778775E+00    0.1830387329E+00    0.7465931885E-01    0.1291819297E+00
    0.2500000000E+04    0.4467578366E+00    0.2194883556E+00    0.1874543746E+00    0.7424580658E-01    0.1310848944E+00
    0.2700000000E+04    0.4523608461E+00    0.2190327748E+00    0.1915604055E+00    0.7383273926E-01    0.1327419905E+00
    0.2900000000E+04    0.4572736216E+00    0.2185307682E+00    0.1954005312E+00    0.7342414222E-01    0.1341961270E+00
    0.3100000000E+04    0.4616111446E+00    0.2179961354E+00    0.1990096421E+00    0.7302239888E-01    0.1354810476E+00
    0.3300000000E+04    0.4654648975E+00    0.2174387720E+00    0.2024160421E+00    0.7262887288E-01    0.1366236066E+00
    0.3500000000E+04    0.4689084589E+00    0.2168658957E+00    0.2056430159E+00    0.7224428662E-01    0.1376454085E+00
    0.3700000000E+04    0.4720015944E+00    0.2162828473E+00    0.2087099566E+00    0.7186895635E-01    0.1385640066E+00
    0.3900000000E+04    0.4747932911E+00    0.2156936263E+00    0.2116331929E+00    0.7150294081E-01    0.1393937925E+00
    0.4100000000E+04    0.4773240373E+00    0.2151012574E+00    0.2144266080E+00    0.7114613646E-01    0.1401466639E+00
    0.4300000000E+04    0.4796275550E+00    0.2145080453E+00    0.2171021090E+00    0.7079833926E-01    0.1408325330E+00
    0.4500000000E+04    0.4817321312E+00    0.2139157564E+00    0.2196699886E+00    0.7045928497E-01    0.1414597167E+00
    0.4700000000E+04    0.4836616516E+00    0.2133257491E+00    0.2221392078E+00    0.7012867577E-01    0.1420352395E+00
    0.4900000000E+04    0.4854364095E+00    0.2127390698E+00    0.2245176183E+00    0.6980619761E-01    0.1425650712E+00
    0.1000000000E+04    0.3567337456E+00    0.2161375417E+00    0.1403485039E+00    0.7598264295E-01    0.1045643841E+00
    0.3000000000E+04    0.4595080955E+00    0.2182668371E+00    0.1972320611E+00    0.7322231002E-01    0.1348579212E+00
    0.5000000000E+04    0.4862712723E+00    0.2124472376E+00    0.2256749655E+00    0.6964790801E-01    0.1428144771E+00
    0.7000000000E+04    0.4979628815E+00    0.2069016348E+00    0.2453752677E+00    0.6683555388E-01    0.1463221653E+00
    0.9000000000E+04    0.5044012607E+00    0.2019650835E+00    0.2606238628E+00    0.6453755218E-01    0.1482721648E+00
    0.1100000000E+05    0.5084438393E+00    0.1975757158E+00    0.2731260404E+00    0.6259595731E-01    0.1495084565E+00
    0.1300000000E+05    0.5112052682E+00    0.1936413956E+00    0.2837473791E+00    0.6091522046E-01    0.1503612799E+00
    0.1500000000E+05    0.5132053792E+00    0.1900831555E+00    0.2929924532E+00    0.5943383497E-01    0.1509851273E+00
    0.1700000000E+05    0.5147177894E+00    0.1868383816E+00    0.3011831207E+00    0.5810990949E-01    0.1514615748E+00
    0.1900000000E+05    0.5158997140E+00    0.1838579461E+00    0.3085381745E+00    0.5691360032E-01    0.1518376448E+00
    0.2100000000E+05    0.5168476982E+00    0.1811030396E+00    0.3152135738E+00    0.5582287232E-01    0.1521423070E+00
    0.2300000000E+05    0.5176242080E+00    0.1785426431E+00    0.3213246583E+00    0.5482097814E-01    0.1523943667E+00
    0.2500000000E+05    0.5182713987E+00    0.1761516467E+00    0.3269592748E+00    0.5389488226E-01    0.1526065564E+00
    0.2700000000E+05    0.5188187221E+00    0.1739094720E+00    0.3321859612E+00    0.5303423367E-01    0.1527878013E+00
    0.2900000000E+05    0.5192873617E+00    0.1717990594E+00    0.3370592748E+00    0.5223067242E-01    0.1529445420E+00
    0.3100000000E+05    0.5196929351E+00    0.1698061169E+00    0.3416233897E+00    0.5147734733E-01    0.1530815430E+00
    0.3300000000E+05    0.5200472037E+00    0.1679185558E+00    0.3459145980E+00    0.5076857203E-01    0.1532024041E+00
    0.3500000000E+05    0.5203591899E+00    0.1661260620E+00    0.3499630968E+00    0.5009957397E-01    0.1533098966E+00
    0.3700000000E+05    0.5206359286E+00    0.1644197655E+00    0.3537942919E+00    0.4946630798E-01    0.1534061879E+00
    0.3900000000E+05    0.5208829841E+00    0.1627919831E+00    0.3574297688E+00    0.4886531505E-01    0.1534929987E+00
    0.4100000000E+05    0.5211048140E+00    0.1612360158E+00    0.3608880282E+00    0.4829361405E-01    0.1535717119E+00
    0.4300000000E+05    0.5213050308E+00    0.1597459874E+00    0.3641850508E+00    0.4774861733E-01    0.1536434518E+00
    0.4500000000E+05    0.5214865924E+00    0.1583167152E+00    0.3673347391E+00    0.4722806427E-01    0.1537091425E+00
    0.4700000000E+05    0.5216519433E+00    0.1569436044E+00    0.3703492643E+00    0.4672996829E-01    0.1537695499E+00
    0.4900000000E+05    0.5218031214E+00    0.1556225627E+00    0.3732393447E+00    0.4625257424E-01    0.1538253150E+00
    0.1000000000E+05    0.5066315190E+00    0.1997079270E+00    0.2671524289E+00    0.6352921492E-01    0.1489527314E+00
    0.3000000000E+05    0.5194972216E+00    0.1707887060E+00    0.3393775529E+00    0.5184810974E-01    0.1530152622E+00
    0.5000000000E+05    0.5218739415E+00    0.1549804086E+00    0.3746407262E+00    0.4602114657E-01    0.1538516289E+00
    0.7000000000E+05    0.5228467926E+00    0.1441556955E+00    0.3979574407E+00    0.4217881919E-01    0.1542295903E+00
    0.9000000000E+05    0.5233672975E+00    0.1359765403E+00    0.4152482701E+00    0.3934386741E-01    0.1544517641E+00
    0.1100000000E+06    0.5236872742E+00    0.1294389185E+00    0.4289011998E+00    0.3711681742E-01    0.1546012752E+00
    0.1300000000E+06    0.5239015317E+00    0.1240180444E+00    0.4401227423E+00    0.3529510368E-01    0.1547105448E+00
    0.1500000000E+06    0.5240535558E+00    0.1194049037E+00    0.4496078548E+00    0.3376201400E-01    0.1547949609E+00
    0.1700000000E+06    0.5241660246E+00    0.1154022188E+00    0.4577932611E+00    0.3244428635E-01    0.1548628212E+00
    0.1900000000E+06    0.5242518890E+00    0.1118764281E+00    0.4649711044E+00    0.3129299877E-01    0.1549190222E+00
    0.2100000000E+06    0.5243190649E+00    0.1087329706E+00    0.4713462582E+00    0.3027391373E-01    0.1549666545E+00
    0.2300000000E+06    0.5243726525E+00    0.1059024933E+00    0.4770678106E+00    0.2936217034E-01    0.1550077739E+00
    0.2500000000E+06    0.5244160794E+00    0.1033326572E+00    0.4822475389E+00    0.2853917039E-01    0.1550438055E+00
    0.2700000000E+06    0.5244517307E+00    0.1009830188E+00    0.4869713325E+00    0.2779065426E-01    0.1550757723E+00
    0.2900000000E+06    0.5244813140E+00    0.9882169919E-01    0.4913065634E+00    0.2710546054E-01    0.1551044293E+00
    0.3100000000E+06    0.5245060827E+00    0.9682313964E-01    0.4953070149E+00    0.2647469757E-01    0.1551303475E+00
    0.3300000000E+06    0.5245269759E+00    0.9496654637E-01    0.4990162772E+00    0.2589117337E-01    0.1551539678E+00
    0.3500000000E+06    0.5245447104E+00    0.9323478406E-01    0.5024701483E+00    0.2534899309E-01    0.1551756365E+00
    0.3700000000E+06    0.5245598419E+00    0.9161357219E-01    0.5056983700E+00    0.2484326838E-01    0.1551956304E+00
    0.3900000000E+06    0.5245728074E+00    0.9009088964E-01    0.5087259081E+00    0.2436990331E-01    0.1552141732E+00
    0.4100000000E+06    0.5245839550E+00    0.8865652638E-01    0.5115739122E+00    0.2392543412E-01    0.1552314485E+00
    0.4300000000E+06    0.5245935649E+00    0.8730174051E-01    0.5142604479E+00    0.2350690714E-01    0.1552476081E+00
    0.4500000000E+06    0.5246018650E+00    0.8601899255E-01    0.5168010617E+00    0.2311178472E-01    0.1552627793E+00
    0.4700000000E+06    0.5246090425E+00    0.8480173688E-01    0.5192092232E+00    0.2273787169E-01    0.1552770692E+00
    0.4900000000E+06    0.5246152524E+00    0.8364425636E-01    0.5214966746E+00    0.2238325732E-01    0.1552905694E+00
    0.1000000000E+06    0.5235446118E+00    0.1325422655E+00    0.4224374527E+00    0.3816979903E-01    0.1545329793E+00
    0.3000000000E+06    0.5244942354E+00    0.9780347096E-01    0.4933457053E+00    0.2678375918E-01    0.1551177007E+00
    0.5000000000E+06    0.5246180356E+00    0.8308633854E-01    0.5225984012E+00    0.2221265618E-01    0.1552970481E+00
    0.7000000000E+06    0.5246452567E+00    0.7411589894E-01    0.5402380698E+00    0.1949904614E-01    0.1553993954E+00
    0.9000000000E+06    0.5246463242E+00    0.6783010910E-01    0.5525170939E+00    0.1763102864E-01    0.1554702527E+00
    0.1100000000E+07    0.5246381328E+00    0.6307593549E-01    0.5617604905E+00    0.1623698665E-01    0.1555242135E+00
    0.1300000000E+07    0.5246263456E+00    0.5930073280E-01    0.5690738994E+00    0.1514185151E-01    0.1555676997E+00
    0.1500000000E+07    0.5246132269E+00    0.5619949402E-01    0.5750640787E+00    0.1425027259E-01    0.1556040794E+00
    0.1700000000E+07    0.5245997779E+00    0.5358729982E-01    0.5800972806E+00    0.1350505918E-01    0.1556353309E+00
    0.1900000000E+07    0.5245864651E+00    0.5134420389E-01    0.5844102265E+00    0.1286944952E-01    0.1556627115E+00
    0.2100000000E+07    0.5245735077E+00    0.4938832764E-01    0.5881640271E+00    0.1231854465E-01    0.1556870691E+00
    0.2300000000E+07    0.5245610034E+00    0.4766149438E-01    0.5914728629E+00    0.1183477462E-01    0.1557090014E+00
    0.2500000000E+07    0.5245489880E+00    0.4612101124E-01    0.5944203383E+00    0.1140532474E-01    0.1557289457E+00
    0.2700000000E+07    0.5245374651E+00    0.4473470279E-01    0.5970693373E+00    0.1102059066E-01    0.1557472311E+00
    0.2900000000E+07    0.5245264218E+00    0.4347777232E-01    0.5994682370E+00    0.1067320790E-01    0.1557641116E+00
    0.3100000000E+07    0.5245158371E+00    0.4233074274E-01    0.6016549759E+00    0.1035741865E-01    0.1557797870E+00
    0.3300000000E+07    0.5245056863E+00    0.4127806247E-01    0.6036598019E+00    0.1006864525E-01    0.1557944176E+00
    0.3500000000E+07    0.5244959434E+00    0.4030713564E-01    0.6055071812E+00    0.9803194789E-02    0.1558081337E+00
    0.3700000000E+07    0.5244865832E+00    0.3940763142E-01    0.6072171559E+00    0.9558049720E-02    0.1558210426E+00
    0.3900000000E+07    0.5244775810E+00    0.3857098189E-01    0.6088063290E+00    0.9330716131E-02    0.1558332340E+00
    0.4100000000E+07    0.5244689140E+00    0.3779001026E-01    0.6102885927E+00    0.9119111894E-02    0.1558447833E+00
    0.4300000000E+07    0.5244605606E+00    0.3705865113E-01    0.6116756764E+00    0.8921482780E-02    0.1558557547E+00
    0.4500000000E+07    0.5244525010E+00    0.3637173693E-01    0.6129775639E+00    0.8736338614E-02    0.1558662033E+00
    0.4700000000E+07    0.5244447166E+00    0.3572483270E-01    0.6142028159E+00    0.8562404054E-02    0.1558761765E+00
    0.4900000000E+07    0.5244371906E+00    0.3511410674E-01    0.6153588226E+00    0.8398580169E-02    0.1558857158E+00
    0.1000000000E+07    0.5246429084E+00    0.6530428228E-01    0.5574326409E+00    0.1688834682E-01    0.1554988403E+00
    0.3000000000E+07    0.5245210737E+00    0.4289157089E-01    0.6005860815E+00    0.1051167388E-01    0.1557720891E+00
    0.5000000000E+07    0.5244335196E+00    0.3482125255E-01    0.6159128983E+00    0.8320156957E-02    0.1558903342E+00
    0.7000000000E+07    0.5243704837E+00    0.3024427336E-01    0.6245508366E+00    0.7106129015E-02    0.1559667329E+00
    0.9000000000E+07    0.5243214870E+00    0.2717804950E-01    0.6303138906E+00    0.6305773935E-02    0.1560232801E+00
    0.1100000000E+08    0.5242814614E+00    0.2493172690E-01    0.6345231119E+00    0.5726564131E-02    0.1560681962E+00
    0.1300000000E+08    0.5242476436E+00    0.2319076000E-01    0.6377775490E+00    0.5282082201E-02    0.1561054619E+00
    0.1500000000E+08    0.5242183714E+00    0.2178802757E-01    0.6403945137E+00    0.4926920560E-02    0.1561373101E+00
    0.1700000000E+08    0.5241925697E+00    0.2062519275E-01    0.6425602610E+00    0.4634603326E-02    0.1561651191E+00
    0.1900000000E+08    0.5241695038E+00    0.1964001063E-01    0.6443924457E+00    0.4388501421E-02    0.1561898004E+00
    0.2100000000E+08    0.5241486497E+00    0.1879085495E-01    0.6459696120E+00    0.4177569014E-02    0.1562119876E+00
    0.2300000000E+08    0.5241296206E+00    0.1804866557E-01    0.6473465094E+00    0.3994140786E-02    0.1562321395E+00
    0.2500000000E+08    0.5241121229E+00    0.1739244146E-01    0.6485626504E+00    0.3832706883E-02    0.1562505988E+00
    0.2700000000E+08    0.5240959286E+00    0.1680656813E-01    0.6496473773E+00    0.3689190577E-02    0.1562676284E+00
