  Pressure (Pa) 22mC5-400 (mol/kg) 2mC6-400 (mol/kg) 3mC6-400 (mol/kg) 33mC5-400 (mol/kg) 23mC5-400 (mol/kg)
    0.1000000000E+01    0.1588168998E-02    0.3182669163E-02    0.2642898345E-02    0.1295653500E-03    0.5577302888E-03
    0.3000000000E+01    0.4704939561E-02    0.9359976831E-02    0.7805840602E-02    0.3810410199E-03    0.1652286356E-02
    0.5000000000E+01    0.7745317161E-02    0.1529757345E-01    0.1281166794E-01    0.6227572801E-03    0.2720033038E-02
    0.7000000000E+01    0.1071274103E-01    0.2100787857E-01    0.1766795081E-01    0.8552193181E-03    0.3762177134E-02
    0.9000000000E+01    0.1361044068E-01    0.2650248981E-01    0.2238177354E-01    0.1078898895E-02    0.4779851857E-02
    0.1100000000E+02    0.1644145168E-01    0.3179224894E-01    0.2695977287E-01    0.1294237032E-02    0.5774122379E-02
    0.1300000000E+02    0.1920863011E-01    0.3688730174E-01    0.3140817299E-01    0.1501646447E-02    0.6745990891E-02
    0.1500000000E+02    0.2191466565E-01    0.4179715233E-01    0.3573281728E-01    0.1701513761E-02    0.7696401207E-02
    0.1700000000E+02    0.2456209365E-01    0.4653071244E-01    0.3993919711E-01    0.1894201505E-02    0.8626242980E-02
    0.1900000000E+02    0.2715330604E-01    0.5109634635E-01    0.4403247816E-01    0.2080049944E-02    0.9536355553E-02
    0.2100000000E+02    0.2969056144E-01    0.5550191175E-01    0.4801752434E-01    0.2259378742E-02    0.1042753148E-01
    0.2300000000E+02    0.3217599433E-01    0.5975479707E-01    0.5189891962E-01    0.2432488478E-02    0.1130051978E-01
    0.2500000000E+02    0.3461162356E-01    0.6386195552E-01    0.5568098803E-01    0.2599662032E-02    0.1215602889E-01
    0.2700000000E+02    0.3699936010E-01    0.6782993630E-01    0.5936781193E-01    0.2761165852E-02    0.1299472937E-01
    0.2900000000E+02    0.3934101421E-01    0.7166491316E-01    0.6296324878E-01    0.2917251118E-02    0.1381725648E-01
    0.3100000000E+02    0.4163830205E-01    0.7537271054E-01    0.6647094652E-01    0.3068154803E-02    0.1462421245E-01
    0.3300000000E+02    0.4389285174E-01    0.7895882765E-01    0.6989435769E-01    0.3214100654E-02    0.1541616860E-01
    0.3500000000E+02    0.4610620898E-01    0.8242846055E-01    0.7323675242E-01    0.3355300086E-02    0.1619366737E-01
    0.3700000000E+02    0.4827984228E-01    0.8578652250E-01    0.7650123043E-01    0.3491953015E-02    0.1695722406E-01
    0.3900000000E+02    0.5041514770E-01    0.8903766265E-01    0.7969073207E-01    0.3624248615E-02    0.1770732860E-01
    0.4100000000E+02    0.5251345336E-01    0.9218628334E-01    0.8280804845E-01    0.3752366021E-02    0.1844444705E-01
    0.4300000000E+02    0.5457602353E-01    0.9523655606E-01    0.8585583093E-01    0.3876474981E-02    0.1916902307E-01
    0.4500000000E+02    0.5660406246E-01    0.9819243614E-01    0.8883659979E-01    0.3996736450E-02    0.1988147928E-01
    0.4700000000E+02    0.5859871793E-01    0.1010576764E+00    0.9175275228E-01    0.4113303147E-02    0.2058221846E-01
    0.4900000000E+02    0.6056108459E-01    0.1038358399E+00    0.9460657012E-01    0.4226320068E-02    0.2127162475E-01
    0.1000000000E+02    0.1503409971E-01    0.2917232613E-01    0.2468735283E-01    0.1187584212E-02    0.5279848586E-02
    0.3000000000E+02    0.4049510016E-01    0.7353435823E-01    0.6472784484E-01    0.2993336375E-02    0.1422264445E-01
    0.5000000000E+02    0.6153048792E-01    0.1051933321E+00    0.9601078672E-01    0.4281540680E-02    0.2161219327E-01
    0.7000000000E+02    0.7945355259E-01    0.1285101724E+00    0.1212994213E+00    0.5229647497E-02    0.2790935876E-01
    0.9000000000E+02    0.9508630155E-01    0.1460929138E+00    0.1422893296E+00    0.5943812129E-02    0.3340261529E-01
    0.1100000000E+03    0.1089711187E+00    0.1595900602E+00    0.1600811331E+00    0.6491158293E-02    0.3828231389E-01
    0.1300000000E+03    0.1214814553E+00    0.1700906837E+00    0.1754219445E+00    0.6916049684E-02    0.4267952261E-01
    0.1500000000E+03    0.1328836448E+00    0.1783407137E+00    0.1888377481E+00    0.7248886823E-02    0.4668771781E-01
    0.1700000000E+03    0.1433733235E+00    0.1848666260E+00    0.2007102464E+00    0.7511138221E-02    0.5037556465E-01
    0.1900000000E+03    0.1530978677E+00    0.1900495493E+00    0.2113236227E+00    0.7718355065E-02    0.5379479092E-01
    0.2100000000E+03    0.1621707471E+00    0.1941714400E+00    0.2208941435E+00    0.7882049869E-02    0.5698522433E-01
    0.2300000000E+03    0.1706810094E+00    0.1974448326E+00    0.2295895432E+00    0.8010907082E-02    0.5997812098E-01
    0.2500000000E+03    0.1786997251E+00    0.2000325705E+00    0.2375420907E+00    0.8111586129E-02    0.6279842724E-01
    0.2700000000E+03    0.1862844754E+00    0.2020612273E+00    0.2448576249E+00    0.8189267740E-02    0.6546635487E-01
    0.2900000000E+03    0.1934825460E+00    0.2036304413E+00    0.2516219432E+00    0.8248034000E-02    0.6799850202E-01
    0.3100000000E+03    0.2003332444E+00    0.2048195371E+00    0.2579054087E+00    0.8291138025E-02    0.7040866640E-01
    0.3300000000E+03    0.2068696096E+00    0.2056923069E+00    0.2637663328E+00    0.8321198721E-02    0.7270844546E-01
    0.3500000000E+03    0.2131196938E+00    0.2063005176E+00    0.2692534977E+00    0.8340343695E-02    0.7490768627E-01
    0.3700000000E+03    0.2191075367E+00    0.2066865212E+00    0.2744080651E+00    0.8350315643E-02    0.7701482750E-01
    0.3900000000E+03    0.2248539159E+00    0.2068852228E+00    0.2792650396E+00    0.8352552591E-02    0.7903716266E-01
    0.4100000000E+03    0.2303769305E+00    0.2069255818E+00    0.2838544037E+00    0.8348249133E-02    0.8098104524E-01
    0.4300000000E+03    0.2356924618E+00    0.2068317702E+00    0.2882020080E+00    0.8338403692E-02    0.8285205013E-01
    0.4500000000E+03    0.2408145387E+00    0.2066240751E+00    0.2923302764E+00    0.8323855350E-02    0.8465510199E-01
    0.4700000000E+03    0.2457556310E+00    0.2063196077E+00    0.2962587700E+00    0.8305312822E-02    0.8639457828E-01
    0.4900000000E+03    0.2505268870E+00    0.2059328664E+00    0.3000046417E+00    0.8283377453E-02    0.8807439258E-01
    0.1000000000E+03    0.1022207891E+00    0.1532741439E+00    0.1515319252E+00    0.6235158905E-02    0.3590988959E-01
    0.3000000000E+03    0.1969491217E+00    0.2042681992E+00    0.2548198887E+00    0.8271367130E-02    0.6921806153E-01
    0.5000000000E+03    0.2528519974E+00    0.2057125717E+00    0.3018138885E+00    0.8271300613E-02    0.8889303964E-01
    0.7000000000E+03    0.2924232939E+00    0.1991725669E+00    0.3312834058E+00    0.7942652745E-02    0.1028307517E+00
    0.9000000000E+03    0.3222848657E+00    0.1913700794E+00    0.3524715187E+00    0.7565620416E-02    0.1133559435E+00
    0.1100000000E+04    0.3455997112E+00    0.1838932604E+00    0.3688942707E+00    0.7207316695E-02    0.1215792923E+00
    0.1300000000E+04    0.3642282378E+00    0.1771179248E+00    0.3822389633E+00    0.6883647821E-02    0.1281542577E+00
    0.1500000000E+04    0.3793813343E+00    0.1710762008E+00    0.3934386699E+00    0.6595713876E-02    0.1335062872E+00
    0.1700000000E+04    0.3918924446E+00    0.1657013723E+00    0.4030613673E+00    0.6340267503E-02    0.1379283012E+00
    0.1900000000E+04    0.4023559165E+00    0.1609053194E+00    0.4114776205E+00    0.6113097040E-02    0.1416292492E+00
    0.2100000000E+04    0.4112065189E+00    0.1566035217E+00    0.4189422108E+00    0.5910148537E-02    0.1447620227E+00
    0.2300000000E+04    0.4187687356E+00    0.1527222086E+00    0.4256376442E+00    0.5727859680E-02    0.1474407616E+00
    0.2500000000E+04    0.4252888522E+00    0.1491992874E+00    0.4316990301E+00    0.5563211107E-02    0.1497521225E+00
    0.2700000000E+04    0.4309565650E+00    0.1459832260E+00    0.4372291279E+00    0.5413680930E-02    0.1517628685E+00
    0.2900000000E+04    0.4359199085E+00    0.1430314239E+00    0.4423078741E+00    0.5277172785E-02    0.1535251136E+00
    0.3100000000E+04    0.4402957818E+00    0.1403086246E+00    0.4469986503E+00    0.5151943588E-02    0.1550800216E+00
    0.3300000000E+04    0.4441775002E+00    0.1377855386E+00    0.4513525412E+00    0.5036539746E-02    0.1564604602E+00
    0.3500000000E+04    0.4476402970E+00    0.1354377078E+00    0.4554113094E+00    0.4929743788E-02    0.1576929350E+00
    0.3700000000E+04    0.4507453851E+00    0.1332445894E+00    0.4592095230E+00    0.4830530802E-02    0.1587990176E+00
    0.3900000000E+04    0.4535429937E+00    0.1311888233E+00    0.4627761111E+00    0.4738033281E-02    0.1597964135E+00
    0.4100000000E+04    0.4560746650E+00    0.1292556493E+00    0.4661355204E+00    0.4651512872E-02    0.1606997698E+00
    0.4300000000E+04    0.4583750088E+00    0.1274324415E+00    0.4693085907E+00    0.4570337691E-02    0.1615212925E+00
    0.4500000000E+04    0.4604730567E+00    0.1257083369E+00    0.4723132274E+00    0.4493964065E-02    0.1622712230E+00
    0.4700000000E+04    0.4623933167E+00    0.1240739366E+00    0.4751649238E+00    0.4421921786E-02    0.1629582092E+00
    0.4900000000E+04    0.4641566021E+00    0.1225210649E+00    0.4778771736E+00    0.4353802156E-02    0.1635895971E+00
    0.1000000000E+04    0.3346244048E+00    0.1875543524E+00    0.3611482020E+00    0.7382571639E-02    0.1177075045E+00
    0.3000000000E+04    0.4381749667E+00    0.1416433549E+00    0.4446983173E+00    0.5213245277E-02    0.1543262616E+00
    0.5000000000E+04    0.4649850375E+00    0.1217729329E+00    0.4791847578E+00    0.4321100000E-02    0.1638864392E+00
    0.7000000000E+04    0.4765049360E+00    0.1097505643E+00    0.5002445274E+00    0.3806303310E-02    0.1680319710E+00
    0.9000000000E+04    0.4827677974E+00    0.1012866972E+00    0.5150609326E+00    0.3456245694E-02    0.1703075049E+00
    0.1100000000E+05    0.4866622435E+00    0.9483175425E-01    0.5263103368E+00    0.3196053233E-02    0.1717366280E+00
    0.1300000000E+05    0.4893025969E+00    0.8966029267E-01    0.5352734729E+00    0.2991681985E-02    0.1727154104E+00
    0.1500000000E+05    0.4912036026E+00    0.8537595949E-01    0.5426579585E+00    0.2825021443E-02    0.1734273853E+00
    0.1700000000E+05    0.4926340486E+00    0.8173910052E-01    0.5488936695E+00    0.2685371387E-02    0.1739686970E+00
    0.1900000000E+05    0.4937473438E+00    0.7859407015E-01    0.5542600791E+00    0.2565918763E-02    0.1743943985E+00
    0.2100000000E+05    0.4946371615E+00    0.7583426414E-01    0.5589484039E+00    0.2462075922E-02    0.1747382172E+00
    0.2300000000E+05    0.4953638151E+00    0.7338360243E-01    0.5630948110E+00    0.2370616649E-02    0.1750219421E+00
    0.2500000000E+05    0.4959678345E+00    0.7118597873E-01    0.5667994375E+00    0.2289192107E-02    0.1752602650E+00
    0.2700000000E+05    0.4964774316E+00    0.6919889277E-01    0.5701379006E+00    0.2216043081E-02    0.1754634471E+00
    0.2900000000E+05    0.4969128315E+00    0.6738942373E-01    0.5731685839E+00    0.2149820512E-02    0.1756388703E+00
    0.3100000000E+05    0.4972889018E+00    0.6573158426E-01    0.5759374250E+00    0.2089469006E-02    0.1757919798E+00
    0.3300000000E+05    0.4976168095E+00    0.6420452449E-01    0.5784811617E+00    0.2034148657E-02    0.1759268796E+00
    0.3500000000E+05    0.4979051014E+00    0.6279127910E-01    0.5808295940E+00    0.1983181057E-02    0.1760467218E+00
    0.3700000000E+05    0.4981604267E+00    0.6147787192E-01    0.5830071971E+00    0.1936011075E-02    0.1761539673E+00
    0.3900000000E+05    0.4983880346E+00    0.6025266286E-01    0.5850342964E+00    0.1892179217E-02    0.1762505655E+00
    0.4100000000E+05    0.4985921226E+00    0.5910586264E-01    0.5869279378E+00    0.1851301243E-02    0.1763380810E+00
    0.4300000000E+05    0.4987760870E+00    0.5802916630E-01    0.5887025444E+00    0.1813052892E-02    0.1764177840E+00
    0.4500000000E+05    0.4989427040E+00    0.5701547252E-01    0.5903704172E+00    0.1777158257E-02    0.1764907166E+00
    0.4700000000E+05    0.4990942652E+00    0.5605866564E-01    0.5919421246E+00    0.1743380812E-02    0.1765577418E+00
    0.4900000000E+05    0.4992326781E+00    0.5515344448E-01    0.5934268058E+00    0.1711516416E-02    0.1766195809E+00
    0.1000000000E+05    0.4849203523E+00    0.9786440384E-01    0.5210325401E+00    0.3317578982E-02    0.1710956486E+00
    0.3000000000E+05    0.4971075130E+00    0.6654295704E-01    0.5745832533E+00    0.2118967695E-02    0.1757179317E+00
    0.5000000000E+05    0.4992974644E+00    0.5471871061E-01    0.5941390374E+00    0.1696245284E-02    0.1766487491E+00
    0.7000000000E+05    0.5001833197E+00    0.4786818920E-01    0.6052955053E+00    0.1458341163E-02    0.1770669009E+00
    0.9000000000E+05    0.5006530621E+00    0.4321973386E-01    0.6127955387E+00    0.1299886940E-02    0.1773120276E+00
    0.1100000000E+06    0.5009395054E+00    0.3978420550E-01    0.6183030946E+00    0.1184374048E-02    0.1774767301E+00
    0.1300000000E+06    0.5011297966E+00    0.3710415795E-01    0.6225790587E+00    0.1095236706E-02    0.1775969847E+00
    0.1500000000E+06    0.5012637341E+00    0.3493378071E-01    0.6260289512E+00    0.1023697440E-02    0.1776898253E+00
    0.1700000000E+06    0.5013619983E+00    0.3312717101E-01    0.6288919515E+00    0.9646040154E-03    0.1777644220E+00
    0.1900000000E+06    0.5014363626E+00    0.3159132998E-01    0.6313197401E+00    0.9147025383E-03    0.1778261796E+00
    0.2100000000E+06    0.5014940018E+00    0.3026370598E-01    0.6334139106E+00    0.8718215761E-03    0.1778785067E+00
    0.2300000000E+06    0.5015395263E+00    0.2910041807E-01    0.6352454798E+00    0.8344482531E-03    0.1779236687E+00
    0.2500000000E+06    0.5015760267E+00    0.2806962223E-01    0.6368658271E+00    0.8014913459E-03    0.1779632356E+00
    0.2700000000E+06    0.5016056475E+00    0.2714755596E-01    0.6383131904E+00    0.7721410017E-03    0.1779983334E+00
    0.2900000000E+06    0.5016299209E+00    0.2631606802E-01    0.6396167101E+00    0.7457816629E-03    0.1780297931E+00
    0.3100000000E+06    0.5016499681E+00    0.2556101499E-01    0.6407990446E+00    0.7219358582E-03    0.1780582430E+00
    0.3300000000E+06    0.5016666276E+00    0.2487118609E-01    0.6418781206E+00    0.7002266975E-03    0.1780841679E+00
    0.3500000000E+06    0.5016805375E+00    0.2423756168E-01    0.6428683363E+00    0.6803521267E-03    0.1781079488E+00
    0.3700000000E+06    0.5016921913E+00    0.2365278939E-01    0.6437814104E+00    0.6620668133E-03    0.1781298898E+00
    0.3900000000E+06    0.5017019762E+00    0.2311080604E-01    0.6446269931E+00    0.6451691260E-03    0.1781502371E+00
    0.4100000000E+06    0.5017101998E+00    0.2260655966E-01    0.6454131148E+00    0.6294915939E-03    0.1781691923E+00
    0.4300000000E+06    0.5017171090E+00    0.2213580155E-01    0.6461465205E+00    0.6148937973E-03    0.1781869223E+00
    0.4500000000E+06    0.5017229042E+00    0.2169492857E-01    0.6468329244E+00    0.6012569887E-03    0.1782035669E+00
    0.4700000000E+06    0.5017277495E+00    0.2128086169E-01    0.6474772042E+00    0.5884799677E-03    0.1782192440E+00
    0.4900000000E+06    0.5017317802E+00    0.2089095152E-01    0.6480835529E+00    0.5764758777E-03    0.1782340538E+00
    0.1000000000E+06    0.5008120729E+00    0.4138600411E-01    0.6157389256E+00    0.1238059473E-02    0.1774015190E+00
    0.3000000000E+06    0.5016404149E+00    0.2592974657E-01    0.6402218104E+00    0.7335701349E-03    0.1780443611E+00
    0.5000000000E+06    0.5017335261E+00    0.2070432608E-01    0.6483736561E+00    0.5707398307E-03    0.1782411609E+00
    0.7000000000E+06    0.5017450779E+00    0.1781625013E-01    0.6528534249E+00    0.4827964949E-03    0.1783534140E+00
    0.9000000000E+06    0.5017360649E+00    0.1591118847E-01    0.6557985774E+00    0.4256926962E-03    0.1784311078E+00
    0.1100000000E+07    0.5017205883E+00    0.1453040766E-01    0.6579283691E+00    0.3847982521E-03    0.1784902629E+00
    0.1300000000E+07    0.5017031563E+00    0.1346880089E-01    0.6595630948E+00    0.3536610300E-03    0.1785379273E+00
    0.1500000000E+07    0.5016854578E+00    0.1261881291E-01    0.6608702348E+00    0.3289336264E-03    0.1785777970E+00
    0.1700000000E+07    0.5016681701E+00    0.1191779456E-01    0.6619471326E+00    0.3086833202E-03    0.1786120424E+00
    0.1900000000E+07    0.5016515611E+00    0.1132641302E-01    0.6628547973E+00    0.2917057538E-03    0.1786420429E+00
    0.2100000000E+07    0.5016357204E+00    0.1081854228E-01    0.6636336958E+00    0.2772061630E-03    0.1786687285E+00
    0.2300000000E+07    0.5016206567E+00    0.1037604799E-01    0.6643118825E+00    0.2646360768E-03    0.1786927550E+00
    0.2500000000E+07    0.5016063423E+00    0.9985889966E-02    0.6649095104E+00    0.2536031424E-03    0.1787146018E+00
    0.2700000000E+07    0.5015927339E+00    0.9638414824E-02    0.6654414851E+00    0.2438182778E-03    0.1787346300E+00
    0.2900000000E+07    0.5015797833E+00    0.9326300591E-02    0.6659191032E+00    0.2350631642E-03    0.1787531180E+00
    0.3100000000E+07    0.5015674419E+00    0.9043877840E-02    0.6663511053E+00    0.2271694303E-03    0.1787702851E+00
    0.3300000000E+07    0.5015556634E+00    0.8786678104E-02    0.6667443764E+00    0.2200048618E-03    0.1787863069E+00
    0.3500000000E+07    0.5015444047E+00    0.8551124704E-02    0.6671044242E+00    0.2134639959E-03    0.1788013263E+00
    0.3700000000E+07    0.5015336263E+00    0.8334315741E-02    0.6674357148E+00    0.2074615438E-03    0.1788154611E+00
    0.3900000000E+07    0.5015232919E+00    0.8133868412E-02    0.6677419137E+00    0.2019276862E-03    0.1788288095E+00
    0.4100000000E+07    0.5015133690E+00    0.7947805159E-02    0.6680260616E+00    0.1968046448E-03    0.1788414542E+00
    0.4300000000E+07    0.5015038279E+00    0.7774468952E-02    0.6682907055E+00    0.1920441383E-03    0.1788534657E+00
    0.4500000000E+07    0.5014946417E+00    0.7612459303E-02    0.6685379971E+00    0.1876054655E-03    0.1788649041E+00
    0.4700000000E+07    0.5014857862E+00    0.7460583243E-02    0.6687697685E+00    0.1834540420E-03    0.1788758217E+00
    0.4900000000E+07    0.5014772392E+00    0.7317817304E-02    0.6689875911E+00    0.1795602670E-03    0.1788862638E+00
    0.1000000000E+07    0.5017287493E+00    0.1517136956E-01    0.6569402190E+00    0.4037276072E-03    0.1784624485E+00
    0.3000000000E+07    0.5015735394E+00    0.9181681038E-02    0.6661403389E+00    0.2310176086E-03    0.1787618548E+00
    0.5000000000E+07    0.5014730750E+00    0.7249569670E-02    0.6690917028E+00    0.1777018880E-03    0.1788913191E+00
    0.7000000000E+07    0.5014019848E+00    0.6200394965E-02    0.6706909154E+00    0.1493896772E-03    0.1789749295E+00
    0.9000000000E+07    0.5013471313E+00    0.5515389877E-02    0.6717336967E+00    0.1311862842E-03    0.1790367941E+00
    0.1100000000E+08    0.5013025036E+00    0.5022343309E-02    0.6724835858E+00    0.1182371893E-03    0.1790859207E+00
    0.1300000000E+08    0.5012648953E+00    0.4645207728E-02    0.6730567922E+00    0.1084264232E-03    0.1791266706E+00
    0.1500000000E+08    0.5012324008E+00    0.4344453677E-02    0.6735136587E+00    0.1006652978E-03    0.1791614893E+00
    0.1700000000E+08    0.5012037967E+00    0.4097209256E-02    0.6738890720E+00    0.9432919747E-04    0.1791918869E+00
    0.1900000000E+08    0.5011782514E+00    0.3889191109E-02    0.6742048046E+00    0.8903086138E-04    0.1792188610E+00
    0.2100000000E+08    0.5011551741E+00    0.3710953267E-02    0.6744752474E+00    0.8451579510E-04    0.1792431059E+00
    0.2300000000E+08    0.5011341299E+00    0.3555963319E-02    0.6747103480E+00    0.8060898636E-04    0.1792651236E+00
    0.2500000000E+08    0.5011147896E+00    0.3419538738E-02    0.6749172340E+00    0.7718561588E-04    0.1792852894E+00
    0.2700000000E+08    0.5010968980E+00    0.3298222693E-02    0.6751011656E+00    0.7415395942E-04    0.1793038910E+00
