  Pressure (Pa) 22mC5-400 (mol/kg) 2mC6-400 (mol/kg) 3mC6-400 (mol/kg) 33mC5-400 (mol/kg) 23mC5-400 (mol/kg)
    0.1000000000E+01    0.1586301954E-02    0.3982882266E-02    0.5297167029E-03    0.1297085962E-03    0.8356125443E-03
    0.3000000000E+01    0.4688711133E-02    0.1173997303E-01    0.1571121650E-02    0.3823012916E-03    0.2469886170E-02
    0.5000000000E+01    0.7701752930E-02    0.1923063303E-01    0.2589238331E-02    0.6261801288E-03    0.4057115288E-02
    0.7000000000E+01    0.1063017352E-01    0.2646817933E-01    0.3584926661E-02    0.8617801349E-03    0.5599798026E-02
    0.9000000000E+01    0.1347837830E-01    0.3346503864E-01    0.4559003749E-02    0.1089507283E-02    0.7100253163E-02
    0.1100000000E+02    0.1625046210E-01    0.4023282195E-01    0.5512246552E-02    0.1309740927E-02    0.8560636022E-02
    0.1300000000E+02    0.1895023621E-01    0.4678239174E-01    0.6445394333E-02    0.1522835993E-02    0.9982952705E-02
    0.1500000000E+02    0.2158125267E-01    0.5312392254E-01    0.7359150943E-02    0.1729124951E-02    0.1136907286E-01
    0.1700000000E+02    0.2414682607E-01    0.5926695552E-01    0.8254186932E-02    0.1928919598E-02    0.1272074118E-01
    0.1900000000E+02    0.2665005321E-01    0.6522044804E-01    0.9131141517E-02    0.2122512675E-02    0.1403958770E-01
    0.2100000000E+02    0.2909383080E-01    0.7099281837E-01    0.9990624406E-02    0.2310179321E-02    0.1532713717E-01
    0.2300000000E+02    0.3148087150E-01    0.7659198644E-01    0.1083321750E-01    0.2492178405E-02    0.1658481746E-01
    0.2500000000E+02    0.3381371840E-01    0.8202541082E-01    0.1165947647E-01    0.2668753733E-02    0.1781396720E-01
    0.2700000000E+02    0.3609475821E-01    0.8730012240E-01    0.1246993225E-01    0.2840135143E-02    0.1901584269E-01
    0.2900000000E+02    0.3832623316E-01    0.9242275515E-01    0.1326509239E-01    0.3006539515E-02    0.2019162423E-01
    0.3100000000E+02    0.4051025187E-01    0.9739957423E-01    0.1404544234E-01    0.3168171681E-02    0.2134242175E-01
    0.3300000000E+02    0.4264879928E-01    0.1022365016E+00    0.1481144670E-01    0.3325225266E-02    0.2246928010E-01
    0.3500000000E+02    0.4474374563E-01    0.1069391398E+00    0.1556355027E-01    0.3477883456E-02    0.2357318376E-01
    0.3700000000E+02    0.4679685471E-01    0.1115127932E+00    0.1630217914E-01    0.3626319706E-02    0.2465506119E-01
    0.3900000000E+02    0.4880979145E-01    0.1159624881E+00    0.1702774170E-01    0.3770698383E-02    0.2571578879E-01
    0.4100000000E+02    0.5078412877E-01    0.1202929910E+00    0.1774062950E-01    0.3911175366E-02    0.2675619456E-01
    0.4300000000E+02    0.5272135394E-01    0.1245088253E+00    0.1844121817E-01    0.4047898592E-02    0.2777706140E-01
    0.4500000000E+02    0.5462287441E-01    0.1286142870E+00    0.1912986820E-01    0.4181008567E-02    0.2877913019E-01
    0.4700000000E+02    0.5649002312E-01    0.1326134587E+00    0.1980692571E-01    0.4310638829E-02    0.2976310262E-01
    0.4900000000E+02    0.5832406346E-01    0.1365102232E+00    0.2047272319E-01    0.4436916381E-02    0.3072964375E-01
    0.1000000000E+02    0.1487369077E-01    0.3687686908E-01    0.5038182376E-02    0.1200538062E-02    0.7835324905E-02
    0.3000000000E+02    0.3942404770E-01    0.9492901352E-01    0.1365708913E-01    0.3087939769E-02    0.2077007922E-01
    0.5000000000E+02    0.5922904490E-01    0.1384213644E+00    0.2080149975E-01    0.4498835892E-02    0.3120657598E-01
    0.7000000000E+02    0.7585125895E-01    0.1720773915E+00    0.2685733750E-01    0.5587694110E-02    0.3996735391E-01
    0.9000000000E+02    0.9021019512E-01    0.1987712886E+00    0.3208398125E-01    0.6448553516E-02    0.4753646398E-01
    0.1100000000E+03    0.1028847235E+00    0.2203579998E+00    0.3666258502E-01    0.7142130204E-02    0.5421865110E-01
    0.1300000000E+03    0.1142590756E+00    0.2380903940E+00    0.4072374970E-01    0.7709448133E-02    0.6021620039E-01
    0.1500000000E+03    0.1245994155E+00    0.2528459929E+00    0.4436417652E-01    0.8179250530E-02    0.6566924273E-01
    0.1700000000E+03    0.1340967356E+00    0.2652579728E+00    0.4765711388E-01    0.8572283742E-02    0.7067833493E-01
    0.1900000000E+03    0.1428922121E+00    0.2757946891E+00    0.5065914523E-01    0.8903898455E-02    0.7531780746E-01
    0.2100000000E+03    0.1510928777E+00    0.2848099547E+00    0.5341473501E-01    0.9185694771E-02    0.7964401483E-01
    0.2300000000E+03    0.1587816803E+00    0.2925759381E+00    0.5595935419E-01    0.9426598765E-02    0.8370063123E-01
    0.2500000000E+03    0.1660241511E+00    0.2993053237E+00    0.5832167936E-01    0.9633587871E-02    0.8752216101E-01
    0.2700000000E+03    0.1728729509E+00    0.3051666241E+00    0.6052517193E-01    0.9812192131E-02    0.9113633195E-01
    0.2900000000E+03    0.1793710447E+00    0.3102949940E+00    0.6258923290E-01    0.9966848293E-02    0.9456576697E-01
    0.3100000000E+03    0.1855539688E+00    0.3148000191E+00    0.6453006124E-01    0.1010115486E-01    0.9782917754E-01
    0.3300000000E+03    0.1914514796E+00    0.3187714233E+00    0.6636130136E-01    0.1021805904E-01    0.1009422319E+00
    0.3500000000E+03    0.1970887740E+00    0.3222833165E+00    0.6809453814E-01    0.1031999585E-01    0.1039181975E+00
    0.3700000000E+03    0.2024874073E+00    0.3253973994E+00    0.6973967989E-01    0.1040899318E-01    0.1067684245E+00
    0.3900000000E+03    0.2076659919E+00    0.3281654145E+00    0.7130525808E-01    0.1048675202E-01    0.1095027133E+00
    0.4100000000E+03    0.2126407375E+00    0.3306310396E+00    0.7279866422E-01    0.1055470861E-01    0.1121295994E+00
    0.4300000000E+03    0.2174258720E+00    0.3328313683E+00    0.7422633893E-01    0.1061408292E-01    0.1146565748E+00
    0.4500000000E+03    0.2220339751E+00    0.3347980774E+00    0.7559392411E-01    0.1066591693E-01    0.1170902635E+00
    0.4700000000E+03    0.2264762428E+00    0.3365583568E+00    0.7690638638E-01    0.1071110513E-01    0.1194365612E+00
    0.4900000000E+03    0.2307627011E+00    0.3381356554E+00    0.7816811810E-01    0.1075041899E-01    0.1217007473E+00
    0.1000000000E+03    0.9673055272E-01    0.2101139055E+00    0.3444517466E-01    0.6813333823E-02    0.5097396755E-01
    0.3000000000E+03    0.1824999238E+00    0.3126194071E+00    0.6357414493E-01    0.1003634764E-01    0.9621718317E-01
    0.5000000000E+03    0.2328503581E+00    0.3388621424E+00    0.7878119632E-01    0.1076808544E-01    0.1228035526E+00
    0.7000000000E+03    0.2682209540E+00    0.3475121482E+00    0.8913084800E-01    0.1093558808E-01    0.1414953551E+00
    0.9000000000E+03    0.2946356942E+00    0.3502605776E+00    0.9705428819E-01    0.1092298408E-01    0.1554650213E+00
    0.1100000000E+04    0.3150335373E+00    0.3506780231E+00    0.1035276846E+00    0.1084652112E-01    0.1662607168E+00
    0.1300000000E+04    0.3311606904E+00    0.3500990661E+00    0.1090355045E+00    0.1074852568E-01    0.1748025996E+00
    0.1500000000E+04    0.3441533098E+00    0.3490841452E+00    0.1138523363E+00    0.1064584066E-01    0.1816895670E+00
    0.1700000000E+04    0.3547884164E+00    0.3478862858E+00    0.1181487038E+00    0.1054534145E-01    0.1873313430E+00
    0.1900000000E+04    0.3636150272E+00    0.3466248432E+00    0.1220378129E+00    0.1044970335E-01    0.1920175171E+00
    0.2100000000E+04    0.3710306572E+00    0.3453572491E+00    0.1255987369E+00    0.1035976169E-01    0.1959578311E+00
    0.2300000000E+04    0.3773289472E+00    0.3441109379E+00    0.1288889584E+00    0.1027554146E-01    0.1993072659E+00
    0.2500000000E+04    0.3827305830E+00    0.3428983684E+00    0.1319516323E+00    0.1019672513E-01    0.2021823317E+00
    0.2700000000E+04    0.3874039803E+00    0.3417244004E+00    0.1348200252E+00    0.1012286971E-01    0.2046719684E+00
    0.2900000000E+04    0.3914794504E+00    0.3405900337E+00    0.1375203551E+00    0.1005350729E-01    0.2068450130E+00
    0.3100000000E+04    0.3950590953E+00    0.3394943482E+00    0.1400736752E+00    0.9988189960E-02    0.2087554161E+00
    0.3300000000E+04    0.3982238383E+00    0.3384355245E+00    0.1424971655E+00    0.9926507979E-02    0.2104459498E+00
    0.3500000000E+04    0.4010384979E+00    0.3374113826E+00    0.1448050420E+00    0.9868095021E-02    0.2119508835E+00
    0.3700000000E+04    0.4035555001E+00    0.3364196643E+00    0.1470092120E+00    0.9812627405E-02    0.2132979429E+00
    0.3900000000E+04    0.4058176314E+00    0.3354581759E+00    0.1491197568E+00    0.9759820748E-02    0.2145097620E+00
    0.4100000000E+04    0.4078601028E+00    0.3345248560E+00    0.1511452934E+00    0.9709425703E-02    0.2156049728E+00
    0.4300000000E+04    0.4097121162E+00    0.3336178024E+00    0.1530932501E+00    0.9661223614E-02    0.2165990319E+00
    0.4500000000E+04    0.4113980650E+00    0.3327352772E+00    0.1549700797E+00    0.9615022458E-02    0.2175048547E+00
    0.4700000000E+04    0.4129384629E+00    0.3318757008E+00    0.1567814265E+00    0.9570653206E-02    0.2183333054E+00
    0.4900000000E+04    0.4143506692E+00    0.3310376407E+00    0.1585322584E+00    0.9527966650E-02    0.2190935805E+00
    0.1000000000E+04    0.3054589971E+00    0.3506499571E+00    0.1004351015E+00    0.1088918792E-01    0.1611923152E+00
    0.3000000000E+04    0.3933257642E+00    0.3400374564E+00    0.1388142390E+00    0.1002036959E-01    0.2078301450E+00
    0.5000000000E+04    0.4150134060E+00    0.3306262686E+00    0.1593863755E+00    0.9507212493E-02    0.2194506456E+00
    0.7000000000E+04    0.4241785793E+00    0.3232706972E+00    0.1741374588E+00    0.9155224431E-02    0.2244127596E+00
    0.9000000000E+04    0.4291204417E+00    0.3171306837E+00    0.1858254508E+00    0.8883388795E-02    0.2271178413E+00
    0.1100000000E+05    0.4321778271E+00    0.3118189556E+00    0.1955826778E+00    0.8660098828E-02    0.2288104643E+00
    0.1300000000E+05    0.4342431038E+00    0.3071191123E+00    0.2039963995E+00    0.8469770455E-02    0.2299671389E+00
    0.1500000000E+05    0.4357257536E+00    0.3028943196E+00    0.2114143878E+00    0.8303483928E-02    0.2308073025E+00
    0.1700000000E+05    0.4368386448E+00    0.2990511261E+00    0.2180612390E+00    0.8155607599E-02    0.2314454457E+00
    0.1900000000E+05    0.4377028792E+00    0.2955222803E+00    0.2240911925E+00    0.8022333730E-02    0.2319469448E+00
    0.2100000000E+05    0.4383922209E+00    0.2922574995E+00    0.2296151529E+00    0.7900954934E-02    0.2323517718E+00
    0.2300000000E+05    0.4389540712E+00    0.2892180639E+00    0.2347157675E+00    0.7789470655E-02    0.2326857109E+00
    0.2500000000E+05    0.4394202318E+00    0.2863734468E+00    0.2394564145E+00    0.7686356992E-02    0.2329661277E+00
    0.2700000000E+05    0.4398128082E+00    0.2836991090E+00    0.2438868494E+00    0.7590424151E-02    0.2332051402E+00
    0.2900000000E+05    0.4401476291E+00    0.2811750004E+00    0.2480469058E+00    0.7500724045E-02    0.2334114595E+00
    0.3100000000E+05    0.4404363174E+00    0.2787845091E+00    0.2519690080E+00    0.7416488085E-02    0.2335915074E+00
    0.3300000000E+05    0.4406875951E+00    0.2765137046E+00    0.2556799281E+00    0.7337083980E-02    0.2337501221E+00
    0.3500000000E+05    0.4409081312E+00    0.2743507811E+00    0.2592020473E+00    0.7261984911E-02    0.2338910175E+00
    0.3700000000E+05    0.4411031101E+00    0.2722856397E+00    0.2625542798E+00    0.7190747036E-02    0.2340170924E+00
    0.3900000000E+05    0.4412766210E+00    0.2703095696E+00    0.2657527646E+00    0.7122992740E-02    0.2341306426E+00
    0.4100000000E+05    0.4414319318E+00    0.2684150010E+00    0.2688113905E+00    0.7058397945E-02    0.2342335100E+00
    0.4300000000E+05    0.4415716845E+00    0.2665953116E+00    0.2717422020E+00    0.6996682340E-02    0.2343271895E+00
    0.4500000000E+05    0.4416980373E+00    0.2648446722E+00    0.2745557165E+00    0.6937601767E-02    0.2344129076E+00
    0.4700000000E+05    0.4418127704E+00    0.2631579236E+00    0.2772611758E+00    0.6880942198E-02    0.2344916799E+00
    0.4900000000E+05    0.4419173649E+00    0.2615304760E+00    0.2798667469E+00    0.6826514932E-02    0.2345643547E+00
    0.1000000000E+05    0.4308118968E+00    0.3143873202E+00    0.1909009795E+00    0.8766868504E-02    0.2280518730E+00
    0.3000000000E+05    0.4402971383E+00    0.2799639788E+00    0.2500359122E+00    0.7457965350E-02    0.2335044342E+00
    0.5000000000E+05    0.4419662562E+00    0.2607376911E+00    0.2811343733E+00    0.6800085399E-02    0.2345986333E+00
    0.7000000000E+05    0.4426291323E+00    0.2471943329E+00    0.3026450782E+00    0.6356497485E-02    0.2350900044E+00
    0.9000000000E+05    0.4429738565E+00    0.2367116959E+00    0.3191411767E+00    0.6022477683E-02    0.2353780308E+00
    0.1100000000E+06    0.4431796741E+00    0.2281593515E+00    0.3325227607E+00    0.5755348957E-02    0.2355715552E+00
    0.1300000000E+06    0.4433132835E+00    0.2209407531E+00    0.3437728736E+00    0.5533365714E-02    0.2357128545E+00
    0.1500000000E+06    0.4434049667E+00    0.2147008312E+00    0.3534693012E+00    0.5343908275E-02    0.2358219438E+00
    0.1700000000E+06    0.4434703663E+00    0.2092104479E+00    0.3619816333E+00    0.5178991768E-02    0.2359095976E+00
    0.1900000000E+06    0.4435183343E+00    0.2043128423E+00    0.3695610654E+00    0.5033240706E-02    0.2359821663E+00
    0.2100000000E+06    0.4435542321E+00    0.1998959139E+00    0.3763863160E+00    0.4902862831E-02    0.2360436547E+00
    0.2300000000E+06    0.4435814831E+00    0.1958766601E+00    0.3825891733E+00    0.4785082910E-02    0.2360967244E+00
    0.2500000000E+06    0.4436023674E+00    0.1921918723E+00    0.3882696606E+00    0.4677809109E-02    0.2361432201E+00
    0.2700000000E+06    0.4436184565E+00    0.1887922864E+00    0.3935055154E+00    0.4579425897E-02    0.2361844649E+00
    0.2900000000E+06    0.4436308657E+00    0.1856387516E+00    0.3983583682E+00    0.4488659900E-02    0.2362214349E+00
    0.3100000000E+06    0.4436404053E+00    0.1826996338E+00    0.4028779127E+00    0.4404489873E-02    0.2362548685E+00
    0.3300000000E+06    0.4436476768E+00    0.1799490042E+00    0.4071048066E+00    0.4326084448E-02    0.2362853353E+00
    0.3500000000E+06    0.4436531347E+00    0.1773653435E+00    0.4110727384E+00    0.4252757971E-02    0.2363132830E+00
    0.3700000000E+06    0.4436571277E+00    0.1749305954E+00    0.4148099354E+00    0.4183938458E-02    0.2363390688E+00
    0.3900000000E+06    0.4436599273E+00    0.1726294607E+00    0.4183402834E+00    0.4119143893E-02    0.2363629820E+00
    0.4100000000E+06    0.4436617473E+00    0.1704488637E+00    0.4216841731E+00    0.4057964391E-02    0.2363852594E+00
    0.4300000000E+06    0.4436627579E+00    0.1683775414E+00    0.4248591501E+00    0.4000048563E-02    0.2364060972E+00
    0.4500000000E+06    0.4436630961E+00    0.1664057233E+00    0.4278804199E+00    0.3945092952E-02    0.2364256597E+00
    0.4700000000E+06    0.4436628730E+00    0.1645248796E+00    0.4307612454E+00    0.3892833750E-02    0.2364440852E+00
    0.4900000000E+06    0.4436621793E+00    0.1627275199E+00    0.4335132639E+00    0.3843040217E-02    0.2364614918E+00
    0.1000000000E+06    0.4430886687E+00    0.2322392568E+00    0.3261467734E+00    0.5882206697E-02    0.2354831825E+00
    0.3000000000E+06    0.4436359525E+00    0.1841441276E+00    0.4006570786E+00    0.4445806213E-02    0.2362385549E+00
    0.5000000000E+06    0.4436616800E+00    0.1618580495E+00    0.4348442264E+00    0.3819003697E-02    0.2364698451E+00
    0.7000000000E+06    0.4436396363E+00    0.1475881651E+00    0.4566599598E+00    0.3429209233E-02    0.2366017907E+00
    0.9000000000E+06    0.4436093542E+00    0.1372438097E+00    0.4724439582E+00    0.3152099812E-02    0.2366931263E+00
    0.1100000000E+07    0.4435786893E+00    0.1292165974E+00    0.4846765228E+00    0.2940185343E-02    0.2367626762E+00
    0.1300000000E+07    0.4435495996E+00    0.1227104066E+00    0.4945818110E+00    0.2770420942E-02    0.2368187223E+00
    0.1500000000E+07    0.4435225147E+00    0.1172743958E+00    0.5028516946E+00    0.2629952837E-02    0.2368656077E+00
    0.1700000000E+07    0.4434974093E+00    0.1126293098E+00    0.5099140991E+00    0.2510916473E-02    0.2369058827E+00
    0.1900000000E+07    0.4434741235E+00    0.1085906649E+00    0.5160514010E+00    0.2408169609E-02    0.2369411685E+00
    0.2100000000E+07    0.4434524693E+00    0.1050305029E+00    0.5214592756E+00    0.2318177097E-02    0.2369725579E+00
    0.2300000000E+07    0.4434322656E+00    0.1018566152E+00    0.5262786206E+00    0.2238411227E-02    0.2370008216E+00
    0.2500000000E+07    0.4434133503E+00    0.9900047571E-01    0.5306140768E+00    0.2167006482E-02    0.2370265231E+00
    0.2700000000E+07    0.4433955813E+00    0.9640984860E-01    0.5345453644E+00    0.2102549669E-02    0.2370500868E+00
    0.2900000000E+07    0.4433788360E+00    0.9404405764E-01    0.5381345305E+00    0.2043946560E-02    0.2370718398E+00
    0.3100000000E+07    0.4433630085E+00    0.9187084805E-01    0.5414307546E+00    0.1990333976E-02    0.2370920398E+00
    0.3300000000E+07    0.4433480073E+00    0.8986423953E-01    0.5444736335E+00    0.1941019976E-02    0.2371108934E+00
    0.3500000000E+07    0.4433337533E+00    0.8800301832E-01    0.5472954876E+00    0.1895442078E-02    0.2371285684E+00
    0.3700000000E+07    0.4433201776E+00    0.8626965375E-01    0.5499230174E+00    0.1853137383E-02    0.2371452034E+00
    0.3900000000E+07    0.4433072202E+00    0.8464950396E-01    0.5523785168E+00    0.1813720768E-02    0.2371609136E+00
    0.4100000000E+07    0.4432948284E+00    0.8313022321E-01    0.5546807782E+00    0.1776868691E-02    0.2371757965E+00
    0.4300000000E+07    0.4432829558E+00    0.8170131273E-01    0.5568457788E+00    0.1742306958E-02    0.2371899348E+00
    0.4500000000E+07    0.4432715614E+00    0.8035377534E-01    0.5588872074E+00    0.1709801357E-02    0.2372033992E+00
    0.4700000000E+07    0.4432606086E+00    0.7907984659E-01    0.5608168746E+00    0.1679150388E-02    0.2372162512E+00
    0.4900000000E+07    0.4432500649E+00    0.7787278298E-01    0.5626450358E+00    0.1650179563E-02    0.2372285439E+00
    0.1000000000E+07    0.4435938884E+00    0.1330016012E+00    0.4789102500E+00    0.3039768573E-02    0.2367299733E+00
    0.3000000000E+07    0.4433708135E+00    0.9293513084E-01    0.5398165918E+00    0.2016563153E-02    0.2370821200E+00
    0.5000000000E+07    0.4432449373E+00    0.7729245524E-01    0.5635238957E+00    0.1636275928E-02    0.2372344954E+00
    0.7000000000E+07    0.4431581793E+00    0.6809162459E-01    0.5774511832E+00    0.1418045314E-02    0.2373329479E+00
    0.9000000000E+07    0.4430920069E+00    0.6178526888E-01    0.5869899407E+00    0.1270954122E-02    0.2374058209E+00
    0.1100000000E+08    0.4430385227E+00    0.5708945658E-01    0.5940888637E+00    0.1162813536E-02    0.2374637071E+00
    0.1300000000E+08    0.4429936418E+00    0.5340459124E-01    0.5996572012E+00    0.1078821467E-02    0.2375117358E+00
    0.1500000000E+08    0.4429549790E+00    0.5040602591E-01    0.6041869496E+00    0.1011058716E-02    0.2375527839E+00
    0.1700000000E+08    0.4429210202E+00    0.4789986275E-01    0.6079718139E+00    0.9548415662E-03    0.2375886276E+00
    0.1900000000E+08    0.4428907446E+00    0.4576185923E-01    0.6111999152E+00    0.9071936707E-03    0.2376204409E+00
    0.2100000000E+08    0.4428634310E+00    0.4390806830E-01    0.6139983193E+00    0.8661184320E-03    0.2376490406E+00
    0.2300000000E+08    0.4428385515E+00    0.4227936414E-01    0.6164564961E+00    0.8302185244E-03    0.2376750177E+00
    0.2500000000E+08    0.4428157075E+00    0.4083268698E-01    0.6186395881E+00    0.7984820973E-03    0.2376988138E+00
    0.2700000000E+08    0.4427945910E+00    0.3953580221E-01    0.6205963503E+00    0.7701555792E-03    0.2377207675E+00
