  Pressure (Pa) 22mC5-400 (mol/kg) 2mC6-400 (mol/kg) 3mC6-400 (mol/kg) 33mC5-400 (mol/kg) 23mC5-400 (mol/kg)
    0.1000000000E+01    0.1592306009E-02    0.7968695847E-03    0.4229657247E-02    0.3892958980E-03    0.1863941030E-03
    0.3000000000E+01    0.4741223849E-02    0.2350444364E-02    0.1249803962E-01    0.1148339560E-02    0.5550071970E-03
    0.5000000000E+01    0.7843572321E-02    0.3852439812E-02    0.2052155103E-01    0.1882279359E-02    0.9181730973E-03
    0.7000000000E+01    0.1090054136E-01    0.5305103798E-02    0.2831122132E-01    0.2592209209E-02    0.1276030965E-02
    0.9000000000E+01    0.1391327969E-01    0.6710556022E-02    0.3587742321E-01    0.3279160559E-02    0.1628715144E-02
    0.1100000000E+02    0.1688289664E-01    0.8070797124E-02    0.4322992062E-01    0.3944106843E-02    0.1976355365E-02
    0.1300000000E+02    0.1981046372E-01    0.9387717038E-02    0.5037791274E-01    0.4587967550E-02    0.2319076947E-02
    0.1500000000E+02    0.2269701633E-01    0.1066310262E-01    0.5733007441E-01    0.5211611955E-02    0.2657000976E-02
    0.1700000000E+02    0.2554355516E-01    0.1189864469E-01    0.6409459301E-01    0.5815862539E-02    0.2990244487E-02
    0.1900000000E+02    0.2835104773E-01    0.1309594441E-01    0.7067920230E-01    0.6401498128E-02    0.3318920629E-02
    0.2100000000E+02    0.3112042965E-01    0.1425651928E-01    0.7709121348E-01    0.6969256787E-02    0.3643138825E-02
    0.2300000000E+02    0.3385260601E-01    0.1538180855E-01    0.8333754375E-01    0.7519838474E-02    0.3963004928E-02
    0.2500000000E+02    0.3654845257E-01    0.1647317823E-01    0.8942474252E-01    0.8053907495E-02    0.4278621358E-02
    0.2700000000E+02    0.3920881694E-01    0.1753192578E-01    0.9535901565E-01    0.8572094766E-02    0.4590087248E-02
    0.2900000000E+02    0.4183451971E-01    0.1855928437E-01    0.1011462477E+00    0.9074999903E-02    0.4897498567E-02
    0.3100000000E+02    0.4442635553E-01    0.1955642681E-01    0.1067920225E+00    0.9563193157E-02    0.5200948253E-02
    0.3300000000E+02    0.4698509409E-01    0.2052446931E-01    0.1123016423E+00    0.1003721720E-01    0.5500526324E-02
    0.3500000000E+02    0.4951148113E-01    0.2146447481E-01    0.1176801452E+00    0.1049758881E-01    0.5796319999E-02
    0.3700000000E+02    0.5200623936E-01    0.2237745615E-01    0.1229323213E+00    0.1094480035E-01    0.6088413801E-02
    0.3900000000E+02    0.5447006932E-01    0.2326437904E-01    0.1280627284E+00    0.1137932127E-01    0.6376889662E-02
    0.4100000000E+02    0.5690365025E-01    0.2412616476E-01    0.1330757052E+00    0.1180159939E-01    0.6661827023E-02
    0.4300000000E+02    0.5930764086E-01    0.2496369271E-01    0.1379753850E+00    0.1221206216E-01    0.6943302926E-02
    0.4500000000E+02    0.6168268017E-01    0.2577780276E-01    0.1427657072E+00    0.1261111780E-01    0.7221392107E-02
    0.4700000000E+02    0.6402938815E-01    0.2656929748E-01    0.1474504291E+00    0.1299915638E-01    0.7496167076E-02
    0.4900000000E+02    0.6634836651E-01    0.2733894416E-01    0.1520331360E+00    0.1337655082E-01    0.7767698207E-02
    0.1000000000E+02    0.1540341050E-01    0.7396207340E-02    0.3957979728E-01    0.3614325647E-02    0.1803157815E-02
    0.3000000000E+02    0.4313462231E-01    0.1906156156E-01    0.1039864795E+00    0.9320900972E-02    0.5049712921E-02
    0.5000000000E+02    0.6749764027E-01    0.2771580510E-01    0.1542873096E+00    0.1356136856E-01    0.7902268758E-02
    0.7000000000E+02    0.8916083719E-01    0.3426853484E-01    0.1947700451E+00    0.1677789137E-01    0.1043899542E-01
    0.9000000000E+02    0.1086212821E+00    0.3930309777E-01    0.2281335313E+00    0.1925394577E-01    0.1271802992E-01
    0.1100000000E+03    0.1262564697E+00    0.4321088442E-01    0.2561628989E+00    0.2117971263E-01    0.1478352522E-01
    0.1300000000E+03    0.1423584100E+00    0.4626405940E-01    0.2800871298E+00    0.2268746105E-01    0.1666963669E-01
    0.1500000000E+03    0.1571567020E+00    0.4865745948E-01    0.3007807084E+00    0.2387191610E-01    0.1840322038E-01
    0.1700000000E+03    0.1708345220E+00    0.5053396141E-01    0.3188833411E+00    0.2480258246E-01    0.2000570284E-01
    0.1900000000E+03    0.1835399371E+00    0.5200048323E-01    0.3348741453E+00    0.2553151338E-01    0.2149440424E-01
    0.2100000000E+03    0.1953940618E+00    0.5313842928E-01    0.3491193209E+00    0.2609837957E-01    0.2288349222E-01
    0.2300000000E+03    0.2064970374E+00    0.5401070988E-01    0.3619037530E+00    0.2653387457E-01    0.2418468131E-01
    0.2500000000E+03    0.2169324833E+00    0.5466657850E-01    0.3734525348E+00    0.2686206077E-01    0.2540775347E-01
    0.2700000000E+03    0.2267708564E+00    0.5514503860E-01    0.3839459782E+00    0.2710202138E-01    0.2656095109E-01
    0.2900000000E+03    0.2360720190E+00    0.5547728924E-01    0.3935303039E+00    0.2726904635E-01    0.2765127725E-01
    0.3100000000E+03    0.2448872243E+00    0.5568851095E-01    0.4023253977E+00    0.2737549829E-01    0.2868472797E-01
    0.3300000000E+03    0.2532606678E+00    0.5579918942E-01    0.4104305331E+00    0.2743145444E-01    0.2966647373E-01
    0.3500000000E+03    0.2612307119E+00    0.5582611023E-01    0.4179286579E+00    0.2744518919E-01    0.3060100264E-01
    0.3700000000E+03    0.2688308614E+00    0.5578311554E-01    0.4248896490E+00    0.2742354124E-01    0.3149223461E-01
    0.3900000000E+03    0.2760905469E+00    0.5568168611E-01    0.4313728143E+00    0.2737219614E-01    0.3234361290E-01
    0.4100000000E+03    0.2830357590E+00    0.5553139360E-01    0.4374288386E+00    0.2729590591E-01    0.3315817840E-01
    0.4300000000E+03    0.2896895658E+00    0.5534025527E-01    0.4431013126E+00    0.2719866150E-01    0.3393863009E-01
    0.4500000000E+03    0.2960725378E+00    0.5511501460E-01    0.4484279459E+00    0.2708382913E-01    0.3468737479E-01
    0.4700000000E+03    0.3022030992E+00    0.5486136498E-01    0.4534415376E+00    0.2695425926E-01    0.3540656822E-01
    0.4900000000E+03    0.3080978203E+00    0.5458412943E-01    0.4581707597E+00    0.2681237405E-01    0.3609814921E-01
    0.1000000000E+03    0.1176470914E+00    0.4137862949E-01    0.2427280214E+00    0.2027628081E-01    0.1377513749E-01
    0.3000000000E+03    0.2405374544E+00    0.5559665133E-01    0.3980198732E+00    0.2732916687E-01    0.2817477138E-01
    0.5000000000E+03    0.3109614729E+00    0.5443797245E-01    0.4604367232E+00    0.2673747071E-01    0.3643413875E-01
    0.7000000000E+03    0.3588264821E+00    0.5099735111E-01    0.4955792223E+00    0.2495842323E-01    0.4205222756E-01
    0.9000000000E+03    0.3939651345E+00    0.4746199376E-01    0.5186549930E+00    0.2310556404E-01    0.4617964428E-01
    0.1100000000E+04    0.4209414642E+00    0.4428641175E-01    0.5352118009E+00    0.2142385283E-01    0.4935059413E-01
    0.1300000000E+04    0.4422912998E+00    0.4153033609E-01    0.5477972474E+00    0.1995305922E-01    0.5186196559E-01
    0.1500000000E+04    0.4595782964E+00    0.3915529402E-01    0.5577603243E+00    0.1867873360E-01    0.5389687758E-01
    0.1700000000E+04    0.4738326262E+00    0.3710365055E-01    0.5658885799E+00    0.1757400099E-01    0.5557600633E-01
    0.1900000000E+04    0.4857647894E+00    0.3532069232E-01    0.5726757668E+00    0.1661196204E-01    0.5698260378E-01
    0.2100000000E+04    0.4958817773E+00    0.3375995980E-01    0.5784487664E+00    0.1576910997E-01    0.5817609189E-01
    0.2300000000E+04    0.5045551768E+00    0.3238349789E-01    0.5834334903E+00    0.1502585862E-01    0.5920003407E-01
    0.2500000000E+04    0.5120633769E+00    0.3116070314E-01    0.5877916010E+00    0.1436617751E-01    0.6008707602E-01
    0.2700000000E+04    0.5186188484E+00    0.3006695363E-01    0.5916421615E+00    0.1377701475E-01    0.6086213988E-01
    0.2900000000E+04    0.5243863736E+00    0.2908238144E-01    0.5950750094E+00    0.1324773531E-01    0.6154455900E-01
    0.3100000000E+04    0.5294955621E+00    0.2819086728E-01    0.5981593428E+00    0.1276964071E-01    0.6214954390E-01
    0.3300000000E+04    0.5340496432E+00    0.2737924642E-01    0.6009494204E+00    0.1233557868E-01    0.6268921225E-01
    0.3500000000E+04    0.5381317650E+00    0.2663669057E-01    0.6034884516E+00    0.1193963293E-01    0.6317332691E-01
    0.3700000000E+04    0.5418095851E+00    0.2595422896E-01    0.6058113198E+00    0.1157687877E-01    0.6360983393E-01
    0.3900000000E+04    0.5451386684E+00    0.2532437684E-01    0.6079465295E+00    0.1124319107E-01    0.6400526076E-01
    0.4100000000E+04    0.5481650366E+00    0.2474084635E-01    0.6099176260E+00    0.1093509298E-01    0.6436501511E-01
    0.4300000000E+04    0.5509271045E+00    0.2419832033E-01    0.6117442473E+00    0.1064963653E-01    0.6469361203E-01
    0.4500000000E+04    0.5534571687E+00    0.2369227422E-01    0.6134429170E+00    0.1038430776E-01    0.6499484836E-01
    0.4700000000E+04    0.5557825623E+00    0.2321883500E-01    0.6150276491E+00    0.1013695105E-01    0.6527193830E-01
    0.4900000000E+04    0.5579265612E+00    0.2277466868E-01    0.6165104158E+00    0.9905708393E-02    0.6552761959E-01
    0.1000000000E+04    0.4082846010E+00    0.4582150906E-01    0.5275489907E+00    0.2223868144E-01    0.4786255305E-01
    0.3000000000E+04    0.5270162735E+00    0.2862587614E-01    0.5966570516E+00    0.1300276917E-01    0.6185591069E-01
    0.5000000000E+04    0.5589368813E+00    0.2256264578E-01    0.6172168366E+00    0.9795618304E-02    0.6564817832E-01
    0.7000000000E+04    0.5732207803E+00    0.1932819183E-01    0.6278713474E+00    0.8143547508E-02    0.6735923148E-01
    0.9000000000E+04    0.5812171445E+00    0.1723857311E-01    0.6346042764E+00    0.7108874020E-02    0.6832524154E-01
    0.1100000000E+05    0.5862989108E+00    0.1574135294E-01    0.6393313609E+00    0.6386145881E-02    0.6894443154E-01
    0.1300000000E+05    0.5898028993E+00    0.1459764111E-01    0.6428756963E+00    0.5845416969E-02    0.6937507500E-01
    0.1500000000E+05    0.5923602481E+00    0.1368525729E-01    0.6456557531E+00    0.5421418913E-02    0.6969210694E-01
    0.1700000000E+05    0.5943064301E+00    0.1293430103E-01    0.6479092026E+00    0.5077460389E-02    0.6993547143E-01
    0.1900000000E+05    0.5958357567E+00    0.1230145174E-01    0.6497821166E+00    0.4791168556E-02    0.7012837109E-01
    0.2100000000E+05    0.5970683619E+00    0.1175820471E-01    0.6513697542E+00    0.4548038467E-02    0.7028519240E-01
    0.2300000000E+05    0.5980824250E+00    0.1128491128E-01    0.6527371791E+00    0.4338204818E-02    0.7041532477E-01
    0.2500000000E+05    0.5989309707E+00    0.1086751494E-01    0.6539305126E+00    0.4154695158E-02    0.7052515501E-01
    0.2700000000E+05    0.5996512094E+00    0.1049564988E-01    0.6549834612E+00    0.3992424022E-02    0.7061917818E-01
    0.2900000000E+05    0.6002700106E+00    0.1016147640E-01    0.6559212944E+00    0.3847583573E-02    0.7070064965E-01
    0.3100000000E+05    0.6008072541E+00    0.9858937291E-02    0.6567633719E+00    0.3717258531E-02    0.7077198503E-01
    0.3300000000E+05    0.6012779594E+00    0.9583266108E-02    0.6575248036E+00    0.3599174001E-02    0.7083501468E-01
    0.3500000000E+05    0.6016936825E+00    0.9330652204E-02    0.6582175757E+00    0.3491525233E-02    0.7089115100E-01
    0.3700000000E+05    0.6020634577E+00    0.9098006512E-02    0.6588513315E+00    0.3392859604E-02    0.7094150145E-01
    0.3900000000E+05    0.6023944488E+00    0.8882794081E-02    0.6594339282E+00    0.3301992904E-02    0.7098694677E-01
    0.4100000000E+05    0.6026924082E+00    0.8682911932E-02    0.6599718392E+00    0.3217948728E-02    0.7102819627E-01
    0.4300000000E+05    0.6029620079E+00    0.8496598385E-02    0.6604704514E+00    0.3139913805E-02    0.7106582769E-01
    0.4500000000E+05    0.6032070808E+00    0.8322364684E-02    0.6609342888E+00    0.3067204525E-02    0.7110031645E-01
    0.4700000000E+05    0.6034308012E+00    0.8158942699E-02    0.6613671815E+00    0.2999241502E-02    0.7113205739E-01
    0.4900000000E+05    0.6036358197E+00    0.8005244416E-02    0.6617723965E+00    0.2935529988E-02    0.7116138122E-01
    0.1000000000E+05    0.5840141881E+00    0.1643481923E-01    0.6371533120E+00    0.6718851382E-02    0.6866539233E-01
    0.3000000000E+05    0.6005477935E+00    0.1000657618E-01    0.6563532739E+00    0.3780761510E-02    0.7073745853E-01
    0.5000000000E+05    0.6037320270E+00    0.7931742954E-02    0.6619655174E+00    0.2905133251E-02    0.7117522567E-01
    0.7000000000E+05    0.6050670168E+00    0.6799363620E-02    0.6648860476E+00    0.2442733408E-02    0.7137461371E-01
    0.9000000000E+05    0.6057962191E+00    0.6057347728E-02    0.6667431227E+00    0.2145880902E-02    0.7149228569E-01
    0.1100000000E+06    0.6062534634E+00    0.5521852533E-02    0.6680549736E+00    0.1934793209E-02    0.7157166530E-01
    0.1300000000E+06    0.6065657368E+00    0.5111423362E-02    0.6690441788E+00    0.1774860771E-02    0.7162977479E-01
    0.1500000000E+06    0.6067917864E+00    0.4783599584E-02    0.6698240797E+00    0.1648317939E-02    0.7167472018E-01
    0.1700000000E+06    0.6069624852E+00    0.4513754922E-02    0.6704592029E+00    0.1544984413E-02    0.7171088283E-01
    0.1900000000E+06    0.6070955918E+00    0.4286479720E-02    0.6709893139E+00    0.1458552534E-02    0.7174085285E-01
    0.2100000000E+06    0.6072020347E+00    0.4091565865E-02    0.6714404190E+00    0.1384878518E-02    0.7176626747E-01
    0.2300000000E+06    0.6072889023E+00    0.3921943582E-02    0.6718303311E+00    0.1321113167E-02    0.7178821678E-01
    0.2500000000E+06    0.6073609898E+00    0.3772538715E-02    0.6721717125E+00    0.1265224494E-02    0.7180745742E-01
    0.2700000000E+06    0.6074216552E+00    0.3639601139E-02    0.6724738418E+00    0.1215719222E-02    0.7182453272E-01
    0.2900000000E+06    0.6074733184E+00    0.3520290532E-02    0.6727436935E+00    0.1171472129E-02    0.7183984408E-01
    0.3100000000E+06    0.6075177668E+00    0.3412410443E-02    0.6729866240E+00    0.1131617118E-02    0.7185369523E-01
    0.3300000000E+06    0.6075563482E+00    0.3314231687E-02    0.6732068242E+00    0.1095475257E-02    0.7186632076E-01
    0.3500000000E+06    0.6075900980E+00    0.3224371621E-02    0.6734076260E+00    0.1062505818E-02    0.7187790513E-01
    0.3700000000E+06    0.6076198242E+00    0.3141709515E-02    0.6735917162E+00    0.1032272116E-02    0.7188859567E-01
    0.3900000000E+06    0.6076461662E+00    0.3065325920E-02    0.6737612885E+00    0.1004417118E-02    0.7189851166E-01
    0.4100000000E+06    0.6076696365E+00    0.2994458367E-02    0.6739181538E+00    0.9786457037E-03    0.7190775087E-01
    0.4300000000E+06    0.6076906508E+00    0.2928468446E-02    0.6740638221E+00    0.9547115173E-03    0.7191639431E-01
    0.4500000000E+06    0.6077095491E+00    0.2866816958E-02    0.6741995638E+00    0.9324070835E-03    0.7192450979E-01
    0.4700000000E+06    0.6077266127E+00    0.2809044897E-02    0.6743264567E+00    0.9115562623E-03    0.7193215454E-01
    0.4900000000E+06    0.6077420758E+00    0.2754758710E-02    0.6744454212E+00    0.8920084207E-03    0.7193937729E-01
    0.1000000000E+06    0.6060484931E+00    0.5770193564E-02    0.6674495653E+00    0.2032352212E-02    0.7153538616E-01
    0.3000000000E+06    0.6074963516E+00    0.3465039070E-02    0.6728682388E+00    0.1151041772E-02    0.7184693616E-01
    0.5000000000E+06    0.6077492700E+00    0.2728814837E-02    0.6745021823E+00    0.8826818766E-03    0.7194284370E-01
    0.7000000000E+06    0.6078436193E+00    0.2330552989E-02    0.6753658927E+00    0.7408347145E-03    0.7199761723E-01
    0.9000000000E+06    0.6078884298E+00    0.2071115781E-02    0.6759207285E+00    0.6498723618E-03    0.7203554973E-01
    0.1100000000E+07    0.6079121540E+00    0.1884671294E-02    0.6763155787E+00    0.5852791286E-03    0.7206444109E-01
    0.1300000000E+07    0.6079252778E+00    0.1742224176E-02    0.6766150232E+00    0.5364034917E-03    0.7208772587E-01
    0.1500000000E+07    0.6079324882E+00    0.1628730821E-02    0.6768521978E+00    0.4977773223E-03    0.7210720619E-01
    0.1700000000E+07    0.6079361595E+00    0.1535499461E-02    0.6770460829E+00    0.4662686241E-03    0.7212394070E-01
    0.1900000000E+07    0.6079376048E+00    0.1457108427E-02    0.6772084356E+00    0.4399381284E-03    0.7213860249E-01
    0.2100000000E+07    0.6079375994E+00    0.1389975665E-02    0.6773469786E+00    0.4175127928E-03    0.7215164537E-01
    0.2300000000E+07    0.6079366245E+00    0.1331626011E-02    0.6774670215E+00    0.3981179577E-03    0.7216338947E-01
    0.2500000000E+07    0.6079349908E+00    0.1280286479E-02    0.6775723511E+00    0.3811302975E-03    0.7217406888E-01
    0.2700000000E+07    0.6079329051E+00    0.1234648988E-02    0.6776657507E+00    0.3660920662E-03    0.7218385984E-01
    0.2900000000E+07    0.6079305089E+00    0.1193724328E-02    0.6777493180E+00    0.3526585741E-03    0.7219289833E-01
    0.3100000000E+07    0.6079279011E+00    0.1156748580E-02    0.6778246678E+00    0.3405646789E-03    0.7220129142E-01
    0.3300000000E+07    0.6079251517E+00    0.1123121085E-02    0.6778930664E+00    0.3296026616E-03    0.7220912489E-01
    0.3500000000E+07    0.6079223111E+00    0.1092362097E-02    0.6779555227E+00    0.3196071819E-03    0.7221646854E-01
    0.3700000000E+07    0.6079194162E+00    0.1064083145E-02    0.6780128515E+00    0.3104447837E-03    0.7222337989E-01
    0.3900000000E+07    0.6079164937E+00    0.1037965827E-02    0.6780657194E+00    0.3020064099E-03    0.7222990693E-01
    0.4100000000E+07    0.6079135635E+00    0.1013746330E-02    0.6781146775E+00    0.2942019572E-03    0.7223609008E-01
    0.4300000000E+07    0.6079106405E+00    0.9912039393E-03    0.6781601861E+00    0.2869562453E-03    0.7224196370E-01
    0.4500000000E+07    0.6079077353E+00    0.9701523805E-03    0.6782026328E+00    0.2802059860E-03    0.7224755728E-01
    0.4700000000E+07    0.6079048560E+00    0.9504331905E-03    0.6782423471E+00    0.2738974718E-03    0.7225289628E-01
    0.4900000000E+07    0.6079020085E+00    0.9319105910E-03    0.6782796107E+00    0.2679847900E-03    0.7225800284E-01
    0.1000000000E+07    0.6079020663E+00    0.1971053915E-02    0.6761330464E+00    0.6151214683E-03    0.7205085556E-01
    0.3000000000E+07    0.6079292266E+00    0.1174783636E-02    0.6777879340E+00    0.3464583018E-03    0.7219716976E-01
    0.5000000000E+07    0.6079005981E+00    0.9230607778E-03    0.6782974006E+00    0.2651643205E-03    0.7226047511E-01
    0.7000000000E+07    0.6078745755E+00    0.7873938674E-03    0.6785689553E+00    0.2223126993E-03    0.7230136778E-01
    0.9000000000E+07    0.6078525824E+00    0.6992020934E-03    0.6787442675E+00    0.1948786542E-03    0.7233162865E-01
    0.1100000000E+08    0.6078338162E+00    0.6359114118E-03    0.6788694582E+00    0.1754196708E-03    0.7235566082E-01
    0.1300000000E+08    0.6078175298E+00    0.5876051555E-03    0.6789646442E+00    0.1607081611E-03    0.7237559641E-01
    0.1500000000E+08    0.6078031737E+00    0.5491476420E-03    0.6790401888E+00    0.1490894382E-03    0.7239263122E-01
    0.1700000000E+08    0.6077903519E+00    0.5175756789E-03    0.6791020470E+00    0.1396167369E-03    0.7240750353E-01
    0.1900000000E+08    0.6077787746E+00    0.4910429070E-03    0.6791539166E+00    0.1317043356E-03    0.7242070133E-01
    0.2100000000E+08    0.6077682251E+00    0.4683305249E-03    0.6791982315E+00    0.1249680042E-03    0.7243256403E-01
    0.2300000000E+08    0.6077585379E+00    0.4485969713E-03    0.6792366683E+00    0.1191439098E-03    0.7244333727E-01
    0.2500000000E+08    0.6077495839E+00    0.4312398053E-03    0.6792704245E+00    0.1140441283E-03    0.7245320457E-01
    0.2700000000E+08    0.6077412606E+00    0.4158147969E-03    0.6793003813E+00    0.1095307179E-03    0.7246230664E-01
