  Pressure (Pa) 22mC5-400 (mol/kg) 2mC6-400 (mol/kg) 3mC6-400 (mol/kg) 33mC5-400 (mol/kg) 23mC5-400 (mol/kg)
    0.1000000000E+01    0.1586834606E-02    0.3976337243E-02    0.2114094259E-02    0.6474946052E-04    0.6501389182E-03
    0.3000000000E+01    0.4693341135E-02    0.1168275606E-01    0.6242749622E-02    0.1902343549E-03    0.1922917957E-02
    0.5000000000E+01    0.7714183134E-02    0.1907618489E-01    0.1024424682E-01    0.3106172346E-03    0.3160622669E-02
    0.7000000000E+01    0.1065373632E-01    0.2617388453E-01    0.1412485840E-01    0.4261792332E-03    0.4365044402E-02
    0.9000000000E+01    0.1351607393E-01    0.3299189421E-01    0.1789044374E-01    0.5371815957E-03    0.5537850680E-02
    0.1100000000E+02    0.1630499254E-01    0.3954513680E-01    0.2154648267E-01    0.6438673907E-03    0.6680595785E-02
    0.1300000000E+02    0.1902403535E-01    0.4584751338E-01    0.2509810597E-01    0.7464630503E-03    0.7794730267E-02
    0.1500000000E+02    0.2167651307E-01    0.5191198841E-01    0.2855012288E-01    0.8451797558E-03    0.8881609511E-02
    0.1700000000E+02    0.2426552281E-01    0.5775066657E-01    0.3190704606E-01    0.9402146894E-03    0.9942501468E-02
    0.1900000000E+02    0.2679396517E-01    0.6337486222E-01    0.3517311429E-01    0.1031752164E-02    0.1097859364E-01
    0.2100000000E+02    0.2926455971E-01    0.6879516222E-01    0.3835231303E-01    0.1119964646E-02    0.1199099942E-01
    0.2300000000E+02    0.3167985893E-01    0.7402148294E-01    0.4144839328E-01    0.1205013686E-02    0.1298076381E-01
    0.2500000000E+02    0.3404226104E-01    0.7906312200E-01    0.4446488862E-01    0.1287050755E-02    0.1394886865E-01
    0.2700000000E+02    0.3635402151E-01    0.8392880531E-01    0.4740513090E-01    0.1366218018E-02    0.1489623736E-01
    0.2900000000E+02    0.3861726366E-01    0.8862672992E-01    0.5027226451E-01    0.1442649025E-02    0.1582373925E-01
    0.3100000000E+02    0.4083398826E-01    0.9316460311E-01    0.5306925953E-01    0.1516469351E-02    0.1673219345E-01
    0.3300000000E+02    0.4300608236E-01    0.9754967805E-01    0.5579892370E-01    0.1587797176E-02    0.1762237255E-01
    0.3500000000E+02    0.4513532729E-01    0.1017887864E+00    0.5846391344E-01    0.1656743815E-02    0.1849500587E-01
    0.3700000000E+02    0.4722340606E-01    0.1058883683E+00    0.6106674404E-01    0.1723414206E-02    0.1935078246E-01
    0.3900000000E+02    0.4927191015E-01    0.1098544995E+00    0.6360979894E-01    0.1787907355E-02    0.2019035391E-01
    0.4100000000E+02    0.5128234564E-01    0.1136929168E+00    0.6609533838E-01    0.1850316745E-02    0.2101433685E-01
    0.4300000000E+02    0.5325613902E-01    0.1174090409E+00    0.6852550727E-01    0.1910730710E-02    0.2182331531E-01
    0.4500000000E+02    0.5519464235E-01    0.1210079977E+00    0.7090234256E-01    0.1969232787E-02    0.2261784287E-01
    0.4700000000E+02    0.5709913818E-01    0.1244946379E+00    0.7322777999E-01    0.2025902026E-02    0.2339844465E-01
    0.4900000000E+02    0.5897084396E-01    0.1278735550E+00    0.7550366037E-01    0.2080813290E-02    0.2416561910E-01
    0.1000000000E+02    0.1491948348E-01    0.3630071967E-01    0.1973182798E-01    0.5910495391E-03    0.6112887894E-02
    0.3000000000E+02    0.3973132014E-01    0.9091520937E-01    0.5167935019E-01    0.1479877970E-02    0.1628029797E-01
    0.5000000000E+02    0.5989476427E-01    0.1295239866E+00    0.7662356739E-01    0.2107631997E-02    0.2454431999E-01
    0.7000000000E+02    0.7690413657E-01    0.1578221040E+00    0.9680366545E-01    0.2567114272E-02    0.3151676357E-01
    0.9000000000E+02    0.9165233809E-01    0.1791295897E+00    0.1135814990E+00    0.2912442983E-02    0.3756322091E-01
    0.1100000000E+03    0.1047080615E+00    0.1955052564E+00    0.1278353022E+00    0.3177189398E-02    0.4291654896E-01
    0.1300000000E+03    0.1164522022E+00    0.2082894796E+00    0.1401583099E+00    0.3383218065E-02    0.4773271475E-01
    0.1500000000E+03    0.1271504884E+00    0.2183899136E+00    0.1509666167E+00    0.3545340967E-02    0.5212053059E-01
    0.1700000000E+03    0.1369946667E+00    0.2264414657E+00    0.1605613183E+00    0.3673923827E-02    0.5615851623E-01
    0.1900000000E+03    0.1461270918E+00    0.2329005137E+00    0.1691660945E+00    0.3776421338E-02    0.5990496695E-01
    0.2100000000E+03    0.1546560546E+00    0.2381027918E+00    0.1769508850E+00    0.3858320524E-02    0.6340422941E-01
    0.2300000000E+03    0.1626656905E+00    0.2423002516E+00    0.1840473281E+00    0.3923741558E-02    0.6669075880E-01
    0.2500000000E+03    0.1702225887E+00    0.2456852704E+00    0.1905591330E+00    0.3975832408E-02    0.6979182514E-01
    0.2700000000E+03    0.1773803221E+00    0.2484069804E+00    0.1965692318E+00    0.4017035089E-02    0.7272936813E-01
    0.2900000000E+03    0.1841826265E+00    0.2505825463E+00    0.2021448236E+00    0.4049269561E-02    0.7552129907E-01
    0.3100000000E+03    0.1906656796E+00    0.2523051160E+00    0.2073410058E+00    0.4074063432E-02    0.7818243407E-01
    0.3300000000E+03    0.1968597653E+00    0.2536495323E+00    0.2122034346E+00    0.4092645121E-02    0.8072517559E-01
    0.3500000000E+03    0.2027905100E+00    0.2546765037E+00    0.2167703066E+00    0.4106011922E-02    0.8316001863E-01
    0.3700000000E+03    0.2084798138E+00    0.2554356957E+00    0.2210738570E+00    0.4114980465E-02    0.8549593228E-01
    0.3900000000E+03    0.2139465633E+00    0.2559680548E+00    0.2251415055E+00    0.4120224650E-02    0.8774065141E-01
    0.4100000000E+03    0.2192071823E+00    0.2563075757E+00    0.2289967461E+00    0.4122304505E-02    0.8990090235E-01
    0.4300000000E+03    0.2242760633E+00    0.2564826612E+00    0.2326598430E+00    0.4121688406E-02    0.9198257953E-01
    0.4500000000E+03    0.2291659085E+00    0.2565171793E+00    0.2361483826E+00    0.4118770351E-02    0.9399088518E-01
    0.4700000000E+03    0.2338880025E+00    0.2564312934E+00    0.2394777140E+00    0.4113883525E-02    0.9593044086E-01
    0.4900000000E+03    0.2384524312E+00    0.2562421192E+00    0.2426613041E+00    0.4107311045E-02    0.9780537735E-01
    0.1000000000E+03    0.9836460886E-01    0.1878374617E+00    0.1209817084E+00    0.3053316042E-02    0.4031540869E-01
    0.3000000000E+03    0.1874620448E+00    0.2514954040E+00    0.2047872921E+00    0.4062513682E-02    0.7686739098E-01
    0.5000000000E+03    0.2406783898E+00    0.2561134455E+00    0.2442022122E+00    0.4103469616E-02    0.9871978833E-01
    0.7000000000E+03    0.2787184759E+00    0.2507154791E+00    0.2696284036E+00    0.3981246107E-02    0.1143520451E+00
    0.9000000000E+03    0.3075976321E+00    0.2433295164E+00    0.2883457458E+00    0.3829067917E-02    0.1262279390E+00
    0.1100000000E+04    0.3302262533E+00    0.2359517685E+00    0.3031468760E+00    0.3680264507E-02    0.1355397672E+00
    0.1300000000E+04    0.3483430323E+00    0.2291208931E+00    0.3153841914E+00    0.3543699255E-02    0.1430000213E+00
    0.1500000000E+04    0.3630945537E+00    0.2229433263E+00    0.3258123873E+00    0.3420888389E-02    0.1490787011E+00
    0.1700000000E+04    0.3752779280E+00    0.2173892985E+00    0.3348949395E+00    0.3311019138E-02    0.1541026536E+00
    0.1900000000E+04    0.3854658015E+00    0.2123902232E+00    0.3429368235E+00    0.3212627036E-02    0.1583067567E+00
    0.2100000000E+04    0.3940793244E+00    0.2078724092E+00    0.3501494495E+00    0.3124184732E-02    0.1618638004E+00
    0.2300000000E+04    0.4014340367E+00    0.2037683254E+00    0.3566854502E+00    0.3044300390E-02    0.1649032810E+00
    0.2500000000E+04    0.4077700983E+00    0.2000195921E+00    0.3626586738E+00    0.2971769637E-02    0.1675237859E+00
    0.2700000000E+04    0.4132728459E+00    0.1965769462E+00    0.3681563369E+00    0.2905573075E-02    0.1698014178E+00
    0.2900000000E+04    0.4180871020E+00    0.1933992051E+00    0.3732467573E+00    0.2844855459E-02    0.1717956587E+00
    0.3100000000E+04    0.4223273257E+00    0.1904520127E+00    0.3779844657E+00    0.2788900844E-02    0.1735535322E+00
    0.3300000000E+04    0.4260849294E+00    0.1877066575E+00    0.3824136956E+00    0.2737109090E-02    0.1751126034E+00
    0.3500000000E+04    0.4294336277E+00    0.1851390534E+00    0.3865708319E+00    0.2688975470E-02    0.1765031721E+00
    0.3700000000E+04    0.4324333982E+00    0.1827288946E+00    0.3904861709E+00    0.2644073650E-02    0.1777498981E+00
    0.3900000000E+04    0.4351334487E+00    0.1804589685E+00    0.3941852122E+00    0.2602041736E-02    0.1788730187E+00
    0.4100000000E+04    0.4375744652E+00    0.1783146013E+00    0.3976896235E+00    0.2562570949E-02    0.1798892703E+00
    0.4300000000E+04    0.4397903311E+00    0.1762832111E+00    0.4010179749E+00    0.2525396448E-02    0.1808125951E+00
    0.4500000000E+04    0.4418094559E+00    0.1743539496E+00    0.4041863039E+00    0.2490289904E-02    0.1816546857E+00
    0.4700000000E+04    0.4436558105E+00    0.1725174114E+00    0.4072085575E+00    0.2457053471E-02    0.1824254105E+00
    0.4900000000E+04    0.4453497403E+00    0.1707653993E+00    0.4100969411E+00    0.2425514878E-02    0.1831331476E+00
    0.1000000000E+04    0.3195665180E+00    0.2395897648E+00    0.2961316214E+00    0.3753416186E-02    0.1311524294E+00
    0.3000000000E+04    0.4202727851E+00    0.1918987043E+00    0.3756567273E+00    0.2816322744E-02    0.1727016009E+00
    0.5000000000E+04    0.4461450741E+00    0.1699188116E+00    0.4114943396E+00    0.2410334428E-02    0.1834656728E+00
    0.7000000000E+04    0.4571646596E+00    0.1560738768E+00    0.4344573038E+00    0.2167614815E-02    0.1880931202E+00
    0.9000000000E+04    0.4631164726E+00    0.1460302890E+00    0.4511587717E+00    0.1997966619E-02    0.1906172356E+00
    0.1100000000E+05    0.4667991706E+00    0.1381900303E+00    0.4641634439E+00    0.1869074977E-02    0.1921950947E+00
    0.1300000000E+05    0.4692861975E+00    0.1317896473E+00    0.4747365296E+00    0.1766001991E-02    0.1932718808E+00
    0.1500000000E+05    0.4710710875E+00    0.1264039477E+00    0.4835944984E+00    0.1680674197E-02    0.1940529292E+00
    0.1700000000E+05    0.4724105512E+00    0.1217712989E+00    0.4911816973E+00    0.1608250486E-02    0.1946453952E+00
    0.1900000000E+05    0.4734506259E+00    0.1177190759E+00    0.4977921915E+00    0.1545606152E-02    0.1951104412E+00
    0.2100000000E+05    0.4742802351E+00    0.1141273519E+00    0.5036303402E+00    0.1490610711E-02    0.1954854369E+00
    0.2300000000E+05    0.4749564950E+00    0.1109094334E+00    0.5088436953E+00    0.1441748708E-02    0.1957944678E+00
    0.2500000000E+05    0.4755177064E+00    0.1080006398E+00    0.5135421207E+00    0.1397905191E-02    0.1960537417E+00
    0.2700000000E+05    0.4759904788E+00    0.1053514541E+00    0.5178095163E+00    0.1358237008E-02    0.1962745587E+00
    0.2900000000E+05    0.4763938571E+00    0.1029231469E+00    0.5217113275E+00    0.1322091807E-02    0.1964650354E+00
    0.3100000000E+05    0.4767418197E+00    0.1006848720E+00    0.5252995353E+00    0.1288955023E-02    0.1966311503E+00
    0.3300000000E+05    0.4770448515E+00    0.9861167691E-01    0.5286160729E+00    0.1258414010E-02    0.1967774041E+00
    0.3500000000E+05    0.4773109670E+00    0.9668310240E-01    0.5316952296E+00    0.1230133082E-02    0.1969072495E+00
    0.3700000000E+05    0.4775463943E+00    0.9488217389E-01    0.5345653800E+00    0.1203835718E-02    0.1970233792E+00
    0.3900000000E+05    0.4777560446E+00    0.9319465988E-01    0.5372502535E+00    0.1179291599E-02    0.1971279246E+00
    0.4100000000E+05    0.4779438417E+00    0.9160851707E-01    0.5397698821E+00    0.1156306994E-02    0.1972225946E+00
    0.4300000000E+05    0.4781129569E+00    0.9011346835E-01    0.5421413207E+00    0.1134717508E-02    0.1973087754E+00
    0.4500000000E+05    0.4782659808E+00    0.8870067751E-01    0.5443792005E+00    0.1114382525E-02    0.1973876037E+00
    0.4700000000E+05    0.4784050495E+00    0.8736249508E-01    0.5464961608E+00    0.1095180904E-02    0.1974600202E+00
    0.4900000000E+05    0.4785319402E+00    0.8609225760E-01    0.5485031900E+00    0.1077007595E-02    0.1975268103E+00
    0.1000000000E+05    0.4651539540E+00    0.1418936558E+00    0.4580261772E+00    0.1929589282E-02    0.1914881856E+00
    0.3000000000E+05    0.4765740422E+00    0.1017819343E+00    0.5235418077E+00    0.1305175207E-02    0.1965508280E+00
    0.5000000000E+05    0.4785912940E+00    0.8548076537E-01    0.5494685304E+00    0.1068277459E-02    0.1975583062E+00
    0.7000000000E+05    0.4793997474E+00    0.7571792617E-01    0.5648084914E+00    0.9305161017E-03    0.1980092831E+00
    0.9000000000E+05    0.4798250546E+00    0.6895409711E-01    0.5753597658E+00    0.8368634852E-03    0.1982731831E+00
    0.1100000000E+06    0.4800824090E+00    0.6388064114E-01    0.5832353578E+00    0.7675907728E-03    0.1984503108E+00
    0.1300000000E+06    0.4802520321E+00    0.5987788928E-01    0.5894264517E+00    0.7135393539E-03    0.1985795461E+00
    0.1500000000E+06    0.4803704376E+00    0.5660696609E-01    0.5944714468E+00    0.6697734804E-03    0.1986792703E+00
    0.1700000000E+06    0.4804565434E+00    0.5386392877E-01    0.5986927014E+00    0.6333569637E-03    0.1987593681E+00
    0.1900000000E+06    0.4805210901E+00    0.5151730356E-01    0.6022971790E+00    0.6024150488E-03    0.1988256610E+00
    0.2100000000E+06    0.4805706064E+00    0.4947781421E-01    0.6054249462E+00    0.5756850806E-03    0.1988818183E+00
    0.2300000000E+06    0.4806092768E+00    0.4768231805E-01    0.6081747903E+00    0.5522803688E-03    0.1989302772E+00
    0.2500000000E+06    0.4806398994E+00    0.4608466520E-01    0.6106187399E+00    0.5315569319E-03    0.1989727261E+00
    0.2700000000E+06    0.4806644112E+00    0.4465020044E-01    0.6128107707E+00    0.5130339227E-03    0.1990103758E+00
    0.2900000000E+06    0.4806841926E+00    0.4335230284E-01    0.6147922693E+00    0.4963438672E-03    0.1990441192E+00
    0.3100000000E+06    0.4807002513E+00    0.4217012428E-01    0.6165955948E+00    0.4812003300E-03    0.1990746316E+00
    0.3300000000E+06    0.4807133388E+00    0.4108706345E-01    0.6182464775E+00    0.4673762102E-03    0.1991024338E+00
    0.3500000000E+06    0.4807240258E+00    0.4008970767E-01    0.6197656783E+00    0.4546887625E-03    0.1991279351E+00
    0.3700000000E+06    0.4807327526E+00    0.3916708148E-01    0.6211701656E+00    0.4429890067E-03    0.1991514620E+00
    0.3900000000E+06    0.4807398634E+00    0.3831010170E-01    0.6224739670E+00    0.4321540801E-03    0.1991732788E+00
    0.4100000000E+06    0.4807456313E+00    0.3751117507E-01    0.6236887975E+00    0.4220816108E-03    0.1991936020E+00
    0.4300000000E+06    0.4807502746E+00    0.3676389612E-01    0.6248245304E+00    0.4126855086E-03    0.1992126108E+00
    0.4500000000E+06    0.4807539703E+00    0.3606281707E-01    0.6258895559E+00    0.4038927695E-03    0.1992304552E+00
    0.4700000000E+06    0.4807568626E+00    0.3540327013E-01    0.6268910570E+00    0.3956410162E-03    0.1992472618E+00
    0.4900000000E+06    0.4807590703E+00    0.3478122866E-01    0.6278352257E+00    0.3878765821E-03    0.1992631382E+00
    0.1000000000E+06    0.4799681628E+00    0.6625410169E-01    0.5795550331E+00    0.7998927554E-03    0.1983694440E+00
    0.3000000000E+06    0.4806926353E+00    0.4274787159E-01    0.6157144624E+00    0.4885941668E-03    0.1990597437E+00
    0.5000000000E+06    0.4807599490E+00    0.3448316202E-01    0.6282875169E+00    0.3841623429E-03    0.1992707569E+00
    0.7000000000E+06    0.4807584506E+00    0.2984267011E-01    0.6353183282E+00    0.3268820669E-03    0.1993910792E+00
    0.9000000000E+06    0.4807410984E+00    0.2675270528E-01    0.6399889793E+00    0.2893446825E-03    0.1994743466E+00
    0.1100000000E+07    0.4807196265E+00    0.2449851375E-01    0.6433909346E+00    0.2622914306E-03    0.1995377407E+00
    0.1300000000E+07    0.4806975689E+00    0.2275696046E-01    0.6460161811E+00    0.2415951399E-03    0.1995888183E+00
    0.1500000000E+07    0.4806761306E+00    0.2135724159E-01    0.6481242378E+00    0.2250980682E-03    0.1996315418E+00
    0.1700000000E+07    0.4806557174E+00    0.2019925382E-01    0.6498669643E+00    0.2115469735E-03    0.1996682375E+00
    0.1900000000E+07    0.4806364316E+00    0.1921983826E-01    0.6513400561E+00    0.2001571775E-03    0.1997003841E+00
    0.2100000000E+07    0.4806182544E+00    0.1837687069E-01    0.6526072734E+00    0.1904088145E-03    0.1997289782E+00
    0.2300000000E+07    0.4806011206E+00    0.1764101039E-01    0.6537129894E+00    0.1819419177E-03    0.1997547228E+00
    0.2500000000E+07    0.4805849498E+00    0.1699109541E-01    0.6546891849E+00    0.1744982362E-03    0.1997781317E+00
    0.2700000000E+07    0.4805696601E+00    0.1641141882E-01    0.6555595819E+00    0.1678870101E-03    0.1997995918E+00
    0.2900000000E+07    0.4805551737E+00    0.1589003934E-01    0.6563422051E+00    0.1619638517E-03    0.1998194015E+00
    0.3100000000E+07    0.4805414197E+00    0.1541769155E-01    0.6570510333E+00    0.1566171829E-03    0.1998377957E+00
    0.3300000000E+07    0.4805283338E+00    0.1498705903E-01    0.6576971000E+00    0.1517592280E-03    0.1998549627E+00
    0.3500000000E+07    0.4805158588E+00    0.1459227554E-01    0.6582892480E+00    0.1473198565E-03    0.1998710556E+00
    0.3700000000E+07    0.4805039433E+00    0.1422857418E-01    0.6588346606E+00    0.1432422679E-03    0.1998862007E+00
    0.3900000000E+07    0.4804925418E+00    0.1389203515E-01    0.6593392424E+00    0.1394799001E-03    0.1999005031E+00
    0.4100000000E+07    0.4804816137E+00    0.1357940101E-01    0.6598078990E+00    0.1359941720E-03    0.1999140515E+00
    0.4300000000E+07    0.4804711226E+00    0.1328793897E-01    0.6602447444E+00    0.1327528060E-03    0.1999269214E+00
    0.4500000000E+07    0.4804610360E+00    0.1301533669E-01    0.6606532590E+00    0.1297285626E-03    0.1999391773E+00
    0.4700000000E+07    0.4804513248E+00    0.1275962237E-01    0.6610364099E+00    0.1268982718E-03    0.1999508751E+00
    0.4900000000E+07    0.4804419627E+00    0.1251910272E-01    0.6613967443E+00    0.1242420838E-03    0.1999620634E+00
    0.1000000000E+07    0.4807305700E+00    0.2554645036E-01    0.6418099796E+00    0.2748319106E-03    0.1995079336E+00
    0.3000000000E+07    0.4805482094E+00    0.1564823272E-01    0.6567050951E+00    0.1592244169E-03    0.1998287628E+00
    0.5000000000E+07    0.4804374051E+00    0.1240407565E-01    0.6615690551E+00    0.1229738356E-03    0.1999674800E+00
    0.7000000000E+07    0.4803599024E+00    0.1063172595E-01    0.6642226513E+00    0.1036093368E-03    0.2000570653E+00
    0.9000000000E+07    0.4803004019E+00    0.9470456419E-02    0.6659599067E+00    0.9111576797E-04    0.2001233509E+00
    0.1100000000E+08    0.4802521308E+00    0.8632590613E-02    0.6672126460E+00    0.8220744334E-04    0.2001759885E+00
    0.1300000000E+08    0.4802115265E+00    0.7990555084E-02    0.6681721840E+00    0.7544636358E-04    0.2002196510E+00
    0.1500000000E+08    0.4801764883E+00    0.7477838163E-02    0.6689381968E+00    0.7009051909E-04    0.2002569588E+00
    0.1700000000E+08    0.4801456742E+00    0.7055867783E-02    0.6695684596E+00    0.6571325399E-04    0.2002895296E+00
    0.1900000000E+08    0.4801181754E+00    0.6700511858E-02    0.6700991036E+00    0.6204957516E-04    0.2003184324E+00
    0.2100000000E+08    0.4800933476E+00    0.6395787115E-02    0.6705540512E+00    0.5892508492E-04    0.2003444110E+00
    0.2300000000E+08    0.4800707179E+00    0.6130626163E-02    0.6709498624E+00    0.5621970511E-04    0.2003680034E+00
    0.2500000000E+08    0.4800499287E+00    0.5897087050E-02    0.6712984176E+00    0.5384770519E-04    0.2003896117E+00
    0.2700000000E+08    0.4800307030E+00    0.5689301106E-02    0.6716084937E+00    0.5174602749E-04    0.2004095440E+00
