  Pressure (Pa) 22mC5-400 (mol/kg) 2mC6-400 (mol/kg) 3mC6-400 (mol/kg) 33mC5-400 (mol/kg) 23mC5-400 (mol/kg)
    0.1000000000E+01    0.1591295702E-02    0.1592057964E-02    0.4225598697E-02    0.3888855359E-03    0.9313794040E-04
    0.3000000000E+01    0.4732330553E-02    0.4686281400E-02    0.1246277377E-01    0.1144773925E-02    0.2769832656E-03
    0.5000000000E+01    0.7819405756E-02    0.7665687769E-02    0.2042691810E-01    0.1872712230E-02    0.4576725912E-03
    0.7000000000E+01    0.1085419542E-01    0.1053597545E-01    0.2813194203E-01    0.2574087554E-02    0.6353038181E-03
    0.9000000000E+01    0.1383830312E-01    0.1330247326E-01    0.3559081781E-01    0.3250196942E-02    0.8099707225E-03
    0.1100000000E+02    0.1677326556E-01    0.1597017018E-01    0.4281565755E-01    0.3902254637E-02    0.9817631714E-03
    0.1300000000E+02    0.1966055607E-01    0.1854374231E-01    0.4981778360E-01    0.4531398645E-02    0.1150767325E-02
    0.1500000000E+02    0.2250158782E-01    0.2102757721E-01    0.5660779206E-01    0.5138696679E-02    0.1317065825E-02
    0.1700000000E+02    0.2529771687E-01    0.2342579597E-01    0.6319561029E-01    0.5725151548E-02    0.1480737974E-02
    0.1900000000E+02    0.2805024502E-01    0.2574227337E-01    0.6959054902E-01    0.6291706053E-02    0.1641859905E-02
    0.2100000000E+02    0.3076042254E-01    0.2798065605E-01    0.7580134965E-01    0.6839247444E-02    0.1800504734E-02
    0.2300000000E+02    0.3342945068E-01    0.3014437928E-01    0.8183622726E-01    0.7368611480E-02    0.1956742711E-02
    0.2500000000E+02    0.3605848407E-01    0.3223668205E-01    0.8770290980E-01    0.7880586139E-02    0.2110641360E-02
    0.2700000000E+02    0.3864863294E-01    0.3426062107E-01    0.9340867380E-01    0.8375915004E-02    0.2262265610E-02
    0.2900000000E+02    0.4120096527E-01    0.3621908342E-01    0.9896037694E-01    0.8855300362E-02    0.2411677919E-02
    0.3100000000E+02    0.4371650879E-01    0.3811479827E-01    0.1043644880E+00    0.9319406053E-02    0.2558938391E-02
    0.3300000000E+02    0.4619625285E-01    0.3995034753E-01    0.1096271138E+00    0.9768860075E-02    0.2704104885E-02
    0.3500000000E+02    0.4864115022E-01    0.4172817574E-01    0.1147540250E+00    0.1020425698E-01    0.2847233121E-02
    0.3700000000E+02    0.5105211874E-01    0.4345059909E-01    0.1197506782E+00    0.1062616009E-01    0.2988376778E-02
    0.3900000000E+02    0.5343004298E-01    0.4511981380E-01    0.1246222375E+00    0.1103510352E-01    0.3127587587E-02
    0.4100000000E+02    0.5577577566E-01    0.4673790376E-01    0.1293735939E+00    0.1143159405E-01    0.3264915420E-02
    0.4300000000E+02    0.5809013915E-01    0.4830684769E-01    0.1340093834E+00    0.1181611287E-01    0.3400408369E-02
    0.4500000000E+02    0.6037392676E-01    0.4982852566E-01    0.1385340031E+00    0.1218911716E-01    0.3534112833E-02
    0.4700000000E+02    0.6262790406E-01    0.5130472523E-01    0.1429516266E+00    0.1255104160E-01    0.3666073584E-02
    0.4900000000E+02    0.6485281008E-01    0.5273714702E-01    0.1472662182E+00    0.1290229971E-01    0.3796333843E-02
    0.1000000000E+02    0.1531183396E-01    0.1464837254E-01    0.3923176680E-01    0.3579159411E-02    0.8962207843E-03
    0.3000000000E+02    0.4246327292E-01    0.3717461958E-01    0.1016804916E+00    0.9089223105E-02    0.2485573467E-02
    0.5000000000E+02    0.6595458533E-01    0.5343745022E-01    0.1493860619E+00    0.1307405265E-01    0.3860839387E-02
    0.7000000000E+02    0.8662512992E-01    0.6550005061E-01    0.1871970759E+00    0.1603541372E-01    0.5071106999E-02
    0.9000000000E+02    0.1050672489E+00    0.7462226758E-01    0.2180276443E+00    0.1827962436E-01    0.6151019628E-02
    0.1100000000E+03    0.1217113728E+00    0.8161660623E-01    0.2437375798E+00    0.2000423066E-01    0.7125751937E-02
    0.1300000000E+03    0.1368781901E+00    0.8702990563E-01    0.2655714806E+00    0.2134220939E-01    0.8014060618E-02
    0.1500000000E+03    0.1508118432E+00    0.9124303888E-01    0.2843948837E+00    0.2238621150E-01    0.8830225656E-02
    0.1700000000E+03    0.1637017410E+00    0.9452886629E-01    0.3008291700E+00    0.2320264758E-01    0.9585325897E-02
    0.1900000000E+03    0.1756972955E+00    0.9708753453E-01    0.3153325391E+00    0.2384026405E-01    0.1028810090E-01
    0.2100000000E+03    0.1869181257E+00    0.9906882738E-01    0.3282506674E+00    0.2433557192E-01    0.1094554769E-01
    0.2300000000E+03    0.1974612770E+00    0.1005867888E+00    0.3398495334E+00    0.2471639783E-01    0.1156334296E-01
    0.2500000000E+03    0.2074064281E+00    0.1017295624E+00    0.3503373421E+00    0.2500427314E-01    0.1214614759E-01
    0.2700000000E+03    0.2168197124E+00    0.1025661739E+00    0.3598795576E+00    0.2521608078E-01    0.1269783021E-01
    0.2900000000E+03    0.2257565660E+00    0.1031513085E+00    0.3686094521E+00    0.2536521511E-01    0.1322163370E-01
    0.3100000000E+03    0.2342638809E+00    0.1035287384E+00    0.3766356616E+00    0.2546241423E-01    0.1372030121E-01
    0.3300000000E+03    0.2423816539E+00    0.1037338236E+00    0.3840476963E+00    0.2551636735E-01    0.1419617250E-01
    0.3500000000E+03    0.2501442639E+00    0.1037953648E+00    0.3909200274E+00    0.2553416487E-01    0.1465125875E-01
    0.3700000000E+03    0.2575814722E+00    0.1037369942E+00    0.3973151608E+00    0.2552163629E-01    0.1508730102E-01
    0.3900000000E+03    0.2647192140E+00    0.1035782327E+00    0.4032859826E+00    0.2548360719E-01    0.1550581655E-01
    0.4100000000E+03    0.2715802298E+00    0.1033353023E+00    0.4088775689E+00    0.2542409680E-01    0.1590813571E-01
    0.4300000000E+03    0.2781845745E+00    0.1030217574E+00    0.4141285989E+00    0.2534647151E-01    0.1629543176E-01
    0.4500000000E+03    0.2845500296E+00    0.1026489790E+00    0.4190724694E+00    0.2525356521E-01    0.1666874497E-01
    0.4700000000E+03    0.2906924408E+00    0.1022265660E+00    0.4237381820E+00    0.2514777453E-01    0.1702900237E-01
    0.4900000000E+03    0.2966259959E+00    0.1017626466E+00    0.4281510562E+00    0.2503113480E-01    0.1737703402E-01
    0.1000000000E+03    0.1135919036E+00    0.7834645602E-01    0.2314339117E+00    0.1919740347E-01    0.6650237421E-02
    0.3000000000E+03    0.2300612708E+00    0.1033636038E+00    0.3727045285E+00    0.2541972139E-01    0.1347395473E-01
    0.5000000000E+03    0.2995184901E+00    0.1015173226E+00    0.4302697285E+00    0.2496929904E-01    0.1754670142E-01
    0.7000000000E+03    0.3489259477E+00    0.9565041553E-01    0.4635567636E+00    0.2347104928E-01    0.2044578006E-01
    0.9000000000E+03    0.3866308614E+00    0.8948622958E-01    0.4859799832E+00    0.2186987961E-01    0.2265956700E-01
    0.1100000000E+04    0.4165042042E+00    0.8384577682E-01    0.5024395607E+00    0.2038605964E-01    0.2441457911E-01
    0.1300000000E+04    0.4407532059E+00    0.7887474465E-01    0.5152054362E+00    0.1906554800E-01    0.2584000236E-01
    0.1500000000E+04    0.4607901057E+00    0.7453739352E-01    0.5254930857E+00    0.1790480277E-01    0.2701851208E-01
    0.1700000000E+04    0.4775826575E+00    0.7075333479E-01    0.5340205953E+00    0.1688654146E-01    0.2800677624E-01
    0.1900000000E+04    0.4918238928E+00    0.6743906433E-01    0.5412435462E+00    0.1599118742E-01    0.2884538597E-01
    0.2100000000E+04    0.5040255328E+00    0.6452013945E-01    0.5474670508E+00    0.1520056613E-01    0.2956432016E-01
    0.2300000000E+04    0.5145741629E+00    0.6193366477E-01    0.5529043259E+00    0.1449891388E-01    0.3018623204E-01
    0.2500000000E+04    0.5237671810E+00    0.5962761021E-01    0.5577095693E+00    0.1387293400E-01    0.3072855264E-01
    0.2700000000E+04    0.5318368501E+00    0.5755924953E-01    0.5619974926E+00    0.1331153778E-01    0.3120489835E-01
    0.2900000000E+04    0.5389669289E+00    0.5569352411E-01    0.5658554789E+00    0.1280551042E-01    0.3162604445E-01
    0.3100000000E+04    0.5453044695E+00    0.5400159274E-01    0.5693514477E+00    0.1234719010E-01    0.3200061566E-01
    0.3300000000E+04    0.5509683564E+00    0.5245962596E-01    0.5725391145E+00    0.1193018879E-01    0.3233558619E-01
    0.3500000000E+04    0.5560555962E+00    0.5104783173E-01    0.5754616069E+00    0.1154915938E-01    0.3263664804E-01
    0.3700000000E+04    0.5606460153E+00    0.4974967813E-01    0.5781540142E+00    0.1119960552E-01    0.3290848611E-01
    0.3900000000E+04    0.5648058157E+00    0.4855127598E-01    0.5806452220E+00    0.1087772776E-01    0.3315498657E-01
    0.4100000000E+04    0.5685902971E+00    0.4744088877E-01    0.5829592592E+00    0.1058029948E-01    0.3337939626E-01
    0.4300000000E+04    0.5720459618E+00    0.4640854275E-01    0.5851163034E+00    0.1030456686E-01    0.3358444612E-01
    0.4500000000E+04    0.5752121585E+00    0.4544571554E-01    0.5871334415E+00    0.1004816813E-01    0.3377244741E-01
    0.4700000000E+04    0.5781223765E+00    0.4454508641E-01    0.5890252554E+00    0.9809068124E-02    0.3394536769E-01
    0.4900000000E+04    0.5808052745E+00    0.4370033501E-01    0.5908042759E+00    0.9585505074E-02    0.3410489105E-01
    0.1000000000E+04    0.4023836832E+00    0.8658432082E-01    0.4947781958E+00    0.2110853253E-01    0.2358489234E-01
    0.3000000000E+04    0.5422267588E+00    0.5482742850E-01    0.5676450740E+00    0.1257081304E-01    0.3181868219E-01
    0.5000000000E+04    0.5820693191E+00    0.4329717108E-01    0.5916549335E+00    0.9479063252E-02    0.3418008971E-01
    0.7000000000E+04    0.5998945322E+00    0.3715564793E-01    0.6047441971E+00    0.7882476030E-02    0.3524406734E-01
    0.9000000000E+04    0.6097948629E+00    0.3319785410E-01    0.6132928122E+00    0.6884735625E-02    0.3583941156E-01
    0.1100000000E+05    0.6160343796E+00    0.3036554594E-01    0.6194402128E+00    0.6189288349E-02    0.3621749119E-01
    0.1300000000E+05    0.6203047771E+00    0.2820249540E-01    0.6241359039E+00    0.5669741433E-02    0.3647827101E-01
    0.1500000000E+05    0.6234016498E+00    0.2647633779E-01    0.6278747558E+00    0.5262722117E-02    0.3666887851E-01
    0.1700000000E+05    0.6257456494E+00    0.2505461126E-01    0.6309435030E+00    0.4932696049E-02    0.3681429309E-01
    0.1900000000E+05    0.6275790767E+00    0.2385544706E-01    0.6335213257E+00    0.4658050548E-02    0.3692893952E-01
    0.2100000000E+05    0.6290509357E+00    0.2282508189E-01    0.6357267414E+00    0.4424804664E-02    0.3702171106E-01
    0.2300000000E+05    0.6302577089E+00    0.2192650617E-01    0.6376417010E+00    0.4223467286E-02    0.3709838110E-01
    0.2500000000E+05    0.6312645335E+00    0.2113326677E-01    0.6393249287E+00    0.4047340740E-02    0.3716285756E-01
    0.2700000000E+05    0.6321169268E+00    0.2042586633E-01    0.6408197569E+00    0.3891546052E-02    0.3721787845E-01
    0.2900000000E+05    0.6328476297E+00    0.1978956257E-01    0.6421589544E+00    0.3752433632E-02    0.3726541841E-01
    0.3100000000E+05    0.6334807804E+00    0.1921296561E-01    0.6433678237E+00    0.3627211547E-02    0.3730693715E-01
    0.3300000000E+05    0.6340345565E+00    0.1868711178E-01    0.6444662553E+00    0.3513702487E-02    0.3734353684E-01
    0.3500000000E+05    0.6345229020E+00    0.1820483321E-01    0.6454701315E+00    0.3410179927E-02    0.3737606523E-01
    0.3700000000E+05    0.6349566885E+00    0.1776031754E-01    0.6463923083E+00    0.3315254691E-02    0.3740518505E-01
    0.3900000000E+05    0.6353445148E+00    0.1734879325E-01    0.6472433191E+00    0.3227794571E-02    0.3743142189E-01
    0.4100000000E+05    0.6356932696E+00    0.1696630024E-01    0.6480318879E+00    0.3146866201E-02    0.3745519796E-01
    0.4300000000E+05    0.6360085356E+00    0.1660951959E-01    0.6487653103E+00    0.3071692230E-02    0.3747685633E-01
    0.4500000000E+05    0.6362948837E+00    0.1627564520E-01    0.6494497411E+00    0.3001619269E-02    0.3749667868E-01
    0.4700000000E+05    0.6365560923E+00    0.1596228565E-01    0.6500904136E+00    0.2936093547E-02    0.3751489845E-01
    0.4900000000E+05    0.6367953111E+00    0.1566738812E-01    0.6506918101E+00    0.2874642161E-02    0.3753171080E-01
    0.1000000000E+05    0.6132352412E+00    0.3167716271E-01    0.6165919673E+00    0.6509280322E-02    0.3604752012E-01
    0.3000000000E+05    0.6331751470E+00    0.1949440932E-01    0.6427783290E+00    0.3688234564E-02    0.3728685458E-01
    0.5000000000E+05    0.6369075182E+00    0.1552629876E-01    0.6509790085E+00    0.2845315016E-02    0.3753964160E-01
    0.7000000000E+05    0.6384618871E+00    0.1334716738E-01    0.6553695342E+00    0.2398411259E-02    0.3765337840E-01
    0.9000000000E+05    0.6393100193E+00    0.1191329830E-01    0.6582099707E+00    0.2110626860E-02    0.3772007593E-01
    0.1100000000E+06    0.6398425594E+00    0.1087538077E-01    0.6602408671E+00    0.1905501969E-02    0.3776489352E-01
    0.1300000000E+06    0.6402072250E+00    0.1007802365E-01    0.6617863106E+00    0.1749793332E-02    0.3779761587E-01
    0.1500000000E+06    0.6404721186E+00    0.9439964798E-02    0.6630136071E+00    0.1626401420E-02    0.3782287782E-01
    0.1700000000E+06    0.6406729581E+00    0.8913950278E-02    0.6640190271E+00    0.1525509843E-02    0.3784317492E-01
    0.1900000000E+06    0.6408302648E+00    0.8470346621E-02    0.6648624149E+00    0.1441026727E-02    0.3785997818E-01
    0.2100000000E+06    0.6409566611E+00    0.8089486537E-02    0.6655831922E+00    0.1368944431E-02    0.3787421528E-01
    0.2300000000E+06    0.6410603330E+00    0.7757727174E-02    0.6662085288E+00    0.1306503928E-02    0.3788650276E-01
    0.2500000000E+06    0.6411468197E+00    0.7465262876E-02    0.6667578420E+00    0.1251735348E-02    0.3789726788E-01
    0.2700000000E+06    0.6412200016E+00    0.7204837560E-02    0.6672454282E+00    0.1203189610E-02    0.3790681708E-01
    0.2900000000E+06    0.6412826771E+00    0.6970949357E-02    0.6676820787E+00    0.1159773802E-02    0.3791537649E-01
    0.3100000000E+06    0.6413369149E+00    0.6759339324E-02    0.6680761130E+00    0.1120645999E-02    0.3792311707E-01
    0.3300000000E+06    0.6413842763E+00    0.6566651482E-02    0.6684340625E+00    0.1085145713E-02    0.3793017073E-01
    0.3500000000E+06    0.6414259620E+00    0.6390200175E-02    0.6687611364E+00    0.1052746544E-02    0.3793664116E-01
    0.3700000000E+06    0.6414629099E+00    0.6227806819E-02    0.6690615472E+00    0.1023023097E-02    0.3794261108E-01
    0.3900000000E+06    0.6414958633E+00    0.6077682834E-02    0.6693387432E+00    0.9956273651E-03    0.3794814746E-01
    0.4100000000E+06    0.6415254189E+00    0.5938344040E-02    0.6695955785E+00    0.9702715250E-03    0.3795330514E-01
    0.4300000000E+06    0.6415520608E+00    0.5808546988E-02    0.6698344381E+00    0.9467151889E-03    0.3795812955E-01
    0.4500000000E+06    0.6415761860E+00    0.5687240867E-02    0.6700573329E+00    0.9247558074E-03    0.3796265871E-01
    0.4700000000E+06    0.6415981232E+00    0.5573530672E-02    0.6702659720E+00    0.9042213436E-03    0.3796692468E-01
    0.4900000000E+06    0.6416181467E+00    0.5466648645E-02    0.6704618184E+00    0.8849646094E-03    0.3797095475E-01
    0.1000000000E+06    0.6396036941E+00    0.1135705938E-01    0.6593010392E+00    0.2000358179E-02    0.3774442758E-01
    0.3000000000E+06    0.6413107433E+00    0.6862587344E-02    0.6678839790E+00    0.1139718793E-02    0.3791934012E-01
    0.5000000000E+06    0.6416275142E+00    0.5415557449E-02    0.6705553453E+00    0.8757750788E-03    0.3797288877E-01
    0.7000000000E+06    0.6417549418E+00    0.4630341494E-02    0.6719853105E+00    0.7358597472E-03    0.3800343898E-01
    0.9000000000E+06    0.6418213531E+00    0.4117898036E-02    0.6729108820E+00    0.6459825511E-03    0.3802458807E-01
    0.1100000000E+07    0.6418608872E+00    0.3749171687E-02    0.6735730567E+00    0.5820848353E-03    0.3804069360E-01
    0.1300000000E+07    0.6418863895E+00    0.3467197884E-02    0.6740772420E+00    0.5336931817E-03    0.3805367264E-01
    0.1500000000E+07    0.6419037305E+00    0.3242376322E-02    0.6744778494E+00    0.4954233166E-03    0.3806453059E-01
    0.1700000000E+07    0.6419159549E+00    0.3057584657E-02    0.6748061928E+00    0.4641879274E-03    0.3807385787E-01
    0.1900000000E+07    0.6419247897E+00    0.2902132424E-02    0.6750817422E+00    0.4380737461E-03    0.3808202980E-01
    0.2100000000E+07    0.6419312823E+00    0.2768951038E-02    0.6753173271E+00    0.4158238914E-03    0.3808929939E-01
    0.2300000000E+07    0.6419361018E+00    0.2653152965E-02    0.6755217919E+00    0.3965742795E-03    0.3809584509E-01
    0.2500000000E+07    0.6419396937E+00    0.2551235245E-02    0.6757014596E+00    0.3797087963E-03    0.3810179739E-01
    0.2700000000E+07    0.6419423649E+00    0.2460612177E-02    0.6758609869E+00    0.3647747836E-03    0.3810725454E-01
    0.2900000000E+07    0.6419443328E+00    0.2379327522E-02    0.6760038897E+00    0.3514312434E-03    0.3811229232E-01
    0.3100000000E+07    0.6419457554E+00    0.2305869993E-02    0.6761328795E+00    0.3394157779E-03    0.3811697040E-01
    0.3300000000E+07    0.6419467495E+00    0.2239050864E-02    0.6762500853E+00    0.3285227505E-03    0.3812133660E-01
    0.3500000000E+07    0.6419474032E+00    0.2177920406E-02    0.6763572058E+00    0.3185884299E-03    0.3812542981E-01
    0.3700000000E+07    0.6419477841E+00    0.2121709362E-02    0.6764556149E+00    0.3094806228E-03    0.3812928210E-01
    0.3900000000E+07    0.6419479446E+00    0.2069787056E-02    0.6765464375E+00    0.3010912769E-03    0.3813292020E-01
    0.4100000000E+07    0.6419479257E+00    0.2021630813E-02    0.6766306048E+00    0.2933310988E-03    0.3813636665E-01
    0.4300000000E+07    0.6419477601E+00    0.1976803252E-02    0.6767088954E+00    0.2861255682E-03    0.3813964059E-01
    0.4500000000E+07    0.6419474740E+00    0.1934935159E-02    0.6767819655E+00    0.2794119398E-03    0.3814275846E-01
    0.4700000000E+07    0.6419470885E+00    0.1895712385E-02    0.6768503733E+00    0.2731369570E-03    0.3814573445E-01
    0.4900000000E+07    0.6419466209E+00    0.1858865704E-02    0.6769145964E+00    0.2672550851E-03    0.3814858089E-01
    0.1000000000E+07    0.6418434304E+00    0.3920056184E-02    0.6732665763E+00    0.6116136881E-03    0.3803312056E-01
    0.3000000000E+07    0.6419451042E+00    0.2341701094E-02    0.6760699791E+00    0.3452714832E-03    0.3811467310E-01
    0.5000000000E+07    0.6419463608E+00    0.1841259556E-02    0.6769452696E+00    0.2644491014E-03    0.3814995896E-01
    0.7000000000E+07    0.6419392123E+00    0.1571247795E-02    0.6774145256E+00    0.2218006545E-03    0.3817275366E-01
    0.9000000000E+07    0.6419310301E+00    0.1395611787E-02    0.6777185575E+00    0.1944798128E-03    0.3818962272E-01
    0.1100000000E+08    0.6419231578E+00    0.1269512483E-02    0.6779362218E+00    0.1750930069E-03    0.3820302008E-01
    0.1300000000E+08    0.6419158672E+00    0.1173237274E-02    0.6781020428E+00    0.1604315362E-03    0.3821413404E-01
    0.1500000000E+08    0.6419091727E+00    0.1096571810E-02    0.6782338556E+00    0.1488495481E-03    0.3822363107E-01
    0.1700000000E+08    0.6419030233E+00    0.1033620187E-02    0.6783419302E+00    0.1394049624E-03    0.3823192268E-01
    0.1900000000E+08    0.6418973556E+00    0.9807074791E-03    0.6784326555E+00    0.1315147734E-03    0.3823928085E-01
    0.2100000000E+08    0.6418921095E+00    0.9354071765E-03    0.6785102430E+00    0.1247964341E-03    0.3824589477E-01
    0.2300000000E+08    0.6418872325E+00    0.8960434366E-03    0.6785775973E+00    0.1189872105E-03    0.3825190137E-01
    0.2500000000E+08    0.6418826793E+00    0.8614163566E-03    0.6786367952E+00    0.1138999261E-03    0.3825740293E-01
    0.2700000000E+08    0.6418784118E+00    0.8306409979E-03    0.6786893671E+00    0.1093971655E-03    0.3826247790E-01
