  Pressure (Pa) 22mC5-400 (mol/kg) 2mC6-400 (mol/kg) 3mC6-400 (mol/kg) 33mC5-400 (mol/kg) 23mC5-400 (mol/kg)
    0.1000000000E+01    0.1588442040E-02    0.3187820958E-02    0.1058972697E-02    0.6488648252E-03    0.9297099467E-04
    0.3000000000E+01    0.4707349555E-02    0.9404997505E-02    0.3138196801E-02    0.1914275798E-02    0.2755218111E-03
    0.5000000000E+01    0.7751884558E-02    0.1541905834E-01    0.5167503345E-02    0.3138260698E-02    0.4537223984E-03
    0.7000000000E+01    0.1072537273E-01    0.2123929099E-01    0.7148849340E-02    0.4322712541E-02    0.6277672586E-03
    0.9000000000E+01    0.1363093779E-01    0.2687443028E-01    0.9084088665E-02    0.5469411744E-02    0.7978390823E-03
    0.1100000000E+02    0.1647151667E-01    0.3233269881E-01    0.1097497883E-01    0.6580034353E-02    0.9641096383E-03
    0.1300000000E+02    0.1924987343E-01    0.3762184384E-01    0.1282318718E-01    0.7656159570E-02    0.1126740585E-02
    0.1500000000E+02    0.2196861190E-01    0.4274917109E-01    0.1463029670E-01    0.8699276631E-02    0.1285884209E-02
    0.1700000000E+02    0.2463018717E-01    0.4772157571E-01    0.1639781128E-01    0.9710791111E-02    0.1441684102E-02
    0.1900000000E+02    0.2723691623E-01    0.5254557059E-01    0.1812716066E-01    0.1069203070E-01    0.1594275774E-02
    0.2100000000E+02    0.2979098757E-01    0.5722731248E-01    0.1981970497E-01    0.1164425051E-01    0.1743787227E-02
    0.2300000000E+02    0.3229447009E-01    0.6177262588E-01    0.2147673896E-01    0.1256863795E-01    0.1890339463E-02
    0.2500000000E+02    0.3474932123E-01    0.6618702516E-01    0.2309949591E-01    0.1346631725E-01    0.2034046969E-02
    0.2700000000E+02    0.3715739444E-01    0.7047573480E-01    0.2468915129E-01    0.1433835353E-01    0.2175018149E-02
    0.2900000000E+02    0.3952044608E-01    0.7464370819E-01    0.2624682608E-01    0.1518575670E-01    0.2313355730E-02
    0.3100000000E+02    0.4184014175E-01    0.7869564488E-01    0.2777358998E-01    0.1600948492E-01    0.2449157131E-02
    0.3300000000E+02    0.4411806217E-01    0.8263600661E-01    0.2927046433E-01    0.1681044789E-01    0.2582514806E-02
    0.3500000000E+02    0.4635570853E-01    0.8646903214E-01    0.3073842479E-01    0.1758950985E-01    0.2713516557E-02
    0.3700000000E+02    0.4855450753E-01    0.9019875089E-01    0.3217840395E-01    0.1834749241E-01    0.2842245832E-02
    0.3900000000E+02    0.5071581599E-01    0.9382899570E-01    0.3359129364E-01    0.1908517709E-01    0.2968781991E-02
    0.4100000000E+02    0.5284092509E-01    0.9736341464E-01    0.3497794723E-01    0.1980330775E-01    0.3093200554E-02
    0.4300000000E+02    0.5493106440E-01    0.1008054819E+00    0.3633918162E-01    0.2050259284E-01    0.3215573440E-02
    0.4500000000E+02    0.5698740552E-01    0.1041585082E+00    0.3767577926E-01    0.2118370742E-01    0.3335969176E-02
    0.4700000000E+02    0.5901106551E-01    0.1074256499E+00    0.3898848992E-01    0.2184729517E-01    0.3454453099E-02
    0.4900000000E+02    0.6100311004E-01    0.1106099180E+00    0.4027803239E-01    0.2249397012E-01    0.3571087542E-02
    0.1000000000E+02    0.1505917385E-01    0.2962517846E-01    0.1003497114E-01    0.6029131736E-02    0.8814391871E-03
    0.3000000000E+02    0.4068561269E-01    0.7668389687E-01    0.2701400696E-01    0.1560052222E-01    0.2381567563E-02
    0.5000000000E+02    0.6198759624E-01    0.1121718778E+00    0.4091433212E-01    0.2281114950E-01    0.3628729909E-02
    0.7000000000E+02    0.8024183714E-01    0.1396936484E+00    0.5257756958E-01    0.2839599612E-01    0.4697600896E-02
    0.9000000000E+02    0.9625024173E-01    0.1615107341E+00    0.6255862818E-01    0.3281629738E-01    0.5635085906E-02
    0.1100000000E+03    0.1105437155E+00    0.1791121018E+00    0.7123901871E-01    0.3637578690E-01    0.6472240037E-02
    0.1300000000E+03    0.1234889380E+00    0.1935169265E+00    0.7889019806E-01    0.3928240617E-01    0.7230512784E-02
    0.1500000000E+03    0.1353481245E+00    0.2054455319E+00    0.8571093493E-01    0.4168315091E-01    0.7925243306E-02
    0.1700000000E+03    0.1463143242E+00    0.2154208944E+00    0.9185035626E-01    0.4368476567E-01    0.8567724967E-02
    0.1900000000E+03    0.1565332229E+00    0.2238315006E+00    0.9742270661E-01    0.4536656075E-01    0.9166480579E-02
    0.2100000000E+03    0.1661171286E+00    0.2309716807E+00    0.1025171095E+00    0.4678863740E-01    0.9728080433E-02
    0.2300000000E+03    0.1751542367E+00    0.2370682922E+00    0.1072042055E+00    0.4799732976E-01    0.1025768429E-01
    0.2500000000E+03    0.1837149442E+00    0.2422988449E+00    0.1115407775E+00    0.4902890196E-01    0.1075941070E-01
    0.2700000000E+03    0.1918562581E+00    0.2468041030E+00    0.1155730437E+00    0.4991211875E-01    0.1123659486E-01
    0.2900000000E+03    0.1996249412E+00    0.2506970292E+00    0.1193390468E+00    0.5067007007E-01    0.1169197270E-01
    0.3100000000E+03    0.2070598000E+00    0.2540692483E+00    0.1228704185E+00    0.5132148984E-01    0.1212781465E-01
    0.3300000000E+03    0.2141933782E+00    0.2569957967E+00    0.1261937006E+00    0.5188172504E-01    0.1254602476E-01
    0.3500000000E+03    0.2210532292E+00    0.2595386636E+00    0.1293313507E+00    0.5236345835E-01    0.1294821510E-01
    0.3700000000E+03    0.2276628855E+00    0.2617494679E+00    0.1323025151E+00    0.5277725431E-01    0.1333576252E-01
    0.3900000000E+03    0.2340426076E+00    0.2636715051E+00    0.1351236315E+00    0.5313197722E-01    0.1370985243E-01
    0.4100000000E+03    0.2402099683E+00    0.2653413312E+00    0.1378089030E+00    0.5343511439E-01    0.1407151298E-01
    0.4300000000E+03    0.2461803139E+00    0.2667900010E+00    0.1403706745E+00    0.5369302886E-01    0.1442164206E-01
    0.4500000000E+03    0.2519671319E+00    0.2680440444E+00    0.1428197350E+00    0.5391115877E-01    0.1476102881E-01
    0.4700000000E+03    0.2575823466E+00    0.2691262438E+00    0.1451655619E+00    0.5409417608E-01    0.1509037091E-01
    0.4900000000E+03    0.2630365587E+00    0.2700562582E+00    0.1474165200E+00    0.5424611396E-01    0.1541028858E-01
    0.1000000000E+03    0.1035854359E+00    0.1707661209E+00    0.6704238952E-01    0.3468890101E-01    0.6064688754E-02
    0.3000000000E+03    0.2033819345E+00    0.2524431950E+00    0.1211322965E+00    0.5100806730E-01    0.1191220905E-01
    0.5000000000E+03    0.2657062885E+00    0.2704696114E+00    0.1485087738E+00    0.5431153954E-01    0.1556688878E-01
    0.7000000000E+03    0.3125026729E+00    0.2738786748E+00    0.1667970721E+00    0.5463172356E-01    0.1831261139E-01
    0.9000000000E+03    0.3498976896E+00    0.2725115760E+00    0.1805978975E+00    0.5399123864E-01    0.2050783975E-01
    0.1100000000E+04    0.3806817919E+00    0.2694120578E+00    0.1917359594E+00    0.5301840165E-01    0.2231584822E-01
    0.1300000000E+04    0.4064768862E+00    0.2657291137E+00    0.2011103855E+00    0.5195072935E-01    0.2383154809E-01
    0.1500000000E+04    0.4283611717E+00    0.2619411306E+00    0.2092283449E+00    0.5088649844E-01    0.2511804475E-01
    0.1700000000E+04    0.4471083199E+00    0.2582535353E+00    0.2164036796E+00    0.4986694313E-01    0.2622062945E-01
    0.1900000000E+04    0.4632991886E+00    0.2547508638E+00    0.2228441486E+00    0.4890792293E-01    0.2717331352E-01
    0.2100000000E+04    0.4773824536E+00    0.2514615609E+00    0.2286945181E+00    0.4801352757E-01    0.2800237443E-01
    0.2300000000E+04    0.4897114121E+00    0.2483876881E+00    0.2340597999E+00    0.4718236368E-01    0.2872850819E-01
    0.2500000000E+04    0.5005681871E+00    0.2455192140E+00    0.2390186738E+00    0.4641059870E-01    0.2936824496E-01
    0.2700000000E+04    0.5101805567E+00    0.2428410833E+00    0.2436316776E+00    0.4569347173E-01    0.2993493350E-01
    0.2900000000E+04    0.5187341112E+00    0.2403367405E+00    0.2479464346E+00    0.4502604547E-01    0.3043945240E-01
    0.3100000000E+04    0.5263812744E+00    0.2379898599E+00    0.2520011196E+00    0.4440357069E-01    0.3089073789E-01
    0.3300000000E+04    0.5332481261E+00    0.2357851470E+00    0.2558268299E+00    0.4382164949E-01    0.3129618317E-01
    0.3500000000E+04    0.5394396391E+00    0.2337086596E+00    0.2594492533E+00    0.4327629362E-01    0.3166194489E-01
    0.3700000000E+04    0.5450437446E+00    0.2317478807E+00    0.2628898693E+00    0.4276392921E-01    0.3199318117E-01
    0.3900000000E+04    0.5501345188E+00    0.2298916688E+00    0.2661668328E+00    0.4228137500E-01    0.3229423819E-01
    0.4100000000E+04    0.5547747017E+00    0.2281301513E+00    0.2692956353E+00    0.4182580904E-01    0.3256879768E-01
    0.4300000000E+04    0.5590177017E+00    0.2264545975E+00    0.2722896090E+00    0.4139473178E-01    0.3281999434E-01
    0.4500000000E+04    0.5629092031E+00    0.2248572900E+00    0.2751603159E+00    0.4098592935E-01    0.3305050999E-01
    0.4700000000E+04    0.5664884625E+00    0.2233314015E+00    0.2779178523E+00    0.4059743940E-01    0.3326264955E-01
    0.4900000000E+04    0.5697893596E+00    0.2218708840E+00    0.2805710901E+00    0.4022752005E-01    0.3345840259E-01
    0.1000000000E+04    0.3659976695E+00    0.2710831058E+00    0.1864307357E+00    0.5352666148E-01    0.2145331614E-01
    0.3000000000E+04    0.5226625622E+00    0.2391446029E+00    0.2500041989E+00    0.4470947329E-01    0.3067125506E-01
    0.5000000000E+04    0.5713447541E+00    0.2211634377E+00    0.2818610831E+00    0.4004903344E-01    0.3355068225E-01
    0.7000000000E+04    0.5932310839E+00    0.2094204236E+00    0.3036882406E+00    0.3715734940E-01    0.3485281538E-01
    0.9000000000E+04    0.6052640027E+00    0.2006473942E+00    0.3203753885E+00    0.3508878293E-01    0.3557327982E-01
    0.1100000000E+05    0.6127518321E+00    0.1936004948E+00    0.3338960910E+00    0.3348313788E-01    0.3602462544E-01
    0.1300000000E+05    0.6178141204E+00    0.1876907807E+00    0.3452580404E+00    0.3217245471E-01    0.3633189688E-01
    0.1500000000E+05    0.6214446714E+00    0.1825929062E+00    0.3550494090E+00    0.3106605491E-01    0.3655384448E-01
    0.1700000000E+05    0.6241655478E+00    0.1781070490E+00    0.3636449444E+00    0.3010962781E-01    0.3672139604E-01
    0.1900000000E+05    0.6262751728E+00    0.1741008987E+00    0.3712987516E+00    0.2926808741E-01    0.3685226905E-01
    0.2100000000E+05    0.6279556217E+00    0.1704818649E+00    0.3781913645E+00    0.2851743889E-01    0.3695729747E-01
    0.2300000000E+05    0.6293238856E+00    0.1671823662E+00    0.3844557979E+00    0.2784053257E-01    0.3704345843E-01
    0.2500000000E+05    0.6304583692E+00    0.1641514209E+00    0.3901929582E+00    0.2722467431E-01    0.3711543870E-01
    0.2700000000E+05    0.6314134824E+00    0.1613495359E+00    0.3954812497E+00    0.2666019734E-01    0.3717649835E-01
    0.2900000000E+05    0.6322281092E+00    0.1587454450E+00    0.4003828256E+00    0.2613956555E-01    0.3722897280E-01
    0.3100000000E+05    0.6329307433E+00    0.1563139405E+00    0.4049478020E+00    0.2565678716E-01    0.3727457751E-01
    0.3300000000E+05    0.6335427210E+00    0.1540343834E+00    0.4092171851E+00    0.2520701777E-01    0.3731460019E-01
    0.3500000000E+05    0.6340803230E+00    0.1518896498E+00    0.4132249565E+00    0.2478628386E-01    0.3735002584E-01
    0.3700000000E+05    0.6345561799E+00    0.1498653671E+00    0.4169995931E+00    0.2439128513E-01    0.3738162054E-01
    0.3900000000E+05    0.6349802356E+00    0.1479493495E+00    0.4205651962E+00    0.2401925008E-01    0.3740998889E-01
    0.4100000000E+05    0.6353604218E+00    0.1461311721E+00    0.4239423443E+00    0.2366782860E-01    0.3743561441E-01
    0.4300000000E+05    0.6357031404E+00    0.1444018448E+00    0.4271487474E+00    0.2333501048E-01    0.3745888829E-01
    0.4500000000E+05    0.6360136130E+00    0.1427535591E+00    0.4301997565E+00    0.2301906284E-01    0.3748013046E-01
    0.4700000000E+05    0.6362961401E+00    0.1411794883E+00    0.4331087638E+00    0.2271848137E-01    0.3749960504E-01
    0.4900000000E+05    0.6365542946E+00    0.1396736293E+00    0.4358875223E+00    0.2243195183E-01    0.3751753207E-01
    0.1000000000E+05    0.6094043867E+00    0.1969537617E+00    0.3274549730E+00    0.3424117266E-01    0.3582247020E-01
    0.3000000000E+05    0.6325919529E+00    0.1575095024E+00    0.4027046401E+00    0.2589377064E-01    0.3725254508E-01
    0.5000000000E+05    0.6366751866E+00    0.1389445963E+00    0.4372313469E+00    0.2229359013E-01    0.3752597416E-01
    0.7000000000E+05    0.6383361873E+00    0.1269281319E+00    0.4592490040E+00    0.2004512063E-01    0.3764599151E-01
    0.9000000000E+05    0.6392308636E+00    0.1181612261E+00    0.4751641299E+00    0.1844090860E-01    0.3771543349E-01
    0.1100000000E+06    0.6397879830E+00    0.1113294455E+00    0.4874860994E+00    0.1721085203E-01    0.3776170212E-01
    0.1300000000E+06    0.6401672627E+00    0.1057757693E+00    0.4974541069E+00    0.1622349073E-01    0.3779528838E-01
    0.1500000000E+06    0.6404415805E+00    0.1011254383E+00    0.5057686568E+00    0.1540526667E-01    0.3782110829E-01
    0.1700000000E+06    0.6406488680E+00    0.9714504695E-01    0.5128630029E+00    0.1471104563E-01    0.3784178782E-01
    0.1900000000E+06    0.6408107901E+00    0.9367973603E-01    0.5190229917E+00    0.1411124435E-01    0.3785886535E-01
    0.2100000000E+06    0.6409406096E+00    0.9062172162E-01    0.5244466556E+00    0.1358548261E-01    0.3787330632E-01
    0.2300000000E+06    0.6410468946E+00    0.8789311147E-01    0.5292765466E+00    0.1311916190E-01    0.3788574978E-01
    0.2500000000E+06    0.6411354238E+00    0.8543588092E-01    0.5336184995E+00    0.1270149142E-01    0.3789663716E-01
    0.2700000000E+06    0.6412102344E+00    0.8320570945E-01    0.5375531155E+00    0.1232428575E-01    0.3790628414E-01
    0.2900000000E+06    0.6412742310E+00    0.8116802473E-01    0.5411431048E+00    0.1198119947E-01    0.3791492310E-01
    0.3100000000E+06    0.6413295561E+00    0.7929537085E-01    0.5444381541E+00    0.1166722180E-01    0.3792272937E-01
    0.3300000000E+06    0.6413778239E+00    0.7756560377E-01    0.5474782535E+00    0.1137833228E-01    0.3792983800E-01
    0.3500000000E+06    0.6414202737E+00    0.7596062117E-01    0.5502960327E+00    0.1111125999E-01    0.3793635495E-01
    0.3700000000E+06    0.6414578722E+00    0.7446544824E-01    0.5529184372E+00    0.1086331111E-01    0.3794236464E-01
    0.3900000000E+06    0.6414913846E+00    0.7306756627E-01    0.5553679578E+00    0.1063224293E-01    0.3794793533E-01
    0.4100000000E+06    0.6415214242E+00    0.7175641103E-01    0.5576635459E+00    0.1041617024E-01    0.3795312286E-01
    0.4300000000E+06    0.6415484883E+00    0.7052299206E-01    0.5598213082E+00    0.1021349447E-01    0.3795797344E-01
    0.4500000000E+06    0.6415729842E+00    0.6935959953E-01    0.5618550395E+00    0.1002284950E-01    0.3796252569E-01
    0.4700000000E+06    0.6415952488E+00    0.6825957591E-01    0.5637766379E+00    0.9843059458E-02    0.3796681216E-01
    0.4900000000E+06    0.6416155629E+00    0.6721713583E-01    0.5655964316E+00    0.9673105687E-02    0.3797086053E-01
    0.1000000000E+06    0.6395385560E+00    0.1145537032E+00    0.4816791942E+00    0.1778922903E-01    0.3774061244E-01
    0.3000000000E+06    0.6413028663E+00    0.8021256046E-01    0.5428248016E+00    0.1182084332E-01    0.3791892109E-01
    0.5000000000E+06    0.6416250639E+00    0.6671590425E-01    0.5664710150E+00    0.9591535472E-02    0.3797280298E-01
    0.7000000000E+06    0.6417541358E+00    0.5876540269E-01    0.5803073927E+00    0.8310773434E-02    0.3800346022E-01
    0.9000000000E+06    0.6418212804E+00    0.5331313394E-01    0.5897568841E+00    0.7447194420E-02    0.3802466085E-01
    0.1100000000E+07    0.6418612152E+00    0.4925248790E-01    0.5967737852E+00    0.6812226183E-02    0.3804079715E-01
    0.1300000000E+07    0.6418869663E+00    0.4606588139E-01    0.6022678372E+00    0.6319051868E-02    0.3805379719E-01
    0.1500000000E+07    0.6419044758E+00    0.4347282499E-01    0.6067303560E+00    0.5921193049E-02    0.3806467079E-01
    0.1700000000E+07    0.6419168220E+00    0.4130570229E-01    0.6104541604E+00    0.5591149523E-02    0.3807401049E-01
    0.1900000000E+07    0.6419257493E+00    0.3945707273E-01    0.6136265363E+00    0.5311441386E-02    0.3808219271E-01
    0.2100000000E+07    0.6419323149E+00    0.3785432479E-01    0.6163738260E+00    0.5070340890E-02    0.3808947111E-01
    0.2300000000E+07    0.6419371938E+00    0.3644630858E-01    0.6187848898E+00    0.4859639525E-02    0.3809602455E-01
    0.2500000000E+07    0.6419408353E+00    0.3519576918E-01    0.6209243604E+00    0.4673392905E-02    0.3810198378E-01
    0.2700000000E+07    0.6419435488E+00    0.3407481574E-01    0.6228405664E+00    0.4507173853E-02    0.3810744721E-01
    0.2900000000E+07    0.6419455534E+00    0.3306208103E-01    0.6245704923E+00    0.4357606768E-02    0.3811249077E-01
    0.3100000000E+07    0.6419470083E+00    0.3214087149E-01    0.6261430045E+00    0.4222065887E-02    0.3811717420E-01
    0.3300000000E+07    0.6419480312E+00    0.3129792284E-01    0.6275810191E+00    0.4098473268E-02    0.3812154540E-01
    0.3500000000E+07    0.6419487109E+00    0.3052253954E-01    0.6289029992E+00    0.3985159667E-02    0.3812564331E-01
    0.3700000000E+07    0.6419491154E+00    0.2980598516E-01    0.6301240145E+00    0.3880766394E-02    0.3812950004E-01
    0.3900000000E+07    0.6419492974E+00    0.2914104141E-01    0.6312565073E+00    0.3784174564E-02    0.3813314236E-01
    0.4100000000E+07    0.6419492985E+00    0.2852168319E-01    0.6323108565E+00    0.3694453149E-02    0.3813659283E-01
    0.4300000000E+07    0.6419491515E+00    0.2794283501E-01    0.6332957998E+00    0.3610820167E-02    0.3813987063E-01
    0.4500000000E+07    0.6419488827E+00    0.2740018585E-01    0.6342187544E+00    0.3532613272E-02    0.3814299219E-01
    0.4700000000E+07    0.6419485134E+00    0.2689004642E-01    0.6350860646E+00    0.3459267146E-02    0.3814597173E-01
    0.4900000000E+07    0.6419480611E+00    0.2640923783E-01    0.6359031941E+00    0.3390295910E-02    0.3814882159E-01
    0.1000000000E+07    0.6418435843E+00    0.5114908947E-01    0.5934986186E+00    0.7107907422E-02    0.3803321038E-01
    0.3000000000E+07    0.6419463414E+00    0.3259093343E-01    0.6253748735E+00    0.4288223890E-02    0.3811487426E-01
    0.5000000000E+07    0.6419478084E+00    0.2617895675E-01    0.6362944458E+00    0.3357317296E-02    0.3815020133E-01
    0.7000000000E+07    0.6419407759E+00    0.2260293305E-01    0.6423608756E+00    0.2849947781E-02    0.3817302472E-01
    0.9000000000E+07    0.6419326764E+00    0.2023117779E-01    0.6463742717E+00    0.2518701713E-02    0.3818991664E-01
    0.1100000000E+08    0.6419248694E+00    0.1850561460E-01    0.6492888053E+00    0.2280588174E-02    0.3820333332E-01
    0.1300000000E+08    0.6419176333E+00    0.1717514977E-01    0.6515327242E+00    0.2098776760E-02    0.3821446418E-01
    0.1500000000E+08    0.6419109859E+00    0.1610751168E-01    0.6533312026E+00    0.1954072991E-02    0.3822397633E-01
    0.1700000000E+08    0.6419048780E+00    0.1522538145E-01    0.6548156692E+00    0.1835355589E-02    0.3823228168E-01
    0.1900000000E+08    0.6418992477E+00    0.1448007731E-01    0.6560687721E+00    0.1735674890E-02    0.3823965248E-01
    0.2100000000E+08    0.6418940357E+00    0.1383918640E-01    0.6571454808E+00    0.1650434031E-02    0.3824627813E-01
    0.2300000000E+08    0.6418891899E+00    0.1328016504E-01    0.6580839924E+00    0.1576454388E-02    0.3825229568E-01
    0.2500000000E+08    0.6418846657E+00    0.1278677393E-01    0.6589117992E+00    0.1511458209E-02    0.3825780755E-01
    0.2700000000E+08    0.6418804253E+00    0.1234697297E-01    0.6596492697E+00    0.1453764739E-02    0.3826289225E-01
