  Pressure (Pa) 22mC5-400 (mol/kg) 2mC6-400 (mol/kg) 3mC6-400 (mol/kg) 33mC5-400 (mol/kg) 23mC5-400 (mol/kg)
    0.1000000000E+01    0.1586206333E-02    0.4771686844E-02    0.1057102956E-02    0.5180006920E-03    0.9284019992E-04
    0.3000000000E+01    0.4687941036E-02    0.1402033789E-01    0.3121887035E-02    0.1521952776E-02    0.2743863535E-03
    0.5000000000E+01    0.7699846895E-02    0.2289502070E-01    0.5123570248E-02    0.2485237582E-02    0.4506780147E-03
    0.7000000000E+01    0.1062686191E-01    0.3141702760E-01    0.7065306355E-02    0.3410169993E-02    0.6220039936E-03
    0.9000000000E+01    0.1347355578E-01    0.3960607679E-01    0.8950037788E-02    0.4298893786E-02    0.7886315615E-03
    0.1100000000E+02    0.1624416398E-01    0.4748045489E-01    0.1078051320E-01    0.5153397120E-02    0.9508084432E-03
    0.1300000000E+02    0.1894261809E-01    0.5505714422E-01    0.1255930331E-01    0.5975526375E-02    0.1108764590E-02
    0.1500000000E+02    0.2157257287E-01    0.6235193677E-01    0.1428881517E-01    0.6766998537E-02    0.1262713765E-02
    0.1700000000E+02    0.2413743046E-01    0.6937953647E-01    0.1597130511E-01    0.7529412311E-02    0.1412854957E-02
    0.1900000000E+02    0.2664036212E-01    0.7615365104E-01    0.1760889045E-01    0.8264258105E-02    0.1559373650E-02
    0.2100000000E+02    0.2908432769E-01    0.8268707471E-01    0.1920356017E-01    0.8972927026E-02    0.1702442966E-02
    0.2300000000E+02    0.3147209318E-01    0.8899176289E-01    0.2075718455E-01    0.9656718986E-02    0.1842224689E-02
    0.2500000000E+02    0.3380624653E-01    0.9507889958E-01    0.2227152397E-01    0.1031685004E-01    0.1978870189E-02
    0.2700000000E+02    0.3608921194E-01    0.1009589584E+00    0.2374823696E-01    0.1095445900E-01    0.2112521261E-02
    0.2900000000E+02    0.3832326277E-01    0.1066417580E+00    0.2518888755E-01    0.1157061350E-01    0.2243310875E-02
    0.3100000000E+02    0.4051053328E-01    0.1121365121E+00    0.2659495192E-01    0.1216631539E-01    0.2371363868E-02
    0.3300000000E+02    0.4265302920E-01    0.1174518756E+00    0.2796782459E-01    0.1274250575E-01    0.2496797558E-02
    0.3500000000E+02    0.4475263746E-01    0.1225959857E+00    0.2930882404E-01    0.1330006942E-01    0.2619722318E-02
    0.3700000000E+02    0.4681113497E-01    0.1275765003E+00    0.3061919785E-01    0.1383983908E-01    0.2740242082E-02
    0.3900000000E+02    0.4883019663E-01    0.1324006324E+00    0.3190012749E-01    0.1436259906E-01    0.2858454820E-02
    0.4100000000E+02    0.5081140265E-01    0.1370751818E+00    0.3315273267E-01    0.1486908880E-01    0.2974452964E-02
    0.4300000000E+02    0.5275624530E-01    0.1416065645E+00    0.3437807535E-01    0.1536000595E-01    0.3088323802E-02
    0.4500000000E+02    0.5466613498E-01    0.1460008388E+00    0.3557716349E-01    0.1583600931E-01    0.3200149833E-02
    0.4700000000E+02    0.5654240591E-01    0.1502637303E+00    0.3675095446E-01    0.1629772149E-01    0.3310009101E-02
    0.4900000000E+02    0.5838632124E-01    0.1544006538E+00    0.3790035822E-01    0.1674573133E-01    0.3417975493E-02
    0.1000000000E+02    0.1486811807E-01    0.4358150916E-01    0.9871892833E-02    0.4730304440E-02    0.8702615690E-03
    0.3000000000E+02    0.3942261731E-01    0.1094120872E+00    0.2589615401E-01    0.1187096083E-01    0.2307671947E-02
    0.5000000000E+02    0.5929652203E-01    0.1564234900E+00    0.3846618700E-01    0.1696477320E-01    0.3471270883E-02
    0.7000000000E+02    0.7606176799E-01    0.1913768115E+00    0.4869183013E-01    0.2074693614E-01    0.4453005563E-02
    0.9000000000E+02    0.9063302050E-01    0.2181635076E+00    0.5724468482E-01    0.2364063646E-01    0.5306380133E-02
    0.1100000000E+03    0.1035820283E+00    0.2391781200E+00    0.6455645139E-01    0.2590629282E-01    0.6064840982E-02
    0.1300000000E+03    0.1152865337E+00    0.2559726783E+00    0.7091814405E-01    0.2771270739E-01    0.6750486258E-02
    0.1500000000E+03    0.1260073587E+00    0.2695958977E+00    0.7653363720E-01    0.2917394860E-01    0.7378574720E-02
    0.1700000000E+03    0.1359311948E+00    0.2807810043E+00    0.8155037308E-01    0.3036977542E-01    0.7960028621E-02
    0.1900000000E+03    0.1451957333E+00    0.2900554676E+00    0.8607787003E-01    0.3135757012E-01    0.8502903694E-02
    0.2100000000E+03    0.1539051280E+00    0.2978080231E+00    0.9019935112E-01    0.3217962681E-01    0.9013293675E-02
    0.2300000000E+03    0.1621398900E+00    0.3043311703E+00    0.9397931228E-01    0.3286777309E-01    0.9495909118E-02
    0.2500000000E+03    0.1699634338E+00    0.3098489989E+00    0.9746859942E-01    0.3344639620E-01    0.9954460356E-02
    0.2700000000E+03    0.1774265355E+00    0.3145359205E+00    0.1007079051E+00    0.3393448009E-01    0.1039191830E-01
    0.2900000000E+03    0.1845704461E+00    0.3185295880E+00    0.1037302335E+00    0.3434701051E-01    0.1081069658E-01
    0.3100000000E+03    0.1914291137E+00    0.3219399989E+00    0.1065626727E+00    0.3469596494E-01    0.1121278154E-01
    0.3300000000E+03    0.1980308020E+00    0.3248560325E+00    0.1092276948E+00    0.3499102365E-01    0.1159982694E-01
    0.3500000000E+03    0.2043992890E+00    0.3273502258E+00    0.1117441219E+00    0.3524008904E-01    0.1197322406E-01
    0.3700000000E+03    0.2105547695E+00    0.3294823158E+00    0.1141278581E+00    0.3544967090E-01    0.1233415457E-01
    0.3900000000E+03    0.2165145438E+00    0.3313019034E+00    0.1163924488E+00    0.3562517617E-01    0.1268363073E-01
    0.4100000000E+03    0.2222935511E+00    0.3328504831E+00    0.1185495152E+00    0.3577112964E-01    0.1302252668E-01
    0.4300000000E+03    0.2279047852E+00    0.3341630064E+00    0.1206090938E+00    0.3589134400E-01    0.1335160271E-01
    0.4500000000E+03    0.2333596254E+00    0.3352690992E+00    0.1225799068E+00    0.3598905231E-01    0.1367152466E-01
    0.4700000000E+03    0.2386680986E+00    0.3361940191E+00    0.1244695768E+00    0.3606701206E-01    0.1398287922E-01
    0.4900000000E+03    0.2438390925E+00    0.3369594153E+00    0.1262848010E+00    0.3612758784E-01    0.1428618643E-01
    0.1000000000E+03    0.9728327902E-01    0.2292805498E+00    0.6103499453E-01    0.2483981355E-01    0.5695893754E-02
    0.3000000000E+03    0.1880335513E+00    0.3203017137E+00    0.1051686892E+00    0.3452878272E-01    0.1101371550E-01
    0.5000000000E+03    0.2463755436E+00    0.3372882226E+00    0.1271663710E+00    0.3615200477E-01    0.1443496907E-01
    0.7000000000E+03    0.2914304122E+00    0.3388826657E+00    0.1420175641E+00    0.3609885289E-01    0.1707844844E-01
    0.9000000000E+03    0.3282899750E+00    0.3357342028E+00    0.1533641449E+00    0.3553494359E-01    0.1924207905E-01
    0.1100000000E+04    0.3592444633E+00    0.3310014881E+00    0.1626234085E+00    0.3480824742E-01    0.2105986005E-01
    0.1300000000E+04    0.3856291105E+00    0.3258452201E+00    0.1704909292E+00    0.3404740612E-01    0.2260991836E-01
    0.1500000000E+04    0.4083443449E+00    0.3207350161E+00    0.1773597097E+00    0.3330456069E-01    0.2394494652E-01
    0.1700000000E+04    0.4280500687E+00    0.3158629964E+00    0.1834739199E+00    0.3260081623E-01    0.2510356873E-01
    0.1900000000E+04    0.4452538265E+00    0.3112997268E+00    0.1889959958E+00    0.3194353215E-01    0.2611549794E-01
    0.2100000000E+04    0.4603574441E+00    0.3070602036E+00    0.1940397129E+00    0.3133371958E-01    0.2700426316E-01
    0.2300000000E+04    0.4736849267E+00    0.3031340041E+00    0.1986880299E+00    0.3076946554E-01    0.2778884072E-01
    0.2500000000E+04    0.4855007953E+00    0.2994997463E+00    0.2030034130E+00    0.3024759863E-01    0.2848472633E-01
    0.2700000000E+04    0.4960229858E+00    0.2961321967E+00    0.2070341521E+00    0.2976452014E-01    0.2910468936E-01
    0.2900000000E+04    0.5054323544E+00    0.2930057617E+00    0.2108184046E+00    0.2931661862E-01    0.2965932866E-01
    0.3100000000E+04    0.5138799057E+00    0.2900961436E+00    0.2143868849E+00    0.2890046955E-01    0.3015749538E-01
    0.3300000000E+04    0.5214924051E+00    0.2873810502E+00    0.2177647104E+00    0.2851292226E-01    0.3060662123E-01
    0.3500000000E+04    0.5283767997E+00    0.2848404145E+00    0.2209727054E+00    0.2815112748E-01    0.3101297722E-01
    0.3700000000E+04    0.5346237388E+00    0.2824563694E+00    0.2240283420E+00    0.2781253429E-01    0.3138187963E-01
    0.3900000000E+04    0.5403103986E+00    0.2802131025E+00    0.2269464353E+00    0.2749487198E-01    0.3171785538E-01
    0.4100000000E+04    0.5455027636E+00    0.2780966649E+00    0.2297396653E+00    0.2719612555E-01    0.3202477557E-01
    0.4300000000E+04    0.5502574802E+00    0.2760947660E+00    0.2324189753E+00    0.2691450927E-01    0.3230596403E-01
    0.4500000000E+04    0.5546233695E+00    0.2741965763E+00    0.2349938810E+00    0.2664844082E-01    0.3256428590E-01
    0.4700000000E+04    0.5586426676E+00    0.2723925451E+00    0.2374727129E+00    0.2639651724E-01    0.3280222028E-01
    0.4900000000E+04    0.5623520476E+00    0.2706742372E+00    0.2398628089E+00    0.2615749307E-01    0.3302192009E-01
    0.1000000000E+04    0.3444081580E+00    0.3334690322E+00    0.1582012855E+00    0.3518122245E-01    0.2018851384E-01
    0.3000000000E+04    0.5097679231E+00    0.2915252950E+00    0.2126279327E+00    0.2910477889E-01    0.2991497667E-01
    0.5000000000E+04    0.5641006686E+00    0.2698448624E+00    0.2410266412E+00    0.2604246729E-01    0.3312552799E-01
    0.7000000000E+04    0.5887187283E+00    0.2563402915E+00    0.2608955459E+00    0.2420719234E-01    0.3458785842E-01
    0.9000000000E+04    0.6022079473E+00    0.2465215845E+00    0.2763121589E+00    0.2292588317E-01    0.3539376614E-01
    0.1100000000E+05    0.6105510693E+00    0.2387489683E+00    0.2889505052E+00    0.2194658677E-01    0.3589531144E-01
    0.1300000000E+05    0.6161552398E+00    0.2322792167E+00    0.2996754026E+00    0.2115476997E-01    0.3623439706E-01
    0.1500000000E+05    0.6201497990E+00    0.2267174596E+00    0.3089962503E+00    0.2049016877E-01    0.3647772114E-01
    0.1700000000E+05    0.6231266805E+00    0.2218288334E+00    0.3172400772E+00    0.1991751305E-01    0.3666030996E-01
    0.1900000000E+05    0.6254230882E+00    0.2174617335E+00    0.3246300931E+00    0.1941446309E-01    0.3680215635E-01
    0.2100000000E+05    0.6272439591E+00    0.2135121522E+00    0.3313258126E+00    0.1896599124E-01    0.3691543591E-01
    0.2300000000E+05    0.6287204487E+00    0.2099053340E+00    0.3374453886E+00    0.1856150255E-01    0.3700795717E-01
    0.2500000000E+05    0.6299401079E+00    0.2065855514E+00    0.3430788909E+00    0.1819324237E-01    0.3708494382E-01
    0.2700000000E+05    0.6309634637E+00    0.2035100300E+00    0.3482966209E+00    0.1785535967E-01    0.3715001512E-01
    0.2900000000E+05    0.6318336152E+00    0.2006451450E+00    0.3531545449E+00    0.1754332753E-01    0.3720575397E-01
    0.3100000000E+05    0.6325820364E+00    0.1979639345E+00    0.3576979701E+00    0.1725356903E-01    0.3725405091E-01
    0.3300000000E+05    0.6332322192E+00    0.1954444158E+00    0.3619641078E+00    0.1698320694E-01    0.3729632025E-01
    0.3500000000E+05    0.6338020343E+00    0.1930684074E+00    0.3659839053E+00    0.1672989116E-01    0.3733364038E-01
    0.3700000000E+05    0.6343053060E+00    0.1908206859E+00    0.3697833853E+00    0.1649167639E-01    0.3736684753E-01
    0.3900000000E+05    0.6347528887E+00    0.1886883661E+00    0.3733846438E+00    0.1626693361E-01    0.3739659978E-01
    0.4100000000E+05    0.6351534181E+00    0.1866604386E+00    0.3768066058E+00    0.1605428461E-01    0.3742342201E-01
    0.4300000000E+05    0.6355138471E+00    0.1847274170E+00    0.3800656077E+00    0.1585255262E-01    0.3744773783E-01
    0.4500000000E+05    0.6358398344E+00    0.1828810656E+00    0.3831758503E+00    0.1566072474E-01    0.3746989281E-01
    0.4700000000E+05    0.6361360302E+00    0.1811141859E+00    0.3861497573E+00    0.1547792263E-01    0.3749017167E-01
    0.4900000000E+05    0.6364062899E+00    0.1794204476E+00    0.3889982607E+00    0.1530337960E-01    0.3750881102E-01
    0.1000000000E+05    0.6068279270E+00    0.2424377159E+00    0.2829130901E+00    0.2240746701E-01    0.3567110343E-01
    0.3000000000E+05    0.6322214192E+00    0.1992830553E+00    0.3554630787E+00    0.1739585798E-01    0.3723073505E-01
    0.5000000000E+05    0.6365327220E+00    0.1785992315E+00    0.3903785521E+00    0.1521899162E-01    0.3751757913E-01
    0.7000000000E+05    0.6382609568E+00    0.1649411970E+00    0.4132552771E+00    0.1383723906E-01    0.3764155402E-01
    0.9000000000E+05    0.6391843181E+00    0.1548198181E+00    0.4301120562E+00    0.1283786424E-01    0.3771268525E-01
    0.1100000000E+06    0.6397563079E+00    0.1468328465E+00    0.4433585697E+00    0.1206286909E-01    0.3775982989E-01
    0.1300000000E+06    0.6401442909E+00    0.1402720519E+00    0.4542048598E+00    0.1143482685E-01    0.3779392898E-01
    0.1500000000E+06    0.6404241441E+00    0.1347294762E+00    0.4633443822E+00    0.1091008974E-01    0.3782007513E-01
    0.1700000000E+06    0.6406351722E+00    0.1299487519E+00    0.4712110458E+00    0.1046168200E-01    0.3784097515E-01
    0.1900000000E+06    0.6407997416E+00    0.1257583997E+00    0.4780940378E+00    0.1007180215E-01    0.3785820873E-01
    0.2100000000E+06    0.6409315041E+00    0.1220381856E+00    0.4841955033E+00    0.9728109122E-02    0.3787276425E-01
    0.2300000000E+06    0.6410392577E+00    0.1187006340E+00    0.4896621249E+00    0.9421711159E-02    0.3788529431E-01
    0.2500000000E+06    0.6411289244E+00    0.1156801779E+00    0.4946035962E+00    0.9146000001E-02    0.3789624875E-01
    0.2700000000E+06    0.6412046341E+00    0.1129264502E+00    0.4991040114E+00    0.8895937564E-02    0.3790594874E-01
    0.2900000000E+06    0.6412693538E+00    0.1103999542E+00    0.5032291973E+00    0.8667599855E-02    0.3791463034E-01
    0.3100000000E+06    0.6413252692E+00    0.1080691694E+00    0.5070316032E+00    0.8457874527E-02    0.3792247142E-01
    0.3300000000E+06    0.6413740253E+00    0.1059085565E+00    0.5105536643E+00    0.8264254018E-02    0.3792960885E-01
    0.3500000000E+06    0.6414168837E+00    0.1038971481E+00    0.5138301738E+00    0.8084690283E-02    0.3793614988E-01
    0.3700000000E+06    0.6414548276E+00    0.1020175289E+00    0.5168899956E+00    0.7917490410E-02    0.3794217993E-01
    0.3900000000E+06    0.6414886345E+00    0.1002550847E+00    0.5197573246E+00    0.7761240097E-02    0.3794776799E-01
    0.4100000000E+06    0.6415189274E+00    0.9859743819E-01    0.5224526315E+00    0.7614746544E-02    0.3795297045E-01
    0.4300000000E+06    0.6415462109E+00    0.9703402016E-01    0.5249933802E+00    0.7476995163E-02    0.3795783397E-01
    0.4500000000E+06    0.6415708981E+00    0.9555573742E-01    0.5273945825E+00    0.7347116287E-02    0.3796239749E-01
    0.4700000000E+06    0.6415933305E+00    0.9415471363E-01    0.5296692308E+00    0.7224359257E-02    0.3796669385E-01
    0.4900000000E+06    0.6416137927E+00    0.9282408412E-01    0.5318286401E+00    0.7108071991E-02    0.3797075095E-01
    0.1000000000E+06    0.6395005216E+00    0.1506135473E+00    0.4370941610E+00    0.1242826584E-01    0.3773836556E-01
    0.3000000000E+06    0.6412982987E+00    0.1092118155E+00    0.5051678925E+00    0.8560579599E-02    0.3791864659E-01
    0.5000000000E+06    0.6416233612E+00    0.9218325761E-01    0.5328682756E+00    0.7052173630E-02    0.3797269739E-01
    0.7000000000E+06    0.6417532428E+00    0.8192762542E-01    0.5494777806E+00    0.6166998279E-02    0.3800340232E-01
    0.9000000000E+06    0.6418207259E+00    0.7479283558E-01    0.5610018582E+00    0.5561855836E-02    0.3802462288E-01
    0.1100000000E+07    0.6418608341E+00    0.6942337828E-01    0.5696580964E+00    0.5112415169E-02    0.3804076939E-01
    0.1300000000E+07    0.6418866858E+00    0.6517547527E-01    0.5764963012E+00    0.4760605757E-02    0.3805377534E-01
    0.1500000000E+07    0.6419042590E+00    0.6169615286E-01    0.5820907253E+00    0.4474994703E-02    0.3806465269E-01
    0.1700000000E+07    0.6419166480E+00    0.5877249209E-01    0.5867871430E+00    0.4236818326E-02    0.3807399490E-01
    0.1900000000E+07    0.6419256056E+00    0.5626694658E-01    0.5908086006E+00    0.4034061603E-02    0.3808217891E-01
    0.2100000000E+07    0.6419321934E+00    0.5408594002E-01    0.5943066579E+00    0.3858612484E-02    0.3808945862E-01
    0.2300000000E+07    0.6419370891E+00    0.5216317428E-01    0.5973885826E+00    0.3704762108E-02    0.3809601305E-01
    0.2500000000E+07    0.6419407436E+00    0.5045011663E-01    0.6001328278E+00    0.3568356370E-02    0.3810197304E-01
    0.2700000000E+07    0.6419434673E+00    0.4891026936E-01    0.6025983451E+00    0.3446288180E-02    0.3810743709E-01
    0.2900000000E+07    0.6419454802E+00    0.4751555843E-01    0.6048304478E+00    0.3336179350E-02    0.3811248113E-01
    0.3100000000E+07    0.6419469419E+00    0.4624397013E-01    0.6068646448E+00    0.3236173520E-02    0.3811716496E-01
    0.3300000000E+07    0.6419479704E+00    0.4507795452E-01    0.6087292283E+00    0.3144796957E-02    0.3812153650E-01
    0.3500000000E+07    0.6419486548E+00    0.4400331701E-01    0.6104470693E+00    0.3060862336E-02    0.3812563470E-01
    0.3700000000E+07    0.6419490633E+00    0.4300843038E-01    0.6120368928E+00    0.2983400624E-02    0.3812949167E-01
    0.3900000000E+07    0.6419492488E+00    0.4208366275E-01    0.6135142034E+00    0.2911611835E-02    0.3813313420E-01
    0.4100000000E+07    0.6419492528E+00    0.4122095486E-01    0.6148919689E+00    0.2844828750E-02    0.3813658485E-01
    0.4300000000E+07    0.6419491083E+00    0.4041350227E-01    0.6161811337E+00    0.2782489756E-02    0.3813986280E-01
    0.4500000000E+07    0.6419488418E+00    0.3965551315E-01    0.6173910099E+00    0.2724118191E-02    0.3814298451E-01
    0.4700000000E+07    0.6419484745E+00    0.3894202106E-01    0.6185295800E+00    0.2669306449E-02    0.3814596417E-01
    0.4900000000E+07    0.6419480240E+00    0.3826873861E-01    0.6196037328E+00    0.2617703571E-02    0.3814881414E-01
    0.1000000000E+07    0.6418431292E+00    0.7193729981E-01    0.5656070916E+00    0.5322188117E-02    0.3803317827E-01
    0.3000000000E+07    0.6419462718E+00    0.4686556056E-01    0.6058703712E+00    0.3285013343E-02    0.3811486484E-01
    0.5000000000E+07    0.6419477720E+00    0.3794599289E-01    0.6201185531E+00    0.2593008823E-02    0.3815019393E-01
    0.7000000000E+07    0.6419407496E+00    0.3291058658E-01    0.6281431806E+00    0.2211359529E-02    0.3817301798E-01
    0.9000000000E+07    0.6419326546E+00    0.2954622965E-01    0.6334966286E+00    0.1960401380E-02    0.3818991023E-01
    0.1100000000E+08    0.6419248502E+00    0.2708592502E-01    0.6374071794E+00    0.1779100450E-02    0.3820332713E-01
    0.1300000000E+08    0.6419176157E+00    0.2518163234E-01    0.6404313331E+00    0.1640148603E-02    0.3821445814E-01
    0.1500000000E+08    0.6419109695E+00    0.2364887316E-01    0.6428637228E+00    0.1529229256E-02    0.3822397040E-01
    0.1700000000E+08    0.6419048625E+00    0.2237929276E-01    0.6448772452E+00    0.1438009091E-02    0.3823227584E-01
    0.1900000000E+08    0.6418992329E+00    0.2130440327E-01    0.6465811000E+00    0.1361261197E-02    0.3823964673E-01
    0.2100000000E+08    0.6418940215E+00    0.2037845712E-01    0.6480481820E+00    0.1295517478E-02    0.3824627244E-01
    0.2300000000E+08    0.6418891761E+00    0.1956954846E-01    0.6493293017E+00    0.1238373482E-02    0.3825229006E-01
    0.2500000000E+08    0.6418846523E+00    0.1885463918E-01    0.6504611293E+00    0.1188102265E-02    0.3825780198E-01
    0.2700000000E+08    0.6418804122E+00    0.1821661267E-01    0.6514708977E+00    0.1143426956E-02    0.3826288674E-01
