  Pressure (Pa) 22mC5-400 (mol/kg) 2mC6-400 (mol/kg) 3mC6-400 (mol/kg) 33mC5-400 (mol/kg) 23mC5-400 (mol/kg)
    0.1000000000E+01    0.1583306582E-02    0.6352487216E-02    0.5281922983E-03    0.1292992876E-03    0.5560235064E-03
    0.3000000000E+01    0.4662942878E-02    0.1860992843E-01    0.1557833228E-02    0.3787621992E-03    0.1637544752E-02
    0.5000000000E+01    0.7633265719E-02    0.3030415022E-01    0.2553466405E-02    0.6167277815E-03    0.2680700603E-02
    0.7000000000E+01    0.1050161275E-01    0.4147223779E-01    0.3516943381E-02    0.8439529529E-03    0.3688066012E-02
    0.9000000000E+01    0.1327465619E-01    0.5214807577E-01    0.4449980491E-02    0.1061129325E-02    0.4661982441E-02
    0.1100000000E+02    0.1595847736E-01    0.6236268885E-01    0.5354171091E-02    0.1268890149E-02    0.5604584003E-02
    0.1300000000E+02    0.1855863133E-01    0.7214453941E-01    0.6230996483E-02    0.1467816390E-02    0.6517820154E-02
    0.1500000000E+02    0.2108020328E-01    0.8151978851E-01    0.7081835688E-02    0.1658442048E-02    0.7403475459E-02
    0.1700000000E+02    0.2352785769E-01    0.9051252541E-01    0.7907974207E-02    0.1841258844E-02    0.8263186863E-02
    0.1900000000E+02    0.2590588148E-01    0.9914496989E-01    0.8710611901E-02    0.2016720346E-02    0.9098458818E-02
    0.2100000000E+02    0.2821822192E-01    0.1074376513E+00    0.9490870071E-02    0.2185245620E-02    0.9910676588E-02
    0.2300000000E+02    0.3046852002E-01    0.1154095670E+00    0.1024979785E-01    0.2347222467E-02    0.1070111797E-01
    0.2500000000E+02    0.3266014004E-01    0.1230783236E+00    0.1098837800E-01    0.2503010302E-02    0.1147096365E-01
    0.2700000000E+02    0.3479619569E-01    0.1304602625E+00    0.1170753208E-01    0.2652942717E-02    0.1222130638E-01
    0.2900000000E+02    0.3687957328E-01    0.1375705719E+00    0.1240812526E-01    0.2797329766E-02    0.1295315911E-01
    0.3100000000E+02    0.3891295247E-01    0.1444233874E+00    0.1309097056E-01    0.2936460018E-02    0.1366746230E-01
    0.3300000000E+02    0.4089882464E-01    0.1510318821E+00    0.1375683280E-01    0.3070602392E-02    0.1436509030E-01
    0.3500000000E+02    0.4283950943E-01    0.1574083468E+00    0.1440643212E-01    0.3200007807E-02    0.1504685722E-01
    0.3700000000E+02    0.4473716951E-01    0.1635642639E+00    0.1504044730E-01    0.3324910670E-02    0.1571352206E-01
    0.3900000000E+02    0.4659382383E-01    0.1695103721E+00    0.1565951865E-01    0.3445530214E-02    0.1636579342E-01
    0.4100000000E+02    0.4841135956E-01    0.1752567265E+00    0.1626425077E-01    0.3562071713E-02    0.1700433362E-01
    0.4300000000E+02    0.5019154286E-01    0.1808127518E+00    0.1685521504E-01    0.3674727577E-02    0.1762976253E-01
    0.4500000000E+02    0.5193602857E-01    0.1861872913E+00    0.1743295187E-01    0.3783678345E-02    0.1824266095E-01
    0.4700000000E+02    0.5364636902E-01    0.1913886513E+00    0.1799797281E-01    0.3889093592E-02    0.1884357370E-01
    0.4900000000E+02    0.5532402197E-01    0.1964246409E+00    0.1855076250E-01    0.3991132748E-02    0.1943301241E-01
    0.1000000000E+02    0.1462736073E-01    0.5731119970E-01    0.4905586516E-02    0.1166149210E-02    0.5137071657E-02
    0.3000000000E+02    0.3790235276E-01    0.1410283215E+00    0.1275171751E-01    0.2867534744E-02    0.1331244827E-01
    0.5000000000E+02    0.5615102211E-01    0.1988829354E+00    0.1882271515E-01    0.4040933525E-02    0.1972358044E-01
    0.7000000000E+02    0.7126781359E-01    0.2409400919E+00    0.2371951532E-01    0.4891822507E-02    0.2503535043E-01
    0.9000000000E+02    0.8426790118E-01    0.2726553106E+00    0.2779398427E-01    0.5531580485E-02    0.2960406846E-01
    0.1100000000E+03    0.9574915892E-01    0.2972436361E+00    0.3126678487E-01    0.6025845784E-02    0.3363958914E-01
    0.1300000000E+03    0.1060893198E+00    0.3167222431E+00    0.3428386127E-01    0.6415800886E-02    0.3727450267E-01
    0.1500000000E+03    0.1155403717E+00    0.3324200868E+00    0.3694593063E-01    0.6728577574E-02    0.4059726386E-01
    0.1700000000E+03    0.1242778748E+00    0.3452477373E+00    0.3932495719E-01    0.6982766083E-02    0.4366950096E-01
    0.1900000000E+03    0.1324285593E+00    0.3558495396E+00    0.4147387209E-01    0.7191521712E-02    0.4653570214E-01
    0.2100000000E+03    0.1400866525E+00    0.3646939240E+00    0.4343257350E-01    0.7364408621E-02    0.4922894627E-01
    0.2300000000E+03    0.1473239926E+00    0.3721293325E+00    0.4523177457E-01    0.7508541615E-02    0.5177445272E-01
    0.2500000000E+03    0.1541965395E+00    0.3784201189E+00    0.4689555271E-01    0.7629319030E-02    0.5419186698E-01
    0.2700000000E+03    0.1607487078E+00    0.3837703113E+00    0.4844308672E-01    0.7730907829E-02    0.5649678152E-01
    0.2900000000E+03    0.1670163331E+00    0.3883397668E+00    0.4988986990E-01    0.7816573349E-02    0.5870177704E-01
    0.3100000000E+03    0.1730287533E+00    0.3922554120E+00    0.5124857586E-01    0.7888908745E-02    0.6081715318E-01
    0.3300000000E+03    0.1788103021E+00    0.3956192274E+00    0.5252968834E-01    0.7949997965E-02    0.6285145275E-01
    0.3500000000E+03    0.1843814006E+00    0.3985140239E+00    0.5374196734E-01    0.8001533645E-02    0.6481184498E-01
    0.3700000000E+03    0.1897593698E+00    0.4010076918E+00    0.5489279953E-01    0.8044903814E-02    0.6670441069E-01
    0.3900000000E+03    0.1949590443E+00    0.4031563711E+00    0.5598846528E-01    0.8081256615E-02    0.6853435781E-01
    0.4100000000E+03    0.1999932424E+00    0.4050068513E+00    0.5703434483E-01    0.8111549259E-02    0.7030618640E-01
    0.4300000000E+03    0.2048731312E+00    0.4065984077E+00    0.5803507931E-01    0.8136585518E-02    0.7202381680E-01
    0.4500000000E+03    0.2096085129E+00    0.4079642250E+00    0.5899469775E-01    0.8157044758E-02    0.7369069013E-01
    0.4700000000E+03    0.2142080517E+00    0.4091325096E+00    0.5991671847E-01    0.8173504654E-02    0.7530984805E-01
    0.4900000000E+03    0.2186794560E+00    0.4101273693E+00    0.6080423043E-01    0.8186459129E-02    0.7688399664E-01
    0.1000000000E+03    0.9017102791E-01    0.2856937735E+00    0.2959515172E-01    0.5793907528E-02    0.3167887624E-01
    0.3000000000E+03    0.1700528201E+00    0.3903724338E+00    0.5057953210E-01    0.7854266693E-02    0.5977009748E-01
    0.5000000000E+03    0.2208692920E+00    0.4105663531E+00    0.6123591007E-01    0.8191756864E-02    0.7765495922E-01
    0.7000000000E+03    0.2592985746E+00    0.4139917302E+00    0.6857758365E-01    0.8190606906E-02    0.9118851606E-01
    0.9000000000E+03    0.2898856544E+00    0.4123989730E+00    0.7428341958E-01    0.8091893383E-02    0.1019662935E+00
    0.1100000000E+04    0.3148205525E+00    0.4091748233E+00    0.7900726237E-01    0.7965242598E-02    0.1107571482E+00
    0.1300000000E+04    0.3354535122E+00    0.4055206501E+00    0.8307132463E-01    0.7835186705E-02    0.1180352047E+00
    0.1500000000E+04    0.3527200460E+00    0.4018992184E+00    0.8665856073E-01    0.7710905760E-02    0.1241290450E+00
    0.1700000000E+04    0.3673069616E+00    0.3984863952E+00    0.8988321045E-01    0.7595589744E-02    0.1292799659E+00
    0.1900000000E+04    0.3797344952E+00    0.3953381708E+00    0.9282164011E-01    0.7489933985E-02    0.1336707937E+00
    0.2100000000E+04    0.3904042966E+00    0.3924592653E+00    0.9552758303E-01    0.7393588174E-02    0.1374427181E+00
    0.2300000000E+04    0.3996306188E+00    0.3898331785E+00    0.9804038596E-01    0.7305794939E-02    0.1407062350E+00
    0.2500000000E+04    0.4076619304E+00    0.3874357974E+00    0.1003897947E+00    0.7225678887E-02    0.1435487313E+00
    0.2700000000E+04    0.4146964663E+00    0.3852415789E+00    0.1025988904E+00    0.7152376254E-02    0.1460399432E+00
    0.2900000000E+04    0.4208936808E+00    0.3832262605E+00    0.1046859759E+00    0.7085089439E-02    0.1482359773E+00
    0.3100000000E+04    0.4263828132E+00    0.3813679184E+00    0.1066658323E+00    0.7023105743E-02    0.1501823188E+00
    0.3300000000E+04    0.4312693685E+00    0.3796472435E+00    0.1085505857E+00    0.6965799289E-02    0.1519161081E+00
    0.3500000000E+04    0.4356400673E+00    0.3780474594E+00    0.1103503193E+00    0.6912625447E-02    0.1534678794E+00
    0.3700000000E+04    0.4395666551E+00    0.3765540919E+00    0.1120735174E+00    0.6863112376E-02    0.1548628998E+00
    0.3900000000E+04    0.4431088587E+00    0.3751546916E+00    0.1137273935E+00    0.6816851940E-02    0.1561222082E+00
    0.4100000000E+04    0.4463166947E+00    0.3738385574E+00    0.1153181378E+00    0.6773491019E-02    0.1572634266E+00
    0.4300000000E+04    0.4492322853E+00    0.3725964831E+00    0.1168511058E+00    0.6732723675E-02    0.1583013989E+00
    0.4500000000E+04    0.4518912957E+00    0.3714205334E+00    0.1183309659E+00    0.6694284281E-02    0.1592486963E+00
    0.4700000000E+04    0.4543240790E+00    0.3703038517E+00    0.1197618142E+00    0.6657941607E-02    0.1601160198E+00
    0.4900000000E+04    0.4565565938E+00    0.3692404953E+00    0.1211472671E+00    0.6623493788E-02    0.1609125228E+00
    0.1000000000E+04    0.3029625669E+00    0.4108895214E+00    0.7674338493E-01    0.8029983198E-02    0.1065760074E+00
    0.3000000000E+04    0.4237196713E+00    0.3822787357E+00    0.1056884958E+00    0.7053475810E-02    0.1492378654E+00
    0.5000000000E+04    0.4576048459E+00    0.3687271727E+00    0.1218239876E+00    0.6606924328E-02    0.1612867192E+00
    0.7000000000E+04    0.4720942959E+00    0.3603071592E+00    0.1335954651E+00    0.6341982746E-02    0.1664775259E+00
    0.9000000000E+04    0.4798425986E+00    0.3540228967E+00    0.1430299666E+00    0.6154322338E-02    0.1692761823E+00
    0.1100000000E+05    0.4845801898E+00    0.3488957964E+00    0.1509756359E+00    0.6008071455E-02    0.1710023429E+00
    0.1300000000E+05    0.4877439824E+00    0.3445058755E+00    0.1578773947E+00    0.5887502272E-02    0.1721655878E+00
    0.1500000000E+05    0.4899920760E+00    0.3406353920E+00    0.1640008222E+00    0.5784461214E-02    0.1729999103E+00
    0.1700000000E+05    0.4916645192E+00    0.3371558305E+00    0.1695184687E+00    0.5694197531E-02    0.1736265451E+00
    0.1900000000E+05    0.4929533233E+00    0.3339840978E+00    0.1745494067E+00    0.5613699396E-02    0.1741141401E+00
    0.2100000000E+05    0.4939745327E+00    0.3310628024E+00    0.1791796030E+00    0.5540933173E-02    0.1745043032E+00
    0.2300000000E+05    0.4948021484E+00    0.3283503043E+00    0.1834733464E+00    0.5474457554E-02    0.1748236458E+00
    0.2500000000E+05    0.4954854571E+00    0.3258152296E+00    0.1874800907E+00    0.5413211286E-02    0.1750899451E+00
    0.2700000000E+05    0.4960584844E+00    0.3234332269E+00    0.1912387694E+00    0.5356388572E-02    0.1753155115E+00
    0.2900000000E+05    0.4965454392E+00    0.3211849388E+00    0.1947806320E+00    0.5303361977E-02    0.1755091309E+00
    0.3100000000E+05    0.4969639931E+00    0.3190546735E+00    0.1981311763E+00    0.5253632579E-02    0.1756772371E+00
    0.3300000000E+05    0.4973273342E+00    0.3170295002E+00    0.2013115020E+00    0.5206796551E-02    0.1758246466E+00
    0.3500000000E+05    0.4976454957E+00    0.3150986151E+00    0.2043392853E+00    0.5162522043E-02    0.1759550357E+00
    0.3700000000E+05    0.4979262400E+00    0.3132528831E+00    0.2072294939E+00    0.5120532749E-02    0.1760712578E+00
    0.3900000000E+05    0.4981756637E+00    0.3114844999E+00    0.2099949232E+00    0.5080595964E-02    0.1761755612E+00
    0.4100000000E+05    0.4983986188E+00    0.3097867372E+00    0.2126466047E+00    0.5042513718E-02    0.1762697413E+00
    0.4300000000E+05    0.4985990129E+00    0.3081537478E+00    0.2151941216E+00    0.5006116078E-02    0.1763552487E+00
    0.4500000000E+05    0.4987800277E+00    0.3065804136E+00    0.2176458560E+00    0.4971256010E-02    0.1764332684E+00
    0.4700000000E+05    0.4989442784E+00    0.3050622257E+00    0.2200091849E+00    0.4937805375E-02    0.1765047779E+00
    0.4900000000E+05    0.4990939343E+00    0.3035951890E+00    0.2222906380E+00    0.4905651776E-02    0.1765705905E+00
    0.1000000000E+05    0.4824705318E+00    0.3513478945E+00    0.1471553327E+00    0.6077261416E-02    0.1702317883E+00
    0.3000000000E+05    0.4967623551E+00    0.3201059177E+00    0.1964784101E+00    0.5278112286E-02    0.1755960407E+00
    0.5000000000E+05    0.4991638679E+00    0.3028797249E+00    0.2234025016E+00    0.4890029917E-02    0.1766015781E+00
    0.7000000000E+05    0.5001123445E+00    0.2905642315E+00    0.2424672953E+00    0.4626728682E-02    0.1770418777E+00
    0.9000000000E+05    0.5006089715E+00    0.2808946911E+00    0.2573513589E+00    0.4426589127E-02    0.1772965280E+00
    0.1100000000E+06    0.5009094406E+00    0.2729053496E+00    0.2696033616E+00    0.4265026047E-02    0.1774662087E+00
    0.1300000000E+06    0.5011079915E+00    0.2660861864E+00    0.2800331349E+00    0.4129588975E-02    0.1775894019E+00
    0.1500000000E+06    0.5012472135E+00    0.2601324592E+00    0.2891210759E+00    0.4013060129E-02    0.1776841282E+00
    0.1700000000E+06    0.5013490695E+00    0.2548465470E+00    0.2971770207E+00    0.3910867399E-02    0.1777600109E+00
    0.1900000000E+06    0.5014259900E+00    0.2500925481E+00    0.3044131361E+00    0.3819926004E-02    0.1778226876E+00
    0.2100000000E+06    0.5014855159E+00    0.2457727711E+00    0.3109814169E+00    0.3738053719E-02    0.1778756963E+00
    0.2300000000E+06    0.5015324745E+00    0.2418145118E+00    0.3169946652E+00    0.3663648695E-02    0.1779213791E+00
    0.2500000000E+06    0.5015700916E+00    0.2381621286E+00    0.3225390087E+00    0.3595499696E-02    0.1779613540E+00
    0.2700000000E+06    0.5016006000E+00    0.2347720461E+00    0.3276817637E+00    0.3532668249E-02    0.1779967782E+00
    0.2900000000E+06    0.5016255913E+00    0.2316094742E+00    0.3324765831E+00    0.3474412243E-02    0.1780285039E+00
    0.3100000000E+06    0.5016462280E+00    0.2286461763E+00    0.3369669480E+00    0.3420134588E-02    0.1780571739E+00
    0.3300000000E+06    0.5016633778E+00    0.2258589089E+00    0.3411886039E+00    0.3369347667E-02    0.1780832835E+00
    0.3500000000E+06    0.5016777003E+00    0.2232283013E+00    0.3451713056E+00    0.3321648070E-02    0.1781072213E+00
    0.3700000000E+06    0.5016897049E+00    0.2207380346E+00    0.3489400939E+00    0.3276698238E-02    0.1781292971E+00
    0.3900000000E+06    0.5016997908E+00    0.2183742286E+00    0.3525162479E+00    0.3234212854E-02    0.1781497612E+00
    0.4100000000E+06    0.5017082748E+00    0.2161249759E+00    0.3559180064E+00    0.3193948585E-02    0.1781688185E+00
    0.4300000000E+06    0.5017154110E+00    0.2139799826E+00    0.3591611247E+00    0.3155696228E-02    0.1781866387E+00
    0.4500000000E+06    0.5017214054E+00    0.2119302879E+00    0.3622593079E+00    0.3119274613E-02    0.1782033633E+00
    0.4700000000E+06    0.5017264266E+00    0.2099680422E+00    0.3652245539E+00    0.3084525808E-02    0.1782191120E+00
    0.4900000000E+06    0.5017306135E+00    0.2080863297E+00    0.3680674269E+00    0.3051311312E-02    0.1782339862E+00
    0.1000000000E+06    0.5007759993E+00    0.2767284496E+00    0.2637451618E+00    0.4341933623E-02    0.1773888634E+00
    0.3000000000E+06    0.5016363940E+00    0.2301044709E+00    0.3347574302E+00    0.3446808827E-02    0.1780431870E+00
    0.5000000000E+06    0.5017324311E+00    0.2071737317E+00    0.3694459379E+00    0.3035240695E-02    0.1782411231E+00
    0.7000000000E+06    0.5017448695E+00    0.1919726449E+00    0.3923869759E+00    0.2771089679E-02    0.1783537719E+00
    0.9000000000E+06    0.5017362589E+00    0.1806769871E+00    0.4094113820E+00    0.2578965416E-02    0.1784316784E+00
    0.1100000000E+07    0.5017210088E+00    0.1717414250E+00    0.4228667810E+00    0.2429393549E-02    0.1784909760E+00
    0.1300000000E+07    0.5017037227E+00    0.1643846496E+00    0.4339376019E+00    0.2307805144E-02    0.1785387484E+00
    0.1500000000E+07    0.5016861271E+00    0.1581564101E+00    0.4433054226E+00    0.2205947817E-02    0.1785787064E+00
    0.1700000000E+07    0.5016689171E+00    0.1527736329E+00    0.4513982965E+00    0.2118704908E-02    0.1786130273E+00
    0.1900000000E+07    0.5016523697E+00    0.1480468682E+00    0.4585024654E+00    0.2042691672E-02    0.1786430945E+00
    0.2100000000E+07    0.5016365797E+00    0.1438431919E+00    0.4648186312E+00    0.1975556891E-02    0.1786698403E+00
    0.2300000000E+07    0.5016215588E+00    0.1400658227E+00    0.4704928423E+00    0.1915603578E-02    0.1786939219E+00
    0.2500000000E+07    0.5016072815E+00    0.1366421599E+00    0.4756346058E+00    0.1861568592E-02    0.1787158200E+00
    0.2700000000E+07    0.5015937059E+00    0.1335163859E+00    0.4803280793E+00    0.1812487560E-02    0.1787358961E+00
    0.2900000000E+07    0.5015807846E+00    0.1306446920E+00    0.4846392907E+00    0.1767608375E-02    0.1787544292E+00
    0.3100000000E+07    0.5015684698E+00    0.1279920856E+00    0.4886209639E+00    0.1726333759E-02    0.1787716390E+00
    0.3300000000E+07    0.5015567157E+00    0.1255301896E+00    0.4923158431E+00    0.1688181933E-02    0.1787877015E+00
    0.3500000000E+07    0.5015454795E+00    0.1232356861E+00    0.4957590425E+00    0.1652758970E-02    0.1788027598E+00
    0.3700000000E+07    0.5015347219E+00    0.1210891911E+00    0.4989797459E+00    0.1619738904E-02    0.1788169319E+00
    0.3900000000E+07    0.5015244070E+00    0.1190744242E+00    0.5020024593E+00    0.1588849138E-02    0.1788303161E+00
    0.4100000000E+07    0.5015145025E+00    0.1171775856E+00    0.5048479504E+00    0.1559859544E-02    0.1788429954E+00
    0.4300000000E+07    0.5015049787E+00    0.1153868814E+00    0.5075339650E+00    0.1532574192E-02    0.1788550402E+00
    0.4500000000E+07    0.5014958089E+00    0.1136921570E+00    0.5100757805E+00    0.1506824990E-02    0.1788665109E+00
    0.4700000000E+07    0.5014869689E+00    0.1120846092E+00    0.5124866382E+00    0.1482466717E-02    0.1788774598E+00
    0.4900000000E+07    0.5014784368E+00    0.1105565599E+00    0.5147780858E+00    0.1459373119E-02    0.1788879322E+00
    0.1000000000E+07    0.5017290705E+00    0.1759737752E+00    0.4164948420E+00    0.2499977532E-02    0.1784630962E+00
    0.3000000000E+07    0.5015745544E+00    0.1292929107E+00    0.4866684455E+00    0.1746552944E-02    0.1787631877E+00
    0.5000000000E+07    0.5014742799E+00    0.1098202099E+00    0.5158822449E+00    0.1448265525E-02    0.1788930024E+00
    0.7000000000E+07    0.5014033084E+00    0.9799485829E-01    0.5336087923E+00    0.1271769674E-02    0.1789768744E+00
    0.9000000000E+07    0.5013485439E+00    0.8972014206E-01    0.5460067056E+00    0.1150419050E-02    0.1790389534E+00
    0.1100000000E+08    0.5013039882E+00    0.8346527901E-01    0.5553750221E+00    0.1059901608E-02    0.1790882641E+00
    0.1300000000E+08    0.5012664408E+00    0.7849943791E-01    0.5628106983E+00    0.9888027175E-03    0.1791291766E+00
    0.1500000000E+08    0.5012339991E+00    0.7442020344E-01    0.5689174883E+00    0.9309178081E-03    0.1791641417E+00
    0.1700000000E+08    0.5012054420E+00    0.7098396089E-01    0.5740607718E+00    0.8825301086E-03    0.1791946730E+00
    0.1900000000E+08    0.5011799390E+00    0.6803284845E-01    0.5784772508E+00    0.8412525005E-03    0.1792217705E+00
    0.2100000000E+08    0.5011569001E+00    0.6545917890E-01    0.5823283578E+00    0.8054690835E-03    0.1792461301E+00
    0.2300000000E+08    0.5011358914E+00    0.6318647428E-01    0.5857287183E+00    0.7740400364E-03    0.1792682555E+00
    0.2500000000E+08    0.5011165839E+00    0.6115863001E-01    0.5887624079E+00    0.7461342428E-03    0.1792885227E+00
    0.2700000000E+08    0.5010987228E+00    0.5933337262E-01    0.5914927662E+00    0.7211289038E-03    0.1793072203E+00
