  Pressure (Pa) 22mC5-400 (mol/kg) 2mC6-400 (mol/kg) 3mC6-400 (mol/kg) 33mC5-400 (mol/kg) 23mC5-400 (mol/kg)
    0.1000000000E+01    0.1590934026E-02    0.1591213095E-02    0.4751942149E-02    0.6477998576E-04    0.4655840171E-03
    0.3000000000E+01    0.4729126039E-02    0.4678896104E-02    0.1400445160E-01    0.1904960739E-03    0.1383979937E-02
    0.5000000000E+01    0.7810640903E-02    0.7645752286E-02    0.2293679018E-01    0.3113099965E-03    0.2285801774E-02
    0.7000000000E+01    0.1083727666E-01    0.1049798618E-01    0.3156583681E-01    0.4274734320E-03    0.3171575243E-02
    0.9000000000E+01    0.1381075411E-01    0.1324138796E-01    0.3990729533E-01    0.5392212300E-03    0.4041803472E-02
    0.1100000000E+02    0.1673272086E-01    0.1588136776E-01    0.4797579522E-01    0.6467728078E-03    0.4896968196E-02
    0.1300000000E+02    0.1960475520E-01    0.1842298666E-01    0.5578498218E-01    0.7503334082E-03    0.5737530890E-02
    0.1500000000E+02    0.2242836974E-01    0.2087098456E-01    0.6334759963E-01    0.8500952356E-03    0.6563933810E-02
    0.1700000000E+02    0.2520501471E-01    0.2322980550E-01    0.7067556232E-01    0.9462384831E-03    0.7376600995E-02
    0.1900000000E+02    0.2793608122E-01    0.2550362054E-01    0.7778002271E-01    0.1038932263E-02    0.8175939184E-02
    0.2100000000E+02    0.3062290420E-01    0.2769634855E-01    0.8467143121E-01    0.1128335452E-02    0.8962338699E-02
    0.2300000000E+02    0.3326676520E-01    0.2981167507E-01    0.9135959069E-01    0.1214597459E-02    0.9736174258E-02
    0.2500000000E+02    0.3586889508E-01    0.3185306957E-01    0.9785370602E-01    0.1297858923E-02    0.1049780575E-01
    0.2700000000E+02    0.3843047644E-01    0.3382380110E-01    0.1041624291E+00    0.1378252351E-02    0.1124757897E-01
    0.2900000000E+02    0.4095264600E-01    0.3572695262E-01    0.1102939000E+00    0.1455902702E-02    0.1198582628E-01
    0.3100000000E+02    0.4343649681E-01    0.3756543415E-01    0.1162557843E+00    0.1530927917E-02    0.1271286729E-01
    0.3300000000E+02    0.4588308029E-01    0.3934199469E-01    0.1220553072E+00    0.1603439409E-02    0.1342900942E-01
    0.3500000000E+02    0.4829340824E-01    0.4105923335E-01    0.1276992848E+00    0.1673542507E-02    0.1413454854E-01
    0.3700000000E+02    0.5066845467E-01    0.4271960934E-01    0.1331941532E+00    0.1741336869E-02    0.1482976944E-01
    0.3900000000E+02    0.5300915757E-01    0.4432545135E-01    0.1385459940E+00    0.1806916860E-02    0.1551494638E-01
    0.4100000000E+02    0.5531642054E-01    0.4587896608E-01    0.1437605591E+00    0.1870371898E-02    0.1619034359E-01
    0.4300000000E+02    0.5759111437E-01    0.4738224614E-01    0.1488432922E+00    0.1931786774E-02    0.1685621569E-01
    0.4500000000E+02    0.5983407853E-01    0.4883727730E-01    0.1537993499E+00    0.1991241949E-02    0.1751280814E-01
    0.4700000000E+02    0.6204612256E-01    0.5024594526E-01    0.1586336200E+00    0.2048813828E-02    0.1816035765E-01
    0.4900000000E+02    0.6422802739E-01    0.5161004187E-01    0.1633507391E+00    0.2104575009E-02    0.1879909258E-01
    0.1000000000E+02    0.1527807609E-01    0.1457398145E-01    0.4397479019E-01    0.5935084004E-03    0.4471239468E-02
    0.3000000000E+02    0.4219929459E-01    0.3665410168E-01    0.1132955790E+00    0.1493736341E-02    0.1235072808E-01
    0.5000000000E+02    0.6530791414E-01    0.5227591162E-01    0.1656667512E+00    0.2131798292E-02    0.1911522374E-01
    0.7000000000E+02    0.8549340342E-01    0.6362581699E-01    0.2067956902E+00    0.2596294216E-02    0.2502480916E-01
    0.9000000000E+02    0.1033792575E+00    0.7202263977E-01    0.2400677946E+00    0.2940655753E-02    0.3026180253E-01
    0.1100000000E+03    0.1194158877E+00    0.7830811558E-01    0.2676212419E+00    0.3198988550E-02    0.3495791446E-01
    0.1300000000E+03    0.1339371638E+00    0.8304351428E-01    0.2908747523E+00    0.3394042494E-02    0.3921077914E-01
    0.1500000000E+03    0.1471961589E+00    0.8661640161E-01    0.3108079037E+00    0.3541536413E-02    0.4309440522E-01
    0.1700000000E+03    0.1593884938E+00    0.8930215499E-01    0.3281196346E+00    0.3652648563E-02    0.4666600145E-01
    0.1900000000E+03    0.1706680199E+00    0.9130115139E-01    0.3433225719E+00    0.3735521531E-02    0.4997056229E-01
    0.2100000000E+03    0.1811576199E+00    0.9276215766E-01    0.3568016141E+00    0.3796208500E-02    0.5304402609E-01
    0.2300000000E+03    0.1909568115E+00    0.9379754163E-01    0.3688516537E+00    0.3839288490E-02    0.5591549834E-01
    0.2500000000E+03    0.2001472048E+00    0.9449344987E-01    0.3797026332E+00    0.3868277983E-02    0.5860884775E-01
    0.2700000000E+03    0.2087964907E+00    0.9491678743E-01    0.3895366411E+00    0.3885913225E-02    0.6114387231E-01
    0.2900000000E+03    0.2169613999E+00    0.9512010865E-01    0.3984998564E+00    0.3894348054E-02    0.6353716476E-01
    0.3100000000E+03    0.2246899315E+00    0.9514510983E-01    0.4067110704E+00    0.3895295211E-02    0.6580276422E-01
    0.3300000000E+03    0.2320230532E+00    0.9502516596E-01    0.4142678787E+00    0.3890129012E-02    0.6795265338E-01
    0.3500000000E+03    0.2389960133E+00    0.9478720107E-01    0.4212512587E+00    0.3879961080E-02    0.6999714230E-01
    0.3700000000E+03    0.2456393657E+00    0.9445308633E-01    0.4277290024E+00    0.3865696982E-02    0.7194516803E-01
    0.3900000000E+03    0.2519797774E+00    0.9404069784E-01    0.4337583275E+00    0.3848079118E-02    0.7380453086E-01
    0.4100000000E+03    0.2580406721E+00    0.9356472622E-01    0.4393878876E+00    0.3827719555E-02    0.7558208250E-01
    0.4300000000E+03    0.2638427462E+00    0.9303730234E-01    0.4446593378E+00    0.3805125444E-02    0.7728387703E-01
    0.4500000000E+03    0.2694043875E+00    0.9246848569E-01    0.4496085664E+00    0.3780718862E-02    0.7891529329E-01
    0.4700000000E+03    0.2747420162E+00    0.9186664875E-01    0.4542666735E+00    0.3754852449E-02    0.8048113463E-01
    0.4900000000E+03    0.2798703651E+00    0.9123878191E-01    0.4586607556E+00    0.3727821835E-02    0.8198571096E-01
    0.1000000000E+03    0.1116056220E+00    0.7538918807E-01    0.2544579001E+00    0.3078950315E-02    0.3267071253E-01
    0.3000000000E+03    0.2208775046E+00    0.9515264290E-01    0.4026929273E+00    0.3895664761E-02    0.6468513396E-01
    0.5000000000E+03    0.2823602603E+00    0.9091695485E-01    0.4607663187E+00    0.3713949235E-02    0.8271625360E-01
    0.7000000000E+03    0.3238057957E+00    0.8411379533E-01    0.4934730316E+00    0.3418224038E-02    0.9488151791E-01
    0.9000000000E+03    0.3539451913E+00    0.7773707386E-01    0.5150641413E+00    0.3137342195E-02    0.1037353598E+00
    0.1100000000E+04    0.3768442122E+00    0.7224555724E-01    0.5306557173E+00    0.2893072341E-02    0.1104676229E+00
    0.1300000000E+04    0.3947788264E+00    0.6759765797E-01    0.5425843200E+00    0.2684930626E-02    0.1157445736E+00
    0.1500000000E+04    0.4091564993E+00    0.6365869585E-01    0.5520858061E+00    0.2507784772E-02    0.1199783633E+00
    0.1700000000E+04    0.4209027642E+00    0.6029578546E-01    0.5598823580E+00    0.2356200445E-02    0.1234401026E+00
    0.1900000000E+04    0.4306526860E+00    0.5739796725E-01    0.5664276544E+00    0.2225485591E-02    0.1263158742E+00
    0.2100000000E+04    0.4388562571E+00    0.5487704272E-01    0.5720228135E+00    0.2111827674E-02    0.1287375713E+00
    0.2300000000E+04    0.4458406751E+00    0.5266389575E-01    0.5768765323E+00    0.2012189898E-02    0.1308011243E+00
    0.2500000000E+04    0.4518490493E+00    0.5070439967E-01    0.5811385965E+00    0.1924163530E-02    0.1325778305E+00
    0.2700000000E+04    0.4570653992E+00    0.4895594515E-01    0.5849196533E+00    0.1845832858E-02    0.1341216734E+00
    0.2900000000E+04    0.4616313027E+00    0.4738472672E-01    0.5883034388E+00    0.1775665283E-02    0.1354741977E+00
    0.3100000000E+04    0.4656572687E+00    0.4596368526E-01    0.5913546416E+00    0.1712425684E-02    0.1366678406E+00
    0.3300000000E+04    0.4692306782E+00    0.4467096283E-01    0.5941241295E+00    0.1655110794E-02    0.1377282579E+00
    0.3500000000E+04    0.4724214361E+00    0.4348874282E-01    0.5966525254E+00    0.1602899147E-02    0.1386759800E+00
    0.3700000000E+04    0.4752860618E+00    0.4240237562E-01    0.5989727131E+00    0.1555112845E-02    0.1395276110E+00
    0.3900000000E+04    0.4778706965E+00    0.4139971522E-01    0.6011116346E+00    0.1511188227E-02    0.1402967100E+00
    0.4100000000E+04    0.4802133439E+00    0.4047061190E-01    0.6030916006E+00    0.1470653229E-02    0.1409944477E+00
    0.4300000000E+04    0.4823455613E+00    0.3960652116E-01    0.6049312658E+00    0.1433109791E-02    0.1416301031E+00
    0.4500000000E+04    0.4842937510E+00    0.3880019968E-01    0.6066463640E+00    0.1398220076E-02    0.1422114412E+00
    0.4700000000E+04    0.4860801561E+00    0.3804546700E-01    0.6082502702E+00    0.1365695613E-02    0.1427450060E+00
    0.4900000000E+04    0.4877236376E+00    0.3733701723E-01    0.6097544360E+00    0.1335288658E-02    0.1432363480E+00
    0.1000000000E+04    0.3661303944E+00    0.7487893046E-01    0.5234269849E+00    0.3010456064E-02    0.1073171167E+00
    0.3000000000E+04    0.4637058498E+00    0.4665690669E-01    0.5898671581E+00    0.1743246972E-02    0.1360891390E+00
    0.5000000000E+04    0.4884969042E+00    0.3699869194E-01    0.6104722546E+00    0.1320811238E-02    0.1434676932E+00
    0.7000000000E+04    0.4993463074E+00    0.3182164083E-01    0.6214006770E+00    0.1103234128E-02    0.1467283703E+00
    0.9000000000E+04    0.5053508021E+00    0.2845636779E-01    0.6284177532E+00    0.9663595356E-03    0.1485510524E+00
    0.1100000000E+05    0.5091399084E+00    0.2603314361E-01    0.6334041455E+00    0.8703119090E-03    0.1497129362E+00
    0.1300000000E+05    0.5117398151E+00    0.2417496433E-01    0.6371791351E+00    0.7981638060E-03    0.1505183276E+00
    0.1500000000E+05    0.5136302910E+00    0.2268819116E-01    0.6401638602E+00    0.7414004943E-03    0.1511099700E+00
    0.1700000000E+05    0.5150646436E+00    0.2146156465E-01    0.6425996985E+00    0.6952226314E-03    0.1515634815E+00
    0.1900000000E+05    0.5161888769E+00    0.2042586329E-01    0.6446361576E+00    0.6566951453E-03    0.1519225951E+00
    0.2100000000E+05    0.5170929234E+00    0.1953538430E-01    0.6463713991E+00    0.6239096092E-03    0.1522143399E+00
    0.2300000000E+05    0.5178351367E+00    0.1875853103E-01    0.6478728711E+00    0.5955644827E-03    0.1524563139E+00
    0.2500000000E+05    0.5184550005E+00    0.1807264149E-01    0.6491886417E+00    0.5707375577E-03    0.1526604654E+00
    0.2700000000E+05    0.5189801680E+00    0.1746096661E-01    0.6503540098E+00    0.5487546535E-03    0.1528351914E+00
    0.2900000000E+05    0.5194305738E+00    0.1691081426E-01    0.6513955559E+00    0.5291099013E-03    0.1529865657E+00
    0.3100000000E+05    0.5198209454E+00    0.1641236122E-01    0.6523337258E+00    0.5114152646E-03    0.1531190915E+00
    0.3300000000E+05    0.5201623953E+00    0.1595786581E-01    0.6531845371E+00    0.4953674153E-03    0.1532361780E+00
    0.3500000000E+05    0.5204634637E+00    0.1554113033E-01    0.6539607395E+00    0.4807253279E-03    0.1533404545E+00
    0.3700000000E+05    0.5207308202E+00    0.1515712458E-01    0.6546726242E+00    0.4672947196E-03    0.1534339815E+00
    0.3900000000E+05    0.5209697487E+00    0.1480171612E-01    0.6553286009E+00    0.4549169932E-03    0.1535183970E+00
    0.4100000000E+05    0.5211844880E+00    0.1447147333E-01    0.6559356180E+00    0.4434612204E-03    0.1535950197E+00
    0.4300000000E+05    0.5213784782E+00    0.1416351887E-01    0.6564994733E+00    0.4328182223E-03    0.1536649234E+00
    0.4500000000E+05    0.5215545394E+00    0.1387541919E-01    0.6570250477E+00    0.4228961295E-03    0.1537289914E+00
    0.4700000000E+05    0.5217150053E+00    0.1360509979E-01    0.6575164835E+00    0.4136170025E-03    0.1537879572E+00
    0.4900000000E+05    0.5218618232E+00    0.1335077958E-01    0.6579773221E+00    0.4049142257E-03    0.1538424352E+00
    0.1000000000E+05    0.5074390009E+00    0.2715680327E-01    0.6311000608E+00    0.9145783380E-03    0.1491899201E+00
    0.3000000000E+05    0.5196324989E+00    0.1665565071E-01    0.6518764736E+00    0.5200394586E-03    0.1530549502E+00
    0.5000000000E+05    0.5219306365E+00    0.1322912989E-01    0.6581972368E+00    0.4007607379E-03    0.1538681564E+00
    0.7000000000E+05    0.5228783754E+00    0.1135266560E-01    0.6615464787E+00    0.3374680698E-03    0.1542386891E+00
    0.9000000000E+05    0.5233875144E+00    0.1012080247E-01    0.6637009002E+00    0.2967303765E-03    0.1544574843E+00
    0.1100000000E+06    0.5237013137E+00    0.9230717753E-02    0.6652355936E+00    0.2677142810E-03    0.1546051477E+00
    0.1300000000E+06    0.5239118085E+00    0.8547912933E-02    0.6664003812E+00    0.2457040446E-03    0.1547132834E+00
    0.1500000000E+06    0.5240613544E+00    0.8002162115E-02    0.6673235701E+00    0.2282733966E-03    0.1547969461E+00
    0.1700000000E+06    0.5241720952E+00    0.7552686841E-02    0.6680787075E+00    0.2140296551E-03    0.1548642757E+00
    0.1900000000E+06    0.5242567011E+00    0.7173946536E-02    0.6687113753E+00    0.2021087989E-03    0.1549200857E+00
    0.2100000000E+06    0.5243229283E+00    0.6849009070E-02    0.6692515277E+00    0.1919426225E-03    0.1549674196E+00
    0.2300000000E+06    0.5243757805E+00    0.6566140457E-02    0.6697197677E+00    0.1831401016E-03    0.1550083043E+00
    0.2500000000E+06    0.5244186242E+00    0.6316914401E-02    0.6701307947E+00    0.1754221644E-03    0.1550441471E+00
    0.2700000000E+06    0.5244538038E+00    0.6095100433E-02    0.6704954159E+00    0.1685835982E-03    0.1550759587E+00
    0.2900000000E+06    0.5244829994E+00    0.5895977707E-02    0.6708217785E+00    0.1624696869E-03    0.1551044860E+00
    0.3100000000E+06    0.5245074446E+00    0.5715894215E-02    0.6711161565E+00    0.1569612868E-03    0.1551302940E+00
    0.3300000000E+06    0.5245280647E+00    0.5551973932E-02    0.6713834710E+00    0.1519649623E-03    0.1551538195E+00
    0.3500000000E+06    0.5245455659E+00    0.5401916531E-02    0.6716276430E+00    0.1474062695E-03    0.1551754057E+00
    0.3700000000E+06    0.5245604963E+00    0.5263856937E-02    0.6718518411E+00    0.1432250678E-03    0.1551953270E+00
    0.3900000000E+06    0.5245732869E+00    0.5136264659E-02    0.6720586574E+00    0.1393721713E-03    0.1552138055E+00
    0.4100000000E+06    0.5245842811E+00    0.5017870227E-02    0.6722502355E+00    0.1358069116E-03    0.1552310230E+00
    0.4300000000E+06    0.5245937555E+00    0.4907610500E-02    0.6724283661E+00    0.1324953315E-03    0.1552471307E+00
    0.4500000000E+06    0.5246019353E+00    0.4804587376E-02    0.6725945579E+00    0.1294088260E-03    0.1552622546E+00
    0.4700000000E+06    0.5246090052E+00    0.4708036185E-02    0.6727500927E+00    0.1265231049E-03    0.1552765014E+00
    0.4900000000E+06    0.5246151183E+00    0.4617301189E-02    0.6728960672E+00    0.1238173915E-03    0.1552899619E+00
    0.1000000000E+06    0.5235613252E+00    0.9643614169E-02    0.6645259692E+00    0.2811296216E-03    0.1545376531E+00
    0.3000000000E+06    0.5244957520E+00    0.5803751294E-02    0.6709726311E+00    0.1596461495E-03    0.1551177001E+00
    0.5000000000E+06    0.5246178568E+00    0.4573934817E-02    0.6729657698E+00    0.1225263482E-03    0.1552964220E+00
    0.7000000000E+06    0.5246444951E+00    0.3907954264E-02    0.6740309158E+00    0.1028821098E-03    0.1553985002E+00
    0.9000000000E+06    0.5246452694E+00    0.3473845340E-02    0.6747199071E+00    0.9027610509E-04    0.1554691900E+00
    0.1100000000E+07    0.5246368980E+00    0.3161737726E-02    0.6752126966E+00    0.8132026742E-04    0.1555230274E+00
    0.1300000000E+07    0.5246249861E+00    0.2923204353E-02    0.6755878782E+00    0.7454133119E-04    0.1555664142E+00
    0.1500000000E+07    0.5246117737E+00    0.2733106811E-02    0.6758859864E+00    0.6918253170E-04    0.1556027097E+00
    0.1700000000E+07    0.5245982504E+00    0.2576915030E-02    0.6761303350E+00    0.6481022368E-04    0.1556338872E+00
    0.1900000000E+07    0.5245848762E+00    0.2445562660E-02    0.6763354141E+00    0.6115580886E-04    0.1556612016E+00
    0.2100000000E+07    0.5245718665E+00    0.2333058043E-02    0.6765107688E+00    0.5804291398E-04    0.1556854987E+00
    0.2300000000E+07    0.5245593167E+00    0.2235260058E-02    0.6766629785E+00    0.5535033027E-04    0.1557073753E+00
    0.2500000000E+07    0.5245472609E+00    0.2149201802E-02    0.6767967458E+00    0.5299166045E-04    0.1557272678E+00
    0.2700000000E+07    0.5245357017E+00    0.2072693963E-02    0.6769155337E+00    0.5090344630E-04    0.1557455046E+00
    0.2900000000E+07    0.5245246254E+00    0.2004080664E-02    0.6770219569E+00    0.4903789512E-04    0.1557623392E+00
    0.3100000000E+07    0.5245140104E+00    0.1942082982E-02    0.6771180315E+00    0.4735823863E-04    0.1557779711E+00
    0.3300000000E+07    0.5245038314E+00    0.1885695189E-02    0.6772053408E+00    0.4583566796E-04    0.1557925603E+00
    0.3500000000E+07    0.5244940624E+00    0.1834113925E-02    0.6772851478E+00    0.4444724912E-04    0.1558062368E+00
    0.3700000000E+07    0.5244846776E+00    0.1786688607E-02    0.6773584740E+00    0.4317446878E-04    0.1558191079E+00
    0.3900000000E+07    0.5244756524E+00    0.1742885948E-02    0.6774261561E+00    0.4200219682E-04    0.1558312629E+00
    0.4100000000E+07    0.5244669636E+00    0.1702264051E-02    0.6774888864E+00    0.4091793157E-04    0.1558427772E+00
    0.4300000000E+07    0.5244585895E+00    0.1664453186E-02    0.6775472439E+00    0.3991124106E-04    0.1558537148E+00
    0.4500000000E+07    0.5244505101E+00    0.1629141288E-02    0.6776017167E+00    0.3897334277E-04    0.1558641307E+00
    0.4700000000E+07    0.5244427070E+00    0.1596062866E-02    0.6776527196E+00    0.3809678314E-04    0.1558740723E+00
    0.4900000000E+07    0.5244351630E+00    0.1564990422E-02    0.6777006082E+00    0.3727519000E-04    0.1558835809E+00
    0.1000000000E+07    0.5246417543E+00    0.3306356201E-02    0.6749846235E+00    0.8545833679E-04    0.1554977121E+00
    0.3000000000E+07    0.5245192618E+00    0.1972323176E-02    0.6770711802E+00    0.4817678897E-04    0.1557702947E+00
    0.5000000000E+07    0.5244314833E+00    0.1550144051E-02    0.6777234819E+00    0.3688326175E-04    0.1558881843E+00
    0.7000000000E+07    0.5243683019E+00    0.1322514900E-02    0.6780735937E+00    0.3092773336E-04    0.1559643203E+00
    0.9000000000E+07    0.5243191951E+00    0.1174505958E-02    0.6783006424E+00    0.2711401080E-04    0.1560206537E+00
    0.1100000000E+08    0.5242790798E+00    0.1068269824E-02    0.6784633175E+00    0.2440848385E-04    0.1560653872E+00
    0.1300000000E+08    0.5242451859E+00    0.9871756084E-03    0.6785873280E+00    0.2236278026E-04    0.1561024923E+00
    0.1500000000E+08    0.5242158474E+00    0.9226086961E-03    0.6786859614E+00    0.2074698665E-04    0.1561341962E+00
    0.1700000000E+08    0.5241899867E+00    0.8695978445E-03    0.6787668728E+00    0.1942953278E-04    0.1561618739E+00
    0.1900000000E+08    0.5241668677E+00    0.8250450962E-03    0.6788348262E+00    0.1832901190E-04    0.1561864340E+00
    0.2100000000E+08    0.5241459651E+00    0.7869052461E-03    0.6788929632E+00    0.1739201623E-04    0.1562085087E+00
    0.2300000000E+08    0.5241268913E+00    0.7537659912E-03    0.6789434512E+00    0.1658186995E-04    0.1562285554E+00
    0.2500000000E+08    0.5241093522E+00    0.7246162438E-03    0.6789878407E+00    0.1587244752E-04    0.1562469156E+00
    0.2700000000E+08    0.5240931192E+00    0.6987103947E-03    0.6790272741E+00    0.1524457075E-04    0.1562638514E+00
