  Pressure (Pa) 22mC5-400 (mol/kg) 2mC6-400 (mol/kg) 3mC6-400 (mol/kg) 33mC5-400 (mol/kg) 23mC5-400 (mol/kg)
    0.1000000000E+01    0.1586293063E-02    0.4766513099E-02    0.2111416106E-02    0.3234040485E-03    0.1856905582E-03
    0.3000000000E+01    0.4688686157E-02    0.1397545797E-01    0.6219543508E-02    0.9482163808E-03    0.5488599828E-03
    0.5000000000E+01    0.7701824324E-02    0.2277477607E-01    0.1018213993E-01    0.1545226385E-02    0.9015876533E-03
    0.7000000000E+01    0.1063056770E-01    0.3118955062E-01    0.1400749324E-01    0.2116135939E-02    0.1244442077E-02
    0.9000000000E+01    0.1347941754E-01    0.3924288958E-01    0.1770326185E-01    0.2662512916E-02    0.1577949784E-02
    0.1100000000E+02    0.1625254905E-01    0.4695611489E-01    0.2127653373E-01    0.3185804014E-02    0.1902599169E-02
    0.1300000000E+02    0.1895384068E-01    0.5434893044E-01    0.2473387897E-01    0.3687346158E-02    0.2218843917E-02
    0.1500000000E+02    0.2158690029E-01    0.6143957154E-01    0.2808139652E-01    0.4168376637E-02    0.2527106065E-02
    0.1700000000E+02    0.2415508864E-01    0.6824493817E-01    0.3132475603E-01    0.4630042144E-02    0.2827778741E-02
    0.1900000000E+02    0.2666154035E-01    0.7478071408E-01    0.3446923521E-01    0.5073406860E-02    0.3121228629E-02
    0.2100000000E+02    0.2910918287E-01    0.8106147341E-01    0.3751975339E-01    0.5499459681E-02    0.3407798179E-02
    0.2300000000E+02    0.3150075350E-01    0.8710077632E-01    0.4048090171E-01    0.5909120710E-02    0.3687807597E-02
    0.2500000000E+02    0.3383881477E-01    0.9291125500E-01    0.4335697021E-01    0.6303247093E-02    0.3961556650E-02
    0.2700000000E+02    0.3612576835E-01    0.9850469106E-01    0.4615197232E-01    0.6682638265E-02    0.4229326284E-02
    0.2900000000E+02    0.3836386761E-01    0.1038920853E+00    0.4886966704E-01    0.7048040691E-02    0.4491380103E-02
    0.3100000000E+02    0.4055522907E-01    0.1090837211E+00    0.5151357888E-01    0.7400152146E-02    0.4747965702E-02
    0.3300000000E+02    0.4270184274E-01    0.1140892208E+00    0.5408701611E-01    0.7739625588E-02    0.4999315878E-02
    0.3500000000E+02    0.4480558160E-01    0.1189175986E+00    0.5659308717E-01    0.8067072671E-02    0.5245649739E-02
    0.3700000000E+02    0.4686821018E-01    0.1235773063E+00    0.5903471569E-01    0.8383066933E-02    0.5487173705E-02
    0.3900000000E+02    0.4889139240E-01    0.1280762769E+00    0.6141465417E-01    0.8688146692E-02    0.5724082429E-02
    0.4100000000E+02    0.5087669874E-01    0.1324219634E+00    0.6373549644E-01    0.8982817689E-02    0.5956559636E-02
    0.4300000000E+02    0.5282561284E-01    0.1366213738E+00    0.6599968900E-01    0.9267555496E-02    0.6184778889E-02
    0.4500000000E+02    0.5473953749E-01    0.1406811040E+00    0.6820954148E-01    0.9542807709E-02    0.6408904296E-02
    0.4700000000E+02    0.5661980015E-01    0.1446073670E+00    0.7036723616E-01    0.9808995960E-02    0.6629091152E-02
    0.4900000000E+02    0.5846765799E-01    0.1484060207E+00    0.7247483670E-01    0.1006651776E-01    0.6845486531E-02
    0.1000000000E+02    0.1487519905E-01    0.4314074886E-01    0.1950478768E-01    0.2926958194E-02    0.1741352636E-02
    0.3000000000E+02    0.3946526334E-01    0.1065117568E+00    0.5020063419E-01    0.7225715972E-02    0.4620341547E-02
    0.5000000000E+02    0.5937980993E-01    0.1502592333E+00    0.7351046614E-01    0.1019214678E-01    0.6952306267E-02
    0.7000000000E+02    0.7618052465E-01    0.1818131743E+00    0.9201616828E-01    0.1233044159E-01    0.8919940344E-02
    0.9000000000E+02    0.9077922410E-01    0.2053154009E+00    0.1072024076E+00    0.1392169142E-01    0.1062991777E-01
    0.1100000000E+03    0.1037472087E+00    0.2232488153E+00    0.1199869035E+00    0.1513442518E-01    0.1214907821E-01
    0.1300000000E+03    0.1154625436E+00    0.2371877707E+00    0.1309694437E+00    0.1607552074E-01    0.1352165527E-01
    0.1500000000E+03    0.1261865813E+00    0.2481761531E+00    0.1405598048E+00    0.1681585783E-01    0.1477822821E-01
    0.1700000000E+03    0.1361065551E+00    0.2569318067E+00    0.1490482543E+00    0.1740418900E-01    0.1594070468E-01
    0.1900000000E+03    0.1453606466E+00    0.2639635492E+00    0.1566466779E+00    0.1787507977E-01    0.1702525331E-01
    0.2100000000E+03    0.1540534350E+00    0.2696413794E+00    0.1635137209E+00    0.1825367277E-01    0.1804411118E-01
    0.2300000000E+03    0.1622657949E+00    0.2742403005E+00    0.1697707744E+00    0.1855866177E-01    0.1900674184E-01
    0.2500000000E+03    0.1700614526E+00    0.2779686133E+00    0.1755124860E+00    0.1880421179E-01    0.1992060229E-01
    0.2700000000E+03    0.1774914529E+00    0.2809867226E+00    0.1808138743E+00    0.1900123547E-01    0.2079166572E-01
    0.2900000000E+03    0.1845972814E+00    0.2834199585E+00    0.1857352672E+00    0.1915826333E-01    0.2162478674E-01
    0.3100000000E+03    0.1914130938E+00    0.2853675159E+00    0.1903258065E+00    0.1928205060E-01    0.2242396227E-01
    0.3300000000E+03    0.1979673401E+00    0.2869088124E+00    0.1946259847E+00    0.1937800875E-01    0.2319252154E-01
    0.3500000000E+03    0.2042839677E+00    0.2881080898E+00    0.1986695140E+00    0.1945051797E-01    0.2393326693E-01
    0.3700000000E+03    0.2103833278E+00    0.2890177987E+00    0.2024847245E+00    0.1950315692E-01    0.2464857997E-01
    0.3900000000E+03    0.2162828670E+00    0.2896811244E+00    0.2060956267E+00    0.1953887429E-01    0.2534050229E-01
    0.4100000000E+03    0.2219976617E+00    0.2901338959E+00    0.2095227275E+00    0.1956011840E-01    0.2601079818E-01
    0.4300000000E+03    0.2275408374E+00    0.2904060462E+00    0.2127836663E+00    0.1956893642E-01    0.2666100359E-01
    0.4500000000E+03    0.2329238990E+00    0.2905227423E+00    0.2158937146E+00    0.1956705112E-01    0.2729246485E-01
    0.4700000000E+03    0.2381569951E+00    0.2905052673E+00    0.2188661734E+00    0.1955592081E-01    0.2790636957E-01
    0.4900000000E+03    0.2432491314E+00    0.2903717163E+00    0.2217126919E+00    0.1953678663E-01    0.2850377160E-01
    0.1000000000E+03    0.9744001835E-01    0.2148641060E+00    0.1138518145E+00    0.1456762711E-01    0.1141018677E-01
    0.3000000000E+03    0.1880395436E+00    0.2844490808E+00    0.1880691847E+00    0.1922394647E-01    0.2202839582E-01
    0.5000000000E+03    0.2457448845E+00    0.2902663338E+00    0.2230919767E+00    0.1952455596E-01    0.2879658191E-01
    0.7000000000E+03    0.2898299822E+00    0.2848345056E+00    0.2460131666E+00    0.1905034713E-01    0.3397016717E-01
    0.9000000000E+03    0.3254910809E+00    0.2767767680E+00    0.2631094520E+00    0.1839557654E-01    0.3815721090E-01
    0.1100000000E+04    0.3551056827E+00    0.2683929722E+00    0.2767788908E+00    0.1772132510E-01    0.4163592640E-01
    0.1300000000E+04    0.3800790118E+00    0.2604052365E+00    0.2881862045E+00    0.1707927564E-01    0.4457076708E-01
    0.1500000000E+04    0.4013643262E+00    0.2530304595E+00    0.2979846926E+00    0.1648544095E-01    0.4707331194E-01
    0.1700000000E+04    0.4196592011E+00    0.2463029116E+00    0.3065778688E+00    0.1594261486E-01    0.4922522985E-01
    0.1900000000E+04    0.4354965410E+00    0.2401888753E+00    0.3142327847E+00    0.1544849445E-01    0.5108892527E-01
    0.2100000000E+04    0.4492940937E+00    0.2346315768E+00    0.3211355897E+00    0.1499894083E-01    0.5271332888E-01
    0.2300000000E+04    0.4613848579E+00    0.2295696276E+00    0.3274213837E+00    0.1458936107E-01    0.5413745360E-01
    0.2500000000E+04    0.4720374411E+00    0.2249445305E+00    0.3331914333E+00    0.1421529699E-01    0.5539277546E-01
    0.2700000000E+04    0.4814705059E+00    0.2207034463E+00    0.3385236734E+00    0.1387266029E-01    0.5650492327E-01
    0.2900000000E+04    0.4898634189E+00    0.2167998681E+00    0.3434794142E+00    0.1355780562E-01    0.5749492438E-01
    0.3100000000E+04    0.4973643014E+00    0.2131933945E+00    0.3481077900E+00    0.1326752988E-01    0.5838014669E-01
    0.3300000000E+04    0.5040962206E+00    0.2098491465E+00    0.3524488074E+00    0.1299903977E-01    0.5917502319E-01
    0.3500000000E+04    0.5101620102E+00    0.2067370853E+00    0.3565354916E+00    0.1274990791E-01    0.5989161623E-01
    0.3700000000E+04    0.5156480593E+00    0.2038313418E+00    0.3603954333E+00    0.1251802706E-01    0.6054006109E-01
    0.3900000000E+04    0.5206273132E+00    0.2011096075E+00    0.3640519281E+00    0.1230156696E-01    0.6112891742E-01
    0.4100000000E+04    0.5251616670E+00    0.1985526007E+00    0.3675248306E+00    0.1209893558E-01    0.6166544947E-01
    0.4300000000E+04    0.5293038851E+00    0.1961436084E+00    0.3708312051E+00    0.1190874514E-01    0.6215585103E-01
    0.4500000000E+04    0.5330991498E+00    0.1938680982E+00    0.3739858287E+00    0.1172978282E-01    0.6260542679E-01
    0.4700000000E+04    0.5365863172E+00    0.1917133913E+00    0.3770015852E+00    0.1156098578E-01    0.6301873952E-01
    0.4900000000E+04    0.5397989409E+00    0.1896683872E+00    0.3798897776E+00    0.1140141985E-01    0.6339972999E-01
    0.1000000000E+04    0.3409522090E+00    0.2725622008E+00    0.2702828923E+00    0.1805637321E-01    0.3997317492E-01
    0.3000000000E+04    0.4937171472E+00    0.2149617947E+00    0.3458318370E+00    0.1340977908E-01    0.5794966932E-01
    0.5000000000E+04    0.5413115436E+00    0.1886839291E+00    0.3812891997E+00    0.1132483730E-01    0.6357919035E-01
    0.7000000000E+04    0.5624926524E+00    0.1729183956E+00    0.4044850598E+00    0.1012206447E-01    0.6609927906E-01
    0.9000000000E+04    0.5740260586E+00    0.1618296567E+00    0.4215964735E+00    0.9306769894E-02    0.6748037547E-01
    0.1100000000E+05    0.5811456615E+00    0.1533250951E+00    0.4350642474E+00    0.8700202987E-02    0.6833880063E-01
    0.1300000000E+05    0.5859272419E+00    0.1464515476E+00    0.4461087660E+00    0.8221856763E-02    0.6891947364E-01
    0.1500000000E+05    0.5893375864E+00    0.1407000764E+00    0.4554284911E+00    0.7829530012E-02    0.6933669950E-01
    0.1700000000E+05    0.5918814979E+00    0.1357677170E+00    0.4634604346E+00    0.7498609204E-02    0.6965028955E-01
    0.1900000000E+05    0.5938459902E+00    0.1314595436E+00    0.4704959977E+00    0.7213574436E-02    0.6989432564E-01
    0.2100000000E+05    0.5954053486E+00    0.1276426862E+00    0.4767390286E+00    0.6964045398E-02    0.7008955063E-01
    0.2300000000E+05    0.5966710901E+00    0.1242224660E+00    0.4823375759E+00    0.6742753243E-02    0.7024926782E-01
    0.2500000000E+05    0.5977176708E+00    0.1211290110E+00    0.4874024561E+00    0.6544418074E-02    0.7038238055E-01
    0.2700000000E+05    0.5985965871E+00    0.1183092735E+00    0.4920187022E+00    0.6365088589E-02    0.7049506167E-01
    0.2900000000E+05    0.5993445299E+00    0.1157220262E+00    0.4962529351E+00    0.6201733715E-02    0.7059172009E-01
    0.3100000000E+05    0.5999883117E+00    0.1133345932E+00    0.5001582831E+00    0.6051979376E-02    0.7067558580E-01
    0.3300000000E+05    0.6005479597E+00    0.1111206406E+00    0.5037777655E+00    0.5913932781E-02    0.7074907749E-01
    0.3500000000E+05    0.6010387205E+00    0.1090586378E+00    0.5071466824E+00    0.5786061557E-02    0.7081404124E-01
    0.3700000000E+05    0.6014723977E+00    0.1071307599E+00    0.5102943398E+00    0.5667108459E-02    0.7087190989E-01
    0.3900000000E+05    0.6018582658E+00    0.1053220862E+00    0.5132453209E+00    0.5556029797E-02    0.7092381225E-01
    0.4100000000E+05    0.6022037095E+00    0.1036200051E+00    0.5160204384E+00    0.5451950115E-02    0.7097064945E-01
    0.4300000000E+05    0.6025146785E+00    0.1020137632E+00    0.5186374595E+00    0.5354128234E-02    0.7101314945E-01
    0.4500000000E+05    0.6027960186E+00    0.1004941195E+00    0.5211116660E+00    0.5261931412E-02    0.7105190671E-01
    0.4700000000E+05    0.6030517145E+00    0.9905307691E-01    0.5234562913E+00    0.5174815409E-02    0.7108741138E-01
    0.4900000000E+05    0.6032850723E+00    0.9768366974E-01    0.5256828667E+00    0.5092308906E-02    0.7112007120E-01
    0.1000000000E+05    0.5779691589E+00    0.1573288609E+00    0.4286925338E+00    0.8983718019E-02    0.6795506001E-01
    0.3000000000E+05    0.5996780578E+00    0.1145051068E+00    0.4982438260E+00    0.6125284431E-02    0.7063508513E-01
    0.5000000000E+05    0.6033942567E+00    0.9702389257E-01    0.5267550928E+00    0.5052653786E-02    0.7113544336E-01
    0.7000000000E+05    0.6048872487E+00    0.8643857583E-01    0.5439072235E+00    0.4424810579E-02    0.7135343818E-01
    0.9000000000E+05    0.6056843322E+00    0.7904282829E-01    0.5558313265E+00    0.3995277176E-02    0.7147910957E-01
    0.1100000000E+06    0.6061769815E+00    0.7345902654E-01    0.5648002010E+00    0.3675866846E-02    0.7156266411E-01
    0.1300000000E+06    0.6065100893E+00    0.6903052654E-01    0.5718925217E+00    0.3425532186E-02    0.7162323190E-01
    0.1500000000E+06    0.6067494546E+00    0.6539605848E-01    0.5776994129E+00    0.3222072578E-02    0.7166974947E-01
    0.1700000000E+06    0.6069291920E+00    0.6233704532E-01    0.5825773074E+00    0.3052233312E-02    0.7170698003E-01
    0.1900000000E+06    0.6070687219E+00    0.5971192238E-01    0.5867563841E+00    0.2907522247E-02    0.7173770951E-01
    0.2100000000E+06    0.6071798975E+00    0.5742416653E-01    0.5903931936E+00    0.2782201787E-02    0.7176368414E-01
    0.2300000000E+06    0.6072703555E+00    0.5540526065E-01    0.5935986215E+00    0.2672231042E-02    0.7178605867E-01
    0.2500000000E+06    0.6073452334E+00    0.5360496336E-01    0.5964538210E+00    0.2574667406E-02    0.7180563008E-01
    0.2700000000E+06    0.6074081118E+00    0.5198543604E-01    0.5990198075E+00    0.2487308327E-02    0.7182296796E-01
    0.2900000000E+06    0.6074615606E+00    0.5051753477E-01    0.6013435047E+00    0.2408466778E-02    0.7183849141E-01
    0.3100000000E+06    0.6075074712E+00    0.4917837990E-01    0.6034617000E+00    0.2336825040E-02    0.7185251644E-01
    0.3300000000E+06    0.6075472658E+00    0.4794971166E-01    0.6054037161E+00    0.2271336341E-02    0.7186528640E-01
    0.3500000000E+06    0.6075820336E+00    0.4681674704E-01    0.6071932656E+00    0.2211156849E-02    0.7187699213E-01
    0.3700000000E+06    0.6076126226E+00    0.4576736607E-01    0.6088497692E+00    0.2155597493E-02    0.7188778567E-01
    0.3900000000E+06    0.6076397026E+00    0.4479152058E-01    0.6103893124E+00    0.2104089113E-02    0.7189778989E-01
    0.4100000000E+06    0.6076638093E+00    0.4388079667E-01    0.6118253524E+00    0.2056156778E-02    0.7190710529E-01
    0.4300000000E+06    0.6076853763E+00    0.4302808558E-01    0.6131692498E+00    0.2011400541E-02    0.7191581501E-01
    0.4500000000E+06    0.6077047578E+00    0.4222733255E-01    0.6144306733E+00    0.1969480807E-02    0.7192398854E-01
    0.4700000000E+06    0.6077222465E+00    0.4147334260E-01    0.6156179124E+00    0.1930107058E-02    0.7193168445E-01
    0.4900000000E+06    0.6077380856E+00    0.4076162853E-01    0.6167381228E+00    0.1893029052E-02    0.7193895252E-01
    0.1000000000E+06    0.6059568457E+00    0.7607523798E-01    0.5606016128E+00    0.3824999583E-02    0.7152459634E-01
    0.3000000000E+06    0.6074853601E+00    0.4983309821E-01    0.6024263074E+00    0.2371816792E-02    0.7184567459E-01
    0.5000000000E+06    0.6077454516E+00    0.4042038613E-01    0.6172750666E+00    0.1875282030E-02    0.7194243969E-01
    0.7000000000E+06    0.6078418844E+00    0.3509028787E-01    0.6256486554E+00    0.1600742407E-02    0.7199746732E-01
    0.9000000000E+06    0.6078875887E+00    0.3152279264E-01    0.6312392527E+00    0.1419942578E-02    0.7203551200E-01
    0.1100000000E+07    0.6079117831E+00    0.2891086997E-01    0.6353252811E+00    0.1289191067E-02    0.7206446455E-01
    0.1300000000E+07    0.6079251876E+00    0.2688748649E-01    0.6384864684E+00    0.1188904015E-02    0.7208778747E-01
    0.1500000000E+07    0.6079325810E+00    0.2525778977E-01    0.6410299395E+00    0.1108801058E-02    0.7210729391E-01
    0.1700000000E+07    0.6079363795E+00    0.2390719610E-01    0.6431360095E+00    0.1042892302E-02    0.7212404755E-01
    0.1900000000E+07    0.6079379178E+00    0.2276321265E-01    0.6449186090E+00    0.9874177031E-03    0.7213872411E-01
    0.2100000000E+07    0.6079379830E+00    0.2177737965E-01    0.6464538157E+00    0.9398807990E-03    0.7215177886E-01
    0.2300000000E+07    0.6079370635E+00    0.2091587808E-01    0.6477946739E+00    0.8985498149E-03    0.7216353281E-01
    0.2500000000E+07    0.6079354744E+00    0.2015427505E-01    0.6489794754E+00    0.8621803482E-03    0.7217422060E-01
    0.2700000000E+07    0.6079334254E+00    0.1947440913E-01    0.6500366634E+00    0.8298519251E-03    0.7218401886E-01
    0.2900000000E+07    0.6079310601E+00    0.1886245495E-01    0.6509878769E+00    0.8008669667E-03    0.7219306381E-01
    0.3100000000E+07    0.6079284786E+00    0.1830767265E-01    0.6518499161E+00    0.7746858078E-03    0.7220146269E-01
    0.3300000000E+07    0.6079257520E+00    0.1780157256E-01    0.6526360546E+00    0.7508834806E-03    0.7220930142E-01
    0.3500000000E+07    0.6079229314E+00    0.1733734117E-01    0.6533569403E+00    0.7291201368E-03    0.7221664989E-01
    0.3700000000E+07    0.6079200541E+00    0.1690943700E-01    0.6540212297E+00    0.7091202937E-03    0.7222356571E-01
    0.3900000000E+07    0.6079171475E+00    0.1651329960E-01    0.6546360440E+00    0.6906579519E-03    0.7223009691E-01
    0.4100000000E+07    0.6079142316E+00    0.1614513634E-01    0.6552073032E+00    0.6735457160E-03    0.7223628395E-01
    0.4300000000E+07    0.6079113215E+00    0.1580176320E-01    0.6557399759E+00    0.6576267048E-03    0.7224216125E-01
    0.4500000000E+07    0.6079084283E+00    0.1548048432E-01    0.6562382672E+00    0.6427684418E-03    0.7224775831E-01
    0.4700000000E+07    0.6079055599E+00    0.1517899950E-01    0.6567057644E+00    0.6288581790E-03    0.7225310062E-01
    0.4900000000E+07    0.6079027226E+00    0.1489533225E-01    0.6571455489E+00    0.6157992710E-03    0.7225821034E-01
    0.1000000000E+07    0.6079014933E+00    0.3012609731E-01    0.6334249571E+00    0.1349848036E-02    0.7205085242E-01
    0.3000000000E+07    0.6079297914E+00    0.1857849293E-01    0.6514291432E+00    0.7874547621E-03    0.7219733821E-01
    0.5000000000E+07    0.6079013169E+00    0.1475963694E-01    0.6573558956E+00    0.6095625642E-03    0.7226068413E-01
    0.7000000000E+07    0.6078753659E+00    0.1266611077E-01    0.6605987321E+00    0.5142163497E-03    0.7230160218E-01
    0.9000000000E+07    0.6078534197E+00    0.1129162806E-01    0.6627252224E+00    0.4525800549E-03    0.7233188251E-01
    0.1100000000E+08    0.6078346890E+00    0.1029856018E-01    0.6642602906E+00    0.4085724439E-03    0.7235593085E-01
    0.1300000000E+08    0.6078184315E+00    0.9536820671E-02    0.6654369878E+00    0.3751391857E-03    0.7237588044E-01
    0.1500000000E+08    0.6078041000E+00    0.8928026179E-02    0.6663769128E+00    0.3486342403E-03    0.7239292769E-01
    0.1700000000E+08    0.6077912997E+00    0.8426660283E-02    0.6671506257E+00    0.3269584938E-03    0.7240781127E-01
    0.1900000000E+08    0.6077797416E+00    0.8004216410E-02    0.6678022910E+00    0.3088068883E-03    0.7242101940E-01
    0.2100000000E+08    0.6077692096E+00    0.7641797635E-02    0.6683611705E+00    0.2933198241E-03    0.7243289166E-01
    0.2300000000E+08    0.6077595383E+00    0.7326309498E-02    0.6688475321E+00    0.2799050252E-03    0.7244367382E-01
    0.2500000000E+08    0.6077505990E+00    0.7048349523E-02    0.6692759236E+00    0.2681393773E-03    0.7245354950E-01
    0.2700000000E+08    0.6077422894E+00    0.6800965991E-02    0.6696570972E+00    0.2577115023E-03    0.7246265948E-01
