  Pressure (Pa) 22mC5-400 (mol/kg) 2mC6-400 (mol/kg) 3mC6-400 (mol/kg) 33mC5-400 (mol/kg) 23mC5-400 (mol/kg)
    0.1000000000E+01    0.1586977969E-02    0.3980631037E-02    0.1058282214E-02    0.3889118637E-03    0.3715414369E-03
    0.3000000000E+01    0.4694604809E-02    0.1172020521E-01    0.3132158547E-02    0.1145026126E-02    0.1099105403E-02
    0.5000000000E+01    0.7717622202E-02    0.1917704659E-01    0.5151198704E-02    0.1873452119E-02    0.1806873324E-02
    0.7000000000E+01    0.1066034257E-01    0.2636565878E-01    0.7117771512E-02    0.2575609291E-02    0.2495854044E-02
    0.9000000000E+01    0.1352678046E-01    0.3329957551E-01    0.9034108384E-02    0.3252822219E-02    0.3166986732E-02
    0.1100000000E+02    0.1632067802E-01    0.3999144051E-01    0.1090231321E-01    0.3906328408E-02    0.3821146832E-02
    0.1300000000E+02    0.1904552788E-01    0.4645307946E-01    0.1272437144E-01    0.4537285340E-02    0.4459151428E-02
    0.1500000000E+02    0.2170459382E-01    0.5269556520E-01    0.1450215831E-01    0.5146776840E-02    0.5081764063E-02
    0.1700000000E+02    0.2430092933E-01    0.5872927666E-01    0.1623744652E-01    0.5735818845E-02    0.5689699092E-02
    0.1900000000E+02    0.2683739445E-01    0.6456395241E-01    0.1793191318E-01    0.6305364637E-02    0.6283625617E-02
    0.2100000000E+02    0.2931667098E-01    0.7020873929E-01    0.1958714618E-01    0.6856309604E-02    0.6864171045E-02
    0.2300000000E+02    0.3174127632E-01    0.7567223664E-01    0.2120465019E-01    0.7389495563E-02    0.7431924320E-02
    0.2500000000E+02    0.3411357594E-01    0.8096253667E-01    0.2278585198E-01    0.7905714706E-02    0.7987438851E-02
    0.2700000000E+02    0.3643579482E-01    0.8608726126E-01    0.2433210555E-01    0.8405713207E-02    0.8531235184E-02
    0.2900000000E+02    0.3871002786E-01    0.9105359560E-01    0.2584469666E-01    0.8890194505E-02    0.9063803427E-02
    0.3100000000E+02    0.4093824931E-01    0.9586831903E-01    0.2732484718E-01    0.9359822323E-02    0.9585605468E-02
    0.3300000000E+02    0.4312232145E-01    0.1005378332E+00    0.2877371903E-01    0.9815223426E-02    0.1009707700E-01
    0.3500000000E+02    0.4526400251E-01    0.1050681881E+00    0.3019241781E-01    0.1025699016E-01    0.1059862938E-01
    0.3700000000E+02    0.4736495390E-01    0.1094651056E+00    0.3158199628E-01    0.1068568276E-01    0.1109065131E-01
    0.3900000000E+02    0.4942674689E-01    0.1137340016E+00    0.3294345743E-01    0.1110183153E-01    0.1157351041E-01
    0.4100000000E+02    0.5145086871E-01    0.1178800061E+00    0.3427775749E-01    0.1150593878E-01    0.1204755462E-01
    0.4300000000E+02    0.5343872816E-01    0.1219079818E+00    0.3558580858E-01    0.1189848064E-01    0.1251311357E-01
    0.4500000000E+02    0.5539166077E-01    0.1258225411E+00    0.3686848131E-01    0.1227990879E-01    0.1297049971E-01
    0.4700000000E+02    0.5731093360E-01    0.1296280622E+00    0.3812660710E-01    0.1265065193E-01    0.1342000949E-01
    0.4900000000E+02    0.5919774960E-01    0.1333287035E+00    0.3936098042E-01    0.1301111730E-01    0.1386192437E-01
    0.1000000000E+02    0.1493257290E-01    0.3667500699E-01    0.9974100539E-02    0.3582464515E-02    0.3496135979E-02
    0.3000000000E+02    0.3982977112E-01    0.9347950004E-01    0.2658875302E-01    0.9126825091E-02    0.9326022400E-02
    0.5000000000E+02    0.6012934568E-01    0.1351409371E+00    0.3996949857E-01    0.1318761753E-01    0.1408011781E-01
    0.7000000000E+02    0.7730684760E-01    0.1667428334E+00    0.5106088382E-01    0.1626259550E-01    0.1810364453E-01
    0.9000000000E+02    0.9224536698E-01    0.1913394124E+00    0.6046554206E-01    0.1865088544E-01    0.2160322168E-01
    0.1100000000E+03    0.1055082574E+00    0.2108744905E+00    0.6858709449E-01    0.2054290351E-01    0.2471066418E-01
    0.1300000000E+03    0.1174734050E+00    0.2266427025E+00    0.7570668467E-01    0.2206549855E-01    0.2751439395E-01
    0.1500000000E+03    0.1284047809E+00    0.2395386578E+00    0.8202658421E-01    0.2330634311E-01    0.3007617984E-01
    0.1700000000E+03    0.1384930615E+00    0.2501996733E+00    0.8769632631E-01    0.2432790827E-01    0.3244064097E-01
    0.1900000000E+03    0.1478799103E+00    0.2590915684E+00    0.9282904282E-01    0.2517586500E-01    0.3464092805E-01
    0.2100000000E+03    0.1566731343E+00    0.2665623505E+00    0.9751204907E-01    0.2588434173E-01    0.3670226954E-01
    0.2300000000E+03    0.1649564951E+00    0.2728769734E+00    0.1018139153E+00    0.2647932874E-01    0.3864426721E-01
    0.2500000000E+03    0.1727962621E+00    0.2782405129E+00    0.1057893190E+00    0.2698094831E-01    0.4048242959E-01
    0.2700000000E+03    0.1802457107E+00    0.2828140180E+00    0.1094824527E+00    0.2740500751E-01    0.4222922447E-01
    0.2900000000E+03    0.1873482839E+00    0.2867255995E+00    0.1129294675E+00    0.2776408453E-01    0.4389481864E-01
    0.3100000000E+03    0.1941398616E+00    0.2900783418E+00    0.1161602582E+00    0.2806830397E-01    0.4548760906E-01
    0.3300000000E+03    0.2006504204E+00    0.2929560500E+00    0.1191997883E+00    0.2832589983E-01    0.4701461118E-01
    0.3500000000E+03    0.2069052683E+00    0.2954274902E+00    0.1220690886E+00    0.2854363114E-01    0.4848174788E-01
    0.3700000000E+03    0.2129259769E+00    0.2975495644E+00    0.1247860201E+00    0.2872709307E-01    0.4989406756E-01
    0.3900000000E+03    0.2187310941E+00    0.2993697187E+00    0.1273658644E+00    0.2888095297E-01    0.5125591108E-01
    0.4100000000E+03    0.2243366975E+00    0.3009277912E+00    0.1298217844E+00    0.2900913150E-01    0.5257104111E-01
    0.4300000000E+03    0.2297568275E+00    0.3022574463E+00    0.1321651894E+00    0.2911494325E-01    0.5384274356E-01
    0.4500000000E+03    0.2350038301E+00    0.3033872987E+00    0.1344060255E+00    0.2920120693E-01    0.5507390783E-01
    0.4700000000E+03    0.2400886317E+00    0.3043418022E+00    0.1365530100E+00    0.2927033253E-01    0.5626709104E-01
    0.4900000000E+03    0.2450209599E+00    0.3051419595E+00    0.1386138210E+00    0.2932439088E-01    0.5742456978E-01
    0.1000000000E+03    0.9905934180E-01    0.2016471210E+00    0.6466688691E-01    0.1964986410E-01    0.2319965985E-01
    0.3000000000E+03    0.1907809515E+00    0.2884661916E+00    0.1145702281E+00    0.2792249798E-01    0.4469984726E-01
    0.5000000000E+03    0.2474327036E+00    0.3054899205E+00    0.1396140654E+00    0.2934633825E-01    0.5799056524E-01
    0.7000000000E+03    0.2893765511E+00    0.3076493276E+00    0.1563955830E+00    0.2932041469E-01    0.6783708476E-01
    0.9000000000E+03    0.3223136622E+00    0.3052889649E+00    0.1691151335E+00    0.2886638432E-01    0.7557369456E-01
    0.1100000000E+04    0.3489297753E+00    0.3014610857E+00    0.1794232857E+00    0.2828655876E-01    0.8182901967E-01
    0.1300000000E+04    0.3708288000E+00    0.2972574403E+00    0.1881311077E+00    0.2768855222E-01    0.8697854317E-01
    0.1500000000E+04    0.3890893477E+00    0.2931004312E+00    0.1956960177E+00    0.2711305222E-01    0.9127483493E-01
    0.1700000000E+04    0.4044839927E+00    0.2891515689E+00    0.2024013499E+00    0.2657455447E-01    0.9489884995E-01
    0.1900000000E+04    0.4175866634E+00    0.2854631279E+00    0.2084349505E+00    0.2607661812E-01    0.9798505105E-01
    0.2100000000E+04    0.4288338410E+00    0.2820404701E+00    0.2139279361E+00    0.2561818362E-01    0.1006357254E+00
    0.2300000000E+04    0.4385631068E+00    0.2788693380E+00    0.2189755875E+00    0.2519635305E-01    0.1029300031E+00
    0.2500000000E+04    0.4470390270E+00    0.2759282315E+00    0.2236494198E+00    0.2480764977E-01    0.1049299140E+00
    0.2700000000E+04    0.4544712679E+00    0.2731940611E+00    0.2280045523E+00    0.2444858717E-01    0.1066846277E+00
    0.2900000000E+04    0.4610276260E+00    0.2706446570E+00    0.2320844168E+00    0.2411591255E-01    0.1082335037E+00
    0.3100000000E+04    0.4668435892E+00    0.2682597803E+00    0.2359238820E+00    0.2380669610E-01    0.1096083300E+00
    0.3300000000E+04    0.4720294580E+00    0.2660214203E+00    0.2395513937E+00    0.2351834664E-01    0.1108349908E+00
    0.3500000000E+04    0.4766757156E+00    0.2639137606E+00    0.2429904821E+00    0.2324859419E-01    0.1119347243E+00
    0.3700000000E+04    0.4808571212E+00    0.2619230031E+00    0.2462608481E+00    0.2299545916E-01    0.1129250819E+00
    0.3900000000E+04    0.4846358583E+00    0.2600371428E+00    0.2493791635E+00    0.2275721790E-01    0.1138206654E+00
    0.4100000000E+04    0.4880639786E+00    0.2582457382E+00    0.2523596713E+00    0.2253236921E-01    0.1146337004E+00
    0.4300000000E+04    0.4911853140E+00    0.2565396965E+00    0.2552146422E+00    0.2231960373E-01    0.1153744836E+00
    0.4500000000E+04    0.4940369832E+00    0.2549110826E+00    0.2579547291E+00    0.2211777690E-01    0.1160517370E+00
    0.4700000000E+04    0.4966505879E+00    0.2533529530E+00    0.2605892433E+00    0.2192588561E-01    0.1166728874E+00
    0.4900000000E+04    0.4990531692E+00    0.2518592124E+00    0.2631263749E+00    0.2174304807E-01    0.1172442914E+00
    0.1000000000E+04    0.3362953931E+00    0.3034665133E+00    0.1745083420E+00    0.2858310336E-01    0.7885925803E-01
    0.3000000000E+04    0.4640207430E+00    0.2694328312E+00    0.2340322910E+00    0.2395854183E-01    0.1089409334E+00
    0.5000000000E+04    0.5001827218E+00    0.2511347851E+00    0.2643607189E+00    0.2165477782E-01    0.1175130773E+00
    0.7000000000E+04    0.5159118132E+00    0.2390112717E+00    0.2853258841E+00    0.2021745605E-01    0.1212689428E+00
    0.9000000000E+04    0.5244406464E+00    0.2298223216E+00    0.3014563347E+00    0.1917765964E-01    0.1233215980E+00
    0.1100000000E+05    0.5297131213E+00    0.2223630219E+00    0.3145923823E+00    0.1836266104E-01    0.1246010747E+00
    0.1300000000E+05    0.5332655420E+00    0.2160592750E+00    0.3256781857E+00    0.1769221719E-01    0.1254705427E+00
    0.1500000000E+05    0.5358084464E+00    0.2105899366E+00    0.3352669155E+00    0.1712278551E-01    0.1260983923E+00
    0.1700000000E+05    0.5377120629E+00    0.2057552817E+00    0.3437121377E+00    0.1662809061E-01    0.1265725936E+00
    0.1900000000E+05    0.5391869528E+00    0.2014216178E+00    0.3512542593E+00    0.1619102706E-01    0.1269433123E+00
    0.2100000000E+05    0.5403611684E+00    0.1974945334E+00    0.3580645069E+00    0.1579981311E-01    0.1272411404E+00
    0.2300000000E+05    0.5413168172E+00    0.1939045995E+00    0.3642693236E+00    0.1544597434E-01    0.1274857485E+00
    0.2500000000E+05    0.5421088506E+00    0.1905991141E+00    0.3699648306E+00    0.1512320288E-01    0.1276903390E+00
    0.2700000000E+05    0.5427753702E+00    0.1875370392E+00    0.3752258597E+00    0.1482667159E-01    0.1278640924E+00
    0.2900000000E+05    0.5433435909E+00    0.1846857427E+00    0.3801118403E+00    0.1455260103E-01    0.1280135853E+00
    0.3100000000E+05    0.5438334494E+00    0.1820188169E+00    0.3846707751E+00    0.1429797485E-01    0.1281436496E+00
    0.3300000000E+05    0.5442598721E+00    0.1795145705E+00    0.3889420049E+00    0.1406034609E-01    0.1282579138E+00
    0.3500000000E+05    0.5446342485E+00    0.1771549551E+00    0.3929581820E+00    0.1383770162E-01    0.1283591549E+00
    0.3700000000E+05    0.5449654147E+00    0.1749247846E+00    0.3967467100E+00    0.1362836489E-01    0.1284495337E+00
    0.3900000000E+05    0.5452603279E+00    0.1728111543E+00    0.4003308147E+00    0.1343092454E-01    0.1285307569E+00
    0.4100000000E+05    0.5455245383E+00    0.1708030025E+00    0.4037303540E+00    0.1324418113E-01    0.1286041900E+00
    0.4300000000E+05    0.5457625258E+00    0.1688907723E+00    0.4069624404E+00    0.1306710663E-01    0.1286709387E+00
    0.4500000000E+05    0.5459779453E+00    0.1670661490E+00    0.4100419256E+00    0.1289881321E-01    0.1287319077E+00
    0.4700000000E+05    0.5461738072E+00    0.1653218525E+00    0.4129817819E+00    0.1273852877E-01    0.1287878448E+00
    0.4900000000E+05    0.5463526129E+00    0.1636514715E+00    0.4157934072E+00    0.1258557772E-01    0.1288393729E+00
    0.1000000000E+05    0.5273589578E+00    0.2259207510E+00    0.3083269998E+00    0.1874830269E-01    0.1240284607E+00
    0.3000000000E+05    0.5435972853E+00    0.1833306854E+00    0.3824295529E+00    0.1442302186E-01    0.1280807959E+00
    0.5000000000E+05    0.5464362880E+00    0.1628422000E+00    0.4171543258E+00    0.1251166361E-01    0.1288636505E+00
    0.7000000000E+05    0.5475804264E+00    0.1494473989E+00    0.4395662180E+00    0.1130537419E-01    0.1292097219E+00
    0.9000000000E+05    0.5481893228E+00    0.1396071698E+00    0.4559054257E+00    0.1043869057E-01    0.1294108348E+00
    0.1100000000E+06    0.5485633158E+00    0.1318980025E+00    0.4686398609E+00    0.9770612955E-02    0.1295452270E+00
    0.1300000000E+06    0.5488141527E+00    0.1256038065E+00    0.4789972844E+00    0.9232048625E-02    0.1296429850E+00
    0.1500000000E+06    0.5489927135E+00    0.1203140839E+00    0.4876759531E+00    0.8784137139E-02    0.1297182539E+00
    0.1700000000E+06    0.5491254054E+00    0.1157721021E+00    0.4951099584E+00    0.8402933473E-02    0.1297786092E+00
    0.1900000000E+06    0.5492272611E+00    0.1118069094E+00    0.5015869842E+00    0.8072686382E-02    0.1298284981E+00
    0.2100000000E+06    0.5493074493E+00    0.1082991421E+00    0.5073071260E+00    0.7782510541E-02    0.1298707162E+00
    0.2300000000E+06    0.5493718695E+00    0.1051622933E+00    0.5124149330E+00    0.7524586904E-02    0.1299071167E+00
    0.2500000000E+06    0.5494244838E+00    0.1023317542E+00    0.5170180680E+00    0.7293121287E-02    0.1299389813E+00
    0.2700000000E+06    0.5494680480E+00    0.9975805817E-01    0.5211987650E+00    0.7083708389E-02    0.1299672273E+00
    0.2900000000E+06    0.5495045358E+00    0.9740253498E-01    0.5250211770E+00    0.6892925993E-02    0.1299925309E+00
    0.3100000000E+06    0.5495353958E+00    0.9523441221E-01    0.5285362606E+00    0.6718066414E-02    0.1300154024E+00
    0.3300000000E+06    0.5495617145E+00    0.9322882442E-01    0.5317851233E+00    0.6556953198E-02    0.1300362353E+00
    0.3500000000E+06    0.5495843216E+00    0.9136540895E-01    0.5348013784E+00    0.6407812651E-02    0.1300553383E+00
    0.3700000000E+06    0.5496038611E+00    0.8962729343E-01    0.5376128407E+00    0.6269181706E-02    0.1300729579E+00
    0.3900000000E+06    0.5496208400E+00    0.8800035097E-01    0.5402427700E+00    0.6139840511E-02    0.1300892932E+00
    0.4100000000E+06    0.5496356627E+00    0.8647264283E-01    0.5427108014E+00    0.6018762207E-02    0.1301045072E+00
    0.4300000000E+06    0.5496486550E+00    0.8503399468E-01    0.5450336506E+00    0.5905074928E-02    0.1301187347E+00
    0.4500000000E+06    0.5496600827E+00    0.8367567004E-01    0.5472256573E+00    0.5798032631E-02    0.1301320888E+00
    0.4700000000E+06    0.5496701640E+00    0.8239011539E-01    0.5492992086E+00    0.5696992422E-02    0.1301446645E+00
    0.4900000000E+06    0.5496790801E+00    0.8117075894E-01    0.5512650723E+00    0.5601396711E-02    0.1301565428E+00
    0.1000000000E+06    0.5483965391E+00    0.1355408941E+00    0.4626292284E+00    0.1008513530E-01    0.1294839299E+00
    0.3000000000E+06    0.5495205943E+00    0.9629672233E-01    0.5268143663E+00    0.6803652612E-02    0.1300042438E+00
    0.5000000000E+06    0.5496831495E+00    0.8058407963E-01    0.5522106102E+00    0.5555486073E-02    0.1301622424E+00
    0.7000000000E+06    0.5497296471E+00    0.7124451626E-01    0.5672359268E+00    0.4832105333E-02    0.1302522239E+00
    0.9000000000E+06    0.5497430011E+00    0.6480215476E-01    0.5775712736E+00    0.4341580191E-02    0.1303144689E+00
    0.1100000000E+07    0.5497436547E+00    0.5998371202E-01    0.5852862559E+00    0.3979420217E-02    0.1303618507E+00
    0.1300000000E+07    0.5497387092E+00    0.5618995594E-01    0.5913515427E+00    0.3697233613E-02    0.1304000248E+00
    0.1500000000E+07    0.5497311375E+00    0.5309461543E-01    0.5962943579E+00    0.3468996190E-02    0.1304319549E+00
    0.1700000000E+07    0.5497223369E+00    0.5050197582E-01    0.6004303662E+00    0.3279254161E-02    0.1304593805E+00
    0.1900000000E+07    0.5497130159E+00    0.4828619033E-01    0.6039622383E+00    0.3118155039E-02    0.1304834067E+00
    0.2100000000E+07    0.5497035509E+00    0.4636197970E-01    0.6070271405E+00    0.2979071542E-02    0.1305047785E+00
    0.2300000000E+07    0.5496941474E+00    0.4466913073E-01    0.6097218192E+00    0.2857354762E-02    0.1305240210E+00
    0.2500000000E+07    0.5496849182E+00    0.4316369746E-01    0.6121168184E+00    0.2749631483E-02    0.1305415184E+00
    0.2700000000E+07    0.5496759236E+00    0.4181271991E-01    0.6142650040E+00    0.2653385070E-02    0.1305575597E+00
    0.2900000000E+07    0.5496671932E+00    0.4059090610E-01    0.6162069135E+00    0.2566693648E-02    0.1305723678E+00
    0.3100000000E+07    0.5496587393E+00    0.3947846687E-01    0.6179742442E+00    0.2488060140E-02    0.1305861182E+00
    0.3300000000E+07    0.5496505631E+00    0.3845965706E-01    0.6195922008E+00    0.2416298271E-02    0.1305989517E+00
    0.3500000000E+07    0.5496426599E+00    0.3752176491E-01    0.6210811214E+00    0.2350453957E-02    0.1306109826E+00
    0.3700000000E+07    0.5496350211E+00    0.3665439524E-01    0.6224576294E+00    0.2289749765E-02    0.1306223051E+00
    0.3900000000E+07    0.5496276365E+00    0.3584895017E-01    0.6237354679E+00    0.2233544828E-02    0.1306329981E+00
    0.4100000000E+07    0.5496204946E+00    0.3509824596E-01    0.6249261147E+00    0.2181305372E-02    0.1306431275E+00
    0.4300000000E+07    0.5496135838E+00    0.3439622556E-01    0.6260392434E+00    0.2132582682E-02    0.1306527499E+00
    0.4500000000E+07    0.5496068927E+00    0.3373773978E-01    0.6270830750E+00    0.2086996376E-02    0.1306619136E+00
    0.4700000000E+07    0.5496004099E+00    0.3311837848E-01    0.6280646479E+00    0.2044221542E-02    0.1306706601E+00
    0.4900000000E+07    0.5495941246E+00    0.3253433874E-01    0.6289900294E+00    0.2003978721E-02    0.1306790259E+00
    0.1000000000E+07    0.5497443229E+00    0.6223645348E-01    0.5816809128E+00    0.4148224860E-02    0.1303395729E+00
    0.3000000000E+07    0.5496629314E+00    0.4002207994E-01    0.6171106956E+00    0.2526450024E-02    0.1305793657E+00
    0.5000000000E+07    0.5495910529E+00    0.3225451601E-01    0.6294333206E+00    0.1984729939E-02    0.1306830760E+00
    0.7000000000E+07    0.5495378110E+00    0.2790082145E-01    0.6363241016E+00    0.1688039411E-02    0.1307500692E+00
    0.9000000000E+07    0.5494959412E+00    0.2500454185E-01    0.6409013988E+00    0.1493767603E-02    0.1307996468E+00
    0.1100000000E+08    0.5494615177E+00    0.2289291707E-01    0.6442350333E+00    0.1353829752E-02    0.1308390219E+00
    0.1300000000E+08    0.5494323147E+00    0.2126220301E-01    0.6468072851E+00    0.1246815065E-02    0.1308716869E+00
    0.1500000000E+08    0.5494069659E+00    0.1995198855E-01    0.6488725654E+00    0.1161537989E-02    0.1308996003E+00
    0.1700000000E+08    0.5493845764E+00    0.1886832203E-01    0.6505797477E+00    0.1091505379E-02    0.1309239715E+00
    0.1900000000E+08    0.5493645292E+00    0.1795195534E-01    0.6520226458E+00    0.1032653481E-02    0.1309455998E+00
    0.2100000000E+08    0.5493463817E+00    0.1716338826E-01    0.6532637656E+00    0.9822908910E-03    0.1309650410E+00
    0.2300000000E+08    0.5493298056E+00    0.1647511673E-01    0.6543466060E+00    0.9385545498E-03    0.1309826976E+00
    0.2500000000E+08    0.5493145506E+00    0.1586730890E-01    0.6553025171E+00    0.9001081589E-03    0.1309988702E+00
    0.2700000000E+08    0.5493004220E+00    0.1532524849E-01    0.6561547523E+00    0.8659648513E-03    0.1310137891E+00
