  Pressure (Pa) 22mC5-400 (mol/kg) 2mC6-400 (mol/kg) 3mC6-400 (mol/kg) 33mC5-400 (mol/kg) 23mC5-400 (mol/kg)
    0.1000000000E+01    0.2110874996E-02    0.6335938458E-02    0.2632792557E-02    0.1289663671E-03    0.9266179323E-04
    0.3000000000E+01    0.6215532584E-02    0.1846752149E-01    0.7718703895E-02    0.3758980063E-03    0.2728484886E-03
    0.5000000000E+01    0.1017310258E-01    0.2992552669E-01    0.1257955493E-01    0.6091144318E-03    0.4465823430E-03
    0.7000000000E+01    0.1399353931E-01    0.4076122515E-01    0.1723128388E-01    0.8296592873E-03    0.6143000070E-03
    0.9000000000E+01    0.1768588735E-01    0.5102089101E-01    0.2168833055E-01    0.1038474509E-02    0.7763982262E-03
    0.1100000000E+02    0.2125838406E-01    0.6074639142E-01    0.2596380955E-01    0.1236412333E-02    0.9332383425E-03
    0.1300000000E+02    0.2471854868E-01    0.6997569513E-01    0.3006966000E-01    0.1424245646E-02    0.1085150197E-02
    0.1500000000E+02    0.2807325968E-01    0.7874331255E-01    0.3401677525E-01    0.1602676944E-02    0.1232435526E-02
    0.1700000000E+02    0.3132882236E-01    0.8708067788E-01    0.3781511579E-01    0.1772346108E-02    0.1375370926E-02
    0.1900000000E+02    0.3449102802E-01    0.9501648174E-01    0.4147380779E-01    0.1933837175E-02    0.1514210445E-02
    0.2100000000E+02    0.3756520592E-01    0.1025769619E+00    0.4500122932E-01    0.2087684256E-02    0.1649187866E-02
    0.2300000000E+02    0.4055626900E-01    0.1097861578E+00    0.4840508611E-01    0.2234376717E-02    0.1780518711E-02
    0.2500000000E+02    0.4346875429E-01    0.1166661346E+00    0.5169247819E-01    0.2374363734E-02    0.1908402012E-02
    0.2700000000E+02    0.4630685864E-01    0.1232371795E+00    0.5486995881E-01    0.2508058301E-02    0.2033021878E-02
    0.2900000000E+02    0.4907447045E-01    0.1295179766E+00    0.5794358652E-01    0.2635840777E-02    0.2154548891E-02
    0.3100000000E+02    0.5177519791E-01    0.1355257607E+00    0.6091897138E-01    0.2758062014E-02    0.2273141339E-02
    0.3300000000E+02    0.5441239414E-01    0.1412764536E+00    0.6380131612E-01    0.2875046151E-02    0.2388946321E-02
    0.3500000000E+02    0.5698917967E-01    0.1467847862E+00    0.6659545279E-01    0.2987093078E-02    0.2502100735E-02
    0.3700000000E+02    0.5950846255E-01    0.1520644069E+00    0.6930587552E-01    0.3094480651E-02    0.2612732158E-02
    0.3900000000E+02    0.6197295646E-01    0.1571279782E+00    0.7193676981E-01    0.3197466658E-02    0.2720959639E-02
    0.4100000000E+02    0.6438519690E-01    0.1619872632E+00    0.7449203887E-01    0.3296290585E-02    0.2826894414E-02
    0.4300000000E+02    0.6674755583E-01    0.1666532041E+00    0.7697532729E-01    0.3391175197E-02    0.2930640542E-02
    0.4500000000E+02    0.6906225487E-01    0.1711359910E+00    0.7939004229E-01    0.3482327963E-02    0.3032295488E-02
    0.4700000000E+02    0.7133137724E-01    0.1754451257E+00    0.8173937296E-01    0.3569942330E-02    0.3131950646E-02
    0.4900000000E+02    0.7355687853E-01    0.1795894777E+00    0.8402630767E-01    0.3654198881E-02    0.3229691811E-02
    0.1000000000E+02    0.1948663130E-01    0.5594795295E-01    0.2384799387E-01    0.1138753042E-02    0.8554542359E-03
    0.3000000000E+02    0.5043297945E-01    0.1325549709E+00    0.5944322503E-01    0.2697625696E-02    0.2214202492E-02
    0.5000000000E+02    0.7465384994E-01    0.1816024720E+00    0.8514725940E-01    0.3695121150E-02    0.3277870033E-02
    0.7000000000E+02    0.9469566609E-01    0.2149604595E+00    0.1048869649E+00    0.4372895834E-02    0.4158169564E-02
    0.9000000000E+02    0.1119179813E+00    0.2386113174E+00    0.1207203727E+00    0.4852759492E-02    0.4914748746E-02
    0.1100000000E+03    0.1271193649E+00    0.2558816308E+00    0.1338366418E+00    0.5202458113E-02    0.5582644900E-02
    0.1300000000E+03    0.1408033434E+00    0.2687608024E+00    0.1449742923E+00    0.5462514998E-02    0.6183951200E-02
    0.1500000000E+03    0.1533053090E+00    0.2785072279E+00    0.1546182149E+00    0.5658570232E-02    0.6733384132E-02
    0.1700000000E+03    0.1648586536E+00    0.2859532329E+00    0.1631011774E+00    0.5807588323E-02    0.7241184847E-02
    0.1900000000E+03    0.1756317004E+00    0.2916697102E+00    0.1706599346E+00    0.5921209887E-02    0.7714739494E-02
    0.2100000000E+03    0.1857495168E+00    0.2960602285E+00    0.1774680530E+00    0.6007667636E-02    0.8159536213E-02
    0.2300000000E+03    0.1953074054E+00    0.2994174224E+00    0.1836560336E+00    0.6072934484E-02    0.8579757098E-02
    0.2500000000E+03    0.2043795804E+00    0.3019581434E+00    0.1893241428E+00    0.6121439308E-02    0.8978658867E-02
    0.2700000000E+03    0.2130249344E+00    0.3038461257E+00    0.1945508717E+00    0.6156528482E-02    0.9358825903E-02
    0.2900000000E+03    0.2212909827E+00    0.3052070307E+00    0.1993986777E+00    0.6180772274E-02    0.9722343334E-02
    0.3100000000E+03    0.2292166294E+00    0.3061386913E+00    0.2039179797E+00    0.6196173501E-02    0.1007091841E-01
    0.3300000000E+03    0.2368341500E+00    0.3067182444E+00    0.2081500020E+00    0.6204312814E-02    0.1040596747E-01
    0.3500000000E+03    0.2441706396E+00    0.3070071966E+00    0.2121288375E+00    0.6206451900E-02    0.1072867955E-01
    0.3700000000E+03    0.2512490906E+00    0.3070550855E+00    0.2158829716E+00    0.6203608089E-02    0.1104006362E-01
    0.3900000000E+03    0.2580892058E+00    0.3069021693E+00    0.2194364257E+00    0.6196609170E-02    0.1134098431E-01
    0.4100000000E+03    0.2647080213E+00    0.3065814305E+00    0.2228096278E+00    0.6186134225E-02    0.1163218920E-01
    0.4300000000E+03    0.2711203894E+00    0.3061200882E+00    0.2260200830E+00    0.6172744475E-02    0.1191433004E-01
    0.4500000000E+03    0.2773393579E+00    0.3055407533E+00    0.2290828973E+00    0.6156906835E-02    0.1218797940E-01
    0.4700000000E+03    0.2833764698E+00    0.3048623213E+00    0.2320111904E+00    0.6139012120E-02    0.1245364381E-01
    0.4900000000E+03    0.2892420046E+00    0.3041006674E+00    0.2348164244E+00    0.6119389242E-02    0.1271177435E-01
    0.1000000000E+03    0.1197348040E+00    0.2478975366E+00    0.1275643901E+00    0.5040895405E-02    0.5258181348E-02
    0.3000000000E+03    0.2252942028E+00    0.3057212780E+00    0.2016966269E+00    0.6189470899E-02    0.9898404164E-02
    0.5000000000E+03    0.2921133459E+00    0.3036929049E+00    0.2361760890E+00    0.6109018402E-02    0.1283814235E-01
    0.7000000000E+03    0.3423511158E+00    0.2935159934E+00    0.2588150749E+00    0.5859773800E-02    0.1504978246E-01
    0.9000000000E+03    0.3820983384E+00    0.2824240249E+00    0.2757598221E+00    0.5592690831E-02    0.1680059978E-01
    0.1100000000E+04    0.4143164680E+00    0.2720328382E+00    0.2893415510E+00    0.5342411445E-02    0.1822055870E-01
    0.1300000000E+04    0.4408374710E+00    0.2626900836E+00    0.3006937742E+00    0.5116730406E-02    0.1939007300E-01
    0.1500000000E+04    0.4629282655E+00    0.2543890470E+00    0.3104544196E+00    0.4915682421E-02    0.2036476920E-01
    0.1700000000E+04    0.4815144089E+00    0.2470230499E+00    0.3190190011E+00    0.4736987802E-02    0.2118529756E-01
    0.1900000000E+04    0.4972925970E+00    0.2404664957E+00    0.3266502233E+00    0.4577850309E-02    0.2188226557E-01
    0.2100000000E+04    0.5107971467E+00    0.2346013831E+00    0.3335318007E+00    0.4435577856E-02    0.2247915349E-01
    0.2300000000E+04    0.5224433947E+00    0.2293248812E+00    0.3397974454E+00    0.4307779764E-02    0.2299421785E-01
    0.2500000000E+04    0.5325577252E+00    0.2245501114E+00    0.3455476295E+00    0.4192404325E-02    0.2344180878E-01
    0.2700000000E+04    0.5413990705E+00    0.2202046164E+00    0.3508598391E+00    0.4087717382E-02    0.2383331356E-01
    0.2900000000E+04    0.5491746407E+00    0.2162282268E+00    0.3557951406E+00    0.3992262188E-02    0.2417784696E-01
    0.3100000000E+04    0.5560516045E+00    0.2125709682E+00    0.3604025478E+00    0.3904816683E-02    0.2448276414E-01
    0.3300000000E+04    0.5621658621E+00    0.2091912225E+00    0.3647220210E+00    0.3824354305E-02    0.2475404582E-01
    0.3500000000E+04    0.5676286984E+00    0.2060541897E+00    0.3687865831E+00    0.3750010216E-02    0.2499659057E-01
    0.3700000000E+04    0.5725318718E+00    0.2031306310E+00    0.3726238489E+00    0.3681053053E-02    0.2521443833E-01
    0.3900000000E+04    0.5769515380E+00    0.2003958513E+00    0.3762571526E+00    0.3616861666E-02    0.2541094281E-01
    0.4100000000E+04    0.5809512979E+00    0.1978288809E+00    0.3797063949E+00    0.3556906104E-02    0.2558890546E-01
    0.4300000000E+04    0.5845845825E+00    0.1954118178E+00    0.3829886890E+00    0.3500732120E-02    0.2575068030E-01
    0.4500000000E+04    0.5878965323E+00    0.1931292975E+00    0.3861188610E+00    0.3447948545E-02    0.2589825651E-01
    0.4700000000E+04    0.5909254874E+00    0.1909680645E+00    0.3891098424E+00    0.3398216980E-02    0.2603332400E-01
    0.4900000000E+04    0.5937041782E+00    0.1889166260E+00    0.3919729816E+00    0.3351243371E-02    0.2615732571E-01
    0.1000000000E+04    0.3990168550E+00    0.2771055393E+00    0.2828839037E+00    0.5464670269E-02    0.1754615674E-01
    0.3000000000E+04    0.5527163086E+00    0.2143624837E+00    0.3581371496E+00    0.3947606543E-02    0.2433485538E-01
    0.5000000000E+04    0.5950086077E+00    0.1879288994E+00    0.3933597861E+00    0.3328709303E-02    0.2621557081E-01
    0.7000000000E+04    0.6130295764E+00    0.1720752575E+00    0.4162972536E+00    0.2974995883E-02    0.2702323448E-01
    0.9000000000E+04    0.6226725450E+00    0.1608676804E+00    0.4331527766E+00    0.2734602114E-02    0.2745910494E-01
    0.1100000000E+05    0.6285803785E+00    0.1522421793E+00    0.4463767281E+00    0.2555111445E-02    0.2772855225E-01
    0.1300000000E+05    0.6325355879E+00    0.1452583958E+00    0.4571921520E+00    0.2413169990E-02    0.2791062871E-01
    0.1500000000E+05    0.6353537020E+00    0.1394106611E+00    0.4662975946E+00    0.2296533980E-02    0.2804160046E-01
    0.1700000000E+05    0.6374561047E+00    0.1343956621E+00    0.4741292191E+00    0.2198036451E-02    0.2814025912E-01
    0.1900000000E+05    0.6390808502E+00    0.1300169806E+00    0.4809772874E+00    0.2113138267E-02    0.2821725163E-01
    0.2100000000E+05    0.6403719203E+00    0.1261400435E+00    0.4870444749E+00    0.2038790496E-02    0.2827903680E-01
    0.2300000000E+05    0.6414212168E+00    0.1226685844E+00    0.4924777241E+00    0.1972850029E-02    0.2832974981E-01
    0.2500000000E+05    0.6422900104E+00    0.1195313535E+00    0.4973868470E+00    0.1913755139E-02    0.2837215615E-01
    0.2700000000E+05    0.6430206453E+00    0.1166741425E+00    0.5018559796E+00    0.1860333932E-02    0.2840817309E-01
    0.2900000000E+05    0.6436432816E+00    0.1140547577E+00    0.5059509484E+00    0.1811685435E-02    0.2843917059E-01
    0.3100000000E+05    0.6441799595E+00    0.1116397227E+00    0.5097241793E+00    0.1767102678E-02    0.2846615304E-01
    0.3300000000E+05    0.6446471456E+00    0.1094020392E+00    0.5132180712E+00    0.1726021174E-02    0.2848987325E-01
    0.3500000000E+05    0.6450573806E+00    0.1073196243E+00    0.5164673751E+00    0.1687983373E-02    0.2851090647E-01
    0.3700000000E+05    0.6454203784E+00    0.1053741921E+00    0.5195009101E+00    0.1652613516E-02    0.2852969973E-01
    0.3900000000E+05    0.6457437757E+00    0.1035504354E+00    0.5223428261E+00    0.1619599427E-02    0.2854660566E-01
    0.4100000000E+05    0.6460336574E+00    0.1018354167E+00    0.5250135495E+00    0.1588679095E-02    0.2856190615E-01
    0.4300000000E+05    0.6462949291E+00    0.1002181070E+00    0.5275305017E+00    0.1559630589E-02    0.2857582927E-01
    0.4500000000E+05    0.6465315893E+00    0.9868903107E-01    0.5299086541E+00    0.1532264382E-02    0.2858856148E-01
    0.4700000000E+05    0.6467469283E+00    0.9723999134E-01    0.5321609606E+00    0.1506417415E-02    0.2860025678E-01
    0.4900000000E+05    0.6469436779E+00    0.9586385036E-01    0.5342987002E+00    0.1481948450E-02    0.2861104344E-01
    0.1000000000E+05    0.6259479033E+00    0.1563055504E+00    0.4401251595E+00    0.2639079102E-02    0.2760818539E-01
    0.3000000000E+05    0.6439212282E+00    0.1128235148E+00    0.5078749279E+00    0.1788923981E-02    0.2845311177E-01
    0.5000000000E+05    0.6470358112E+00    0.9520113293E-01    0.5353277423E+00    0.1470191628E-02    0.2861613039E-01
    0.7000000000E+05    0.6483016905E+00    0.8459643344E-01    0.5517535180E+00    0.1284401982E-02    0.2868908901E-01
    0.9000000000E+05    0.6489838303E+00    0.7721906490E-01    0.5631336122E+00    0.1157718770E-02    0.2873205112E-01
    0.1100000000E+06    0.6494088592E+00    0.7166688498E-01    0.5716725198E+00    0.1063760571E-02    0.2876111903E-01
    0.1300000000E+06    0.6496983828E+00    0.6727437418E-01    0.5784123781E+00    0.9902765257E-03    0.2878250413E-01
    0.1500000000E+06    0.6499078936E+00    0.6367665021E-01    0.5839226018E+00    0.9306558476E-03    0.2879913913E-01
    0.1700000000E+06    0.6500662832E+00    0.6065358687E-01    0.5885457299E+00    0.8809597630E-03    0.2881260206E-01
    0.1900000000E+06    0.6501900590E+00    0.5806296320E-01    0.5925025452E+00    0.8386693737E-03    0.2882382382E-01
    0.2100000000E+06    0.6502893305E+00    0.5580801110E-01    0.5959429651E+00    0.8020855943E-03    0.2883339250E-01
    0.2300000000E+06    0.6503706311E+00    0.5382016428E-01    0.5989730301E+00    0.7700135285E-03    0.2884169980E-01
    0.2500000000E+06    0.6504383688E+00    0.5204922567E-01    0.6016702537E+00    0.7415841777E-03    0.2884901791E-01
    0.2700000000E+06    0.6504956241E+00    0.5045744371E-01    0.6040928533E+00    0.7161478597E-03    0.2885554257E-01
    0.2900000000E+06    0.6505446140E+00    0.4901577860E-01    0.6062855582E+00    0.6932074878E-03    0.2886141867E-01
    0.3100000000E+06    0.6505869744E+00    0.4770145865E-01    0.6082834056E+00    0.6723751709E-03    0.2886675606E-01
    0.3300000000E+06    0.6506239380E+00    0.4649632931E-01    0.6101143016E+00    0.6533430525E-03    0.2887163978E-01
    0.3500000000E+06    0.6506564516E+00    0.4538570682E-01    0.6118007977E+00    0.6358631650E-03    0.2887613684E-01
    0.3700000000E+06    0.6506852538E+00    0.4435756317E-01    0.6133613515E+00    0.6197331738E-03    0.2888030091E-01
    0.3900000000E+06    0.6507109294E+00    0.4340193458E-01    0.6148112421E+00    0.6047860729E-03    0.2888417552E-01
    0.4100000000E+06    0.6507339472E+00    0.4251048408E-01    0.6161632449E+00    0.5908825974E-03    0.2888779647E-01
    0.4300000000E+06    0.6507546874E+00    0.4167617288E-01    0.6174281394E+00    0.5779055430E-03    0.2889119345E-01
    0.4500000000E+06    0.6507734615E+00    0.4089300976E-01    0.6186150956E+00    0.5657554493E-03    0.2889439141E-01
    0.4700000000E+06    0.6507905271E+00    0.4015585739E-01    0.6197319719E+00    0.5543472754E-03    0.2889741144E-01
    0.4900000000E+06    0.6508060991E+00    0.3946028094E-01    0.6207855489E+00    0.5436078090E-03    0.2890027153E-01
    0.1000000000E+06    0.6492185384E+00    0.7426637165E-01    0.5676774152E+00    0.1107602634E-02    0.2874781839E-01
    0.3000000000E+06    0.6505665380E+00    0.4834392797E-01    0.6073069516E+00    0.6825486685E-03    0.2886414890E-01
    0.5000000000E+06    0.6508133826E+00    0.3912685992E-01    0.6212904705E+00    0.5384686849E-03    0.2890164652E-01
    0.7000000000E+06    0.6509123596E+00    0.3392594885E-01    0.6291578281E+00    0.4590691357E-03    0.2892357546E-01
    0.9000000000E+06    0.6509638684E+00    0.3045222362E-01    0.6344035009E+00    0.4068840571E-03    0.2893898069E-01
    0.1100000000E+07    0.6509945074E+00    0.2791262317E-01    0.6382340800E+00    0.3691965177E-03    0.2895082701E-01
    0.1300000000E+07    0.6510142632E+00    0.2594737834E-01    0.6411957744E+00    0.3403196528E-03    0.2896044025E-01
    0.1500000000E+07    0.6510276937E+00    0.2436583956E-01    0.6435775998E+00    0.3172732180E-03    0.2896852450E-01
    0.1700000000E+07    0.6510371608E+00    0.2305605091E-01    0.6455490834E+00    0.2983230163E-03    0.2897549732E-01
    0.1900000000E+07    0.6510440032E+00    0.2194726124E-01    0.6472172620E+00    0.2823815767E-03    0.2898162629E-01
    0.2100000000E+07    0.6510490326E+00    0.2099221885E-01    0.6486535678E+00    0.2687275047E-03    0.2898709302E-01
    0.2300000000E+07    0.6510527670E+00    0.2015797358E-01    0.6499077816E+00    0.2568607428E-03    0.2899202631E-01
    0.2500000000E+07    0.6510555515E+00    0.1942073635E-01    0.6510158244E+00    0.2464221925E-03    0.2899652081E-01
    0.2700000000E+07    0.6510576235E+00    0.1876283466E-01    0.6520043687E+00    0.2371463794E-03    0.2900064806E-01
    0.2900000000E+07    0.6510591515E+00    0.1817082240E-01    0.6528937000E+00    0.2288322131E-03    0.2900446347E-01
    0.3100000000E+07    0.6510602575E+00    0.1763425915E-01    0.6536995632E+00    0.2213241933E-03    0.2900801079E-01
    0.3300000000E+07    0.6510610320E+00    0.1714489538E-01    0.6544343954E+00    0.2144999171E-03    0.2901132520E-01
    0.3500000000E+07    0.6510615433E+00    0.1669611287E-01    0.6551081710E+00    0.2082615337E-03    0.2901443537E-01
    0.3700000000E+07    0.6510618434E+00    0.1628253078E-01    0.6557289975E+00    0.2025297509E-03    0.2901736500E-01
    0.3900000000E+07    0.6510619730E+00    0.1589972232E-01    0.6563035431E+00    0.1972395387E-03    0.2902013389E-01
    0.4100000000E+07    0.6510619637E+00    0.1554400704E-01    0.6568373506E+00    0.1923369902E-03    0.2902275876E-01
    0.4300000000E+07    0.6510618410E+00    0.1521229597E-01    0.6573350709E+00    0.1877769877E-03    0.2902525384E-01
    0.4500000000E+07    0.6510616250E+00    0.1490197438E-01    0.6578006402E+00    0.1835214416E-03    0.2902763137E-01
    0.4700000000E+07    0.6510613321E+00    0.1461081180E-01    0.6582374155E+00    0.1795379416E-03    0.2902990191E-01
    0.4900000000E+07    0.6510609755E+00    0.1433689211E-01    0.6586482802E+00    0.1757987119E-03    0.2903207470E-01
    0.1000000000E+07    0.6509809804E+00    0.2909381802E-01    0.6364529038E+00    0.3866747230E-03    0.2894524486E-01
    0.3000000000E+07    0.6510597510E+00    0.1789616905E-01    0.6533062217E+00    0.2249857455E-03    0.2900626827E-01
    0.5000000000E+07    0.6510607769E+00    0.1420587174E-01    0.6588447885E+00    0.1740130807E-03    0.2903312699E-01
    0.7000000000E+07    0.6510552952E+00    0.1218545970E-01    0.6618738079E+00    0.1467273981E-03    0.2905056398E-01
    0.9000000000E+07    0.6510490077E+00    0.1085998234E-01    0.6638596800E+00    0.1291015806E-03    0.2906349981E-01
    0.1100000000E+08    0.6510429550E+00    0.9902811562E-02    0.6652930934E+00    0.1165232043E-03    0.2907378866E-01
    0.1300000000E+08    0.6510373480E+00    0.9168884330E-02    0.6663918117E+00    0.1069707206E-03    0.2908233244E-01
    0.1500000000E+08    0.6510321988E+00    0.8582489978E-02    0.6672694288E+00    0.9939993875E-04    0.2908963849E-01
    0.1700000000E+08    0.6510274685E+00    0.8099685798E-02    0.6679918476E+00    0.9320997662E-04    0.2909602072E-01
    0.1900000000E+08    0.6510231086E+00    0.7692961639E-02    0.6686003130E+00    0.8802739545E-04    0.2910168691E-01
    0.2100000000E+08    0.6510190729E+00    0.7344086995E-02    0.6691221496E+00    0.8360629923E-04    0.2910678178E-01
    0.2300000000E+08    0.6510153211E+00    0.7040432630E-02    0.6695762822E+00    0.7977730638E-04    0.2911141016E-01
    0.2500000000E+08    0.6510118184E+00    0.6772932243E-02    0.6699762938E+00    0.7641944005E-04    0.2911565043E-01
    0.2700000000E+08    0.6510085355E+00    0.6534884024E-02    0.6703322232E+00    0.7344368821E-04    0.2911956272E-01
