  Pressure (Pa) 22mC5-400 (mol/kg) 2mC6-400 (mol/kg) 3mC6-400 (mol/kg) 33mC5-400 (mol/kg) 23mC5-400 (mol/kg)
    0.1000000000E+01    0.2120878452E-02    0.7987112752E-03    0.1591815386E-02    0.6502943595E-03    0.1862014413E-03
    0.3000000000E+01    0.6302246870E-02    0.2366598310E-02    0.4736812669E-02    0.1926769556E-02    0.5533066682E-03
    0.5000000000E+01    0.1040527661E-01    0.3896187144E-02    0.7831398048E-02    0.3171974233E-02    0.9135395016E-03
    0.7000000000E+01    0.1443248249E-01    0.5388728518E-02    0.1087685118E-01    0.4386926230E-02    0.1267120517E-02
    0.9000000000E+01    0.1838627018E-01    0.6845420629E-02    0.1387440818E-01    0.5572600705E-02    0.1614260719E-02
    0.1100000000E+02    0.2226894209E-01    0.8267411836E-02    0.1682526344E-01    0.6729932346E-02    0.1955162055E-02
    0.1300000000E+02    0.2608270283E-01    0.9655803209E-02    0.1973057140E-01    0.7859817426E-02    0.2290017895E-02
    0.1500000000E+02    0.2982966431E-01    0.1101165092E-01    0.2259144820E-01    0.8963115751E-02    0.2619013482E-02
    0.1700000000E+02    0.3351185062E-01    0.1233596849E-01    0.2540897329E-01    0.1004065248E-01    0.2942326352E-02
    0.1900000000E+02    0.3713120248E-01    0.1362972891E-01    0.2818419091E-01    0.1109321985E-01    0.3260126733E-02
    0.2100000000E+02    0.4068958151E-01    0.1489386662E-01    0.3091811151E-01    0.1212157876E-01    0.3572577913E-02
    0.2300000000E+02    0.4418877422E-01    0.1612927939E-01    0.3361171313E-01    0.1312646036E-01    0.3879836596E-02
    0.2500000000E+02    0.4763049575E-01    0.1733683009E-01    0.3626594271E-01    0.1410856739E-01    0.4182053224E-02
    0.2700000000E+02    0.5101639343E-01    0.1851734834E-01    0.3888171729E-01    0.1506857562E-01    0.4479372290E-02
    0.2900000000E+02    0.5434805005E-01    0.1967163212E-01    0.4145992521E-01    0.1600713507E-01    0.4771932631E-02
    0.3100000000E+02    0.5762698703E-01    0.2080044920E-01    0.4400142721E-01    0.1692487124E-01    0.5059867699E-02
    0.3300000000E+02    0.6085466736E-01    0.2190453857E-01    0.4650705752E-01    0.1782238624E-01    0.5343305820E-02
    0.3500000000E+02    0.6403249837E-01    0.2298461177E-01    0.4897762488E-01    0.1870025985E-01    0.5622370442E-02
    0.3700000000E+02    0.6716183437E-01    0.2404135415E-01    0.5141391349E-01    0.1955905057E-01    0.5897180359E-02
    0.3900000000E+02    0.7024397914E-01    0.2507542599E-01    0.5381668394E-01    0.2039929654E-01    0.6167849935E-02
    0.4100000000E+02    0.7328018823E-01    0.2608746372E-01    0.5618667412E-01    0.2122151648E-01    0.6434489305E-02
    0.4300000000E+02    0.7627167122E-01    0.2707808090E-01    0.5852460006E-01    0.2202621055E-01    0.6697204568E-02
    0.4500000000E+02    0.7921959378E-01    0.2804786925E-01    0.6083115671E-01    0.2281386115E-01    0.6956097977E-02
    0.4700000000E+02    0.8212507967E-01    0.2899739963E-01    0.6310701875E-01    0.2358493369E-01    0.7211268106E-02
    0.4900000000E+02    0.8498921261E-01    0.2992722290E-01    0.6535284130E-01    0.2433987736E-01    0.7462810017E-02
    0.1000000000E+02    0.2033635559E-01    0.7560683949E-02    0.1535560046E-01    0.6154752486E-02    0.1785478964E-02
    0.3000000000E+02    0.5599401572E-01    0.2023917715E-01    0.4273521170E-01    0.1646856790E-01    0.4916470187E-02
    0.5000000000E+02    0.8640609987E-01    0.3038491126E-01    0.6646468733E-01    0.2471143696E-01    0.7587249176E-02
    0.7000000000E+02    0.1128085805E+00    0.3862411765E-01    0.8727018265E-01    0.3139379365E-01    0.9906232255E-02
    0.9000000000E+02    0.1360651675E+00    0.4539708262E-01    0.1056947217E+00    0.3687486962E-01    0.1194918488E-01
    0.1100000000E+03    0.1567981890E+00    0.5102186992E-01    0.1221527550E+00    0.4141444143E-01    0.1377070024E-01
    0.1300000000E+03    0.1754679608E+00    0.5573359205E-01    0.1369662749E+00    0.4520473628E-01    0.1541116053E-01
    0.1500000000E+03    0.1924227931E+00    0.5970950616E-01    0.1503893792E+00    0.4839083124E-01    0.1690112293E-01
    0.1700000000E+03    0.2079315482E+00    0.6308555681E-01    0.1626253805E+00    0.5108410754E-01    0.1826417535E-01
    0.1900000000E+03    0.2222054509E+00    0.6596757756E-01    0.1738389757E+00    0.5337136609E-01    0.1951884957E-01
    0.2100000000E+03    0.2354130710E+00    0.6843905625E-01    0.1841650665E+00    0.5532115060E-01    0.2067993539E-01
    0.2300000000E+03    0.2476908449E+00    0.7056663089E-01    0.1937152597E+00    0.5698822558E-01    0.2175940364E-01
    0.2500000000E+03    0.2591506123E+00    0.7240405167E-01    0.2025827303E+00    0.5841680677E-01    0.2276706729E-01
    0.2700000000E+03    0.2698851117E+00    0.7399508464E-01    0.2108459112E+00    0.5964293023E-01    0.2371106354E-01
    0.2900000000E+03    0.2799720522E+00    0.7537567158E-01    0.2185713267E+00    0.6069621583E-01    0.2459821102E-01
    0.3100000000E+03    0.2894771745E+00    0.7657555821E-01    0.2258157935E+00    0.6160119768E-01    0.2543427832E-01
    0.3300000000E+03    0.2984565828E+00    0.7761953675E-01    0.2326281488E+00    0.6237834018E-01    0.2622418857E-01
    0.3500000000E+03    0.3069585431E+00    0.7852840477E-01    0.2390506204E+00    0.6304482260E-01    0.2697217721E-01
    0.3700000000E+03    0.3150248865E+00    0.7931971259E-01    0.2451199216E+00    0.6361515126E-01    0.2768191506E-01
    0.3900000000E+03    0.3226921134E+00    0.8000835143E-01    0.2508681348E+00    0.6410164163E-01    0.2835660530E-01
    0.4100000000E+03    0.3299922742E+00    0.8060702034E-01    0.2563234292E+00    0.6451480127E-01    0.2899906059E-01
    0.4300000000E+03    0.3369536746E+00    0.8112659961E-01    0.2615106483E+00    0.6486363651E-01    0.2961176508E-01
    0.4500000000E+03    0.3436014478E+00    0.8157645189E-01    0.2664517937E+00    0.6515589982E-01    0.3019692453E-01
    0.4700000000E+03    0.3499580208E+00    0.8196466658E-01    0.2711664266E+00    0.6539829080E-01    0.3075650726E-01
    0.4900000000E+03    0.3560434981E+00    0.8229825936E-01    0.2756720023E+00    0.6559662048E-01    0.3129227782E-01
    0.1000000000E+03    0.1467152500E+00    0.4833670597E-01    0.1141475921E+00    0.3924902751E-01    0.1288482603E-01
    0.3000000000E+03    0.2847936315E+00    0.7599654924E-01    0.2222504569E+00    0.6116588047E-01    0.2502230423E-01
    0.5000000000E+03    0.3589903028E+00    0.8244651233E-01    0.2778513427E+00    0.6568086906E-01    0.3155173617E-01
    0.7000000000E+03    0.4072747020E+00    0.8367106948E-01    0.3135124575E+00    0.6598572335E-01    0.3580507484E-01
    0.9000000000E+03    0.4414605223E+00    0.8319598067E-01    0.3391339893E+00    0.6499436748E-01    0.3881934098E-01
    0.1100000000E+04    0.4669146721E+00    0.8210808439E-01    0.3588483972E+00    0.6359343227E-01    0.4106581302E-01
    0.1300000000E+04    0.4865487455E+00    0.8080619736E-01    0.3747244381E+00    0.6209748184E-01    0.4280025611E-01
    0.1500000000E+04    0.5021079197E+00    0.7945196926E-01    0.3879289756E+00    0.6062583610E-01    0.4417602808E-01
    0.1700000000E+04    0.5147080397E+00    0.7811418427E-01    0.3991782842E+00    0.5922314367E-01    0.4529121863E-01
    0.1900000000E+04    0.5250965230E+00    0.7682200711E-01    0.4089407270E+00    0.5790351788E-01    0.4621155305E-01
    0.2100000000E+04    0.5337923411E+00    0.7558671160E-01    0.4175379332E+00    0.5666823181E-01    0.4698268335E-01
    0.2300000000E+04    0.5411665143E+00    0.7441122935E-01    0.4251995637E+00    0.5551326307E-01    0.4763725774E-01
    0.2500000000E+04    0.5474908534E+00    0.7329458258E-01    0.4320949134E+00    0.5443263425E-01    0.4819920235E-01
    0.2700000000E+04    0.5529686998E+00    0.7223402400E-01    0.4383521212E+00    0.5341991193E-01    0.4868642219E-01
    0.2900000000E+04    0.5577549682E+00    0.7122609538E-01    0.4440703606E+00    0.5246886662E-01    0.4911256259E-01
    0.3100000000E+04    0.5619695869E+00    0.7026715556E-01    0.4493278619E+00    0.5157374114E-01    0.4948819064E-01
    0.3300000000E+04    0.5657067313E+00    0.6935364007E-01    0.4541873567E+00    0.5072933498E-01    0.4982160702E-01
    0.3500000000E+04    0.5690413036E+00    0.6848218256E-01    0.4586998746E+00    0.4993100380E-01    0.5011941583E-01
    0.3700000000E+04    0.5720335658E+00    0.6764966409E-01    0.4629074515E+00    0.4917462181E-01    0.5038693208E-01
    0.3900000000E+04    0.5747325093E+00    0.6685322511E-01    0.4668451033E+00    0.4845653069E-01    0.5062847818E-01
    0.4100000000E+04    0.5771783424E+00    0.6609025858E-01    0.4705422895E+00    0.4777348603E-01    0.5084760278E-01
    0.4300000000E+04    0.5794043523E+00    0.6535839414E-01    0.4740240171E+00    0.4712260652E-01    0.5104724467E-01
    0.4500000000E+04    0.5814383171E+00    0.6465547861E-01    0.4773116850E+00    0.4650132790E-01    0.5122985710E-01
    0.4700000000E+04    0.5833035879E+00    0.6397955574E-01    0.4804237385E+00    0.4590736233E-01    0.5139750301E-01
    0.4900000000E+04    0.5850199281E+00    0.6332884662E-01    0.4833761826E+00    0.4533866298E-01    0.5155192898E-01
    0.1000000000E+04    0.4550603065E+00    0.8269530995E-01    0.3495709456E+00    0.6431848539E-01    0.4001933757E-01
    0.3000000000E+04    0.5599273310E+00    0.7074072834E-01    0.4467524704E+00    0.5201465224E-01    0.4930612637E-01
    0.5000000000E+04    0.5858276088E+00    0.6301243527E-01    0.4847969875E+00    0.4506320678E-01    0.5162465829E-01
    0.7000000000E+04    0.5971771348E+00    0.5768302034E-01    0.5074522675E+00    0.4052122199E-01    0.5265188400E-01
    0.9000000000E+04    0.6034832508E+00    0.5368483030E-01    0.5231373228E+00    0.3722148703E-01    0.5322903738E-01
    0.1100000000E+05    0.6074781954E+00    0.5052226381E-01    0.5349069416E+00    0.3466846157E-01    0.5359878646E-01
    0.1300000000E+05    0.6102289210E+00    0.4792887945E-01    0.5441977859E+00    0.3260929215E-01    0.5385624957E-01
    0.1500000000E+05    0.6122353001E+00    0.4574586587E-01    0.5517936045E+00    0.3089852826E-01    0.5404615756E-01
    0.1700000000E+05    0.6137618778E+00    0.4387135440E-01    0.5581658026E+00    0.2944528181E-01    0.5419227241E-01
    0.1900000000E+05    0.6149614845E+00    0.4223632665E-01    0.5636183546E+00    0.2818921261E-01    0.5430837358E-01
    0.2100000000E+05    0.6159284570E+00    0.4079199569E-01    0.5683578020E+00    0.2708836116E-01    0.5440299891E-01
    0.2300000000E+05    0.6167241252E+00    0.3950268778E-01    0.5725303403E+00    0.2611246037E-01    0.5448172012E-01
    0.2500000000E+05    0.6173900601E+00    0.3834158516E-01    0.5762429084E+00    0.2523901795E-01    0.5454832821E-01
    0.2700000000E+05    0.6179554237E+00    0.3728805649E-01    0.5795758741E+00    0.2445090194E-01    0.5460549271E-01
    0.2900000000E+05    0.6184412696E+00    0.3632591620E-01    0.5825910195E+00    0.2373478912E-01    0.5465514824E-01
    0.3100000000E+05    0.6188631732E+00    0.3544225139E-01    0.5853367630E+00    0.2308013242E-01    0.5469873147E-01
    0.3300000000E+05    0.6192329019E+00    0.3462660880E-01    0.5878516843E+00    0.2247845304E-01    0.5473733196E-01
    0.3500000000E+05    0.6195595097E+00    0.3387041742E-01    0.5901669707E+00    0.2192284263E-01    0.5477179122E-01
    0.3700000000E+05    0.6198500758E+00    0.3316656975E-01    0.5923081557E+00    0.2140760527E-01    0.5480276972E-01
    0.3900000000E+05    0.6201102139E+00    0.3250911222E-01    0.5942963800E+00    0.2092799493E-01    0.5483079319E-01
    0.4100000000E+05    0.6203444326E+00    0.3189301272E-01    0.5961493235E+00    0.2048001963E-01    0.5485628546E-01
    0.4300000000E+05    0.6205563939E+00    0.3131398319E-01    0.5978819060E+00    0.2006029303E-01    0.5487959208E-01
    0.4500000000E+05    0.6207491028E+00    0.3076834261E-01    0.5995068204E+00    0.1966592036E-01    0.5490099768E-01
    0.4700000000E+05    0.6209250480E+00    0.3025290971E-01    0.6010349451E+00    0.1929440977E-01    0.5492073889E-01
    0.4900000000E+05    0.6210863082E+00    0.2976491826E-01    0.6024756666E+00    0.1894360246E-01    0.5493901409E-01
    0.1000000000E+05    0.6056830756E+00    0.5201916631E-01    0.5294000971E+00    0.3587091279E-01    0.5343212964E-01
    0.3000000000E+05    0.6186594045E+00    0.3587497765E-01    0.5839949575E+00    0.2340035050E-01    0.5467762401E-01
    0.5000000000E+05    0.6211619893E+00    0.2953044514E-01    0.6031658401E+00    0.1877536509E-01    0.5494765533E-01
    0.7000000000E+05    0.6222127212E+00    0.2582749311E-01    0.6138923227E+00    0.1614644033E-01    0.5507322702E-01
    0.9000000000E+05    0.6227871609E+00    0.2330857487E-01    0.6210099727E+00    0.1438905103E-01    0.5514861845E-01
    0.1100000000E+06    0.6231475729E+00    0.2144514523E-01    0.6261860260E+00    0.1310584863E-01    0.5520022476E-01
    0.1300000000E+06    0.6233938181E+00    0.1999102005E-01    0.6301736001E+00    0.1211490838E-01    0.5523848382E-01
    0.1500000000E+06    0.6235721270E+00    0.1881339989E-01    0.6333702835E+00    0.1131935393E-01    0.5526840557E-01
    0.1700000000E+06    0.6237068082E+00    0.1783327908E-01    0.6360087657E+00    0.1066214600E-01    0.5529271766E-01
    0.1900000000E+06    0.6238118499E+00    0.1700022623E-01    0.6382356482E+00    0.1010718943E-01    0.5531304350E-01
    0.2100000000E+06    0.6238958635E+00    0.1628028900E-01    0.6401485684E+00    0.9630364176E-02    0.5533041575E-01
    0.2300000000E+06    0.6239644361E+00    0.1564963472E-01    0.6418154390E+00    0.9214849661E-02    0.5534552607E-01
    0.2500000000E+06    0.6240213481E+00    0.1509096130E-01    0.6432851763E+00    0.8848505393E-02    0.5535885725E-01
    0.2700000000E+06    0.6240692473E+00    0.1459135442E-01    0.6445940404E+00    0.8522317136E-02    0.5537075782E-01
    0.2900000000E+06    0.6241100423E+00    0.1414094790E-01    0.6457695640E+00    0.8229431089E-02    0.5538148655E-01
    0.3100000000E+06    0.6241451430E+00    0.1373205348E-01    0.6468330848E+00    0.7964529779E-02    0.5539124020E-01
    0.3300000000E+06    0.6241756128E+00    0.1335857693E-01    0.6478014330E+00    0.7723415274E-02    0.5540017143E-01
    0.3500000000E+06    0.6242022685E+00    0.1301561529E-01    0.6486880879E+00    0.7502722897E-02    0.5540840081E-01
    0.3700000000E+06    0.6242257476E+00    0.1269917208E-01    0.6495039916E+00    0.7299719699E-02    0.5541602502E-01
    0.3900000000E+06    0.6242465548E+00    0.1240595186E-01    0.6502581324E+00    0.7112159531E-02    0.5542312267E-01
    0.4100000000E+06    0.6242650947E+00    0.1213320904E-01    0.6509579727E+00    0.6938176819E-02    0.5542975842E-01
    0.4300000000E+06    0.6242816952E+00    0.1187863484E-01    0.6516097671E+00    0.6776207391E-02    0.5543598607E-01
    0.4500000000E+06    0.6242966248E+00    0.1164027147E-01    0.6522188031E+00    0.6624928558E-02    0.5544185076E-01
    0.4700000000E+06    0.6243101055E+00    0.1141644618E-01    0.6527895857E+00    0.6483213161E-02    0.5544739078E-01
    0.4900000000E+06    0.6243223223E+00    0.1120571977E-01    0.6533259802E+00    0.6350093871E-02    0.5545263878E-01
    0.1000000000E+06    0.6229859885E+00    0.2231408444E-01    0.6237816853E+00    0.1370239211E-01    0.5517655289E-01
    0.3000000000E+06    0.6241282312E+00    0.1393172451E-01    0.6463141828E+00    0.8093767096E-02    0.5538647485E-01
    0.5000000000E+06    0.6243280062E+00    0.1110487263E-01    0.6535823433E+00    0.6286492156E-02    0.5545516221E-01
    0.7000000000E+06    0.6244025598E+00    0.9545499435E-02    0.6575181285E+00    0.5312088975E-02    0.5549544069E-01
    0.9000000000E+06    0.6244379777E+00    0.8518306982E-02    0.6600809926E+00    0.4680195330E-02    0.5552376529E-01
    0.1100000000E+07    0.6244567338E+00    0.7774580230E-02    0.6619213245E+00    0.4228116088E-02    0.5554555705E-01
    0.1300000000E+07    0.6244671125E+00    0.7203244356E-02    0.6633260720E+00    0.3884172955E-02    0.5556324588E-01
    0.1500000000E+07    0.6244728173E+00    0.6746109738E-02    0.6644442251E+00    0.3611211331E-02    0.5557812381E-01
    0.1700000000E+07    0.6244757246E+00    0.6369309705E-02    0.6653618915E+00    0.3387795065E-02    0.5559095775E-01
    0.1900000000E+07    0.6244768722E+00    0.6051596870E-02    0.6661327843E+00    0.3200575151E-02    0.5560223943E-01
    0.2100000000E+07    0.6244768728E+00    0.5778866794E-02    0.6667923872E+00    0.3040747553E-02    0.5561230268E-01
    0.2300000000E+07    0.6244761067E+00    0.5541334755E-02    0.6673652135E+00    0.2902239663E-02    0.5562138436E-01
    0.2500000000E+07    0.6244748196E+00    0.5331968100E-02    0.6678688176E+00    0.2780709380E-02    0.5562965854E-01
    0.2700000000E+07    0.6244731750E+00    0.5145562975E-02    0.6683161466E+00    0.2672958808E-02    0.5563725685E-01
    0.2900000000E+07    0.6244712849E+00    0.4978173889E-02    0.6687169882E+00    0.2576573761E-02    0.5564428120E-01
    0.3100000000E+07    0.6244692271E+00    0.4826746941E-02    0.6690788981E+00    0.2489693014E-02    0.5565081211E-01
    0.3300000000E+07    0.6244670573E+00    0.4688875945E-02    0.6694078152E+00    0.2410855495E-02    0.5565691429E-01
    0.3500000000E+07    0.6244648154E+00    0.4562635514E-02    0.6697084810E+00    0.2338896102E-02    0.5566264053E-01
    0.3700000000E+07    0.6244625302E+00    0.4446463954E-02    0.6699847335E+00    0.2272872858E-02    0.5566803442E-01
    0.3900000000E+07    0.6244602232E+00    0.4339079271E-02    0.6702397173E+00    0.2212014836E-02    0.5567313242E-01
    0.4100000000E+07    0.6244579100E+00    0.4239417761E-02    0.6704760369E+00    0.2155684216E-02    0.5567796529E-01
    0.4300000000E+07    0.6244556023E+00    0.4146588337E-02    0.6706958703E+00    0.2103348130E-02    0.5568255923E-01
    0.4500000000E+07    0.6244533086E+00    0.4059838035E-02    0.6709010553E+00    0.2054557469E-02    0.5568693677E-01
    0.4700000000E+07    0.6244510353E+00    0.3978525594E-02    0.6710931545E+00    0.2008930692E-02    0.5569111736E-01
    0.4900000000E+07    0.6244487871E+00    0.3902100972E-02    0.6712735064E+00    0.1966141297E-02    0.5569511796E-01
    0.1000000000E+07    0.6244487579E+00    0.8119735372E-02    0.6610688736E+00    0.4437327204E-02    0.5553528754E-01
    0.3000000000E+07    0.6244702730E+00    0.4900628464E-02    0.6689024062E+00    0.2532044638E-02    0.5564760397E-01
    0.5000000000E+07    0.6244476734E+00    0.3865570623E-02    0.6713596441E+00    0.1945721180E-02    0.5569705549E-01
    0.7000000000E+07    0.6244271256E+00    0.3304283467E-02    0.6726773250E+00    0.1634782256E-02    0.5572916198E-01
    0.9000000000E+07    0.6244097587E+00    0.2938127321E-02    0.6735306818E+00    0.1435027383E-02    0.5575298140E-01
    0.1100000000E+08    0.6243949400E+00    0.2674734236E-02    0.6741412483E+00    0.1293012406E-02    0.5577192729E-01
    0.1300000000E+08    0.6243820795E+00    0.2473352447E-02    0.6746060865E+00    0.1185462950E-02    0.5578766020E-01
    0.1500000000E+08    0.6243707435E+00    0.2312813498E-02    0.6749753513E+00    0.1100411912E-02    0.5580111420E-01
    0.1700000000E+08    0.6243606193E+00    0.2180875695E-02    0.6752779253E+00    0.1030996882E-02    0.5581286722E-01
    0.1900000000E+08    0.6243514779E+00    0.2069897464E-02    0.6755317744E+00    0.9729649397E-03    0.5582330185E-01
    0.2100000000E+08    0.6243431483E+00    0.1974827039E-02    0.6757487398E+00    0.9235221891E-03    0.5583268451E-01
    0.2300000000E+08    0.6243354996E+00    0.1892171922E-02    0.6759369862E+00    0.8807478773E-03    0.5584120824E-01
    0.2500000000E+08    0.6243284300E+00    0.1819429309E-02    0.6761023510E+00    0.8432724730E-03    0.5584901734E-01
    0.2700000000E+08    0.6243218585E+00    0.1754751964E-02    0.6762491336E+00    0.8100897969E-03    0.5585622256E-01
