  Pressure (Pa) 22mC5-400 (mol/kg) 2mC6-400 (mol/kg) 3mC6-400 (mol/kg) 33mC5-400 (mol/kg) 23mC5-400 (mol/kg)
    0.1000000000E+01    0.2113956101E-02    0.4756766632E-02    0.3687536518E-02    0.6454951535E-04    0.1855939763E-03
    0.3000000000E+01    0.6242011380E-02    0.1389144827E-01    0.1081997480E-01    0.1885117108E-03    0.5480207116E-03
    0.5000000000E+01    0.1024341185E-01    0.2255106581E-01    0.1764749397E-01    0.3060323501E-03    0.8993349709E-03
    0.7000000000E+01    0.1412540503E-01    0.3076882222E-01    0.2419062460E-01    0.4175614284E-03    0.1240172557E-02
    0.9000000000E+01    0.1789467771E-01    0.3857495436E-01    0.3046806616E-01    0.5235087392E-03    0.1571120086E-02
    0.1100000000E+02    0.2155740958E-01    0.4599705462E-01    0.3649688777E-01    0.6242482333E-03    0.1892719691E-02
    0.1300000000E+02    0.2511932070E-01    0.5306035169E-01    0.4229270305E-01    0.7201218255E-03    0.2205473185E-02
    0.1500000000E+02    0.2858571383E-01    0.5978795638E-01    0.4786982293E-01    0.8114427275E-03    0.2509845777E-02
    0.1700000000E+02    0.3196151210E-01    0.6620107758E-01    0.5324138947E-01    0.8984983741E-03    0.2806269374E-02
    0.1900000000E+02    0.3525129266E-01    0.7231921236E-01    0.5841949358E-01    0.9815530007E-03    0.3095145531E-02
    0.2100000000E+02    0.3845931685E-01    0.7816031380E-01    0.6341527868E-01    0.1060849918E-02    0.3376848102E-02
    0.2300000000E+02    0.4158955720E-01    0.8374093956E-01    0.6823903233E-01    0.1136613527E-02    0.3651725603E-02
    0.2500000000E+02    0.4464572174E-01    0.8907638368E-01    0.7290026738E-01    0.1209051102E-02    0.3920103349E-02
    0.2700000000E+02    0.4763127586E-01    0.9418079374E-01    0.7740779406E-01    0.1278354382E-02    0.4182285367E-02
    0.2900000000E+02    0.5054946206E-01    0.9906727539E-01    0.8176978411E-01    0.1344700987E-02    0.4438556134E-02
    0.3100000000E+02    0.5340331775E-01    0.1037479855E+00    0.8599382803E-01    0.1408255679E-02    0.4689182134E-02
    0.3300000000E+02    0.5619569143E-01    0.1082342160E+00    0.9008698621E-01    0.1469171497E-02    0.4934413278E-02
    0.3500000000E+02    0.5892925728E-01    0.1125364680E+00    0.9405583478E-01    0.1527590768E-02    0.5174484185E-02
    0.3700000000E+02    0.6160652847E-01    0.1166645200E+00    0.9790650675E-01    0.1583646023E-02    0.5409615350E-02
    0.3900000000E+02    0.6422986926E-01    0.1206274877E+00    0.1016447290E+00    0.1637460813E-02    0.5640014203E-02
    0.4100000000E+02    0.6680150596E-01    0.1244338789E+00    0.1052758556E+00    0.1689150451E-02    0.5865876073E-02
    0.4300000000E+02    0.6932353704E-01    0.1280916429E+00    0.1088048981E+00    0.1738822681E-02    0.6087385072E-02
    0.4500000000E+02    0.7179794223E-01    0.1316082149E+00    0.1122365523E+00    0.1786578282E-02    0.6304714898E-02
    0.4700000000E+02    0.7422659096E-01    0.1349905564E+00    0.1155752234E+00    0.1832511615E-02    0.6518029571E-02
    0.4900000000E+02    0.7661125004E-01    0.1382451921E+00    0.1188250482E+00    0.1876711120E-02    0.6727484106E-02
    0.1000000000E+02    0.1973899349E-01    0.4233237932E-01    0.3351254638E-01    0.5745073840E-03    0.1733056116E-02
    0.3000000000E+02    0.5198424894E-01    0.1014326268E+00    0.8389859620E-01    0.1376817495E-02    0.4564558738E-02
    0.5000000000E+02    0.7778760926E-01    0.1398265481E+00    0.1204178676E+00    0.1898186817E-02    0.6830809955E-02
    0.7000000000E+02    0.9936696134E-01    0.1660508294E+00    0.1484405752E+00    0.2254320480E-02    0.8726398562E-02
    0.9000000000E+02    0.1179903903E+00    0.1845880673E+00    0.1708435877E+00    0.2505987458E-02    0.1036258724E-01
    0.1100000000E+03    0.1344396534E+00    0.1980038645E+00    0.1893139870E+00    0.2687979751E-02    0.1180797093E-01
    0.1300000000E+03    0.1492255102E+00    0.2078650100E+00    0.2049104209E+00    0.2821553523E-02    0.1310736771E-01
    0.1500000000E+03    0.1626974525E+00    0.2151780339E+00    0.2183331110E+00    0.2920371330E-02    0.1429144565E-01
    0.1700000000E+03    0.1751038176E+00    0.2206163855E+00    0.2300651539E+00    0.2993580377E-02    0.1538199714E-01
    0.1900000000E+03    0.1866267013E+00    0.2246459458E+00    0.2404515654E+00    0.3047513314E-02    0.1639500192E-01
    0.2100000000E+03    0.1974032306E+00    0.2275981061E+00    0.2497459558E+00    0.3086678603E-02    0.1734249379E-01
    0.2300000000E+03    0.2075390612E+00    0.2297142153E+00    0.2581393562E+00    0.3114362955E-02    0.1823374487E-01
    0.2500000000E+03    0.2171172393E+00    0.2311736292E+00    0.2657787089E+00    0.3133011562E-02    0.1907604317E-01
    0.2700000000E+03    0.2262041948E+00    0.2321119798E+00    0.2727791166E+00    0.3144475804E-02    0.1987521855E-01
    0.2900000000E+03    0.2348538995E+00    0.2326334047E+00    0.2792321886E+00    0.3150179101E-02    0.2063600760E-01
    0.3100000000E+03    0.2431108200E+00    0.2328189333E+00    0.2852118675E+00    0.3151230665E-02    0.2136231269E-01
    0.3300000000E+03    0.2510120538E+00    0.2327323595E+00    0.2907785867E+00    0.3148505188E-02    0.2205738957E-01
    0.3500000000E+03    0.2585889062E+00    0.2324244324E+00    0.2959822935E+00    0.3142699730E-02    0.2272398560E-01
    0.3700000000E+03    0.2658680695E+00    0.2319358988E+00    0.3008646859E+00    0.3134375020E-02    0.2336444333E-01
    0.3900000000E+03    0.2728725203E+00    0.2312997447E+00    0.3054608932E+00    0.3123985913E-02    0.2398077921E-01
    0.4100000000E+03    0.2796222097E+00    0.2305428698E+00    0.3098007561E+00    0.3111904138E-02    0.2457474420E-01
    0.4300000000E+03    0.2861346016E+00    0.2296873542E+00    0.3139098148E+00    0.3098435533E-02    0.2514787092E-01
    0.4500000000E+03    0.2924250959E+00    0.2287514280E+00    0.3178100802E+00    0.3083833225E-02    0.2570151092E-01
    0.4700000000E+03    0.2985073660E+00    0.2277502209E+00    0.3215206424E+00    0.3068307834E-02    0.2623686418E-01
    0.4900000000E+03    0.3043936293E+00    0.2266963468E+00    0.3250581552E+00    0.3052035445E-02    0.2675500295E-01
    0.1000000000E+03    0.1264501340E+00    0.1918213848E+00    0.1804935052E+00    0.2604136243E-02    0.1110591304E-01
    0.3000000000E+03    0.2390289872E+00    0.2327638208E+00    0.2822771485E+00    0.3151226942E-02    0.2100325382E-01
    0.5000000000E+03    0.3072667330E+00    0.2261530290E+00    0.3267666539E+00    0.3043666283E-02    0.2700792184E-01
    0.7000000000E+03    0.3566181806E+00    0.2143357536E+00    0.3546084743E+00    0.2862611708E-02    0.3135384051E-01
    0.9000000000E+03    0.3943917805E+00    0.2028219418E+00    0.3746701012E+00    0.2685855338E-02    0.3468245129E-01
    0.1100000000E+04    0.4241618593E+00    0.1925949888E+00    0.3902543244E+00    0.2528026341E-02    0.3730752326E-01
    0.1300000000E+04    0.4480954413E+00    0.1837079139E+00    0.4029384781E+00    0.2390296903E-02    0.3941934085E-01
    0.1500000000E+04    0.4676413713E+00    0.1760025044E+00    0.4135953072E+00    0.2270580559E-02    0.4114516571E-01
    0.1700000000E+04    0.4838186262E+00    0.1692909183E+00    0.4227573543E+00    0.2166213696E-02    0.4257452925E-01
    0.1900000000E+04    0.4973661589E+00    0.1634036118E+00    0.4307730950E+00    0.2074713173E-02    0.4377237843E-01
    0.2100000000E+04    0.5088315443E+00    0.1581990957E+00    0.4378828310E+00    0.1993960609E-02    0.4478685383E-01
    0.2300000000E+04    0.5186275255E+00    0.1535625161E+00    0.4442591664E+00    0.1922207039E-02    0.4565425233E-01
    0.2500000000E+04    0.5270697629E+00    0.1494014365E+00    0.4500301907E+00    0.1858025534E-02    0.4640234079E-01
    0.2700000000E+04    0.5344027997E+00    0.1456414694E+00    0.4552935305E+00    0.1800254837E-02    0.4705263602E-01
    0.2900000000E+04    0.5408183137E+00    0.1422225116E+00    0.4601252687E+00    0.1747947940E-02    0.4762200773E-01
    0.3100000000E+04    0.5464681715E+00    0.1390957082E+00    0.4645858249E+00    0.1700329124E-02    0.4812382523E-01
    0.3300000000E+04    0.5514739005E+00    0.1362210702E+00    0.4687239610E+00    0.1656759398E-02    0.4856878973E-01
    0.3500000000E+04    0.5559336552E+00    0.1335656241E+00    0.4725795847E+00    0.1616709125E-02    0.4896554649E-01
    0.3700000000E+04    0.5599273979E+00    0.1311019801E+00    0.4761857598E+00    0.1579736496E-02    0.4932114025E-01
    0.3900000000E+04    0.5635207976E+00    0.1288072207E+00    0.4795701774E+00    0.1545470605E-02    0.4964135796E-01
    0.4100000000E+04    0.5667681919E+00    0.1266620359E+00    0.4827562529E+00    0.1513598115E-02    0.4993098922E-01
    0.4300000000E+04    0.5697148598E+00    0.1246500456E+00    0.4857639571E+00    0.1483852721E-02    0.5019402616E-01
    0.4500000000E+04    0.5723987815E+00    0.1227572659E+00    0.4886104559E+00    0.1456006766E-02    0.5043381831E-01
    0.4700000000E+04    0.5748520131E+00    0.1209716861E+00    0.4913106075E+00    0.1429864553E-02    0.5065319340E-01
    0.4900000000E+04    0.5771017679E+00    0.1192829308E+00    0.4938773553E+00    0.1405256963E-02    0.5085455263E-01
    0.1000000000E+04    0.4101200132E+00    0.1975354048E+00    0.3828999971E+00    0.2604368164E-02    0.3606912325E-01
    0.3000000000E+04    0.5437307349E+00    0.1406252737E+00    0.4623986612E+00    0.1723595311E-02    0.4788063746E-01
    0.5000000000E+04    0.5781577365E+00    0.1184719991E+00    0.4951143022E+00    0.1393481983E-02    0.5094912896E-01
    0.7000000000E+04    0.5927615484E+00    0.1056664897E+00    0.5149882589E+00    0.1211367131E-02    0.5226277463E-01
    0.9000000000E+04    0.6006233152E+00    0.9688450272E-01    0.5289099991E+00    0.1090906023E-02    0.5297690947E-01
    0.1100000000E+05    0.6054772629E+00    0.9029980799E-01    0.5394433613E+00    0.1003021723E-02    0.5342232441E-01
    0.1300000000E+05    0.6087511296E+00    0.8508711132E-01    0.5478120985E+00    0.9349111284E-03    0.5372588217E-01
    0.1500000000E+05    0.6110993705E+00    0.8080696975E-01    0.5546905074E+00    0.8799279195E-03    0.5394591942E-01
    0.1700000000E+05    0.6128615139E+00    0.7719881740E-01    0.5604871624E+00    0.8342200649E-03    0.5411279968E-01
    0.1900000000E+05    0.6142302866E+00    0.7409599703E-01    0.5654670557E+00    0.7953725904E-03    0.5424381575E-01
    0.2100000000E+05    0.6153228263E+00    0.7138575712E-01    0.5698111036E+00    0.7617799014E-03    0.5434951378E-01
    0.2300000000E+05    0.6162142568E+00    0.6898843873E-01    0.5736478844E+00    0.7323248178E-03    0.5443668062E-01
    0.2500000000E+05    0.6169548898E+00    0.6684579025E-01    0.5770717850E+00    0.7062012740E-03    0.5450987746E-01
    0.2700000000E+05    0.6175796437E+00    0.6491400170E-01    0.5801539640E+00    0.6828102025E-03    0.5457228105E-01
    0.2900000000E+05    0.6181134880E+00    0.6315934674E-01    0.5829492800E+00    0.6616952804E-03    0.5462617116E-01
    0.3100000000E+05    0.6185747371E+00    0.6155534499E-01    0.5855008376E+00    0.6425016138E-03    0.5467322589E-01
    0.3300000000E+05    0.6189771209E+00    0.6008085139E-01    0.5878430652E+00    0.6249482376E-03    0.5471470780E-01
    0.3500000000E+05    0.6193311294E+00    0.5871873254E-01    0.5900038565E+00    0.6088092608E-03    0.5475158501E-01
    0.3700000000E+05    0.6196449118E+00    0.5745492679E-01    0.5920060961E+00    0.5939006088E-03    0.5478461233E-01
    0.3900000000E+05    0.6199248929E+00    0.5627776246E-01    0.5938687688E+00    0.5800704897E-03    0.5481438702E-01
    0.4100000000E+05    0.6201762048E+00    0.5517745376E-01    0.5956077816E+00    0.5671924042E-03    0.5484138789E-01
    0.4300000000E+05    0.6204029951E+00    0.5414572190E-01    0.5972365812E+00    0.5551599311E-03    0.5486600334E-01
    0.4500000000E+05    0.6206086520E+00    0.5317550604E-01    0.5987666269E+00    0.5438827763E-03    0.5488855179E-01
    0.4700000000E+05    0.6207959695E+00    0.5226073969E-01    0.6002077555E+00    0.5332837374E-03    0.5490929677E-01
    0.4900000000E+05    0.6209672719E+00    0.5139617575E-01    0.6015684679E+00    0.5232963423E-03    0.5492845836E-01
    0.1000000000E+05    0.6033097824E+00    0.9338205596E-01    0.5345055872E+00    0.1043900645E-02    0.5322286503E-01
    0.3000000000E+05    0.6183522399E+00    0.6233994305E-01    0.5842532022E+00    0.6518773291E-03    0.5465046596E-01
    0.5000000000E+05    0.6210475392E+00    0.5098126933E-01    0.6022210157E+00    0.5185137073E-03    0.5493750443E-01
    0.7000000000E+05    0.6221533461E+00    0.4446803044E-01    0.6124247230E+00    0.4443173886E-03    0.5506793730E-01
    0.9000000000E+05    0.6227508348E+00    0.4007359506E-01    0.6192657068E+00    0.3952063115E-03    0.5514536227E-01
    0.1100000000E+06    0.6231230224E+00    0.3683801931E-01    0.6242800514E+00    0.3595490586E-03    0.5519800652E-01
    0.1300000000E+06    0.6233760768E+00    0.3432083699E-01    0.6281678187E+00    0.3321132946E-03    0.5523686489E-01
    0.1500000000E+06    0.6235586709E+00    0.3228662447E-01    0.6313012152E+00    0.3101426916E-03    0.5526716308E-01
    0.1700000000E+06    0.6236962204E+00    0.3059619624E-01    0.6338993673E+00    0.2920262015E-03    0.5529172651E-01
    0.1900000000E+06    0.6238032742E+00    0.2916110865E-01    0.6361010338E+00    0.2767497121E-03    0.5531222814E-01
    0.2100000000E+06    0.6238887524E+00    0.2792202245E-01    0.6379990406E+00    0.2636382619E-03    0.5532972788E-01
    0.2300000000E+06    0.6239584232E+00    0.2683739670E-01    0.6396582097E+00    0.2522226212E-03    0.5534493341E-01
    0.2500000000E+06    0.6240161793E+00    0.2587713865E-01    0.6411253976E+00    0.2421649641E-03    0.5535833742E-01
    0.2700000000E+06    0.6240647408E+00    0.2501882681E-01    0.6424354498E+00    0.2332149705E-03    0.5537029482E-01
    0.2900000000E+06    0.6241060647E+00    0.2424535706E-01    0.6436149033E+00    0.2251826388E-03    0.5538106864E-01
    0.3100000000E+06    0.6241415941E+00    0.2354341762E-01    0.6446843802E+00    0.2179207696E-03    0.5539085860E-01
    0.3300000000E+06    0.6241724159E+00    0.2290246800E-01    0.6456601874E+00    0.2113132977E-03    0.5539981942E-01
    0.3500000000E+06    0.6241993640E+00    0.2231403584E-01    0.6465554159E+00    0.2052672945E-03    0.5540807317E-01
    0.3700000000E+06    0.6242230886E+00    0.2177122085E-01    0.6473807158E+00    0.1997073487E-03    0.5541571765E-01
    0.3900000000E+06    0.6242441037E+00    0.2126833710E-01    0.6481448536E+00    0.1945715317E-03    0.5542283228E-01
    0.4100000000E+06    0.6242628211E+00    0.2080065033E-01    0.6488551220E+00    0.1898084444E-03    0.5542948238E-01
    0.4300000000E+06    0.6242795742E+00    0.2036418169E-01    0.6495176443E+00    0.1853750192E-03    0.5543572221E-01
    0.4500000000E+06    0.6242946359E+00    0.1995555894E-01    0.6501376061E+00    0.1812348584E-03    0.5544159731E-01
    0.4700000000E+06    0.6243082317E+00    0.1957190201E-01    0.6507194329E+00    0.1773569602E-03    0.5544714626E-01
    0.4900000000E+06    0.6243205492E+00    0.1921073400E-01    0.6512669278E+00    0.1737147314E-03    0.5545240196E-01
    0.1000000000E+06    0.6229564208E+00    0.3834533524E-01    0.6219464695E+00    0.3761062600E-03    0.5517389256E-01
    0.3000000000E+06    0.6241244788E+00    0.2388616032E-01    0.6441622833E+00    0.2214632724E-03    0.5538607605E-01
    0.5000000000E+06    0.6243262788E+00    0.1903790200E-01    0.6515288463E+00    0.1719746938E-03    0.5545492884E-01
    0.7000000000E+06    0.6244013612E+00    0.1636624941E-01    0.6555712644E+00    0.1453265896E-03    0.5549524350E-01
    0.9000000000E+06    0.6244369801E+00    0.1460694616E-01    0.6582267963E+00    0.1280527964E-03    0.5552357708E-01
    0.1100000000E+07    0.6244558273E+00    0.1333326978E-01    0.6601461718E+00    0.1156964103E-03    0.5554536929E-01
    0.1300000000E+07    0.6244662509E+00    0.1235483167E-01    0.6616188632E+00    0.1062960439E-03    0.5556305533E-01
    0.1500000000E+07    0.6244719785E+00    0.1157194307E-01    0.6627961233E+00    0.9883562128E-04    0.5557792916E-01
    0.1700000000E+07    0.6244748966E+00    0.1092660214E-01    0.6637658162E+00    0.9272913286E-04    0.5559075846E-01
    0.1900000000E+07    0.6244760484E+00    0.1038242611E-01    0.6645829870E+00    0.8761173228E-04    0.5560203533E-01
    0.2100000000E+07    0.6244760493E+00    0.9915266091E-02    0.6652841337E+00    0.8324282728E-04    0.5561209378E-01
    0.2300000000E+07    0.6244752811E+00    0.9508370305E-02    0.6658945526E+00    0.7945648354E-04    0.5562117073E-01
    0.2500000000E+07    0.6244739903E+00    0.9149699041E-02    0.6664324111E+00    0.7613405950E-04    0.5562944031E-01
    0.2700000000E+07    0.6244723412E+00    0.8830343596E-02    0.6669111431E+00    0.7318817999E-04    0.5563703415E-01
    0.2900000000E+07    0.6244704458E+00    0.8543549525E-02    0.6673409283E+00    0.7055288388E-04    0.5564405417E-01
    0.3100000000E+07    0.6244683826E+00    0.8284088692E-02    0.6677296421E+00    0.6817731837E-04    0.5565058090E-01
    0.3300000000E+07    0.6244662071E+00    0.8047841754E-02    0.6680834868E+00    0.6602156349E-04    0.5565667903E-01
    0.3500000000E+07    0.6244639593E+00    0.7831512426E-02    0.6684074234E+00    0.6405378546E-04    0.5566240135E-01
    0.3700000000E+07    0.6244616683E+00    0.7632427002E-02    0.6687054744E+00    0.6224824644E-04    0.5566779146E-01
    0.3900000000E+07    0.6244593555E+00    0.7448390578E-02    0.6689809409E+00    0.6058388189E-04    0.5567288578E-01
    0.4100000000E+07    0.6244570366E+00    0.7277581938E-02    0.6692365611E+00    0.5904326369E-04    0.5567771508E-01
    0.4300000000E+07    0.6244547232E+00    0.7118475363E-02    0.6694746282E+00    0.5761183126E-04    0.5568230557E-01
    0.4500000000E+07    0.6244524240E+00    0.6969781591E-02    0.6696970794E+00    0.5627731235E-04    0.5568667974E-01
    0.4700000000E+07    0.6244501452E+00    0.6830402588E-02    0.6699055643E+00    0.5502928073E-04    0.5569085706E-01
    0.4900000000E+07    0.6244478916E+00    0.6699396486E-02    0.6701014976E+00    0.5385881403E-04    0.5569485448E-01
    0.1000000000E+07    0.6244478141E+00    0.1392436236E-01    0.6592557466E+00    0.1214145175E-03    0.5553510016E-01
    0.3000000000E+07    0.6244694313E+00    0.8410682047E-02    0.6675399981E+00    0.6933534759E-04    0.5564737483E-01
    0.5000000000E+07    0.6244467753E+00    0.6636774748E-02    0.6701951456E+00    0.5330022340E-04    0.5569679045E-01
    0.7000000000E+07    0.6244261800E+00    0.5674430996E-02    0.6716335240E+00    0.4479312486E-04    0.5572886926E-01
    0.9000000000E+07    0.6244087741E+00    0.5046463817E-02    0.6725713494E+00    0.3932642341E-04    0.5575266590E-01
    0.1100000000E+08    0.6243939225E+00    0.4594639319E-02    0.6732457389E+00    0.3543906659E-04    0.5577159224E-01
    0.1300000000E+08    0.6243810336E+00    0.4249129154E-02    0.6737612295E+00    0.3249463205E-04    0.5578730789E-01
    0.1500000000E+08    0.6243696725E+00    0.3973653725E-02    0.6741720962E+00    0.3016582377E-04    0.5580074637E-01
    0.1700000000E+08    0.6243595258E+00    0.3747229019E-02    0.6745097149E+00    0.2826492655E-04    0.5581248524E-01
    0.1900000000E+08    0.6243503640E+00    0.3556754376E-02    0.6747936660E+00    0.2667558918E-04    0.5582290681E-01
    0.2100000000E+08    0.6243420156E+00    0.3393567990E-02    0.6750368910E+00    0.2532136691E-04    0.5583227735E-01
    0.2300000000E+08    0.6243343497E+00    0.3251680918E-02    0.6752483352E+00    0.2414969971E-04    0.5584078972E-01
    0.2500000000E+08    0.6243272640E+00    0.3126800918E-02    0.6754344081E+00    0.2312310771E-04    0.5584858812E-01
    0.2700000000E+08    0.6243206775E+00    0.3015759746E-02    0.6755998397E+00    0.2221405243E-04    0.5585578321E-01
