  Pressure (Pa) 22mC5-400 (mol/kg) 2mC6-400 (mol/kg) 3mC6-400 (mol/kg) 33mC5-400 (mol/kg) 23mC5-400 (mol/kg)
    0.1000000000E+01    0.2117829439E-02    0.2387204626E-02    0.3172059599E-02    0.1295765194E-03    0.4648347764E-03
    0.3000000000E+01    0.6275557167E-02    0.7021645434E-02    0.9372024214E-02    0.3811326297E-03    0.1377412023E-02
    0.5000000000E+01    0.1033314228E-01    0.1147737912E-01    0.1538735831E-01    0.6229886311E-03    0.2268025287E-02
    0.7000000000E+01    0.1429487134E-01    0.1576337054E-01    0.2122665254E-01    0.8556304290E-03    0.3137614581E-02
    0.9000000000E+01    0.1816478290E-01    0.1988801487E-01    0.2689796607E-01    0.1079513064E-02    0.3987065532E-02
    0.1100000000E+02    0.2194668514E-01    0.2385918154E-01    0.3240886714E-01    0.1295063086E-02    0.4817213262E-02
    0.1300000000E+02    0.2564417215E-01    0.2768425405E-01    0.3776647012E-01    0.1502680720E-02    0.5628845937E-02
    0.1500000000E+02    0.2926063871E-01    0.3137016635E-01    0.4297746914E-01    0.1702741831E-02    0.6422708028E-02
    0.1700000000E+02    0.3279929397E-01    0.3492343599E-01    0.4804816879E-01    0.1895599724E-02    0.7199503301E-02
    0.1900000000E+02    0.3626317401E-01    0.3835019444E-01    0.5298451220E-01    0.2081586783E-02    0.7959897566E-02
    0.2100000000E+02    0.3965515333E-01    0.4165621480E-01    0.5779210671E-01    0.2261015976E-02    0.8704521205E-02
    0.2300000000E+02    0.4297795550E-01    0.4484693712E-01    0.6247624732E-01    0.2434182226E-02    0.9433971508E-02
    0.2500000000E+02    0.4623416299E-01    0.4792749178E-01    0.6704193829E-01    0.2601363677E-02    0.1014881482E-01
    0.2700000000E+02    0.4942622618E-01    0.5090272076E-01    0.7149391292E-01    0.2762822848E-02    0.1084958852E-01
    0.2900000000E+02    0.5255647175E-01    0.5377719734E-01    0.7583665171E-01    0.2918807696E-02    0.1153680287E-01
    0.3100000000E+02    0.5562711041E-01    0.5655524416E-01    0.8007439911E-01    0.3069552601E-02    0.1221094268E-01
    0.3300000000E+02    0.5864024408E-01    0.5924094984E-01    0.8421117899E-01    0.3215279260E-02    0.1287246894E-01
    0.3500000000E+02    0.6159787251E-01    0.6183818436E-01    0.8825080880E-01    0.3356197527E-02    0.1352182020E-01
    0.3700000000E+02    0.6450189945E-01    0.6435061323E-01    0.9219691274E-01    0.3492506173E-02    0.1415941398E-01
    0.3900000000E+02    0.6735413839E-01    0.6678171054E-01    0.9605293393E-01    0.3624393601E-02    0.1478564800E-01
    0.4100000000E+02    0.7015631785E-01    0.6913477113E-01    0.9982214560E-01    0.3752038498E-02    0.1540090135E-01
    0.4300000000E+02    0.7291008634E-01    0.7141292176E-01    0.1035076615E+00    0.3875610444E-02    0.1600553556E-01
    0.4500000000E+02    0.7561701697E-01    0.7361913151E-01    0.1071124457E+00    0.3995270478E-02    0.1659989564E-01
    0.4700000000E+02    0.7827861173E-01    0.7575622142E-01    0.1106393212E+00    0.4111171612E-02    0.1718431101E-01
    0.4900000000E+02    0.8089630552E-01    0.7782687341E-01    0.1140909787E+00    0.4223459325E-02    0.1775909636E-01
    0.1000000000E+02    0.2006650572E-01    0.2189231050E-01    0.2967301328E-01    0.1188304044E-02    0.4404501979E-02
    0.3000000000E+02    0.5409910810E-01    0.5517801363E-01    0.7796839284E-01    0.2994820998E-02    0.1187547774E-01
    0.5000000000E+02    0.8218912052E-01    0.7883808731E-01    0.1157894072E+00    0.4278291661E-02    0.1804297229E-01
    0.7000000000E+02    0.1060438697E+00    0.9613249701E-01    0.1463735714E+00    0.5215513418E-02    0.2328142396E-01
    0.9000000000E+02    0.1267502987E+00    0.1090372490E+00    0.1717336586E+00    0.5913707410E-02    0.2782922394E-01
    0.1100000000E+03    0.1450348627E+00    0.1188130111E+00    0.1931890916E+00    0.6441323908E-02    0.3184570662E-01
    0.1300000000E+03    0.1614028272E+00    0.1262978850E+00    0.2116422826E+00    0.6843903955E-02    0.3544169633E-01
    0.1500000000E+03    0.1762175307E+00    0.1320682111E+00    0.2277322815E+00    0.7152792192E-02    0.3869688980E-01
    0.1700000000E+03    0.1897477703E+00    0.1365316742E+00    0.2419249764E+00    0.7390182360E-02    0.4167024807E-01
    0.1900000000E+03    0.2021973288E+00    0.1399836330E+00    0.2545684829E+00    0.7572170482E-02    0.4440647224E-01
    0.2100000000E+03    0.2137240362E+00    0.1426424916E+00    0.2659284764E+00    0.7710672532E-02    0.4694018416E-01
    0.2300000000E+03    0.2244524561E+00    0.1446726296E+00    0.2762114720E+00    0.7814668013E-02    0.4929870884E-01
    0.2500000000E+03    0.2344825563E+00    0.1461996852E+00    0.2855806016E+00    0.7891029058E-02    0.5150397622E-01
    0.2700000000E+03    0.2438957755E+00    0.1473209901E+00    0.2941665723E+00    0.7945086792E-02    0.5357385188E-01
    0.2900000000E+03    0.2527593572E+00    0.1481128499E+00    0.3020754438E+00    0.7981026609E-02    0.5552308756E-01
    0.3100000000E+03    0.2611295031E+00    0.1486357194E+00    0.3093942569E+00    0.8002169352E-02    0.5736401290E-01
    0.3300000000E+03    0.2690537070E+00    0.1489379463E+00    0.3161951760E+00    0.8011174788E-02    0.5910704739E-01
    0.3500000000E+03    0.2765725081E+00    0.1490585201E+00    0.3225385869E+00    0.8010191129E-02    0.6076108496E-01
    0.3700000000E+03    0.2837208267E+00    0.1490291191E+00    0.3284754455E+00    0.8000966445E-02    0.6233378691E-01
    0.3900000000E+03    0.2905289941E+00    0.1488756543E+00    0.3340490812E+00    0.7984932746E-02    0.6383180794E-01
    0.4100000000E+03    0.2970235571E+00    0.1486194465E+00    0.3392965987E+00    0.7963270163E-02    0.6526097252E-01
    0.4300000000E+03    0.3032279120E+00    0.1482781338E+00    0.3442499784E+00    0.7936956470E-02    0.6662641401E-01
    0.4500000000E+03    0.3091628102E+00    0.1478663785E+00    0.3489369489E+00    0.7906805656E-02    0.6793268557E-01
    0.4700000000E+03    0.3148467645E+00    0.1473964211E+00    0.3533816859E+00    0.7873498246E-02    0.6918384932E-01
    0.4900000000E+03    0.3202963794E+00    0.1468785199E+00    0.3576053757E+00    0.7837605334E-02    0.7038354868E-01
    0.1000000000E+03    0.1361596829E+00    0.1142562902E+00    0.1828854914E+00    0.6195580384E-02    0.2989606476E-01
    0.3000000000E+03    0.2570029601E+00    0.1484046392E+00    0.3058037893E+00    0.7993267856E-02    0.5645639806E-01
    0.5000000000E+03    0.3229380439E+00    0.1466043416E+00    0.3596402459E+00    0.7818842661E-02    0.7096513810E-01
    0.7000000000E+03    0.3664427646E+00    0.1400948941E+00    0.3922722133E+00    0.7391128338E-02    0.8054773551E-01
    0.9000000000E+03    0.3974018926E+00    0.1333960908E+00    0.4150720721E+00    0.6962260886E-02    0.8737351158E-01
    0.1100000000E+04    0.4204495909E+00    0.1273589683E+00    0.4323196195E+00    0.6579390819E-02    0.9245986242E-01
    0.1300000000E+04    0.4381746061E+00    0.1220740779E+00    0.4460436892E+00    0.6246508433E-02    0.9637534996E-01
    0.1500000000E+04    0.4521595354E+00    0.1174608418E+00    0.4573523578E+00    0.5957860679E-02    0.9946769063E-01
    0.1700000000E+04    0.4634282328E+00    0.1134121246E+00    0.4669119658E+00    0.5706289942E-02    0.1019619218E+00
    0.1900000000E+04    0.4726707535E+00    0.1098306248E+00    0.4751521787E+00    0.5485354978E-02    0.1040097685E+00
    0.2100000000E+04    0.4803674406E+00    0.1066358895E+00    0.4823651098E+00    0.5289732304E-02    0.1057168832E+00
    0.2300000000E+04    0.4868617367E+00    0.1037633225E+00    0.4887577743E+00    0.5115141684E-02    0.1071588333E+00
    0.2500000000E+04    0.4924048908E+00    0.1011614107E+00    0.4944818671E+00    0.4958164846E-02    0.1083909199E+00
    0.2700000000E+04    0.4971844106E+00    0.9878896809E-01    0.4996516438E+00    0.4816066330E-02    0.1094544285E+00
    0.2900000000E+04    0.5013427189E+00    0.9661284517E-01    0.5043551630E+00    0.4686643950E-02    0.1103807290E+00
    0.3100000000E+04    0.5049897026E+00    0.9460613525E-01    0.5086616310E+00    0.4568111084E-02    0.1111940329E+00
    0.3300000000E+04    0.5082113450E+00    0.9274680103E-01    0.5126263580E+00    0.4459006068E-02    0.1119132918E+00
    0.3500000000E+04    0.5110757836E+00    0.9101662981E-01    0.5162941973E+00    0.4358122935E-02    0.1125535290E+00
    0.3700000000E+04    0.5136376380E+00    0.8940043748E-01    0.5197019900E+00    0.4264458421E-02    0.1131267916E+00
    0.3900000000E+04    0.5159411521E+00    0.8788545913E-01    0.5228803399E+00    0.4177171267E-02    0.1136428415E+00
    0.4100000000E+04    0.5180225089E+00    0.8646087910E-01    0.5258549263E+00    0.4095550741E-02    0.1141096648E+00
    0.4300000000E+04    0.5199115602E+00    0.8511746578E-01    0.5286474913E+00    0.4018992124E-02    0.1145338529E+00
    0.4500000000E+04    0.5216331337E+00    0.8384728544E-01    0.5312765937E+00    0.3946977474E-02    0.1149208895E+00
    0.4700000000E+04    0.5232080329E+00    0.8264347604E-01    0.5337581917E+00    0.3879060407E-02    0.1152753711E+00
    0.4900000000E+04    0.5246538099E+00    0.8150006709E-01    0.5361060994E+00    0.3814853963E-02    0.1156011775E+00
    0.1000000000E+04    0.4097215561E+00    0.1302819665E+00    0.4242325801E+00    0.6764415807E-02    0.9009170673E-01
    0.3000000000E+04    0.5032242732E+00    0.9558979141E-01    0.5065542920E+00    0.4626114395E-02    0.1108002156E+00
    0.5000000000E+04    0.5253330249E+00    0.8094935456E-01    0.5372337406E+00    0.3784035113E-02    0.1157543771E+00
    0.7000000000E+04    0.5347943364E+00    0.7212437850E-01    0.5550130696E+00    0.3299553083E-02    0.1179005742E+00
    0.9000000000E+04    0.5399771379E+00    0.6596131829E-01    0.5670949941E+00    0.2971547744E-02    0.1190910314E+00
    0.1100000000E+05    0.5432289847E+00    0.6130439116E-01    0.5760369644E+00    0.2729160632E-02    0.1198474585E+00
    0.1300000000E+05    0.5454521833E+00    0.5760706001E-01    0.5830208674E+00    0.2539960686E-02    0.1203712114E+00
    0.1500000000E+05    0.5470647536E+00    0.5456961191E-01    0.5886821467E+00    0.2386620206E-02    0.1207559639E+00
    0.1700000000E+05    0.5482860720E+00    0.5201087872E-01    0.5933983340E+00    0.2258882779E-02    0.1210510834E+00
    0.1900000000E+05    0.5492420463E+00    0.4981349940E-01    0.5974103200E+00    0.2150218090E-02    0.1212850238E+00
    0.2100000000E+05    0.5500099853E+00    0.4789739486E-01    0.6008802946E+00    0.2056234392E-02    0.1214753306E+00
    0.2300000000E+05    0.5506399296E+00    0.4620566653E-01    0.6039221449E+00    0.1973849546E-02    0.1216334094E+00
    0.2500000000E+05    0.5511656730E+00    0.4469654983E-01    0.6066185902E+00    0.1900825288E-02    0.1217669955E+00
    0.2700000000E+05    0.5516108468E+00    0.4333855842E-01    0.6090314056E+00    0.1835489954E-02    0.1218815217E+00
    0.2900000000E+05    0.5519924644E+00    0.4210741756E-01    0.6112078130E+00    0.1776565444E-02    0.1219809158E+00
    0.3100000000E+05    0.5523230816E+00    0.4098405297E-01    0.6131846314E+00    0.1723054925E-02    0.1220680894E+00
    0.3300000000E+05    0.5526121637E+00    0.3995322922E-01    0.6149910626E+00    0.1674167529E-02    0.1221452466E+00
    0.3500000000E+05    0.5528669792E+00    0.3900260239E-01    0.6166506136E+00    0.1629266398E-02    0.1222140873E+00
    0.3700000000E+05    0.5530932007E+00    0.3812204520E-01    0.6181824553E+00    0.1587831958E-02    0.1222759441E+00
    0.3900000000E+05    0.5532953195E+00    0.3730315628E-01    0.6196024043E+00    0.1549435401E-02    0.1223318762E+00
    0.4100000000E+05    0.5534769369E+00    0.3653889665E-01    0.6209236445E+00    0.1513719168E-02    0.1223827370E+00
    0.4300000000E+05    0.5536409740E+00    0.3582331615E-01    0.6221572678E+00    0.1480382351E-02    0.1224292215E+00
    0.4500000000E+05    0.5537898245E+00    0.3515134446E-01    0.6233126836E+00    0.1449169596E-02    0.1224719016E+00
    0.4700000000E+05    0.5539254685E+00    0.3451862939E-01    0.6243979356E+00    0.1419862566E-02    0.1225112526E+00
    0.4900000000E+05    0.5540495580E+00    0.3392141029E-01    0.6254199468E+00    0.1392273291E-02    0.1225476725E+00
    0.1000000000E+05    0.5417710009E+00    0.6348692861E-01    0.5718663723E+00    0.2842184525E-02    0.1195071301E+00
    0.3000000000E+05    0.5521634963E+00    0.4153329271E-01    0.6122191930E+00    0.1749186993E-02    0.1220258786E+00
    0.5000000000E+05    0.5541077125E+00    0.3363507317E-01    0.6259091427E+00    0.1379071058E-02    0.1225648904E+00
    0.7000000000E+05    0.5549082717E+00    0.2916394972E-01    0.6334810807E+00    0.1175102686E-02    0.1228149057E+00
    0.9000000000E+05    0.5553380464E+00    0.2617380723E-01    0.6384766036E+00    0.1041067542E-02    0.1229648666E+00
    0.1100000000E+06    0.5556028232E+00    0.2398648018E-01    0.6420972827E+00    0.9442923490E-03    0.1230674690E+00
    0.1300000000E+06    0.5557803853E+00    0.2229339746E-01    0.6448807824E+00    0.8701612253E-03    0.1231435152E+00
    0.1500000000E+06    0.5559065087E+00    0.2093074843E-01    0.6471091652E+00    0.8110133890E-03    0.1232029803E+00
    0.1700000000E+06    0.5559998897E+00    0.1980222785E-01    0.6489467663E+00    0.7623908263E-03    0.1232512919E+00
    0.1900000000E+06    0.5560712232E+00    0.1884692843E-01    0.6504967727E+00    0.7214980802E-03    0.1232916793E+00
    0.2100000000E+06    0.5561270548E+00    0.1802415124E-01    0.6518277284E+00    0.6864808431E-03    0.1233261959E+00
    0.2300000000E+06    0.5561716061E+00    0.1730550509E-01    0.6529872116E+00    0.6560538552E-03    0.1233562170E+00
    0.2500000000E+06    0.5562077174E+00    0.1667048694E-01    0.6540094347E+00    0.6292942483E-03    0.1233827023E+00
    0.2700000000E+06    0.5562373662E+00    0.1610386267E-01    0.6549197242E+00    0.6055198416E-03    0.1234063446E+00
    0.2900000000E+06    0.5562619695E+00    0.1559403988E-01    0.6557372890E+00    0.5842139616E-03    0.1234276583E+00
    0.3100000000E+06    0.5562825680E+00    0.1513201674E-01    0.6564770019E+00    0.5649771205E-03    0.1234470343E+00
    0.3300000000E+06    0.5562999417E+00    0.1471068004E-01    0.6571505848E+00    0.5474948988E-03    0.1234647761E+00
    0.3500000000E+06    0.5563146862E+00    0.1432432302E-01    0.6577674195E+00    0.5315159746E-03    0.1234811232E+00
    0.3700000000E+06    0.5563272637E+00    0.1396830580E-01    0.6583351175E+00    0.5168367171E-03    0.1234962680E+00
    0.3900000000E+06    0.5563380376E+00    0.1363881120E-01    0.6588599284E+00    0.5032901422E-03    0.1235103664E+00
    0.4100000000E+06    0.5563472973E+00    0.1333266565E-01    0.6593470384E+00    0.4907378439E-03    0.1235235471E+00
    0.4300000000E+06    0.5563552762E+00    0.1304720567E-01    0.6598007932E+00    0.4790639962E-03    0.1235359169E+00
    0.4500000000E+06    0.5563621640E+00    0.1278017674E-01    0.6602248653E+00    0.4681708254E-03    0.1235475656E+00
    0.4700000000E+06    0.5563681165E+00    0.1252965575E-01    0.6606223827E+00    0.4579751460E-03    0.1235585691E+00
    0.4900000000E+06    0.5563732626E+00    0.1229399068E-01    0.6609960291E+00    0.4484056754E-03    0.1235689925E+00
    0.1000000000E+06    0.5554847145E+00    0.2500393024E-01    0.6404165831E+00    0.9891702674E-03    0.1230204093E+00
    0.3000000000E+06    0.5562727155E+00    0.1535753569E-01    0.6561160814E+00    0.5743582598E-03    0.1234375678E+00
    0.5000000000E+06    0.5563755676E+00    0.1218127511E-01    0.6611746372E+00    0.4438362200E-03    0.1235740044E+00
    0.7000000000E+06    0.5563979656E+00    0.1044375208E-01    0.6639195863E+00    0.3740413097E-03    0.1236539964E+00
    0.9000000000E+06    0.5563985765E+00    0.9304561456E-02    0.6657108605E+00    0.3289874084E-03    0.1237102401E+00
    0.1100000000E+07    0.5563914873E+00    0.8482300732E-02    0.6669996688E+00    0.2968520712E-03    0.1237535066E+00
    0.1300000000E+07    0.5563814198E+00    0.7852054077E-02    0.6679851810E+00    0.2724571505E-03    0.1237886233E+00
    0.1500000000E+07    0.5563702603E+00    0.7348653552E-02    0.6687708906E+00    0.2531293713E-03    0.1238181571E+00
    0.1700000000E+07    0.5563588417E+00    0.6934289225E-02    0.6694166626E+00    0.2373310481E-03    0.1238436315E+00
    0.1900000000E+07    0.5563475512E+00    0.6585297810E-02    0.6699598732E+00    0.2241068761E-03    0.1238660233E+00
    0.2100000000E+07    0.5563365698E+00    0.6286002388E-02    0.6704252350E+00    0.2128280152E-03    0.1238859956E+00
    0.2300000000E+07    0.5563259775E+00    0.6025545394E-02    0.6708298350E+00    0.2030614153E-03    0.1239040187E+00
    0.2500000000E+07    0.5563158028E+00    0.5796134085E-02    0.6711859192E+00    0.1944978537E-03    0.1239204385E+00
    0.2700000000E+07    0.5563060478E+00    0.5592009206E-02    0.6715025269E+00    0.1869098598E-03    0.1239355164E+00
    0.2900000000E+07    0.5562967006E+00    0.5408808824E-02    0.6717864964E+00    0.1801258858E-03    0.1239494547E+00
    0.3100000000E+07    0.5562877430E+00    0.5243159891E-02    0.6720431108E+00    0.1740137966E-03    0.1239624134E+00
    0.3300000000E+07    0.5562791536E+00    0.5092406998E-02    0.6722765253E+00    0.1684699497E-03    0.1239745210E+00
    0.3500000000E+07    0.5562709104E+00    0.4954426952E-02    0.6724900595E+00    0.1634117579E-03    0.1239858822E+00
    0.3700000000E+07    0.5562629915E+00    0.4827498798E-02    0.6726864023E+00    0.1587724940E-03    0.1239965837E+00
    0.3900000000E+07    0.5562553761E+00    0.4710210686E-02    0.6728677582E+00    0.1544975808E-03    0.1240066978E+00
    0.4100000000E+07    0.5562480447E+00    0.4601391845E-02    0.6730359540E+00    0.1505418888E-03    0.1240162856E+00
    0.4300000000E+07    0.5562409789E+00    0.4500062011E-02    0.6731925183E+00    0.1468677341E-03    0.1240253992E+00
    0.4500000000E+07    0.5562341618E+00    0.4405393272E-02    0.6733387416E+00    0.1434433709E-03    0.1240340832E+00
    0.4700000000E+07    0.5562275779E+00    0.4316680856E-02    0.6734757218E+00    0.1402418411E-03    0.1240423764E+00
    0.4900000000E+07    0.5562212128E+00    0.4233320501E-02    0.6736043999E+00    0.1372400852E-03    0.1240503123E+00
    0.1000000000E+07    0.5563955963E+00    0.8863639866E-02    0.6664023883E+00    0.3117134738E-03    0.1237331176E+00
    0.3000000000E+07    0.5562921744E+00    0.5323970707E-02    0.6719179408E+00    0.1769929006E-03    0.1239560479E+00
    0.5000000000E+07    0.5562181080E+00    0.4193481551E-02    0.6736658837E+00    0.1358078079E-03    0.1240541556E+00
    0.7000000000E+07    0.5561648008E+00    0.3581890248E-02    0.6746086880E+00    0.1140168138E-03    0.1241178368E+00
    0.9000000000E+07    0.5561233696E+00    0.3183447423E-02    0.6752218128E+00    0.1000358356E-03    0.1241650731E+00
    0.1100000000E+08    0.5560895250E+00    0.2897081490E-02    0.6756619245E+00    0.9010463745E-04    0.1242026400E+00
    0.1300000000E+08    0.5560609294E+00    0.2678275413E-02    0.6759978878E+00    0.8258831680E-04    0.1242338326E+00
    0.1500000000E+08    0.5560361771E+00    0.2503931730E-02    0.6762653812E+00    0.7664718725E-04    0.1242605046E+00
    0.1700000000E+08    0.5560143590E+00    0.2360704843E-02    0.6764849968E+00    0.7180014254E-04    0.1242838026E+00
    0.1900000000E+08    0.5559948539E+00    0.2240269794E-02    0.6766695681E+00    0.6774921771E-04    0.1243044858E+00
    0.2100000000E+08    0.5559772188E+00    0.2137126116E-02    0.6768275683E+00    0.6429877368E-04    0.1243230827E+00
    0.2300000000E+08    0.5559611266E+00    0.2047472877E-02    0.6769648489E+00    0.6131437250E-04    0.1243399761E+00
    0.2500000000E+08    0.5559463291E+00    0.1968587321E-02    0.6770855990E+00    0.5870019399E-04    0.1243554524E+00
    0.2700000000E+08    0.5559326336E+00    0.1898460564E-02    0.6771929080E+00    0.5638586339E-04    0.1243697312E+00
