  Pressure (Pa) 22mC5-400 (mol/kg) 2mC6-400 (mol/kg) 3mC6-400 (mol/kg) 33mC5-400 (mol/kg) 23mC5-400 (mol/kg)
    0.1000000000E+01    0.2119508005E-02    0.7991742246E-03    0.1062616161E-02    0.1951974724E-03    0.9304063392E-03
    0.3000000000E+01    0.6290140463E-02    0.2370729406E-02    0.3170345877E-02    0.5790046945E-03    0.2761225311E-02
    0.5000000000E+01    0.1037226031E-01    0.3907563838E-02    0.5255077611E-02    0.9542733049E-03    0.4553221516E-02
    0.7000000000E+01    0.1436893429E-01    0.5410833632E-02    0.7317209620E-02    0.1321285609E-02    0.6307739783E-02
    0.9000000000E+01    0.1828308642E-01    0.6881642635E-02    0.9357130892E-02    0.1680311211E-02    0.8026062342E-02
    0.1100000000E+02    0.2211750611E-01    0.8321045397E-02    0.1137522141E-01    0.2031607736E-02    0.9709412414E-02
    0.1300000000E+02    0.2587485581E-01    0.9730049936E-02    0.1337185242E-01    0.2375421497E-02    0.1135895755E-01
    0.1500000000E+02    0.2955767811E-01    0.1110962032E-01    0.1534738668E-01    0.2711988122E-02    0.1297581275E-01
    0.1700000000E+02    0.3316840242E-01    0.1246067905E-01    0.1730217868E-01    0.3041533142E-02    0.1456104338E-01
    0.1900000000E+02    0.3670935116E-01    0.1378410938E-01    0.1923657492E-01    0.3364272530E-02    0.1611566790E-01
    0.2100000000E+02    0.4018274555E-01    0.1508075732E-01    0.2115091410E-01    0.3680413221E-02    0.1764066039E-01
    0.2300000000E+02    0.4359071109E-01    0.1635143372E-01    0.2304552735E-01    0.3990153582E-02    0.1913695296E-01
    0.2500000000E+02    0.4693528262E-01    0.1759691602E-01    0.2492073844E-01    0.4293683865E-02    0.2060543797E-01
    0.2700000000E+02    0.5021840912E-01    0.1881795003E-01    0.2677686401E-01    0.4591186625E-02    0.2204697012E-01
    0.2900000000E+02    0.5344195816E-01    0.2001525156E-01    0.2861421371E-01    0.4882837114E-02    0.2346236844E-01
    0.3100000000E+02    0.5660772012E-01    0.2118950792E-01    0.3043309044E-01    0.5168803652E-02    0.2485241808E-01
    0.3300000000E+02    0.5971741216E-01    0.2234137935E-01    0.3223379053E-01    0.5449247972E-02    0.2621787210E-01
    0.3500000000E+02    0.6277268185E-01    0.2347150039E-01    0.3401660389E-01    0.5724325547E-02    0.2755945306E-01
    0.3700000000E+02    0.6577511076E-01    0.2458048111E-01    0.3578181420E-01    0.5994185901E-02    0.2887785455E-01
    0.3900000000E+02    0.6872621766E-01    0.2566890834E-01    0.3752969911E-01    0.6258972889E-02    0.3017374263E-01
    0.4100000000E+02    0.7162746165E-01    0.2673734675E-01    0.3926053032E-01    0.6518824979E-02    0.3144775720E-01
    0.4300000000E+02    0.7448024504E-01    0.2778633993E-01    0.4097457383E-01    0.6773875500E-02    0.3270051328E-01
    0.4500000000E+02    0.7728591614E-01    0.2881641141E-01    0.4267209003E-01    0.7024252891E-02    0.3393260216E-01
    0.4700000000E+02    0.8004577177E-01    0.2982806552E-01    0.4435333387E-01    0.7270080922E-02    0.3514459259E-01
    0.4900000000E+02    0.8276105977E-01    0.3082178837E-01    0.4601855498E-01    0.7511478914E-02    0.3633703183E-01
    0.1000000000E+02    0.2021009353E-01    0.7605205736E-02    0.1036888159E-01    0.1856909956E-02    0.8872034700E-02
    0.3000000000E+02    0.5503195353E-01    0.2060521851E-01    0.2952594252E-01    0.5026520618E-02    0.2416051404E-01
    0.5000000000E+02    0.8410236802E-01    0.3131207269E-01    0.4684523362E-01    0.7630552766E-02    0.3692608515E-01
    0.7000000000E+02    0.1088583162E+00    0.4028194918E-01    0.6259462832E-01    0.9805391955E-02    0.4779894625E-01
    0.9000000000E+02    0.1302820466E+00    0.4790131495E-01    0.7699166792E-01    0.1164605604E-01    0.5720989097E-01
    0.1100000000E+03    0.1490684832E+00    0.5444797333E-01    0.9021490454E-01    0.1322102341E-01    0.6546371224E-01
    0.1300000000E+03    0.1657239109E+00    0.6012731433E-01    0.1024123033E+00    0.1458104742E-01    0.7278247559E-01
    0.1500000000E+03    0.1806266423E+00    0.6509481854E-01    0.1137075571E+00    0.1576463608E-01    0.7933212251E-01
    0.1700000000E+03    0.1940656748E+00    0.6947056749E-01    0.1242048956E+00    0.1680159130E-01    0.8523942269E-01
    0.1900000000E+03    0.2062661005E+00    0.7334891071E-01    0.1339927917E+00    0.1771537117E-01    0.9060311743E-01
    0.2100000000E+03    0.2174062697E+00    0.7680509099E-01    0.1431468498E+00    0.1852471222E-01    0.9550144694E-01
    0.2300000000E+03    0.2276296678E+00    0.7989989880E-01    0.1517320797E+00    0.1924477145E-01    0.9999735903E-01
    0.2500000000E+03    0.2370533118E+00    0.8268301396E-01    0.1598047028E+00    0.1988794814E-01    0.1041421918E+00
    0.2700000000E+03    0.2457738032E+00    0.8519545130E-01    0.1674136005E+00    0.2046448647E-01    0.1079783282E+00
    0.2900000000E+03    0.2538717674E+00    0.8747138127E-01    0.1746014837E+00    0.2098292525E-01    0.1115411434E+00
    0.3100000000E+03    0.2614151636E+00    0.8953950616E-01    0.1814058451E+00    0.2145043845E-01    0.1148604565E+00
    0.3300000000E+03    0.2684617876E+00    0.9142411457E-01    0.1878597399E+00    0.2187309678E-01    0.1179616280E+00
    0.3500000000E+03    0.2750611896E+00    0.9314589933E-01    0.1939924291E+00    0.2225607095E-01    0.1208664013E+00
    0.3700000000E+03    0.2812561632E+00    0.9472259916E-01    0.1998299148E+00    0.2260379137E-01    0.1235935559E+00
    0.3900000000E+03    0.2870839142E+00    0.9616950701E-01    0.2053953856E+00    0.2292007500E-01    0.1261594197E+00
    0.4100000000E+03    0.2925769868E+00    0.9749987667E-01    0.2107095916E+00    0.2320822693E-01    0.1285782755E+00
    0.4300000000E+03    0.2977640067E+00    0.9872525060E-01    0.2157911600E+00    0.2347112238E-01    0.1308626871E+00
    0.4500000000E+03    0.3026702809E+00    0.9985572649E-01    0.2206568633E+00    0.2371127355E-01    0.1330237623E+00
    0.4700000000E+03    0.3073182876E+00    0.1009001754E+00    0.2253218470E+00    0.2393088430E-01    0.1350713674E+00
    0.4900000000E+03    0.3117280780E+00    0.1018664216E+00    0.2297998247E+00    0.2413189540E-01    0.1370143043E+00
    0.1000000000E+03    0.1399697097E+00    0.5129451157E-01    0.8374012944E-01    0.1246324049E-01    0.6146599549E-01
    0.3000000000E+03    0.2577089610E+00    0.8852980844E-01    0.1780494428E+00    0.2122264489E-01    0.1132295591E+00
    0.5000000000E+03    0.3138493278E+00    0.1023224147E+00    0.2319726221E+00    0.2422596996E-01    0.1379490180E+00
    0.7000000000E+03    0.3472783988E+00    0.1086590692E+00    0.2680992925E+00    0.2545711653E-01    0.1526893739E+00
    0.9000000000E+03    0.3694319896E+00    0.1117712312E+00    0.2946128015E+00    0.2595546052E-01    0.1624716469E+00
    0.1100000000E+04    0.3851348631E+00    0.1132456016E+00    0.3152492655E+00    0.2610018543E-01    0.1694153149E+00
    0.1300000000E+04    0.3968082856E+00    0.1138030694E+00    0.3319800747E+00    0.2605796974E-01    0.1745845645E+00
    0.1500000000E+04    0.4058036842E+00    0.1138141703E+00    0.3459547321E+00    0.2591150218E-01    0.1785736672E+00
    0.1700000000E+04    0.4129336951E+00    0.1134863551E+00    0.3578944901E+00    0.2570539883E-01    0.1817401447E+00
    0.1900000000E+04    0.4187152715E+00    0.1129432036E+00    0.3682780330E+00    0.2546523128E-01    0.1843115427E+00
    0.2100000000E+04    0.4234922567E+00    0.1122618350E+00    0.3774374749E+00    0.2520631482E-01    0.1864392829E+00
    0.2300000000E+04    0.4275018255E+00    0.1114921136E+00    0.3856116733E+00    0.2493811761E-01    0.1882278628E+00
    0.2500000000E+04    0.4309126174E+00    0.1106671744E+00    0.3929775946E+00    0.2466662176E-01    0.1897516199E+00
    0.2700000000E+04    0.4338476703E+00    0.1098095012E+00    0.3996696611E+00    0.2439565570E-01    0.1910648161E+00
    0.2900000000E+04    0.4363987625E+00    0.1089345912E+00    0.4057921690E+00    0.2412767882E-01    0.1922079471E+00
    0.3100000000E+04    0.4386356865E+00    0.1080532432E+00    0.4114275312E+00    0.2386426040E-01    0.1932118227E+00
    0.3300000000E+04    0.4406124215E+00    0.1071730313E+00    0.4166419116E+00    0.2360638051E-01    0.1941002834E+00
    0.3500000000E+04    0.4423713456E+00    0.1062992776E+00    0.4214891737E+00    0.2335462404E-01    0.1948920552E+00
    0.3700000000E+04    0.4439461759E+00    0.1054357090E+00    0.4260137097E+00    0.2310930834E-01    0.1956020445E+00
    0.3900000000E+04    0.4453640617E+00    0.1045849092E+00    0.4302525094E+00    0.2287056868E-01    0.1962422595E+00
    0.4100000000E+04    0.4466471008E+00    0.1037486341E+00    0.4342366975E+00    0.2263841645E-01    0.1968224795E+00
    0.4300000000E+04    0.4478134561E+00    0.1029280369E+00    0.4379926959E+00    0.2241277910E-01    0.1973507459E+00
    0.4500000000E+04    0.4488781899E+00    0.1021238285E+00    0.4415431137E+00    0.2219352797E-01    0.1978337310E+00
    0.4700000000E+04    0.4498538953E+00    0.1013363950E+00    0.4449074384E+00    0.2198049776E-01    0.1982770160E+00
    0.4900000000E+04    0.4507511796E+00    0.1005658834E+00    0.4481025782E+00    0.2177350023E-01    0.1986853042E+00
    0.1000000000E+04    0.3779038072E+00    0.1126563792E+00    0.3055162121E+00    0.2605877592E-01    0.1662165865E+00
    0.3000000000E+04    0.4375528081E+00    0.1084941863E+00    0.4086662800E+00    0.2399532741E-01    0.1927256635E+00
    0.5000000000E+04    0.4511732798E+00    0.1001869698E+00    0.4496413900E+00    0.2167220106E-01    0.1988775959E+00
    0.7000000000E+04    0.4571003225E+00    0.9344024838E-01    0.4743012437E+00    0.1991312712E-01    0.2015975310E+00
    0.9000000000E+04    0.4603962948E+00    0.8800670495E-01    0.4915384747E+00    0.1854390497E-01    0.2031341639E+00
    0.1100000000E+05    0.4624876368E+00    0.8353006586E-01    0.5045821944E+00    0.1744029301E-01    0.2041246561E+00
    0.1300000000E+05    0.4639292323E+00    0.7975871765E-01    0.5149550209E+00    0.1652532791E-01    0.2048182129E+00
    0.1500000000E+05    0.4649811879E+00    0.7652169677E-01    0.5234906590E+00    0.1574979778E-01    0.2053322808E+00
    0.1700000000E+05    0.4657814206E+00    0.7370041817E-01    0.5306926424E+00    0.1508080235E-01    0.2057294682E+00
    0.1900000000E+05    0.4664097858E+00    0.7121020809E-01    0.5368870524E+00    0.1449544206E-01    0.2060462194E+00
    0.2100000000E+05    0.4669156844E+00    0.6898889865E-01    0.5422963911E+00    0.1397722337E-01    0.2063051999E+00
    0.2300000000E+05    0.4673312974E+00    0.6698969941E-01    0.5470787993E+00    0.1351391966E-01    0.2065212537E+00
    0.2500000000E+05    0.4676784772E+00    0.6517662261E-01    0.5513504108E+00    0.1309624385E-01    0.2067045136E+00
    0.2700000000E+05    0.4679725769E+00    0.6352146224E-01    0.5551988324E+00    0.1271699346E-01    0.2068621366E+00
    0.2900000000E+05    0.4682246955E+00    0.6200174434E-01    0.5586916530E+00    0.1237048176E-01    0.2069993240E+00
    0.3100000000E+05    0.4684430529E+00    0.6059930137E-01    0.5618820217E+00    0.1205214831E-01    0.2071199484E+00
    0.3300000000E+05    0.4686338652E+00    0.5929925829E-01    0.5648124250E+00    0.1175828565E-01    0.2072269534E+00
    0.3500000000E+05    0.4688019186E+00    0.5808929690E-01    0.5675173139E+00    0.1148584315E-01    0.2073226179E+00
    0.3700000000E+05    0.4689509574E+00    0.5695911238E-01    0.5700249763E+00    0.1123228359E-01    0.2074087338E+00
    0.3900000000E+05    0.4690839525E+00    0.5590000529E-01    0.5723588985E+00    0.1099547635E-01    0.2074867303E+00
    0.4100000000E+05    0.4692032902E+00    0.5490457081E-01    0.5745387743E+00    0.1077361676E-01    0.2075577616E+00
    0.4300000000E+05    0.4693109094E+00    0.5396645879E-01    0.5765812647E+00    0.1056516418E-01    0.2076227703E+00
    0.4500000000E+05    0.4694084011E+00    0.5308018638E-01    0.5785005783E+00    0.1036879397E-01    0.2076825339E+00
    0.4700000000E+05    0.4694970832E+00    0.5224098999E-01    0.5803089206E+00    0.1018335982E-01    0.2077376997E+00
    0.4900000000E+05    0.4695780561E+00    0.5144470720E-01    0.5820168463E+00    0.1000786377E-01    0.2077888113E+00
    0.1000000000E+05    0.4615475320E+00    0.8566678667E-01    0.4984665025E+00    0.1796454277E-01    0.2036774904E+00
    0.3000000000E+05    0.4683376667E+00    0.6128686062E-01    0.5603217737E+00    0.1220804186E-01    0.2070615044E+00
    0.5000000000E+05    0.4696159469E+00    0.5106149825E-01    0.5828360697E+00    0.9923565248E-02    0.2078129932E+00
    0.7000000000E+05    0.4701320059E+00    0.4495869499E-01    0.5956583933E+00    0.8595097309E-02    0.2081654469E+00
    0.9000000000E+05    0.4704015145E+00    0.4075429751E-01    0.6042651656E+00    0.7695592833E-02    0.2083780035E+00
    0.1100000000E+06    0.4705622098E+00    0.3761736914E-01    0.6105767636E+00    0.7033153436E-02    0.2085239003E+00
    0.1300000000E+06    0.4706660243E+00    0.3515409722E-01    0.6154709112E+00    0.6518379705E-02    0.2086322613E+00
    0.1500000000E+06    0.4707367227E+00    0.3314950060E-01    0.6194151445E+00    0.6103097826E-02    0.2087171183E+00
    0.1700000000E+06    0.4707866426E+00    0.3147453956E-01    0.6226850601E+00    0.5758692617E-02    0.2087861320E+00
    0.1900000000E+06    0.4708227873E+00    0.3004626702E-01    0.6254553286E+00    0.5466930458E-02    0.2088438717E+00
    0.2100000000E+06    0.4708494069E+00    0.2880852105E-01    0.6278428721E+00    0.5215558359E-02    0.2088932487E+00
    0.2300000000E+06    0.4708692179E+00    0.2772169081E-01    0.6299293748E+00    0.4995991284E-02    0.2089362155E+00
    0.2500000000E+06    0.4708840298E+00    0.2675690249E-01    0.6317738997E+00    0.4802008048E-02    0.2089741365E+00
    0.2700000000E+06    0.4708950900E+00    0.2589252849E-01    0.6334203789E+00    0.4628973445E-02    0.2090079979E+00
    0.2900000000E+06    0.4709032826E+00    0.2511199469E-01    0.6349022741E+00    0.4473352467E-02    0.2090385320E+00
    0.3100000000E+06    0.4709092496E+00    0.2440235009E-01    0.6362455904E+00    0.4332395102E-02    0.2090662964E+00
    0.3300000000E+06    0.4709134669E+00    0.2375330357E-01    0.6374708920E+00    0.4203925084E-02    0.2090917239E+00
    0.3500000000E+06    0.4709162931E+00    0.2315655717E-01    0.6385946878E+00    0.4086194315E-02    0.2091151563E+00
    0.3700000000E+06    0.4709180032E+00    0.2260533345E-01    0.6396304078E+00    0.3977780098E-02    0.2091368680E+00
    0.3900000000E+06    0.4709188106E+00    0.2209403343E-01    0.6405891068E+00    0.3877511034E-02    0.2091570821E+00
    0.4100000000E+06    0.4709188829E+00    0.2161798442E-01    0.6414799798E+00    0.3784412582E-02    0.2091759824E+00
    0.4300000000E+06    0.4709183533E+00    0.2117325093E-01    0.6423107472E+00    0.3697666394E-02    0.2091937214E+00
    0.4500000000E+06    0.4709173286E+00    0.2075649096E-01    0.6430879465E+00    0.3616579479E-02    0.2092104276E+00
    0.4700000000E+06    0.4709158951E+00    0.2036484510E-01    0.6438171562E+00    0.3540560505E-02    0.2092262098E+00
    0.4900000000E+06    0.4709141231E+00    0.1999585012E-01    0.6445031700E+00    0.3469101365E-02    0.2092411607E+00
    0.1000000000E+06    0.4704912228E+00    0.3908293347E-01    0.6076392718E+00    0.7341699401E-02    0.2084569381E+00
    0.3000000000E+06    0.4709065114E+00    0.2474900781E-01    0.6355898605E+00    0.4401188338E-02    0.2090527309E+00
    0.5000000000E+06    0.4709131286E+00    0.1981916821E-01    0.6448312961E+00    0.3434942072E-02    0.2092483498E+00
    0.7000000000E+06    0.4708851460E+00    0.1707959364E-01    0.6498901935E+00    0.2910184249E-02    0.2093631145E+00
    0.9000000000E+06    0.4708527232E+00    0.1526721554E-01    0.6532071585E+00    0.2568444449E-02    0.2094438261E+00
    0.1100000000E+07    0.4708214110E+00    0.1395114897E-01    0.6556009155E+00    0.2323250531E-02    0.2095059216E+00
    0.1300000000E+07    0.4707923603E+00    0.1293795327E-01    0.6574352175E+00    0.2136311193E-02    0.2095563240E+00
    0.1500000000E+07    0.4707656578E+00    0.1212591378E-01    0.6588999200E+00    0.1987706662E-02    0.2095987153E+00
    0.1700000000E+07    0.4707411139E+00    0.1145566532E-01    0.6601052031E+00    0.1865912942E-02    0.2096352810E+00
    0.1900000000E+07    0.4707184830E+00    0.1088987964E-01    0.6611200310E+00    0.1763738058E-02    0.2096674229E+00
    0.2100000000E+07    0.4706975295E+00    0.1040373173E-01    0.6619900947E+00    0.1676430219E-02    0.2096960925E+00
    0.2300000000E+07    0.4706780455E+00    0.9979972886E-02    0.6627470385E+00    0.1600706929E-02    0.2097219647E+00
    0.2500000000E+07    0.4706598527E+00    0.9606189226E-02    0.6634135736E+00    0.1534218067E-02    0.2097455358E+00
    0.2700000000E+07    0.4706427996E+00    0.9273184331E-02    0.6640064836E+00    0.1475230851E-02    0.2097671810E+00
    0.2900000000E+07    0.4706267579E+00    0.8973978436E-02    0.6645384791E+00    0.1422435852E-02    0.2097871906E+00
    0.3100000000E+07    0.4706116183E+00    0.8703164094E-02    0.6650193880E+00    0.1374822665E-02    0.2098057943E+00
    0.3300000000E+07    0.4705972878E+00    0.8456477233E-02    0.6654569466E+00    0.1331597488E-02    0.2098231763E+00
    0.3500000000E+07    0.4705836863E+00    0.8230503285E-02    0.6658573399E+00    0.1292126860E-02    0.2098394872E+00
    0.3700000000E+07    0.4705707448E+00    0.8022470781E-02    0.6662255808E+00    0.1255898297E-02    0.2098548512E+00
    0.3900000000E+07    0.4705584032E+00    0.7830103207E-02    0.6665657810E+00    0.1222492123E-02    0.2098693722E+00
    0.4100000000E+07    0.4705466093E+00    0.7651510597E-02    0.6668813501E+00    0.1191560928E-02    0.2098831378E+00
    0.4300000000E+07    0.4705353172E+00    0.7485108845E-02    0.6671751422E+00    0.1162814320E-02    0.2098962228E+00
    0.4500000000E+07    0.4705244865E+00    0.7329558731E-02    0.6674495679E+00    0.1136007435E-02    0.2099086912E+00
    0.4700000000E+07    0.4705140813E+00    0.7183719183E-02    0.6677066787E+00    0.1110932156E-02    0.2099205985E+00
    0.4900000000E+07    0.4705040698E+00    0.7046611026E-02    0.6679482335E+00    0.1087410313E-02    0.2099319931E+00
    0.1000000000E+07    0.4708368143E+00    0.1456232070E-01    0.6544908323E+00    0.2436793285E-02    0.2094766589E+00
    0.3000000000E+07    0.4706190815E+00    0.8835311661E-02    0.6647847941E+00    0.1398035462E-02    0.2097966557E+00
    0.5000000000E+07    0.4704992027E+00    0.6981062365E-02    0.6680636600E+00    0.1076183109E-02    0.2099375116E+00
    0.7000000000E+07    0.4704169936E+00    0.5972927039E-02    0.6698342448E+00    0.9050627656E-03    0.2100289552E+00
    0.9000000000E+07    0.4703544304E+00    0.5314271662E-02    0.6709861314E+00    0.7949676849E-03    0.2100967944E+00
    0.1100000000E+08    0.4703039269E+00    0.4839981519E-02    0.6718130603E+00    0.7166170317E-03    0.2101507537E+00
    0.1300000000E+08    0.4702615816E+00    0.4477077958E-02    0.6724442887E+00    0.6572369741E-03    0.2101955627E+00
    0.1500000000E+08    0.4702251235E+00    0.4187603707E-02    0.6729468273E+00    0.6102513825E-03    0.2102338820E+00
    0.1700000000E+08    0.4701931145E+00    0.3949586683E-02    0.6733593671E+00    0.5718856816E-03    0.2102673575E+00
    0.1900000000E+08    0.4701645862E+00    0.3749300658E-02    0.6737060285E+00    0.5397988484E-03    0.2102970787E+00
    0.2100000000E+08    0.4701388554E+00    0.3577665541E-02    0.6740027390E+00    0.5124520245E-03    0.2103238044E+00
    0.2300000000E+08    0.4701154222E+00    0.3428400477E-02    0.6742604994E+00    0.4887867189E-03    0.2103480842E+00
    0.2500000000E+08    0.4700939098E+00    0.3297002361E-02    0.6744871861E+00    0.4680478684E-03    0.2103703292E+00
    0.2700000000E+08    0.4700740270E+00    0.3180146255E-02    0.6746886077E+00    0.4496805186E-03    0.2103908545E+00
