  Pressure (Pa) 22mC5-400 (mol/kg) 2mC6-400 (mol/kg) 3mC6-400 (mol/kg) 33mC5-400 (mol/kg) 23mC5-400 (mol/kg)
    0.1000000000E+01    0.2115155518E-02    0.3970298410E-02    0.3165980050E-02    0.1293039344E-03    0.2785488619E-03
    0.3000000000E+01    0.6252364660E-02    0.1163047464E-01    0.9319335566E-02    0.3787808655E-03    0.8233940420E-03
    0.5000000000E+01    0.1027101734E-01    0.1893638098E-01    0.1524632465E-01    0.6167217522E-03    0.1352636667E-02
    0.7000000000E+01    0.1417738219E-01    0.2590991105E-01    0.2096010127E-01    0.8438389801E-03    0.1867101605E-02
    0.9000000000E+01    0.1797727965E-01    0.3257123235E-01    0.2647280380E-01    0.1060788777E-02    0.2367554753E-02
    0.1100000000E+02    0.2167612156E-01    0.3893895132E-01    0.3179565175E-01    0.1268176581E-02    0.2854708247E-02
    0.1300000000E+02    0.2527894658E-01    0.4503025994E-01    0.3693903154E-01    0.1466561813E-02    0.3329225122E-02
    0.1500000000E+02    0.2879045202E-01    0.5086106617E-01    0.4191257283E-01    0.1656462117E-02    0.3791723498E-02
    0.1700000000E+02    0.3221502243E-01    0.5644611031E-01    0.4672521666E-01    0.1838357150E-02    0.4242780342E-02
    0.1900000000E+02    0.3555675541E-01    0.6179906904E-01    0.5138527623E-01    0.2012691965E-02    0.4682934866E-02
    0.2100000000E+02    0.3881948484E-01    0.6693264861E-01    0.5590049144E-01    0.2179880042E-02    0.5112691579E-02
    0.2300000000E+02    0.4200680191E-01    0.7185866838E-01    0.6027807772E-01    0.2340306007E-02    0.5532523060E-02
    0.2500000000E+02    0.4512207421E-01    0.7658813605E-01    0.6452477009E-01    0.2494328081E-02    0.5942872467E-02
    0.2700000000E+02    0.4816846299E-01    0.8113131531E-01    0.6864686267E-01    0.2642280278E-02    0.6344155801E-02
    0.2900000000E+02    0.5114893885E-01    0.8549778693E-01    0.7265024444E-01    0.2784474393E-02    0.6736763983E-02
    0.3100000000E+02    0.5406629601E-01    0.8969650397E-01    0.7654043159E-01    0.2921201800E-02    0.7121064724E-02
    0.3300000000E+02    0.5692316538E-01    0.9373584171E-01    0.8032259671E-01    0.3052735078E-02    0.7497404244E-02
    0.3500000000E+02    0.5972202638E-01    0.9762364300E-01    0.8400159535E-01    0.3179329478E-02    0.7866108830E-02
    0.3700000000E+02    0.6246521781E-01    0.1013672593E+00    0.8758199014E-01    0.3301224271E-02    0.8227486266E-02
    0.3900000000E+02    0.6515494781E-01    0.1049735883E+00    0.9106807269E-01    0.3418643956E-02    0.8581827143E-02
    0.4100000000E+02    0.6779330292E-01    0.1084491077E+00    0.9446388360E-01    0.3531799376E-02    0.8929406048E-02
    0.4300000000E+02    0.7038225643E-01    0.1117999064E+00    0.9777323066E-01    0.3640888720E-02    0.9270482670E-02
    0.4500000000E+02    0.7292367607E-01    0.1150317129E+00    0.1009997056E+00    0.3746098453E-02    0.9605302805E-02
    0.4700000000E+02    0.7541933104E-01    0.1181499212E+00    0.1041466991E+00    0.3847604158E-02    0.9934099284E-02
    0.4900000000E+02    0.7787089849E-01    0.1211596146E+00    0.1072174151E+00    0.3945571304E-02    0.1025709282E-01
    0.1000000000E+02    0.1983900928E-01    0.3579068608E-01    0.2915729186E-01    0.1165641938E-02    0.2612751417E-02
    0.3000000000E+02    0.5261533915E-01    0.8761757833E-01    0.7460915633E-01    0.2853503976E-02    0.6929930660E-02
    0.5000000000E+02    0.7908064983E-01    0.1226252772E+00    0.1087251223E+00    0.3993277038E-02    0.1041647935E-01
    0.7000000000E+02    0.1013074467E+00    0.1472720581E+00    0.1355298645E+00    0.4795167918E-02    0.1334513900E-01
    0.9000000000E+02    0.1205174682E+00    0.1651430364E+00    0.1573186030E+00    0.5375902446E-02    0.1587669830E-01
    0.1100000000E+03    0.1374808932E+00    0.1783767279E+00    0.1755004371E+00    0.5805134964E-02    0.1811252208E-01
    0.1300000000E+03    0.1527094723E+00    0.1883216441E+00    0.1909909715E+00    0.6126809505E-02    0.2011996533E-01
    0.1500000000E+03    0.1665579956E+00    0.1958666137E+00    0.2044125913E+00    0.6369906911E-02    0.2194572583E-01
    0.1700000000E+03    0.1792812139E+00    0.2016190018E+00    0.2162041885E+00    0.6554243783E-02    0.2362333494E-01
    0.1900000000E+03    0.1910675249E+00    0.2060064597E+00    0.2266848424E+00    0.6693783667E-02    0.2517759091E-01
    0.2100000000E+03    0.2020598140E+00    0.2093377992E+00    0.2360925736E+00    0.6798618302E-02    0.2662730171E-01
    0.2300000000E+03    0.2123688433E+00    0.2118408708E+00    0.2446088866E+00    0.6876200659E-02    0.2798704707E-01
    0.2500000000E+03    0.2220821322E+00    0.2136869391E+00    0.2523748494E+00    0.6932138578E-02    0.2926834748E-01
    0.2700000000E+03    0.2312700165E+00    0.2150068298E+00    0.2595019401E+00    0.6970720589E-02    0.3048046154E-01
    0.2900000000E+03    0.2399898824E+00    0.2159018995E+00    0.2660795537E+00    0.6995273264E-02    0.3163094332E-01
    0.3100000000E+03    0.2482891908E+00    0.2164516567E+00    0.2721803150E+00    0.7008409528E-02    0.3272604041E-01
    0.3300000000E+03    0.2562076786E+00    0.2167191622E+00    0.2778639135E+00    0.7012204660E-02    0.3377098368E-01
    0.3500000000E+03    0.2637789882E+00    0.2167549230E+00    0.2831799223E+00    0.7008323276E-02    0.3477020175E-01
    0.3700000000E+03    0.2710318937E+00    0.2165997460E+00    0.2881699030E+00    0.6998112396E-02    0.3572748241E-01
    0.3900000000E+03    0.2779912345E+00    0.2162868591E+00    0.2928689996E+00    0.6982670657E-02    0.3664609553E-01
    0.4100000000E+03    0.2846786376E+00    0.2158435081E+00    0.2973071626E+00    0.6962900451E-02    0.3752888809E-01
    0.4300000000E+03    0.2911130808E+00    0.2152921737E+00    0.3015100993E+00    0.6939547682E-02    0.3837835835E-01
    0.4500000000E+03    0.2973113376E+00    0.2146515093E+00    0.3055000201E+00    0.6913232402E-02    0.3919671445E-01
    0.4700000000E+03    0.3032883325E+00    0.2139370699E+00    0.3092962308E+00    0.6884472665E-02    0.3998592108E-01
    0.4900000000E+03    0.3090574258E+00    0.2131618853E+00    0.3129156064E+00    0.6853703267E-02    0.4074773708E-01
    0.1000000000E+03    0.1292434457E+00    0.1722416299E+00    0.1667945396E+00    0.5606266288E-02    0.1702676533E-01
    0.3000000000E+03    0.2441894631E+00    0.2162156670E+00    0.2691855443E+00    0.7003127825E-02    0.3218506701E-01
    0.5000000000E+03    0.3118678148E+00    0.2127550082E+00    0.3146636854E+00    0.6837681772E-02    0.4111887456E-01
    0.7000000000E+03    0.3595539692E+00    0.2033267727E+00    0.3431467890E+00    0.6475461975E-02    0.4741868487E-01
    0.9000000000E+03    0.3952665342E+00    0.1937123547E+00    0.3636583966E+00    0.6110694368E-02    0.5214020625E-01
    0.1100000000E+04    0.4229134483E+00    0.1850357367E+00    0.3795843606E+00    0.5781980901E-02    0.5579807945E-01
    0.1300000000E+04    0.4448193515E+00    0.1774313189E+00    0.3925436403E+00    0.5494006933E-02    0.5869853756E-01
    0.1500000000E+04    0.4625003104E+00    0.1707963104E+00    0.4034314383E+00    0.5243047767E-02    0.6104136439E-01
    0.1700000000E+04    0.4769960119E+00    0.1649842139E+00    0.4127933597E+00    0.5023720484E-02    0.6296361246E-01
    0.1900000000E+04    0.4890430675E+00    0.1598575982E+00    0.4209859838E+00    0.4830900443E-02    0.6456241334E-01
    0.2100000000E+04    0.4991761752E+00    0.1553003393E+00    0.4282549187E+00    0.4660201211E-02    0.6590829522E-01
    0.2300000000E+04    0.5077912175E+00    0.1512177780E+00    0.4347764046E+00    0.4508007566E-02    0.6705349166E-01
    0.2500000000E+04    0.5151863282E+00    0.1475336377E+00    0.4406811203E+00    0.4371379318E-02    0.6803735045E-01
    0.2700000000E+04    0.5215894382E+00    0.1441865206E+00    0.4460685983E+00    0.4247931615E-02    0.6888996253E-01
    0.2900000000E+04    0.5271771897E+00    0.1411268136E+00    0.4510163637E+00    0.4135725302E-02    0.6963465444E-01
    0.3100000000E+04    0.5320881810E+00    0.1383141762E+00    0.4555859551E+00    0.4033175733E-02    0.7028973395E-01
    0.3300000000E+04    0.5364323985E+00    0.1357155659E+00    0.4598270207E+00    0.3938979858E-02    0.7086973343E-01
    0.3500000000E+04    0.5402980367E+00    0.1333037080E+00    0.4637801836E+00    0.3852058900E-02    0.7138630921E-01
    0.3700000000E+04    0.5437564991E+00    0.1310559132E+00    0.4674790941E+00    0.3771513539E-02    0.7184890106E-01
    0.3900000000E+04    0.5468661110E+00    0.1289531624E+00    0.4709519316E+00    0.3696588900E-02    0.7226522188E-01
    0.4100000000E+04    0.5496749089E+00    0.1269793964E+00    0.4742225225E+00    0.3626647105E-02    0.7264162580E-01
    0.4300000000E+04    0.5522227595E+00    0.1251209598E+00    0.4773111882E+00    0.3561145678E-02    0.7298338779E-01
    0.4500000000E+04    0.5545429861E+00    0.1233661647E+00    0.4802353956E+00    0.3499620438E-02    0.7329491824E-01
    0.4700000000E+04    0.5566636282E+00    0.1217049440E+00    0.4830102648E+00    0.3441671885E-02    0.7357992929E-01
    0.4900000000E+04    0.5586084261E+00    0.1201285761E+00    0.4856489678E+00    0.3386954286E-02    0.7384156481E-01
    0.1000000000E+04    0.4099282627E+00    0.1892386947E+00    0.3720694677E+00    0.5941197246E-02    0.5407971506E-01
    0.3000000000E+04    0.5297098261E+00    0.1396918276E+00    0.4533450878E+00    0.4083330725E-02    0.6997241091E-01
    0.5000000000E+04    0.5595213213E+00    0.1193697986E+00    0.4869209204E+00    0.3360711554E-02    0.7396446953E-01
    0.7000000000E+04    0.5721628143E+00    0.1072321794E+00    0.5073885603E+00    0.2949616281E-02    0.7567452833E-01
    0.9000000000E+04    0.5789969904E+00    0.9874495320E-01    0.5217639221E+00    0.2672038899E-02    0.7660891557E-01
    0.1100000000E+05    0.5832356355E+00    0.9230178191E-01    0.5326627186E+00    0.2466654710E-02    0.7719482359E-01
    0.1300000000E+05    0.5861060648E+00    0.8715744968E-01    0.5413359760E+00    0.2305866215E-02    0.7759604990E-01
    0.1500000000E+05    0.5881720435E+00    0.8290717147E-01    0.5484742954E+00    0.2175084360E-02    0.7788809716E-01
    0.1700000000E+05    0.5897268926E+00    0.7930726370E-01    0.5544968200E+00    0.2065727813E-02    0.7811038866E-01
    0.1900000000E+05    0.5909376124E+00    0.7620002256E-01    0.5596757937E+00    0.1972351417E-02    0.7828545123E-01
    0.2100000000E+05    0.5919060004E+00    0.7347775505E-01    0.5641973247E+00    0.1891298867E-02    0.7842706697E-01
    0.2300000000E+05    0.5926975204E+00    0.7106380099E-01    0.5681938348E+00    0.1820004973E-02    0.7854413182E-01
    0.2500000000E+05    0.5933561251E+00    0.6890175321E-01    0.5717626334E+00    0.1756605961E-02    0.7864264099E-01
    0.2700000000E+05    0.5939123899E+00    0.6694896863E-01    0.5749771515E+00    0.1699708415E-02    0.7872678076E-01
    0.2900000000E+05    0.5943882247E+00    0.6517247472E-01    0.5778940482E+00    0.1648245492E-02    0.7879956241E-01
    0.3100000000E+05    0.5947997312E+00    0.6354628515E-01    0.5805578777E+00    0.1601383776E-02    0.7886320735E-01
    0.3300000000E+05    0.5951590012E+00    0.6204958139E-01    0.5830042516E+00    0.1558460880E-02    0.7891939022E-01
    0.3500000000E+05    0.5954752886E+00    0.6066544616E-01    0.5852620415E+00    0.1518942411E-02    0.7896939752E-01
    0.3700000000E+05    0.5957557928E+00    0.5937996000E-01    0.5873549488E+00    0.1482391563E-02    0.7901423401E-01
    0.3900000000E+05    0.5960061976E+00    0.5818154311E-01    0.5893026474E+00    0.1448447140E-02    0.7905469597E-01
    0.4100000000E+05    0.5962310488E+00    0.5706046709E-01    0.5911216299E+00    0.1416807387E-02    0.7909142272E-01
    0.4300000000E+05    0.5964340244E+00    0.5600848667E-01    0.5928258455E+00    0.1387217868E-02    0.7912493355E-01
    0.4500000000E+05    0.5966181324E+00    0.5501855793E-01    0.5944271868E+00    0.1359462264E-02    0.7915565475E-01
    0.4700000000E+05    0.5967858554E+00    0.5408461977E-01    0.5959358676E+00    0.1333355274E-02    0.7918393957E-01
    0.4900000000E+05    0.5969392611E+00    0.5320142250E-01    0.5973607177E+00    0.1308737078E-02    0.7921008331E-01
    0.1000000000E+05    0.5813406628E+00    0.9532579731E-01    0.5275511946E+00    0.2562485527E-02    0.7693208318E-01
    0.3000000000E+05    0.5946011853E+00    0.6434199719E-01    0.5792551906E+00    0.1624284312E-02    0.7883241166E-01
    0.5000000000E+05    0.5970111482E+00    0.5277739897E-01    0.5980441458E+00    0.1296942207E-02    0.7922243157E-01
    0.7000000000E+05    0.5980014032E+00    0.4610683129E-01    0.6087409279E+00    0.1113482759E-02    0.7940090861E-01
    0.9000000000E+05    0.5985354899E+00    0.4159208035E-01    0.6159230789E+00    0.9915876683E-03    0.7950723285E-01
    0.1100000000E+06    0.5988670871E+00    0.3826114893E-01    0.6211927704E+00    0.9028727512E-03    0.7957968278E-01
    0.1300000000E+06    0.5990916092E+00    0.3566600543E-01    0.6252815247E+00    0.8344976155E-03    0.7963323643E-01
    0.1500000000E+06    0.5992528513E+00    0.3356646043E-01    0.6285787866E+00    0.7796733135E-03    0.7967503430E-01
    0.1700000000E+06    0.5993736909E+00    0.3182019969E-01    0.6313140618E+00    0.7344213578E-03    0.7970894552E-01
    0.1900000000E+06    0.5994672223E+00    0.3033663886E-01    0.6336327984E+00    0.6962324001E-03    0.7973726481E-01
    0.2100000000E+06    0.5995414695E+00    0.2905492027E-01    0.6356323618E+00    0.6634336565E-03    0.7976144790E-01
    0.2300000000E+06    0.5996016177E+00    0.2793239243E-01    0.6373807815E+00    0.6348607151E-03    0.7978246774E-01
    0.2500000000E+06    0.5996511626E+00    0.2693812899E-01    0.6389272560E+00    0.6096743421E-03    0.7980100225E-01
    0.2700000000E+06    0.5996925444E+00    0.2604906872E-01    0.6403083878E+00    0.5872521152E-03    0.7981754015E-01
    0.2900000000E+06    0.5997275164E+00    0.2524760709E-01    0.6415520619E+00    0.5671212183E-03    0.7983244387E-01
    0.3100000000E+06    0.5997573699E+00    0.2452003433E-01    0.6426799550E+00    0.5489150927E-03    0.7984598866E-01
    0.3300000000E+06    0.5997830763E+00    0.2385548880E-01    0.6437092128E+00    0.5323445321E-03    0.7985838794E-01
    0.3500000000E+06    0.5998053795E+00    0.2324523571E-01    0.6446536034E+00    0.5171778536E-03    0.7986981012E-01
    0.3700000000E+06    0.5998248587E+00    0.2268215778E-01    0.6455243303E+00    0.5032269539E-03    0.7988039015E-01
    0.3900000000E+06    0.5998419712E+00    0.2216038791E-01    0.6463306176E+00    0.4903372909E-03    0.7989023769E-01
    0.4100000000E+06    0.5998570825E+00    0.2167503915E-01    0.6470801401E+00    0.4783805465E-03    0.7989944292E-01
    0.4300000000E+06    0.5998704884E+00    0.2122200294E-01    0.6477793431E+00    0.4672491616E-03    0.7990808078E-01
    0.4500000000E+06    0.5998824303E+00    0.2079779595E-01    0.6484336859E+00    0.4568522032E-03    0.7991621421E-01
    0.4700000000E+06    0.5998931073E+00    0.2039944238E-01    0.6490478282E+00    0.4471121949E-03    0.7992389648E-01
    0.4900000000E+06    0.5999026849E+00    0.2002438229E-01    0.6496257750E+00    0.4379626575E-03    0.7993117308E-01
    0.1000000000E+06    0.5987188107E+00    0.3981357955E-01    0.6187398061E+00    0.9440884133E-03    0.7954648156E-01
    0.3000000000E+06    0.5997430160E+00    0.2487532050E-01    0.6421293188E+00    0.5577971802E-03    0.7983937157E-01
    0.5000000000E+06    0.5999071057E+00    0.1984488297E-01    0.6499022763E+00    0.4335910637E-03    0.7993467169E-01
    0.7000000000E+06    0.5999620132E+00    0.1706858019E-01    0.6541709400E+00    0.3666018797E-03    0.7999049697E-01
    0.9000000000E+06    0.5999841825E+00    0.1523876099E-01    0.6569762452E+00    0.3231389501E-03    0.8002973740E-01
    0.1100000000E+07    0.5999930419E+00    0.1391325322E-01    0.6590044030E+00    0.2920300873E-03    0.8005992022E-01
    0.1300000000E+07    0.5999955607E+00    0.1289455868E-01    0.6605608429E+00    0.2683530247E-03    0.8008441654E-01
    0.1500000000E+07    0.5999947646E+00    0.1207918674E-01    0.6618052172E+00    0.2495558212E-03    0.8010501797E-01
    0.1700000000E+07    0.5999921383E+00    0.1140688870E-01    0.6628302959E+00    0.2341658061E-03    0.8012278766E-01
    0.1900000000E+07    0.5999884739E+00    0.1083985519E-01    0.6636942106E+00    0.2212656768E-03    0.8013840708E-01
    0.2100000000E+07    0.5999842204E+00    0.1035298097E-01    0.6644355125E+00    0.2102503033E-03    0.8015233885E-01
    0.2300000000E+07    0.5999796441E+00    0.9928845430E-02    0.6650809249E+00    0.2007022011E-03    0.8016491113E-01
    0.2500000000E+07    0.5999749078E+00    0.9554924777E-02    0.6656496424E+00    0.1923227918E-03    0.8017636509E-01
    0.2700000000E+07    0.5999701133E+00    0.9221949964E-02    0.6661558598E+00    0.1848921321E-03    0.8018688305E-01
    0.2900000000E+07    0.5999653252E+00    0.8922891896E-02    0.6666103346E+00    0.1782441488E-03    0.8019660620E-01
    0.3100000000E+07    0.5999605846E+00    0.8652308862E-02    0.6670213896E+00    0.1722507840E-03    0.8020564607E-01
    0.3300000000E+07    0.5999559175E+00    0.8405912532E-02    0.6673955801E+00    0.1668114950E-03    0.8021409228E-01
    0.3500000000E+07    0.5999513400E+00    0.8180270899E-02    0.6677381497E+00    0.1618460930E-03    0.8022201793E-01
    0.3700000000E+07    0.5999468615E+00    0.7972599792E-02    0.6680533503E+00    0.1572897361E-03    0.8022948342E-01
    0.3900000000E+07    0.5999424872E+00    0.7780613345E-02    0.6683446712E+00    0.1530893498E-03    0.8023653922E-01
    0.4100000000E+07    0.5999382190E+00    0.7602414649E-02    0.6686150072E+00    0.1492010167E-03    0.8024322793E-01
    0.4300000000E+07    0.5999340572E+00    0.7436414414E-02    0.6688667825E+00    0.1455880418E-03    0.8024958585E-01
    0.4500000000E+07    0.5999300005E+00    0.7281269524E-02    0.6691020451E+00    0.1422194941E-03    0.8025564415E-01
    0.4700000000E+07    0.5999260466E+00    0.7135835978E-02    0.6693225391E+00    0.1390690928E-03    0.8026142979E-01
    0.4900000000E+07    0.5999221930E+00    0.6999132397E-02    0.6695297601E+00    0.1361143462E-03    0.8026696626E-01
    0.1000000000E+07    0.5999896993E+00    0.1452848078E-01    0.6580634590E+00    0.3064281218E-03    0.8004569704E-01
    0.3000000000E+07    0.5999629471E+00    0.8784332046E-02    0.6668208446E+00    0.1751724712E-03    0.8020120550E-01
    0.5000000000E+07    0.5999203028E+00    0.6933784955E-02    0.6696288036E+00    0.1347041817E-03    0.8026964758E-01
    0.7000000000E+07    0.5998869690E+00    0.5929369453E-02    0.6711500879E+00    0.1132240914E-03    0.8031407634E-01
    0.9000000000E+07    0.5998601998E+00    0.5273763214E-02    0.6721419854E+00    0.9941702677E-04    0.8034703374E-01
    0.1100000000E+08    0.5998379423E+00    0.4801962276E-02    0.6728552549E+00    0.8959701446E-04    0.8037324562E-01
    0.1300000000E+08    0.5998189269E+00    0.4441125539E-02    0.6734004570E+00    0.8215793141E-04    0.8039501067E-01
    0.1500000000E+08    0.5998023411E+00    0.4153398931E-02    0.6738349970E+00    0.7627359302E-04    0.8041362186E-01
    0.1700000000E+08    0.5997876399E+00    0.3916883751E-02    0.6741920615E+00    0.7147006985E-04    0.8042987913E-01
    0.1900000000E+08    0.5997744413E+00    0.3717906283E-02    0.6744923609E+00    0.6745356520E-04    0.8044431200E-01
    0.2100000000E+08    0.5997624679E+00    0.3547424752E-02    0.6747495840E+00    0.6403102712E-04    0.8045728924E-01
    0.2300000000E+08    0.5997515126E+00    0.3399186870E-02    0.6749731925E+00    0.6106970864E-04    0.8046907797E-01
    0.2500000000E+08    0.5997414161E+00    0.3268711267E-02    0.6751699660E+00    0.5847494164E-04    0.8047987790E-01
    0.2700000000E+08    0.5997320540E+00    0.3152689851E-02    0.6753449076E+00    0.5617716339E-04    0.8048984229E-01
