  Pressure (Pa) 22mC5-400 (mol/kg) 2mC6-400 (mol/kg) 3mC6-400 (mol/kg) 33mC5-400 (mol/kg) 23mC5-400 (mol/kg)
    0.1000000000E+01    0.2120956630E-02    0.7969767799E-03    0.3704688121E-02    0.1946699602E-03    0.4655208344E-03
    0.3000000000E+01    0.6302901146E-02    0.2351331978E-02    0.1096845530E-01    0.5743492248E-03    0.1383410920E-02
    0.5000000000E+01    0.1040696271E-01    0.3854704899E-02    0.1804452584E-01    0.9415896841E-03    0.2284220612E-02
    0.7000000000E+01    0.1443554041E-01    0.5309175500E-02    0.2494028085E-01    0.1296897787E-02    0.3168475943E-02
    0.9000000000E+01    0.1839093381E-01    0.6716717341E-02    0.3166271689E-01    0.1640754074E-02    0.4036681122E-02
    0.1100000000E+02    0.2227534800E-01    0.8079204204E-02    0.3821847080E-01    0.1973614789E-02    0.4889319648E-02
    0.1300000000E+02    0.2609089840E-01    0.9398416221E-02    0.4461384251E-01    0.2295913373E-02    0.5726855361E-02
    0.1500000000E+02    0.2983961523E-01    0.1067604556E-01    0.5085481622E-01    0.2608061851E-02    0.6549733424E-02
    0.1700000000E+02    0.3352344778E-01    0.1191370171E-01    0.5694708000E-01    0.2910452118E-02    0.7358381253E-02
    0.1900000000E+02    0.3714426836E-01    0.1311291638E-01    0.6289604386E-01    0.3203457133E-02    0.8153209388E-02
    0.2100000000E+02    0.4070387606E-01    0.1427514804E-01    0.6870685663E-01    0.3487432032E-02    0.8934612318E-02
    0.2300000000E+02    0.4420400030E-01    0.1540178622E-01    0.7438442154E-01    0.3762715162E-02    0.9702969252E-02
    0.2500000000E+02    0.4764630413E-01    0.1649415541E-01    0.7993341074E-01    0.4029629040E-02    0.1045864485E-01
    0.2700000000E+02    0.5103238743E-01    0.1755351878E-01    0.8535827877E-01    0.4288481261E-02    0.1120198993E-01
    0.2900000000E+02    0.5436378981E-01    0.1858108159E-01    0.9066327511E-01    0.4539565325E-02    0.1193334209E-01
    0.3100000000E+02    0.5764199347E-01    0.1957799444E-01    0.9585245591E-01    0.4783161428E-02    0.1265302633E-01
    0.3300000000E+02    0.6086842584E-01    0.2054535626E-01    0.1009296949E+00    0.5019537188E-02    0.1336135566E-01
    0.3500000000E+02    0.6404446208E-01    0.2148421711E-01    0.1058986933E+00    0.5248948333E-02    0.1405863162E-01
    0.3700000000E+02    0.6717142742E-01    0.2239558080E-01    0.1107629900E+00    0.5471639338E-02    0.1474514480E-01
    0.3900000000E+02    0.7025059948E-01    0.2328040738E-01    0.1155259694E+00    0.5687844026E-02    0.1542117536E-01
    0.4100000000E+02    0.7328321031E-01    0.2413961543E-01    0.1201908709E+00    0.5897786130E-02    0.1608699346E-01
    0.4300000000E+02    0.7627044845E-01    0.2497408424E-01    0.1247607956E+00    0.6101679819E-02    0.1674285974E-01
    0.4500000000E+02    0.7921346085E-01    0.2578465580E-01    0.1292387141E+00    0.6299730193E-02    0.1738902569E-01
    0.4700000000E+02    0.8211335463E-01    0.2657213676E-01    0.1336274736E+00    0.6492133748E-02    0.1802573408E-01
    0.4900000000E+02    0.8497119884E-01    0.2733730020E-01    0.1379298035E+00    0.6679078812E-02    0.1865321935E-01
    0.1000000000E+02    0.2034187905E-01    0.7403479261E-02    0.3496102773E-01    0.1808531271E-02    0.4464916777E-02
    0.3000000000E+02    0.5600945101E-01    0.1908329940E-01    0.9327209620E-01    0.4662282359E-02    0.1229462286E-01
    0.5000000000E+02    0.8638467641E-01    0.2771174567E-01    0.1400493798E+00    0.6770561131E-02    0.1896357437E-01
    0.7000000000E+02    0.1126801228E+00    0.3419386274E-01    0.1784865904E+00    0.8353809966E-02    0.2473766363E-01
    0.9000000000E+02    0.1357538598E+00    0.3912387574E-01    0.2106907883E+00    0.9556843411E-02    0.2980505648E-01
    0.1100000000E+03    0.1562305999E+00    0.4290591726E-01    0.2381092640E+00    0.1047822730E-01    0.3430275132E-01
    0.1300000000E+03    0.1745764730E+00    0.4582292917E-01    0.2617696824E+00    0.1118703882E-01    0.3833297340E-01
    0.1500000000E+03    0.1911468300E+00    0.4807788227E-01    0.2824223469E+00    0.1173289019E-01    0.4197365618E-01
    0.1700000000E+03    0.2062177471E+00    0.4981942061E-01    0.3006281880E+00    0.1215216385E-01    0.4528534912E-01
    0.1900000000E+03    0.2200073487E+00    0.5115835368E-01    0.3168152039E+00    0.1247202253E-01    0.4831589307E-01
    0.2100000000E+03    0.2326905811E+00    0.5217856932E-01    0.3313158144E+00    0.1271306298E-01    0.5110366004E-01
    0.2300000000E+03    0.2444096675E+00    0.5294443559E-01    0.3443922642E+00    0.1289111655E-01    0.5367984560E-01
    0.2500000000E+03    0.2552816450E+00    0.5350593135E-01    0.3562543144E+00    0.1301849772E-01    0.5607012178E-01
    0.2700000000E+03    0.2654038926E+00    0.5390227160E-01    0.3670718247E+00    0.1310488683E-01    0.5829584932E-01
    0.2900000000E+03    0.2748582485E+00    0.5416451320E-01    0.3769838715E+00    0.1315796501E-01    0.6037498053E-01
    0.3100000000E+03    0.2837141196E+00    0.5431745683E-01    0.3861054674E+00    0.1318387793E-01    0.6232274125E-01
    0.3300000000E+03    0.2920308614E+00    0.5438105448E-01    0.3945325881E+00    0.1318757939E-01    0.6415215279E-01
    0.3500000000E+03    0.2998596209E+00    0.5437146415E-01    0.4023459852E+00    0.1317308899E-01    0.6587443604E-01
    0.3700000000E+03    0.3072447795E+00    0.5430184922E-01    0.4096141146E+00    0.1314368767E-01    0.6749932801E-01
    0.3900000000E+03    0.3142250949E+00    0.5418299072E-01    0.4163954110E+00    0.1310206765E-01    0.6903533211E-01
    0.4100000000E+03    0.3208346122E+00    0.5402376056E-01    0.4227400735E+00    0.1305044851E-01    0.7048991820E-01
    0.4300000000E+03    0.3271033995E+00    0.5383149073E-01    0.4286914807E+00    0.1299066785E-01    0.7186968368E-01
    0.4500000000E+03    0.3330581442E+00    0.5361226347E-01    0.4342873222E+00    0.1292425266E-01    0.7318048446E-01
    0.4700000000E+03    0.3387226427E+00    0.5337114121E-01    0.4395605114E+00    0.1285247596E-01    0.7442754224E-01
    0.4900000000E+03    0.3441182034E+00    0.5311234980E-01    0.4445399264E+00    0.1277640202E-01    0.7561553297E-01
    0.1000000000E+03    0.1462846640E+00    0.4113844907E-01    0.2249261855E+00    0.1004787424E-01    0.3211805666E-01
    0.3000000000E+03    0.2793570732E+00    0.5425330043E-01    0.3816370809E+00    0.1317398295E-01    0.6136442193E-01
    0.5000000000E+03    0.3467211944E+00    0.5297745683E-01    0.4469275413E+00    0.1273703820E-01    0.7618870856E-01
    0.7000000000E+03    0.3884349643E+00    0.4995605030E-01    0.4840864352E+00    0.1187678266E-01    0.8537929362E-01
    0.9000000000E+03    0.4168648289E+00    0.4700148646E-01    0.5085913598E+00    0.1105030586E-01    0.9165040855E-01
    0.1100000000E+04    0.4374338328E+00    0.4440797280E-01    0.5262071955E+00    0.1033072966E-01    0.9619283834E-01
    0.1300000000E+04    0.4529598260E+00    0.4217686771E-01    0.5396091588E+00    0.9716014281E-02    0.9962558927E-01
    0.1500000000E+04    0.4650631259E+00    0.4025429382E-01    0.5502222892E+00    0.9190046603E-02    0.1023047520E+00
    0.1700000000E+04    0.4747424777E+00    0.3858426685E-01    0.5588815597E+00    0.8736497790E-02    0.1044499078E+00
    0.1900000000E+04    0.4826463045E+00    0.3711973472E-01    0.5661116656E+00    0.8341702295E-02    0.1062036753E+00
    0.2100000000E+04    0.4892131865E+00    0.3582330361E-01    0.5722604969E+00    0.7994806724E-02    0.1076625577E+00
    0.2300000000E+04    0.4947498667E+00    0.3466566541E-01    0.5775687241E+00    0.7687306279E-02    0.1088940768E+00
    0.2500000000E+04    0.4994769782E+00    0.3362381990E-01    0.5822086840E+00    0.7412530504E-02    0.1099468185E+00
    0.2700000000E+04    0.5035570538E+00    0.3267958435E-01    0.5863073565E+00    0.7165212194E-02    0.1108565891E+00
    0.2900000000E+04    0.5071123238E+00    0.3181844451E-01    0.5899605777E+00    0.6941154143E-02    0.1116503267E+00
    0.3100000000E+04    0.5102363830E+00    0.3102869342E-01    0.5932421788E+00    0.6736978561E-02    0.1123486668E+00
    0.3300000000E+04    0.5130020488E+00    0.3030079025E-01    0.5962100550E+00    0.6549940036E-02    0.1129676705E+00
    0.3500000000E+04    0.5154667805E+00    0.2962688192E-01    0.5989103130E+00    0.6377785661E-02    0.1135200165E+00
    0.3700000000E+04    0.5176764959E+00    0.2900044372E-01    0.6013801744E+00    0.6218649813E-02    0.1140158408E+00
    0.3900000000E+04    0.5196683100E+00    0.2841600702E-01    0.6036500525E+00    0.6070974339E-02    0.1144633397E+00
    0.4100000000E+04    0.5214725335E+00    0.2786895093E-01    0.6057450675E+00    0.5933447472E-02    0.1148692095E+00
    0.4300000000E+04    0.5231141529E+00    0.2735534137E-01    0.6076861689E+00    0.5804956648E-02    0.1152389726E+00
    0.4500000000E+04    0.5246139431E+00    0.2687180551E-01    0.6094909821E+00    0.5684551721E-02    0.1155772223E+00
    0.4700000000E+04    0.5259893130E+00    0.2641543300E-01    0.6111744539E+00    0.5571416026E-02    0.1158878095E+00
    0.4900000000E+04    0.5272549565E+00    0.2598369742E-01    0.6127493514E+00    0.5464843422E-02    0.1161739858E+00
    0.1000000000E+04    0.4279175185E+00    0.4565699872E-01    0.5180515780E+00    0.1067663559E-01    0.9409061261E-01
    0.3000000000E+04    0.5087232897E+00    0.3141528616E-01    0.5916438948E+00    0.6836765618E-02    0.1120103265E+00
    0.5000000000E+04    0.5278506074E+00    0.2577636822E-01    0.6134995766E+00    0.5413823235E-02    0.1163088000E+00
    0.7000000000E+04    0.5362322441E+00    0.2251057437E-01    0.6248073268E+00    0.4623948300E-02    0.1182173924E+00
    0.9000000000E+04    0.5409079770E+00    0.2029604717E-01    0.6319452160E+00    0.4103287094E-02    0.1192962061E+00
    0.1100000000E+05    0.5438816540E+00    0.1866021868E-01    0.6369526370E+00    0.3726494548E-02    0.1199913650E+00
    0.1300000000E+05    0.5459357756E+00    0.1738474494E-01    0.6407049007E+00    0.3437308725E-02    0.1204778664E+00
    0.1500000000E+05    0.5474378344E+00    0.1635235454E-01    0.6436466519E+00    0.3206190670E-02    0.1208382644E+00
    0.1700000000E+05    0.5485829022E+00    0.1549344907E-01    0.6460302539E+00    0.3015927493E-02    0.1211165761E+00
    0.1900000000E+05    0.5494840138E+00    0.1476366491E-01    0.6480107181E+00    0.2855711779E-02    0.1213384206E+00
    0.2100000000E+05    0.5502111382E+00    0.1413316040E-01    0.6496890834E+00    0.2718365761E-02    0.1215197272E+00
    0.2300000000E+05    0.5508098804E+00    0.1358099946E-01    0.6511343315E+00    0.2598908440E-02    0.1216709242E+00
    0.2500000000E+05    0.5513112241E+00    0.1309198819E-01    0.6523953425E+00    0.2493759185E-02    0.1217991281E+00
    0.2700000000E+05    0.5517369492E+00    0.1265478845E-01    0.6535078270E+00    0.2400268355E-02    0.1219093634E+00
    0.2900000000E+05    0.5521028088E+00    0.1226073962E-01    0.6544985493E+00    0.2316427114E-02    0.1220052806E+00
    0.3100000000E+05    0.5524204764E+00    0.1190309375E-01    0.6553880082E+00    0.2240680763E-02    0.1220895965E+00
    0.3300000000E+05    0.5526987842E+00    0.1157650247E-01    0.6561921992E+00    0.2171804575E-02    0.1221643757E+00
    0.3500000000E+05    0.5529445371E+00    0.1127666325E-01    0.6569238078E+00    0.2108818776E-02    0.1222312160E+00
    0.3700000000E+05    0.5531630615E+00    0.1100006931E-01    0.6575930383E+00    0.2050928895E-02    0.1222913735E+00
    0.3900000000E+05    0.5533585863E+00    0.1074382923E-01    0.6582082030E+00    0.1997482956E-02    0.1223458498E+00
    0.4100000000E+05    0.5535345104E+00    0.1050553417E-01    0.6587761491E+00    0.1947940193E-02    0.1223954535E+00
    0.4300000000E+05    0.5536935972E+00    0.1028315872E-01    0.6593025740E+00    0.1901847766E-02    0.1224408448E+00
    0.4500000000E+05    0.5538381159E+00    0.1007498551E-01    0.6597922614E+00    0.1858823180E-02    0.1224825682E+00
    0.4700000000E+05    0.5539699471E+00    0.9879547271E-02    0.6602492609E+00    0.1818540824E-02    0.1225210770E+00
    0.4900000000E+05    0.5540906625E+00    0.9695581745E-02    0.6606770263E+00    0.1780721527E-02    0.1225567516E+00
    0.1000000000E+05    0.5425441341E+00    0.1942281511E-01    0.6346458422E+00    0.3901323242E-02    0.1196775717E+00
    0.3000000000E+05    0.5522670591E+00    0.1207772863E-01    0.6549548476E+00    0.2277625210E-02    0.1220487469E+00
    0.5000000000E+05    0.5541472738E+00    0.9607553939E-02    0.6608808896E+00    0.1762658930E-02    0.1225736285E+00
    0.7000000000E+05    0.5549291398E+00    0.8247532858E-02    0.6639636028E+00    0.1486473099E-02    0.1228195126E+00
    0.9000000000E+05    0.5553509520E+00    0.7352987897E-02    0.6659237350E+00    0.1307911651E-02    0.1229677120E+00
    0.1100000000E+06    0.5556115987E+00    0.6706074186E-02    0.6673085077E+00    0.1180427575E-02    0.1230693999E+00
    0.1300000000E+06    0.5557867402E+00    0.6209598394E-02    0.6683528488E+00    0.1083587693E-02    0.1231449095E+00
    0.1500000000E+06    0.5559113213E+00    0.5812689008E-02    0.6691763584E+00    0.1006827076E-02    0.1232040323E+00
    0.1700000000E+06    0.5560036582E+00    0.5485762741E-02    0.6698471156E+00    0.9440619978E-03    0.1232521119E+00
    0.1900000000E+06    0.5560742512E+00    0.5210273246E-02    0.6704070720E+00    0.8915097069E-03    0.1232923345E+00
    0.2100000000E+06    0.5561295381E+00    0.4973917334E-02    0.6708836622E+00    0.8466785303E-03    0.1233267298E+00
    0.2300000000E+06    0.5561736769E+00    0.4768165068E-02    0.6712956774E+00    0.8078516731E-03    0.1233566588E+00
    0.2500000000E+06    0.5562094680E+00    0.4586889066E-02    0.6716564752E+00    0.7738027129E-03    0.1233830724E+00
    0.2700000000E+06    0.5562388632E+00    0.4425557652E-02    0.6719758442E+00    0.7436291411E-03    0.1234066578E+00
    0.2900000000E+06    0.5562632621E+00    0.4280736589E-02    0.6722611422E+00    0.7166501194E-03    0.1234279255E+00
    0.3100000000E+06    0.5562836933E+00    0.4149768855E-02    0.6725180205E+00    0.6923410933E-03    0.1234472638E+00
    0.3300000000E+06    0.5563009283E+00    0.4030561815E-02    0.6727509009E+00    0.6702905254E-03    0.1234649743E+00
    0.3500000000E+06    0.5563155566E+00    0.3921441613E-02    0.6729632991E+00    0.6501704186E-03    0.1234812952E+00
    0.3700000000E+06    0.5563280355E+00    0.3821051052E-02    0.6731580501E+00    0.6317157185E-03    0.1234964175E+00
    0.3900000000E+06    0.5563387252E+00    0.3728276378E-02    0.6733374689E+00    0.6147095996E-03    0.1235104967E+00
    0.4100000000E+06    0.5563479124E+00    0.3642193766E-02    0.6735034666E+00    0.5989727464E-03    0.1235236608E+00
    0.4300000000E+06    0.5563558282E+00    0.3562029541E-02    0.6736576370E+00    0.5843554083E-03    0.1235360162E+00
    0.4500000000E+06    0.5563626609E+00    0.3487130128E-02    0.6738013210E+00    0.5707314186E-03    0.1235476521E+00
    0.4700000000E+06    0.5563685649E+00    0.3416939059E-02    0.6739356560E+00    0.5579936279E-03    0.1235586445E+00
    0.4900000000E+06    0.5563736682E+00    0.3350979142E-02    0.6740616140E+00    0.5460503731E-03    0.1235690579E+00
    0.1000000000E+06    0.5554952568E+00    0.7006213691E-02    0.6666694253E+00    0.1239396344E-02    0.1230227315E+00
    0.3000000000E+06    0.5562739204E+00    0.4213663109E-02    0.6723928330E+00    0.7041898287E-03    0.1234378153E+00
    0.5000000000E+06    0.5563759537E+00    0.3319454917E-02    0.6741217176E+00    0.5403515945E-03    0.1235740652E+00
    0.7000000000E+06    0.5563981142E+00    0.2835424854E-02    0.6750367980E+00    0.4536425905E-03    0.1236540006E+00
    0.9000000000E+06    0.5563986228E+00    0.2520018726E-02    0.6756252275E+00    0.3980059609E-03    0.1237102183E+00
    0.1100000000E+07    0.5563914794E+00    0.2293309277E-02    0.6760443326E+00    0.3584841466E-03    0.1237534699E+00
    0.1300000000E+07    0.5563813792E+00    0.2120076380E-02    0.6763623957E+00    0.3285723368E-03    0.1237885769E+00
    0.1500000000E+07    0.5563701981E+00    0.1982041425E-02    0.6766144717E+00    0.3049292541E-03    0.1238181037E+00
    0.1700000000E+07    0.5563587643E+00    0.1868641365E-02    0.6768206504E+00    0.2856403467E-03    0.1238435727E+00
    0.1900000000E+07    0.5563474625E+00    0.1773286257E-02    0.6769933815E+00    0.2695198181E-03    0.1238659601E+00
    0.2100000000E+07    0.5563364723E+00    0.1691621655E-02    0.6771408459E+00    0.2557890726E-03    0.1238859286E+00
    0.2300000000E+07    0.5563258730E+00    0.1620638380E-02    0.6772686705E+00    0.2439130715E-03    0.1239039486E+00
    0.2500000000E+07    0.5563156926E+00    0.1558180752E-02    0.6773808699E+00    0.2335104645E-03    0.1239203655E+00
    0.2700000000E+07    0.5563059328E+00    0.1502658236E-02    0.6774803956E+00    0.2243011693E-03    0.1239354408E+00
    0.2900000000E+07    0.5562965815E+00    0.1452867947E-02    0.6775694726E+00    0.2160742576E-03    0.1239493768E+00
    0.3100000000E+07    0.5562876203E+00    0.1407880912E-02    0.6776498147E+00    0.2086674654E-03    0.1239623334E+00
    0.3300000000E+07    0.5562790278E+00    0.1366966655E-02    0.6777227657E+00    0.2019536610E-03    0.1239744390E+00
    0.3500000000E+07    0.5562707817E+00    0.1329541723E-02    0.6777893966E+00    0.1958316432E-03    0.1239857983E+00
    0.3700000000E+07    0.5562628603E+00    0.1295133655E-02    0.6778505727E+00    0.1902197218E-03    0.1239964981E+00
    0.3900000000E+07    0.5562552427E+00    0.1263355190E-02    0.6779070022E+00    0.1850511378E-03    0.1240066105E+00
    0.4100000000E+07    0.5562479091E+00    0.1233885454E-02    0.6779592704E+00    0.1802707320E-03    0.1240161968E+00
    0.4300000000E+07    0.5562408414E+00    0.1206455990E-02    0.6780078664E+00    0.1758324790E-03    0.1240253089E+00
    0.4500000000E+07    0.5562340226E+00    0.1180840219E-02    0.6780532023E+00    0.1716976320E-03    0.1240339914E+00
    0.4700000000E+07    0.5562274370E+00    0.1156845391E-02    0.6780956283E+00    0.1678333085E-03    0.1240422832E+00
    0.4900000000E+07    0.5562210702E+00    0.1134306343E-02    0.6781354437E+00    0.1642113978E-03    0.1240502178E+00
    0.1000000000E+07    0.5563956118E+00    0.2398351556E-02    0.6758505484E+00    0.3767447267E-03    0.1237330875E+00
    0.3000000000E+07    0.5562920535E+00    0.1429823635E-02    0.6776106442E+00    0.2122769914E-03    0.1239559689E+00
    0.5000000000E+07    0.5562179647E+00    0.1123537443E-02    0.6781544545E+00    0.1624836533E-03    0.1240540605E+00
    0.7000000000E+07    0.5561646458E+00    0.9584439200E-03    0.6784448739E+00    0.1362323891E-03    0.1241177305E+00
    0.9000000000E+07    0.5561232065E+00    0.8511159067E-03    0.6786326163E+00    0.1194246274E-03    0.1241649581E+00
    0.1100000000E+08    0.5560893555E+00    0.7740887025E-03    0.6787668215E+00    0.1075022179E-03    0.1242025175E+00
    0.1300000000E+08    0.5560607546E+00    0.7152962029E-03    0.6788689464E+00    0.9848820575E-04    0.1242337036E+00
    0.1500000000E+08    0.5560359977E+00    0.6684892097E-03    0.6789500549E+00    0.9136898907E-04    0.1242603698E+00
    0.1700000000E+08    0.5560141756E+00    0.6300618983E-03    0.6790165088E+00    0.8556458139E-04    0.1242836626E+00
    0.1900000000E+08    0.5559946670E+00    0.5977674108E-03    0.6790722614E+00    0.8071615545E-04    0.1243043409E+00
    0.2100000000E+08    0.5559770285E+00    0.5701225316E-03    0.6791199160E+00    0.7658831462E-04    0.1243229333E+00
    0.2300000000E+08    0.5559609333E+00    0.5461031017E-03    0.6791612667E+00    0.7301941838E-04    0.1243398225E+00
    0.2500000000E+08    0.5559461330E+00    0.5249759516E-03    0.6791975958E+00    0.6989433006E-04    0.1243552949E+00
    0.2700000000E+08    0.5559324348E+00    0.5062004445E-03    0.6792298472E+00    0.6712853401E-04    0.1243695699E+00
