  Pressure (Pa) 22mC5-400 (mol/kg) 2mC6-400 (mol/kg) 3mC6-400 (mol/kg) 33mC5-400 (mol/kg) 23mC5-400 (mol/kg)
    0.1000000000E+01    0.2114636876E-02    0.3981116511E-02    0.5294708607E-03    0.5186052236E-03    0.1856537188E-03
    0.3000000000E+01    0.6247886641E-02    0.1172460910E-01    0.1568967518E-02    0.1527211620E-02    0.5485363096E-03
    0.5000000000E+01    0.1025907474E-01    0.1918934903E-01    0.2583410523E-02    0.2499364794E-02    0.9007095193E-03
    0.7000000000E+01    0.1415489179E-01    0.2638986117E-01    0.3573797707E-02    0.3436962484E-02    0.1242760288E-02
    0.9000000000E+01    0.1794153243E-01    0.3333966390E-01    0.4541073358E-02    0.4341771043E-02    0.1575232048E-02
    0.1100000000E+02    0.2162474071E-01    0.4005135624E-01    0.5486131797E-02    0.5215436799E-02    0.1898628711E-02
    0.1300000000E+02    0.2520985067E-01    0.4653669596E-01    0.6409820674E-02    0.6059496241E-02    0.2213418218E-02
    0.1500000000E+02    0.2870182247E-01    0.5280666974E-01    0.7312943994E-02    0.6875385180E-02    0.2520035716E-02
    0.1700000000E+02    0.3210527491E-01    0.5887155631E-01    0.8196264926E-02    0.7664446983E-02    0.2818886407E-02
    0.1900000000E+02    0.3542451446E-01    0.6474098344E-01    0.9060508379E-02    0.8427940010E-02    0.3110348096E-02
    0.2100000000E+02    0.3866356149E-01    0.7042397940E-01    0.9906363399E-02    0.9167044329E-02    0.3394773488E-02
    0.2300000000E+02    0.4182617381E-01    0.7592901959E-01    0.1073448538E-01    0.9882867798E-02    0.3672492260E-02
    0.2500000000E+02    0.4491586798E-01    0.8126406880E-01    0.1154549811E-01    0.1057645159E-01    0.3943812923E-02
    0.2700000000E+02    0.4793593852E-01    0.8643661958E-01    0.1233999568E-01    0.1124877518E-01    0.4209024511E-02
    0.2900000000E+02    0.5088947535E-01    0.9145372725E-01    0.1311854424E-01    0.1190076095E-01    0.4468398108E-02
    0.3100000000E+02    0.5377937958E-01    0.9632204165E-01    0.1388168366E-01    0.1253327830E-01    0.4722188238E-02
    0.3300000000E+02    0.5660837786E-01    0.1010478363E+00    0.1462992901E-01    0.1314714746E-01    0.4970634118E-02
    0.3500000000E+02    0.5937903545E-01    0.1056370349E+00    0.1536377203E-01    0.1374314297E-01    0.5213960807E-02
    0.3700000000E+02    0.6209376812E-01    0.1100952358E+00    0.1608368242E-01    0.1432199686E-01    0.5452380252E-02
    0.3900000000E+02    0.6475485298E-01    0.1144277341E+00    0.1679010911E-01    0.1488440151E-01    0.5686092234E-02
    0.4100000000E+02    0.6736443846E-01    0.1186395421E+00    0.1748348135E-01    0.1543101241E-01    0.5915285244E-02
    0.4300000000E+02    0.6992455331E-01    0.1227354084E+00    0.1816420983E-01    0.1596245053E-01    0.6140137278E-02
    0.4500000000E+02    0.7243711499E-01    0.1267198351E+00    0.1883268770E-01    0.1647930464E-01    0.6360816566E-02
    0.4700000000E+02    0.7490393726E-01    0.1305970935E+00    0.1948929146E-01    0.1698213337E-01    0.6577482240E-02
    0.4900000000E+02    0.7732673718E-01    0.1343712392E+00    0.2013438187E-01    0.1747146714E-01    0.6790284951E-02
    0.1000000000E+02    0.1979572307E-01    0.3672452015E-01    0.5016325694E-02    0.4782398279E-02    0.1738034717E-02
    0.3000000000E+02    0.5234220719E-01    0.9390608301E-01    0.1350200734E-01    0.1221940080E-01    0.4595975811E-02
    0.5000000000E+02    0.7852214052E-01    0.1362208564E+00    0.2045271820E-01    0.1771123190E-01    0.6895282595E-02
    0.7000000000E+02    0.1004722292E+00    0.1686411318E+00    0.2629194319E-01    0.2190809295E-01    0.8823418649E-02
    0.9000000000E+02    0.1194350340E+00    0.1941429559E+00    0.3129739681E-01    0.2519929332E-01    0.1048940544E-01
    0.1100000000E+03    0.1361861441E+00    0.2146208136E+00    0.3565923847E-01    0.2783273577E-01    0.1196129559E-01
    0.1300000000E+03    0.1512370741E+00    0.2313394547E+00    0.3951235303E-01    0.2997396412E-01    0.1328397268E-01
    0.1500000000E+03    0.1649403984E+00    0.2451758796E+00    0.4295527129E-01    0.3173779828E-01    0.1448837481E-01
    0.1700000000E+03    0.1775481029E+00    0.2567573914E+00    0.4606177992E-01    0.3320638686E-01    0.1559661412E-01
    0.1900000000E+03    0.1892458262E+00    0.2665444648E+00    0.4888832564E-01    0.3444004589E-01    0.1662498106E-01
    0.2100000000E+03    0.2001739023E+00    0.2748826194E+00    0.5147889510E-01    0.3548404497E-01    0.1758579066E-01
    0.2300000000E+03    0.2104408034E+00    0.2820360572E+00    0.5386832391E-01    0.3637300820E-01    0.1848856206E-01
    0.2500000000E+03    0.2201320181E+00    0.2882101395E+00    0.5608459679E-01    0.3713385555E-01    0.1934079753E-01
    0.2700000000E+03    0.2293160849E+00    0.2935668027E+00    0.5815048186E-01    0.3778782023E-01    0.2014851192E-01
    0.2900000000E+03    0.2380487962E+00    0.2982353734E+00    0.6008471441E-01    0.3835186436E-01    0.2091660152E-01
    0.3100000000E+03    0.2463761935E+00    0.3023203102E+00    0.6190286955E-01    0.3883969222E-01    0.2164910693E-01
    0.3300000000E+03    0.2543367423E+00    0.3059068443E+00    0.6361801545E-01    0.3926248881E-01    0.2234940389E-01
    0.3500000000E+03    0.2619629401E+00    0.3090651559E+00    0.6524120934E-01    0.3962946655E-01    0.2302034439E-01
    0.3700000000E+03    0.2692825235E+00    0.3118535104E+00    0.6678187899E-01    0.3994827600E-01    0.2366436266E-01
    0.3900000000E+03    0.2763193877E+00    0.3143206458E+00    0.6824811957E-01    0.4022531843E-01    0.2428355573E-01
    0.4100000000E+03    0.2830942951E+00    0.3165076096E+00    0.6964692701E-01    0.4046598651E-01    0.2487974578E-01
    0.4300000000E+03    0.2896254292E+00    0.3184491899E+00    0.7098438355E-01    0.4067485163E-01    0.2545452860E-01
    0.4500000000E+03    0.2959288306E+00    0.3201750392E+00    0.7226580625E-01    0.4085581124E-01    0.2600931197E-01
    0.4700000000E+03    0.3020187452E+00    0.3217105670E+00    0.7349586720E-01    0.4101220576E-01    0.2654534614E-01
    0.4900000000E+03    0.3079079036E+00    0.3230776530E+00    0.7467869137E-01    0.4114691205E-01    0.2706374840E-01
    0.1000000000E+03    0.1280504329E+00    0.2049195883E+00    0.3354931119E-01    0.2658641685E-01    0.1124639954E-01
    0.3000000000E+03    0.2422605986E+00    0.3003450733E+00    0.6100743260E-01    0.3860455440E-01    0.2128707754E-01
    0.5000000000E+03    0.3107808199E+00    0.3237040467E+00    0.7525354917E-01    0.4120692326E-01    0.2731665533E-01
    0.7000000000E+03    0.3599697072E+00    0.3308541402E+00    0.8497372617E-01    0.4172423367E-01    0.3164837029E-01
    0.9000000000E+03    0.3974281892E+00    0.3326661858E+00    0.9244099414E-01    0.4158511592E-01    0.3494934942E-01
    0.1100000000E+04    0.4268474739E+00    0.3324323490E+00    0.9856114172E-01    0.4121970831E-01    0.3754363421E-01
    0.1300000000E+04    0.4504434202E+00    0.3313736596E+00    0.1037826870E+00    0.4078431478E-01    0.3962580524E-01
    0.1500000000E+04    0.4696836820E+00    0.3299954503E+00    0.1083598160E+00    0.4034069267E-01    0.4132478153E-01
    0.1700000000E+04    0.4855923652E+00    0.3285194843E+00    0.1124505203E+00    0.3991349077E-01    0.4273054881E-01
    0.1900000000E+04    0.4989074805E+00    0.3270450527E+00    0.1161598253E+00    0.3951170360E-01    0.4390797380E-01
    0.2100000000E+04    0.5101732142E+00    0.3256155600E+00    0.1195612010E+00    0.3913750615E-01    0.4490490115E-01
    0.2300000000E+04    0.5197981892E+00    0.3242480829E+00    0.1227081407E+00    0.3879012719E-01    0.4575726689E-01
    0.2500000000E+04    0.5280939948E+00    0.3229471689E+00    0.1256408664E+00    0.3846761190E-01    0.4649248100E-01
    0.2700000000E+04    0.5353014750E+00    0.3217115036E+00    0.1283904308E+00    0.3816763520E-01    0.4713173578E-01
    0.2900000000E+04    0.5416090835E+00    0.3205371992E+00    0.1309813415E+00    0.3788787219E-01    0.4769161797E-01
    0.3100000000E+04    0.5471659379E+00    0.3194194257E+00    0.1334333052E+00    0.3762615706E-01    0.4818525555E-01
    0.3300000000E+04    0.5520912510E+00    0.3183532110E+00    0.1357624235E+00    0.3738054041E-01    0.4862314649E-01
    0.3500000000E+04    0.5564812398E+00    0.3173338160E+00    0.1379820357E+00    0.3714929860E-01    0.4901376588E-01
    0.3700000000E+04    0.5604142501E+00    0.3163568927E+00    0.1401033277E+00    0.3693092140E-01    0.4936401646E-01
    0.3900000000E+04    0.5639546020E+00    0.3154185323E+00    0.1421357797E+00    0.3672409104E-01    0.4967956665E-01
    0.4100000000E+04    0.5671555069E+00    0.3145152590E+00    0.1440875029E+00    0.3652765910E-01    0.4996510709E-01
    0.4300000000E+04    0.5700613014E+00    0.3136439989E+00    0.1459654963E+00    0.3634062408E-01    0.5022454713E-01
    0.4500000000E+04    0.5727091756E+00    0.3128020398E+00    0.1477758447E+00    0.3616211109E-01    0.5046116679E-01
    0.4700000000E+04    0.5751305206E+00    0.3119869885E+00    0.1495238751E+00    0.3599135393E-01    0.5067773540E-01
    0.4900000000E+04    0.5773519888E+00    0.3111967309E+00    0.1512142797E+00    0.3582767964E-01    0.5087660484E-01
    0.1000000000E+04    0.4129814409E+00    0.3327034354E+00    0.9563506664E-01    0.4141758816E-01    0.3632066663E-01
    0.3000000000E+04    0.5444732944E+00    0.3199715593E+00    0.1322236122E+00    0.3775488581E-01    0.4794600758E-01
    0.5000000000E+04    0.5783950127E+00    0.3108103064E+00    0.1520391900E+00    0.3574831047E-01    0.5097004171E-01
    0.7000000000E+04    0.5928455112E+00    0.3040267149E+00    0.1663124703E+00    0.3442055078E-01    0.5227018860E-01
    0.9000000000E+04    0.6006493297E+00    0.2984797265E+00    0.1776550573E+00    0.3341368130E-01    0.5297921916E-01
    0.1100000000E+05    0.6054783913E+00    0.2937226211E+00    0.1871447127E+00    0.3259464153E-01    0.5342244174E-01
    0.1300000000E+05    0.6087408524E+00    0.2895294816E+00    0.1953421998E+00    0.3190031666E-01    0.5372499500E-01
    0.1500000000E+05    0.6110838117E+00    0.2857659742E+00    0.2025803611E+00    0.3129561758E-01    0.5394456758E-01
    0.1700000000E+05    0.6128436652E+00    0.2823437949E+00    0.2090745305E+00    0.3075885996E-01    0.5411124700E-01
    0.1900000000E+05    0.6142116789E+00    0.2792009267E+00    0.2149727975E+00    0.3027561292E-01    0.5424219730E-01
    0.2100000000E+05    0.6153042623E+00    0.2762917358E+00    0.2203817727E+00    0.2983573671E-01    0.5434790037E-01
    0.2300000000E+05    0.6161961571E+00    0.2735814587E+00    0.2253809856E+00    0.2943180585E-01    0.5443510940E-01
    0.2500000000E+05    0.6169374677E+00    0.2710428898E+00    0.2300314797E+00    0.2905820299E-01    0.5450836724E-01
    0.2700000000E+05    0.6175629968E+00    0.2686542729E+00    0.2343812170E+00    0.2871056589E-01    0.5457084047E-01
    0.2900000000E+05    0.6180976486E+00    0.2663978965E+00    0.2384686238E+00    0.2838543315E-01    0.5462480307E-01
    0.3100000000E+05    0.6185597010E+00    0.2642591243E+00    0.2423250003E+00    0.2808000813E-01    0.5467192992E-01
    0.3300000000E+05    0.6189628635E+00    0.2622257053E+00    0.2459762072E+00    0.2779199631E-01    0.5471348177E-01
    0.3500000000E+05    0.6193176155E+00    0.2602872704E+00    0.2494438764E+00    0.2751949006E-01    0.5475042580E-01
    0.3700000000E+05    0.6196321012E+00    0.2584349576E+00    0.2527462992E+00    0.2726088505E-01    0.5478351640E-01
    0.3900000000E+05    0.6199127439E+00    0.2566611274E+00    0.2558990913E+00    0.2701481829E-01    0.5481335066E-01
    0.4100000000E+05    0.6201646758E+00    0.2549591435E+00    0.2589156980E+00    0.2678012138E-01    0.5484040744E-01
    0.4300000000E+05    0.6203920462E+00    0.2533232011E+00    0.2618077845E+00    0.2655578467E-01    0.5486507525E-01
    0.4500000000E+05    0.6205982453E+00    0.2517481912E+00    0.2645855421E+00    0.2634092943E-01    0.5488767270E-01
    0.4700000000E+05    0.6207860694E+00    0.2502295915E+00    0.2672579293E+00    0.2613478585E-01    0.5490846354E-01
    0.4900000000E+05    0.6209578454E+00    0.2487633784E+00    0.2698328666E+00    0.2593667556E-01    0.5492766805E-01
    0.1000000000E+05    0.6033208992E+00    0.2960195546E+00    0.1825891079E+00    0.3298555940E-01    0.5322386228E-01
    0.3000000000E+05    0.6183368042E+00    0.2653146248E+00    0.2404239631E+00    0.2823041082E-01    0.5464913411E-01
    0.5000000000E+05    0.6210383378E+00    0.2480487778E+00    0.2710860219E+00    0.2584044238E-01    0.5493673453E-01
    0.7000000000E+05    0.6221474211E+00    0.2358043493E+00    0.2923945185E+00    0.2422189477E-01    0.5506746700E-01
    0.9000000000E+05    0.6227467707E+00    0.2262789877E+00    0.3087914974E+00    0.2299851066E-01    0.5514506550E-01
    0.1100000000E+06    0.6231201242E+00    0.2184764100E+00    0.3221287880E+00    0.2201700756E-01    0.5519782105E-01
    0.1300000000E+06    0.6233739651E+00    0.2118688188E+00    0.3333669473E+00    0.2119916773E-01    0.5523675656E-01
    0.1500000000E+06    0.6235571204E+00    0.2061409826E+00    0.3430717629E+00    0.2049951678E-01    0.5526711145E-01
    0.1700000000E+06    0.6236950877E+00    0.2010888569E+00    0.3516058259E+00    0.1988922906E-01    0.5529171847E-01
    0.1900000000E+06    0.6238024634E+00    0.1965724740E+00    0.3592159828E+00    0.1934886495E-01    0.5531225484E-01
    0.2100000000E+06    0.6238881967E+00    0.1924915020E+00    0.3660781201E+00    0.1886468772E-01    0.5532978310E-01
    0.2300000000E+06    0.6239580742E+00    0.1887714914E+00    0.3723221137E+00    0.1842662904E-01    0.5534501259E-01
    0.2500000000E+06    0.6240160010E+00    0.1853556347E+00    0.3780466590E+00    0.1802708891E-01    0.5535843713E-01
    0.2700000000E+06    0.6240647059E+00    0.1821995763E+00    0.3833285503E+00    0.1766018980E-01    0.5537041242E-01
    0.2900000000E+06    0.6241061518E+00    0.1792680073E+00    0.3882287357E+00    0.1732129307E-01    0.5538120207E-01
    0.3100000000E+06    0.6241417864E+00    0.1765323530E+00    0.3927964090E+00    0.1700667402E-01    0.5539100618E-01
    0.3300000000E+06    0.6241727000E+00    0.1739691586E+00    0.3970718566E+00    0.1671329701E-01    0.5539997980E-01
    0.3500000000E+06    0.6241997289E+00    0.1715589311E+00    0.4010884897E+00    0.1643865574E-01    0.5540824523E-01
    0.3700000000E+06    0.6242235251E+00    0.1692852933E+00    0.4048743269E+00    0.1618065725E-01    0.5541590045E-01
    0.3900000000E+06    0.6242446043E+00    0.1671343523E+00    0.4084530966E+00    0.1593753608E-01    0.5542302503E-01
    0.4100000000E+06    0.6242633794E+00    0.1650942203E+00    0.4118450708E+00    0.1570778951E-01    0.5542968439E-01
    0.4300000000E+06    0.6242801848E+00    0.1631546461E+00    0.4150677057E+00    0.1549012815E-01    0.5543593290E-01
    0.4500000000E+06    0.6242952941E+00    0.1613067284E+00    0.4181361398E+00    0.1528343756E-01    0.5544181617E-01
    0.4700000000E+06    0.6243089335E+00    0.1595426879E+00    0.4210635868E+00    0.1508674806E-01    0.5544737283E-01
    0.4900000000E+06    0.6243212912E+00    0.1578556869E+00    0.4238616481E+00    0.1489921090E-01    0.5545263585E-01
    0.1000000000E+06    0.6229530013E+00    0.2222021396E+00    0.3157698475E+00    0.2248347302E-01    0.5517365697E-01
    0.3000000000E+06    0.6241246205E+00    0.1778772614E+00    0.3905514367E+00    0.1716115258E-01    0.5538621674E-01
    0.5000000000E+06    0.6243270397E+00    0.1570391604E+00    0.4252154067E+00    0.1480863747E-01    0.5545516625E-01
    0.7000000000E+06    0.6244023935E+00    0.1435969884E+00    0.4474540405E+00    0.1333570016E-01    0.5549553835E-01
    0.9000000000E+06    0.6244381760E+00    0.1338040112E+00    0.4636021110E+00    0.1228374095E-01    0.5552391475E-01
    0.1100000000E+07    0.6244571387E+00    0.1261764404E+00    0.4761504763E+00    0.1147649286E-01    0.5554574207E-01
    0.1300000000E+07    0.6244676514E+00    0.1199760360E+00    0.4863330166E+00    0.1082803411E-01    0.5556345834E-01
    0.1500000000E+07    0.6244734517E+00    0.1147830500E+00    0.4948491187E+00    0.1029026872E-01    0.5557835899E-01
    0.1700000000E+07    0.6244764316E+00    0.1103366287E+00    0.5021323891E+00    0.9833682449E-02    0.5559121256E-01
    0.1900000000E+07    0.6244776371E+00    0.1064639650E+00    0.5084695323E+00    0.9438929015E-02    0.5560251169E-01
    0.2100000000E+07    0.6244776856E+00    0.1030449113E+00    0.5140595714E+00    0.9092679493E-02    0.5561259077E-01
    0.2300000000E+07    0.6244769604E+00    0.9999270481E-01    0.5190460353E+00    0.8785385149E-02    0.5562168701E-01
    0.2500000000E+07    0.6244757088E+00    0.9724274572E-01    0.5235356654E+00    0.8509986732E-02    0.5562997472E-01
    0.2700000000E+07    0.6244740957E+00    0.9474570804E-01    0.5276098821E+00    0.8261128392E-02    0.5563758571E-01
    0.2900000000E+07    0.6244722338E+00    0.9246312296E-01    0.5313321269E+00    0.8034657339E-02    0.5564462202E-01
    0.3100000000E+07    0.6244702018E+00    0.9036444360E-01    0.5347527355E+00    0.7827293461E-02    0.5565116427E-01
    0.3300000000E+07    0.6244680556E+00    0.8842503383E-01    0.5379122737E+00    0.7636404276E-02    0.5565727726E-01
    0.3500000000E+07    0.6244658355E+00    0.8662475378E-01    0.5408438815E+00    0.7459847504E-02    0.5566301382E-01
    0.3700000000E+07    0.6244635706E+00    0.8494694195E-01    0.5435749580E+00    0.7295858351E-02    0.5566841762E-01
    0.3900000000E+07    0.6244612826E+00    0.8337766824E-01    0.5461283978E+00    0.7142967172E-02    0.5567352513E-01
    0.4100000000E+07    0.6244589873E+00    0.8190517588E-01    0.5485235130E+00    0.6999938221E-02    0.5567836717E-01
    0.4300000000E+07    0.6244566965E+00    0.8051945800E-01    0.5507767333E+00    0.6865723371E-02    0.5568296997E-01
    0.4500000000E+07    0.6244544188E+00    0.7921193176E-01    0.5529021437E+00    0.6739426628E-02    0.5568735608E-01
    0.4700000000E+07    0.6244521608E+00    0.7797518440E-01    0.5549119038E+00    0.6620276583E-02    0.5569154497E-01
    0.4900000000E+07    0.6244499271E+00    0.7680277304E-01    0.5568165778E+00    0.6507604759E-02    0.5569555363E-01
    0.1000000000E+07    0.6244490720E+00    0.1297760810E+00    0.4702316768E+00    0.1185614004E-01    0.5553545612E-01
    0.3000000000E+07    0.6244712352E+00    0.9139245445E-01    0.5330774027E+00    0.7928764604E-02    0.5564795053E-01
    0.5000000000E+07    0.6244488205E+00    0.7623890525E-01    0.5577324384E+00    0.6453513125E-02    0.5569749510E-01
    0.7000000000E+07    0.6244283890E+00    0.6728169301E-01    0.5722647616E+00    0.5602922817E-02    0.5572967093E-01
    0.9000000000E+07    0.6244111092E+00    0.6112348870E-01    0.5822377174E+00    0.5027924004E-02    0.5575354705E-01
    0.1100000000E+08    0.6243963607E+00    0.5652806773E-01    0.5896698552E+00    0.4604309306E-02    0.5577254154E-01
    0.1300000000E+08    0.6243835596E+00    0.5291606230E-01    0.5955053774E+00    0.4274771270E-02    0.5578831730E-01
    0.1500000000E+08    0.6243722752E+00    0.4997295489E-01    0.6002561250E+00    0.4008574379E-02    0.5580180983E-01
    0.1700000000E+08    0.6243621965E+00    0.4751051082E-01    0.6042280803E+00    0.3787505218E-02    0.5581359800E-01
    0.1900000000E+08    0.6243530962E+00    0.4540791375E-01    0.6076174498E+00    0.3599971415E-02    0.5582406504E-01
    0.2100000000E+08    0.6243448039E+00    0.4358341673E-01    0.6105568846E+00    0.3438186225E-02    0.5583347785E-01
    0.2300000000E+08    0.6243371895E+00    0.4197937421E-01    0.6131398612E+00    0.3296693861E-02    0.5584202980E-01
    0.2500000000E+08    0.6243301516E+00    0.4055376048E-01    0.6154344856E+00    0.3171539691E-02    0.5584986549E-01
    0.2700000000E+08    0.6243236097E+00    0.3927508606E-01    0.6174917608E+00    0.3059775948E-02    0.5585709586E-01
