  Pressure (Pa) 22mC5-400 (mol/kg) 2mC6-400 (mol/kg) 3mC6-400 (mol/kg) 33mC5-400 (mol/kg) 23mC5-400 (mol/kg)
    0.1000000000E+01    0.2121092050E-02    0.7965425853E-03    0.4230964544E-02    0.1297103024E-03    0.4655505426E-03
    0.3000000000E+01    0.6304090550E-02    0.2347539036E-02    0.1250942808E-01    0.3822910306E-03    0.1383671853E-02
    0.5000000000E+01    0.1041018773E-01    0.3844474159E-02    0.2055218604E-01    0.6260857123E-03    0.2284928125E-02
    0.7000000000E+01    0.1444171192E-01    0.5289696112E-02    0.2836939567E-01    0.8614753754E-03    0.3169829874E-02
    0.9000000000E+01    0.1840089656E-01    0.6685424121E-02    0.3597063561E-01    0.1088820113E-02    0.4038866806E-02
    0.1100000000E+02    0.2228988492E-01    0.8033757154E-02    0.4336494664E-01    0.1308460494E-02    0.4892508860E-02
    0.1300000000E+02    0.2611073458E-01    0.9336681910E-02    0.5056086890E-01    0.1520718861E-02    0.5731207195E-02
    0.1500000000E+02    0.2986542169E-01    0.1059608017E-01    0.5756647620E-01    0.1725900526E-02    0.6555395110E-02
    0.1700000000E+02    0.3355584494E-01    0.1181373559E-01    0.6438940743E-01    0.1924294871E-02    0.7365488923E-02
    0.1900000000E+02    0.3718382927E-01    0.1299133992E-01    0.7103689551E-01    0.2116176369E-02    0.8161888786E-02
    0.2100000000E+02    0.4075112943E-01    0.1413049887E-01    0.7751579410E-01    0.2301805519E-02    0.8944979460E-02
    0.2300000000E+02    0.4425943333E-01    0.1523273738E-01    0.8383260212E-01    0.2481429722E-02    0.9715131051E-02
    0.2500000000E+02    0.4771036514E-01    0.1629950461E-01    0.8999348650E-01    0.2655284080E-02    0.1047269969E-01
    0.2700000000E+02    0.5110548832E-01    0.1733217857E-01    0.9600430315E-01    0.2823592148E-02    0.1121802821E-01
    0.2900000000E+02    0.5444630836E-01    0.1833207032E-01    0.1018706163E+00    0.2986566625E-02    0.1195144671E-01
    0.3100000000E+02    0.5773427550E-01    0.1930042800E-01    0.1075977167E+00    0.3144409995E-02    0.1267327320E-01
    0.3300000000E+02    0.6097078722E-01    0.2023844046E-01    0.1131906378E+00    0.3297315130E-02    0.1338381411E-01
    0.3500000000E+02    0.6415719058E-01    0.2114724072E-01    0.1186541718E+00    0.3445465844E-02    0.1408336481E-01
    0.3700000000E+02    0.6729478453E-01    0.2202790915E-01    0.1239928836E+00    0.3589037412E-02    0.1477221014E-01
    0.3900000000E+02    0.7038482200E-01    0.2288147644E-01    0.1292111241E+00    0.3728197053E-02    0.1545062483E-01
    0.4100000000E+02    0.7342851192E-01    0.2370892642E-01    0.1343130430E+00    0.3863104381E-02    0.1611887398E-01
    0.4300000000E+02    0.7642702119E-01    0.2451119859E-01    0.1393025999E+00    0.3993911826E-02    0.1677721346E-01
    0.4500000000E+02    0.7938147640E-01    0.2528919059E-01    0.1441835755E+00    0.4120765029E-02    0.1742589032E-01
    0.4700000000E+02    0.8229296564E-01    0.2604376045E-01    0.1489595811E+00    0.4243803206E-02    0.1806514314E-01
    0.4900000000E+02    0.8516254009E-01    0.2677572870E-01    0.1536340686E+00    0.4363159497E-02    0.1869520245E-01
    0.1000000000E+02    0.2035403472E-01    0.7365388298E-02    0.3969311216E-01    0.1199582789E-02    0.4467583566E-02
    0.3000000000E+02    0.5609680999E-01    0.1882011527E-01    0.1047512477E+00    0.3066117425E-02    0.1231378954E-01
    0.5000000000E+02    0.8658192807E-01    0.2713348389E-01    0.1559342802E+00    0.4421496960E-02    0.1900685444E-01
    0.7000000000E+02    0.1129991259E+00    0.3327585973E-01    0.1973392910E+00    0.5423160354E-02    0.2480766209E-01
    0.9000000000E+02    0.1361945615E+00    0.3787083914E-01    0.2315864777E+00    0.6172319950E-02    0.2990176470E-01
    0.1100000000E+03    0.1567868686E+00    0.4133545742E-01    0.2604307922E+00    0.6736706978E-02    0.3442482643E-01
    0.1300000000E+03    0.1752392798E+00    0.4395772137E-01    0.2850926542E+00    0.7163140821E-02    0.3847843634E-01
    0.1500000000E+03    0.1919060021E+00    0.4594187115E-01    0.3064476118E+00    0.7484862883E-02    0.4214027636E-01
    0.1700000000E+03    0.2070629318E+00    0.4743599724E-01    0.3251405074E+00    0.7726009822E-02    0.4547085599E-01
    0.1900000000E+03    0.2209285317E+00    0.4854952275E-01    0.3416570446E+00    0.7904444722E-02    0.4851809004E-01
    0.2100000000E+03    0.2336783523E+00    0.4936462064E-01    0.3563702280E+00    0.8033606021E-02    0.5132048270E-01
    0.2300000000E+03    0.2454553395E+00    0.4994387226E-01    0.3695714068E+00    0.8123747940E-02    0.5390938791E-01
    0.2500000000E+03    0.2563772894E+00    0.5033552552E-01    0.3814915704E+00    0.8182792389E-02    0.5631064405E-01
    0.2700000000E+03    0.2665423292E+00    0.5057717934E-01    0.3923162953E+00    0.8216926209E-02    0.5854577583E-01
    0.2900000000E+03    0.2760330089E+00    0.5069841252E-01    0.4021964472E+00    0.8231027555E-02    0.6063289167E-01
    0.3100000000E+03    0.2849193989E+00    0.5072268976E-01    0.4112559850E+00    0.8228975292E-02    0.6258736287E-01
    0.3300000000E+03    0.2932614644E+00    0.5066876369E-01    0.4195977431E+00    0.8213876786E-02    0.6442234444E-01
    0.3500000000E+03    0.3011109076E+00    0.5055171964E-01    0.4273077794E+00    0.8188237833E-02    0.6614917911E-01
    0.3700000000E+03    0.3085126129E+00    0.5038376336E-01    0.4344586873E+00    0.8154090936E-02    0.6777771416E-01
    0.3900000000E+03    0.3155057912E+00    0.5017482139E-01    0.4411121509E+00    0.8113093194E-02    0.6931655248E-01
    0.4100000000E+03    0.3221248955E+00    0.4993300302E-01    0.4473209362E+00    0.8066601745E-02    0.7077325335E-01
    0.4300000000E+03    0.3284003596E+00    0.4966495901E-01    0.4531304608E+00    0.8015732427E-02    0.7215449447E-01
    0.4500000000E+03    0.3343591989E+00    0.4937616240E-01    0.4585800409E+00    0.7961405783E-02    0.7346620370E-01
    0.4700000000E+03    0.3400255034E+00    0.4907112996E-01    0.4637038919E+00    0.7904383411E-02    0.7471366719E-01
    0.4900000000E+03    0.3454208444E+00    0.4875359815E-01    0.4685319379E+00    0.7845296879E-02    0.7590161859E-01
    0.1000000000E+03    0.1467841504E+00    0.3972406070E-01    0.2465978924E+00    0.6474297710E-02    0.3222766773E-01
    0.3000000000E+03    0.2805477793E+00    0.5072140186E-01    0.4068219274E+00    0.8231810560E-02    0.6162583894E-01
    0.5000000000E+03    0.3480230404E+00    0.4859113444E-01    0.4708433764E+00    0.7815147163E-02    0.7647462397E-01
    0.7000000000E+03    0.3896597147E+00    0.4520389183E-01    0.5065058579E+00    0.7191943446E-02    0.8564835163E-01
    0.9000000000E+03    0.4179646240E+00    0.4209680605E-01    0.5296839758E+00    0.6623438428E-02    0.9189207244E-01
    0.1100000000E+04    0.4384067415E+00    0.3945467122E-01    0.5461624222E+00    0.6141395901E-02    0.9640666419E-01
    0.1300000000E+04    0.4538179613E+00    0.3722921039E-01    0.5585872675E+00    0.5736881838E-02    0.9981422404E-01
    0.1500000000E+04    0.4658216184E+00    0.3534177241E-01    0.5683529367E+00    0.5395445822E-02    0.1024715102E+00
    0.1700000000E+04    0.4754157428E+00    0.3372312029E-01    0.5762694202E+00    0.5104262997E-02    0.1045979499E+00
    0.1900000000E+04    0.4832469485E+00    0.3231874246E-01    0.5828420184E+00    0.4853161545E-02    0.1063357665E+00
    0.2100000000E+04    0.4897518673E+00    0.3108688836E-01    0.5884036515E+00    0.4634307039E-02    0.1077810368E+00
    0.2300000000E+04    0.4952354756E+00    0.2999563961E-01    0.5931833503E+00    0.4441686467E-02    0.1090008952E+00
    0.2500000000E+04    0.4999169045E+00    0.2902040840E-01    0.5973442947E+00    0.4270656279E-02    0.1100435984E+00
    0.2700000000E+04    0.5039574441E+00    0.2814204242E-01    0.6010061703E+00    0.4117594808E-02    0.1109446801E+00
    0.2900000000E+04    0.5074783081E+00    0.2734544070E-01    0.6042589309E+00    0.3979645651E-02    0.1117308554E+00
    0.3100000000E+04    0.5105722628E+00    0.2661855132E-01    0.6071716089E+00    0.3854530306E-02    0.1124225780E+00
    0.3300000000E+04    0.5133114498E+00    0.2595164322E-01    0.6097981427E+00    0.3740411191E-02    0.1130357605E+00
    0.3500000000E+04    0.5157527754E+00    0.2533677300E-01    0.6121813445E+00    0.3635790830E-02    0.1135829604E+00
    0.3700000000E+04    0.5179417032E+00    0.2476739028E-01    0.6143556679E+00    0.3539436964E-02    0.1140742139E+00
    0.3900000000E+04    0.5199149730E+00    0.2423804239E-01    0.6163491819E+00    0.3450326345E-02    0.1145176349E+00
    0.4100000000E+04    0.5217025841E+00    0.2374415084E-01    0.6181850057E+00    0.3367602104E-02    0.1149198514E+00
    0.4300000000E+04    0.5233292633E+00    0.2328184033E-01    0.6198823698E+00    0.3290541080E-02    0.1152863286E+00
    0.4500000000E+04    0.5248155672E+00    0.2284780635E-01    0.6214574126E+00    0.3218528529E-02    0.1156216121E+00
    0.4700000000E+04    0.5261787212E+00    0.2243921185E-01    0.6229237877E+00    0.3151038350E-02    0.1159295122E+00
    0.4900000000E+04    0.5274332632E+00    0.2205360571E-01    0.6242931315E+00    0.3087617491E-02    0.1162132463E+00
    0.1000000000E+04    0.4289528337E+00    0.4071895100E-01    0.5385534134E+00    0.6371865761E-02    0.9431813184E-01
    0.3000000000E+04    0.5090737294E+00    0.2697393751E-01    0.6057541089E+00    0.3915607606E-02    0.1120874383E+00
    0.5000000000E+04    0.5280237390E+00    0.2186874655E-01    0.6249445930E+00    0.3057308345E-02    0.1163469221E+00
    0.7000000000E+04    0.5363367136E+00    0.1898283278E-01    0.6346950244E+00    0.2592354113E-02    0.1182404054E+00
    0.9000000000E+04    0.5409785509E+00    0.1705163120E-01    0.6407796790E+00    0.2290123305E-02    0.1193117568E+00
    0.1100000000E+05    0.5439328848E+00    0.1563710335E-01    0.6450134439E+00    0.2073399258E-02    0.1200026554E+00
    0.1300000000E+05    0.5459748596E+00    0.1454069652E-01    0.6481662280E+00    0.1908145336E-02    0.1204864806E+00
    0.1500000000E+05    0.5474687552E+00    0.1365715423E-01    0.6506257133E+00    0.1776719232E-02    0.1208450797E+00
    0.1700000000E+05    0.5486080527E+00    0.1292460366E-01    0.6526104034E+00    0.1668939083E-02    0.1211221192E+00
    0.1900000000E+05    0.5495049225E+00    0.1230389424E-01    0.6542537428E+00    0.1578460074E-02    0.1213430285E+00
    0.2100000000E+05    0.5502288301E+00    0.1176884405E-01    0.6556422916E+00    0.1501093843E-02    0.1215236255E+00
    0.2300000000E+05    0.5508250697E+00    0.1130117183E-01    0.6568349005E+00    0.1433948439E-02    0.1216742704E+00
    0.2500000000E+05    0.5513244249E+00    0.1088766286E-01    0.6578731188E+00    0.1374953719E-02    0.1218020355E+00
    0.2700000000E+05    0.5517485415E+00    0.1051848902E-01    0.6587872036E+00    0.1322583303E-02    0.1219119158E+00
    0.2900000000E+05    0.5521130799E+00    0.1018616481E-01    0.6595997667E+00    0.1275683566E-02    0.1220075413E+00
    0.3100000000E+05    0.5524296478E+00    0.9884872519E-02    0.6603280815E+00    0.1233364113E-02    0.1220916143E+00
    0.3300000000E+05    0.5527070296E+00    0.9610011323E-02    0.6609855950E+00    0.1194925212E-02    0.1221661890E+00
    0.3500000000E+05    0.5529519948E+00    0.9357887285E-02    0.6615829487E+00    0.1159808284E-02    0.1222328553E+00
    0.3700000000E+05    0.5531698432E+00    0.9125494979E-02    0.6621286857E+00    0.1127561260E-02    0.1222928634E+00
    0.3900000000E+05    0.5533647828E+00    0.8910360258E-02    0.6626297524E+00    0.1097813796E-02    0.1223472104E+00
    0.4100000000E+05    0.5535401969E+00    0.8710424901E-02    0.6630918614E+00    0.1070259203E-02    0.1223967013E+00
    0.4300000000E+05    0.5536988362E+00    0.8523960533E-02    0.6635197583E+00    0.1044641024E-02    0.1224419936E+00
    0.4500000000E+05    0.5538429599E+00    0.8349503411E-02    0.6639174220E+00    0.1020742928E-02    0.1224836297E+00
    0.4700000000E+05    0.5539744405E+00    0.8185804348E-02    0.6642882161E+00    0.9983809764E-03    0.1225220609E+00
    0.4900000000E+05    0.5540948431E+00    0.8031789766E-02    0.6646350055E+00    0.9773976424E-03    0.1225576663E+00
    0.1000000000E+05    0.5426038252E+00    0.1629532442E-01    0.6430667253E+00    0.2173755151E-02    0.1196907257E+00
    0.3000000000E+05    0.5522767560E+00    0.1003195157E-01    0.6599735388E+00    0.1253998837E-02    0.1220508808E+00
    0.5000000000E+05    0.5541513105E+00    0.7958119012E-02    0.6648001803E+00    0.9673797766E-03    0.1225745114E+00
    0.7000000000E+05    0.5549313796E+00    0.6821943761E-02    0.6672901382E+00    0.8145015945E-03    0.1228199971E+00
    0.9000000000E+05    0.5553523809E+00    0.6076619756E-02    0.6688657378E+00    0.7159493680E-03    0.1229680163E+00
    0.1100000000E+06    0.5556125879E+00    0.5538548024E-02    0.6699752320E+00    0.6457191422E-03    0.1230696059E+00
    0.1300000000E+06    0.5557874620E+00    0.5126111569E-02    0.6708099788E+00    0.5924410702E-03    0.1231450556E+00
    0.1500000000E+06    0.5559118672E+00    0.4796695840E-02    0.6714670064E+00    0.5502519905E-03    0.1232041387E+00
    0.1700000000E+06    0.5560040816E+00    0.4525563522E-02    0.6720013771E+00    0.5157821700E-03    0.1232521905E+00
    0.1900000000E+06    0.5560745855E+00    0.4297227760E-02    0.6724469383E+00    0.4869394834E-03    0.1232923927E+00
    0.2100000000E+06    0.5561298054E+00    0.4101426370E-02    0.6728257805E+00    0.4623474985E-03    0.1233267725E+00
    0.2300000000E+06    0.5561738923E+00    0.3931051003E-02    0.6731530089E+00    0.4410587619E-03    0.1233566894E+00
    0.2500000000E+06    0.5562096422E+00    0.3780999411E-02    0.6734393453E+00    0.4223969998E-03    0.1233830934E+00
    0.2700000000E+06    0.5562390042E+00    0.3647500596E-02    0.6736926371E+00    0.4058649003E-03    0.1234066709E+00
    0.2900000000E+06    0.5562633759E+00    0.3527698438E-02    0.6739187761E+00    0.3910875277E-03    0.1234279321E+00
    0.3100000000E+06    0.5562837844E+00    0.3419384325E-02    0.6741222835E+00    0.3777761661E-03    0.1234472649E+00
    0.3300000000E+06    0.5563010002E+00    0.3320819568E-02    0.6743066935E+00    0.3657044118E-03    0.1234649707E+00
    0.3500000000E+06    0.5563156122E+00    0.3230613994E-02    0.6744748139E+00    0.3546918965E-03    0.1234812875E+00
    0.3700000000E+06    0.5563280771E+00    0.3147640834E-02    0.6746289075E+00    0.3445929206E-03    0.1234964063E+00
    0.3900000000E+06    0.5563387546E+00    0.3070975739E-02    0.6747708204E+00    0.3352883369E-03    0.1235104824E+00
    0.4100000000E+06    0.5563479311E+00    0.2999852225E-02    0.6749020760E+00    0.3266796415E-03    0.1235236437E+00
    0.4300000000E+06    0.5563558375E+00    0.2933628560E-02    0.6750239440E+00    0.3186845954E-03    0.1235359966E+00
    0.4500000000E+06    0.5563626619E+00    0.2871762777E-02    0.6751374920E+00    0.3112339295E-03    0.1235476304E+00
    0.4700000000E+06    0.5563685585E+00    0.2813793538E-02    0.6752436252E+00    0.3042688305E-03    0.1235586207E+00
    0.4900000000E+06    0.5563736551E+00    0.2759325320E-02    0.6753431168E+00    0.2977389969E-03    0.1235690323E+00
    0.1000000000E+06    0.5554964363E+00    0.5788095005E-02    0.6694635661E+00    0.6781914020E-03    0.1230229801E+00
    0.3000000000E+06    0.5562740224E+00    0.3472223420E-02    0.6740231182E+00    0.3842639863E-03    0.1234378190E+00
    0.5000000000E+06    0.5563759374E+00    0.2733295576E-02    0.6753905835E+00    0.2946235321E-03    0.1235740387E+00
    0.7000000000E+06    0.5563980581E+00    0.2333809867E-02    0.6761126536E+00    0.2472423399E-03    0.1236539622E+00
    0.9000000000E+06    0.5563985471E+00    0.2073674650E-02    0.6765763884E+00    0.2168615681E-03    0.1237101732E+00
    0.1100000000E+07    0.5563913919E+00    0.1886778912E-02    0.6769064217E+00    0.1952903728E-03    0.1237534200E+00
    0.1300000000E+07    0.5563812836E+00    0.1744016042E-02    0.6771567532E+00    0.1789698258E-03    0.1237885233E+00
    0.1500000000E+07    0.5563700966E+00    0.1630289337E-02    0.6773550728E+00    0.1660729480E-03    0.1238180470E+00
    0.1700000000E+07    0.5563586581E+00    0.1536878475E-02    0.6775172357E+00    0.1555533531E-03    0.1238435134E+00
    0.1900000000E+07    0.5563473525E+00    0.1458345065E-02    0.6776530611E+00    0.1467631813E-03    0.1238658984E+00
    0.2100000000E+07    0.5563363591E+00    0.1391096609E-02    0.6777689976E+00    0.1392771694E-03    0.1238858649E+00
    0.2300000000E+07    0.5563257571E+00    0.1332651077E-02    0.6778694791E+00    0.1328031532E-03    0.1239038830E+00
    0.2500000000E+07    0.5563155742E+00    0.1281230793E-02    0.6779576676E+00    0.1271329345E-03    0.1239202982E+00
    0.2700000000E+07    0.5563058122E+00    0.1235524356E-02    0.6780358871E+00    0.1221136291E-03    0.1239353719E+00
    0.2900000000E+07    0.5562964589E+00    0.1194540140E-02    0.6781058894E+00    0.1176301190E-03    0.1239493064E+00
    0.3100000000E+07    0.5562874959E+00    0.1157512431E-02    0.6781690230E+00    0.1135938574E-03    0.1239622615E+00
    0.3300000000E+07    0.5562789017E+00    0.1123839201E-02    0.6782263456E+00    0.1099354778E-03    0.1239743657E+00
    0.3500000000E+07    0.5562706541E+00    0.1093039649E-02    0.6782786997E+00    0.1065997680E-03    0.1239857237E+00
    0.3700000000E+07    0.5562627312E+00    0.1064724473E-02    0.6783267660E+00    0.1035421649E-03    0.1239964222E+00
    0.3900000000E+07    0.5562551122E+00    0.1038574611E-02    0.6783711014E+00    0.1007262538E-03    0.1240065335E+00
    0.4100000000E+07    0.5562477773E+00    0.1014325713E-02    0.6784121663E+00    0.9812194999E-04    0.1240161186E+00
    0.4300000000E+07    0.5562407084E+00    0.9917566326E-03    0.6784503453E+00    0.9570415222E-04    0.1240252296E+00
    0.4500000000E+07    0.5562338884E+00    0.9706807352E-03    0.6784859624E+00    0.9345173045E-04    0.1240339111E+00
    0.4700000000E+07    0.5562273017E+00    0.9509392603E-03    0.6785192928E+00    0.9134675383E-04    0.1240422018E+00
    0.4900000000E+07    0.5562209339E+00    0.9323961800E-03    0.6785505721E+00    0.8937389443E-04    0.1240501354E+00
    0.1000000000E+07    0.5563955295E+00    0.1973365293E-02    0.6767538479E+00    0.2052560608E-03    0.1237330397E+00
    0.3000000000E+07    0.5562919299E+00    0.1175572612E-02    0.6781382429E+00    0.1155607992E-03    0.1239558977E+00
    0.5000000000E+07    0.5562178279E+00    0.9235367359E-03    0.6785655070E+00    0.8843281367E-04    0.1240539776E+00
    0.7000000000E+07    0.5561645003E+00    0.7877346461E-03    0.6787936573E+00    0.7413597777E-04    0.1241176392E+00
    0.9000000000E+07    0.5561230545E+00    0.6994674805E-03    0.6789411512E+00    0.6498409015E-04    0.1241648598E+00
    0.1100000000E+08    0.5560891982E+00    0.6361287067E-03    0.6790465943E+00    0.5849318428E-04    0.1242024134E+00
    0.1300000000E+08    0.5560605927E+00    0.5877891006E-03    0.6791268404E+00    0.5358618607E-04    0.1242335944E+00
    0.1500000000E+08    0.5560358319E+00    0.5493071007E-03    0.6791905793E+00    0.4971096627E-04    0.1242602560E+00
    0.1700000000E+08    0.5560140062E+00    0.5177163950E-03    0.6792428074E+00    0.4655163605E-04    0.1242835445E+00
    0.1900000000E+08    0.5559944944E+00    0.4911688153E-03    0.6792866293E+00    0.4391278091E-04    0.1243042190E+00
    0.2100000000E+08    0.5559768530E+00    0.4684444388E-03    0.6793240898E+00    0.4166621652E-04    0.1243228078E+00
    0.2300000000E+08    0.5559607551E+00    0.4487009716E-03    0.6793565981E+00    0.3972392846E-04    0.1243396936E+00
    0.2500000000E+08    0.5559459523E+00    0.4313354748E-03    0.6793851610E+00    0.3802322777E-04    0.1243551628E+00
    0.2700000000E+08    0.5559322518E+00    0.4159033672E-03    0.6794105201E+00    0.3651810028E-04    0.1243694349E+00
