  Pressure (Pa) 22mC5-400 (mol/kg) 2mC6-400 (mol/kg) 3mC6-400 (mol/kg) 33mC5-400 (mol/kg) 23mC5-400 (mol/kg)
    0.1000000000E+01    0.2107235755E-02    0.7920585619E-02    0.5271409654E-03    0.1934590256E-03    0.1850042404E-03
    0.3000000000E+01    0.6184485917E-02    0.2309123772E-01    0.1548766057E-02    0.5639554640E-03    0.5429725840E-03
    0.5000000000E+01    0.1009123130E-01    0.3742796637E-01    0.2529307626E-02    0.9140283534E-03    0.8859802893E-03
    0.7000000000E+01    0.1384098354E-01    0.5099626065E-01    0.3471482781E-02    0.1245281583E-02    0.1215212769E-02
    0.9000000000E+01    0.1744581192E-01    0.6385490757E-01    0.4377768473E-02    0.1559154923E-02    0.1531728904E-02
    0.1100000000E+02    0.2091653290E-01    0.7605683292E-01    0.5250427697E-02    0.1856944612E-02    0.1836477667E-02
    0.1300000000E+02    0.2426287044E-01    0.8764981789E-01    0.6091532322E-02    0.2139820902E-02    0.2130312194E-02
    0.1500000000E+02    0.2749359221E-01    0.9867711241E-01    0.6902983049E-02    0.2408843075E-02    0.2414001724E-02
    0.1700000000E+02    0.3061662577E-01    0.1091779623E+00    0.7686526906E-02    0.2664972353E-02    0.2688241794E-02
    0.1900000000E+02    0.3363915816E-01    0.1191880642E+00    0.8443772621E-02    0.2909083034E-02    0.2953662978E-02
    0.2100000000E+02    0.3656772154E-01    0.1287399596E+00    0.9176204193E-02    0.3141972141E-02    0.3210838395E-02
    0.2300000000E+02    0.3940826717E-01    0.1378633767E+00    0.9885192871E-02    0.3364367802E-02    0.3460290202E-02
    0.2500000000E+02    0.4216622951E-01    0.1465855298E+00    0.1057200778E-01    0.3576936565E-02    0.3702495217E-02
    0.2700000000E+02    0.4484658198E-01    0.1549313795E+00    0.1123782537E-01    0.3780289788E-02    0.3937889809E-02
    0.2900000000E+02    0.4745388554E-01    0.1629238626E+00    0.1188373779E-01    0.3974989255E-02    0.4166874161E-02
    0.3100000000E+02    0.4999233133E-01    0.1705840931E+00    0.1251076043E-01    0.4161552109E-02    0.4389816011E-02
    0.3300000000E+02    0.5246577794E-01    0.1779315407E+00    0.1311983861E-01    0.4340455214E-02    0.4607053920E-02
    0.3500000000E+02    0.5487778439E-01    0.1849841875E+00    0.1371185358E-01    0.4512139004E-02    0.4818900166E-02
    0.3700000000E+02    0.5723163909E-01    0.1917586685E+00    0.1428762795E-01    0.4677010908E-02    0.5025643287E-02
    0.3900000000E+02    0.5953038556E-01    0.1982703946E+00    0.1484793053E-01    0.4835448384E-02    0.5227550333E-02
    0.4100000000E+02    0.6177684522E-01    0.2045336643E+00    0.1539348072E-01    0.4987801634E-02    0.5424868871E-02
    0.4300000000E+02    0.6397363769E-01    0.2105617616E+00    0.1592495248E-01    0.5134396017E-02    0.5617828757E-02
    0.4500000000E+02    0.6612319883E-01    0.2163670451E+00    0.1644297787E-01    0.5275534222E-02    0.5806643730E-02
    0.4700000000E+02    0.6822779691E-01    0.2219610269E+00    0.1694815035E-01    0.5411498204E-02    0.5991512822E-02
    0.4900000000E+02    0.7028954704E-01    0.2273544441E+00    0.1744102769E-01    0.5542550934E-02    0.6172621628E-02
    0.1000000000E+02    0.1919730418E-01    0.7003486118E-01    0.4818167669E-02    0.1709984317E-02    0.1685518789E-02
    0.3000000000E+02    0.4873146711E-01    0.1667942559E+00    0.1219954968E-01    0.4069257058E-02    0.4279078591E-02
    0.5000000000E+02    0.7130497646E-01    0.2299791002E+00    0.1768302090E-01    0.5606312956E-02    0.6261820532E-02
    0.7000000000E+02    0.8978053257E-01    0.2740556842E+00    0.2198970915E-01    0.6675465710E-02    0.7884929582E-02
    0.9000000000E+02    0.1055847834E+00    0.3062472817E+00    0.2550935459E-01    0.7453620311E-02    0.9273593731E-02
    0.1100000000E+03    0.1195175508E+00    0.3305622822E+00    0.2847243168E-01    0.8038937996E-02    0.1049800087E-01
    0.1300000000E+03    0.1320667388E+00    0.3494019934E+00    0.3102471096E-01    0.8490219262E-02    0.1160096860E-01
    0.1500000000E+03    0.1435495347E+00    0.3642912979E+00    0.3326333313E-01    0.8844800947E-02    0.1261033373E-01
    0.1700000000E+03    0.1541826631E+00    0.3762440782E+00    0.3525579486E-01    0.9127506701E-02    0.1354511693E-01
    0.1900000000E+03    0.1641202516E+00    0.3859600288E+00    0.3705062744E-01    0.9355467217E-02    0.1441884537E-01
    0.2100000000E+03    0.1734755776E+00    0.3939371192E+00    0.3868373571E-01    0.9540874400E-02    0.1524146115E-01
    0.2300000000E+03    0.1823342221E+00    0.4005390529E+00    0.4018233269E-01    0.9692633234E-02    0.1602047567E-01
    0.2500000000E+03    0.1907623763E+00    0.4060374028E+00    0.4156747556E-01    0.9817393479E-02    0.1676169850E-01
    0.2700000000E+03    0.1988122805E+00    0.4106388525E+00    0.4285575349E-01    0.9920216599E-02    0.1746971481E-01
    0.2900000000E+03    0.2065258990E+00    0.4145033365E+00    0.4406044286E-01    0.1000501983E-01    0.1814820784E-01
    0.3100000000E+03    0.2139374694E+00    0.4177564341E+00    0.4519231720E-01    0.1007487956E-01    0.1880018263E-01
    0.3300000000E+03    0.2210753149E+00    0.4204980332E+00    0.4626022754E-01    0.1013224339E-01    0.1942812515E-01
    0.3500000000E+03    0.2279631586E+00    0.4228085063E+00    0.4727152608E-01    0.1017908128E-01    0.2003411753E-01
    0.3700000000E+03    0.2346210940E+00    0.4247531946E+00    0.4823238090E-01    0.1021699525E-01    0.2061992340E-01
    0.3900000000E+03    0.2410663146E+00    0.4263857152E+00    0.4914801328E-01    0.1024730035E-01    0.2118705179E-01
    0.4100000000E+03    0.2473136702E+00    0.4277504360E+00    0.5002287921E-01    0.1027108521E-01    0.2173680603E-01
    0.4300000000E+03    0.2533760955E+00    0.4288843526E+00    0.5086080992E-01    0.1028925795E-01    0.2227032136E-01
    0.4500000000E+03    0.2592649466E+00    0.4298185283E+00    0.5166512196E-01    0.1030258139E-01    0.2278859447E-01
    0.4700000000E+03    0.2649902661E+00    0.4305792115E+00    0.5243870434E-01    0.1031170045E-01    0.2329250672E-01
    0.4900000000E+03    0.2705609949E+00    0.4311887114E+00    0.5318408822E-01    0.1031716352E-01    0.2378284282E-01
    0.1000000000E+03    0.1127494441E+00    0.3192126889E+00    0.2704990652E-01    0.7766057622E-02    0.9903200143E-02
    0.3000000000E+03    0.2102675487E+00    0.4161995457E+00    0.4463488925E-01    0.1004165193E-01    0.1847734400E-01
    0.5000000000E+03    0.2732909234E+00    0.4314428356E+00    0.5354691290E-01    0.1031867329E-01    0.2402314233E-01
    0.7000000000E+03    0.3213562987E+00    0.4320091992E+00    0.5974708966E-01    0.1024114776E-01    0.2825529502E-01
    0.9000000000E+03    0.3597754186E+00    0.4285921832E+00    0.6460578252E-01    0.1007241148E-01    0.3163997180E-01
    0.1100000000E+04    0.3911581073E+00    0.4241218785E+00    0.6865399109E-01    0.9884845923E-02    0.3440622844E-01
    0.1300000000E+04    0.4171451561E+00    0.4195780442E+00    0.7215406374E-01    0.9702454831E-02    0.3669810170E-01
    0.1500000000E+04    0.4388906828E+00    0.4153026380E+00    0.7525565825E-01    0.9533263971E-02    0.3861693434E-01
    0.1700000000E+04    0.4572510635E+00    0.4113995227E+00    0.7805269690E-01    0.9379292468E-02    0.4023794699E-01
    0.1900000000E+04    0.4728796836E+00    0.4078788299E+00    0.8060827116E-01    0.9240201295E-02    0.4161854728E-01
    0.2100000000E+04    0.4862834053E+00    0.4047145938E+00    0.8296697419E-01    0.9114768922E-02    0.4280328148E-01
    0.2300000000E+04    0.4978600151E+00    0.4018689975E+00    0.8516159341E-01    0.9001518407E-02    0.4382711896E-01
    0.2500000000E+04    0.5079246131E+00    0.3993026820E+00    0.8721700712E-01    0.8898984728E-02    0.4471776710E-01
    0.2700000000E+04    0.5167288492E+00    0.3969789434E+00    0.8915258360E-01    0.8805822011E-02    0.4549735944E-01
    0.2900000000E+04    0.5244752267E+00    0.3948651907E+00    0.9098372682E-01    0.8720838065E-02    0.4618371105E-01
    0.3100000000E+04    0.5313278749E+00    0.3929331843E+00    0.9272291056E-01    0.8642996334E-02    0.4679126443E-01
    0.3300000000E+04    0.5374207399E+00    0.3911587585E+00    0.9438039254E-01    0.8571404098E-02    0.4733180876E-01
    0.3500000000E+04    0.5428638611E+00    0.3895213569E+00    0.9596472114E-01    0.8505295872E-02    0.4781503121E-01
    0.3700000000E+04    0.5477482145E+00    0.3880035314E+00    0.9748310358E-01    0.8444016137E-02    0.4824894252E-01
    0.3900000000E+04    0.5521494765E+00    0.3865904701E+00    0.9894167875E-01    0.8387003225E-02    0.4864020766E-01
    0.4100000000E+04    0.5561309657E+00    0.3852695788E+00    0.1003457233E+00    0.8333775037E-02    0.4899440447E-01
    0.4300000000E+04    0.5597459588E+00    0.3840301222E+00    0.1016998095E+00    0.8283916734E-02    0.4931622715E-01
    0.4500000000E+04    0.5630395231E+00    0.3828629213E+00    0.1030079286E+00    0.8237070287E-02    0.4960964747E-01
    0.4700000000E+04    0.5660499774E+00    0.3817601005E+00    0.1042735871E+00    0.8192925689E-02    0.4987804313E-01
    0.4900000000E+04    0.5688100609E+00    0.3807148781E+00    0.1054998844E+00    0.8151213592E-02    0.5012430068E-01
    0.1000000000E+04    0.3762290173E+00    0.4264045597E+00    0.6671110678E-01    0.9978910285E-02    0.3309010637E-01
    0.3000000000E+04    0.5280042694E+00    0.3938780700E+00    0.9186412733E-01    0.8681083404E-02    0.4649654568E-01
    0.5000000000E+04    0.5701051551E+00    0.3802120026E+00    0.1060991455E+00    0.8131195143E-02    0.5023991615E-01
    0.7000000000E+04    0.5879423883E+00    0.3721070876E+00    0.1165511890E+00    0.7814960070E-02    0.5183812747E-01
    0.9000000000E+04    0.5974235016E+00    0.3662021131E+00    0.1249642160E+00    0.7594984930E-02    0.5269484637E-01
    0.1100000000E+05    0.6031972688E+00    0.3614463273E+00    0.1320732386E+00    0.7425453910E-02    0.5322128222E-01
    0.1300000000E+05    0.6070425487E+00    0.3574033734E+00    0.1382654554E+00    0.7286693621E-02    0.5357518766E-01
    0.1500000000E+05    0.6097699350E+00    0.3538531549E+00    0.1437726530E+00    0.7168671522E-02    0.5382864063E-01
    0.1700000000E+05    0.6117966008E+00    0.3506686919E+00    0.1487457503E+00    0.7065620369E-02    0.5401883988E-01
    0.1900000000E+05    0.6133573454E+00    0.3477693903E+00    0.1532890715E+00    0.6973924567E-02    0.5416678287E-01
    0.2100000000E+05    0.6145936960E+00    0.3451004068E+00    0.1574780438E+00    0.6891165476E-02    0.5428516374E-01
    0.2300000000E+05    0.6155957035E+00    0.3426224199E+00    0.1613691438E+00    0.6815642277E-02    0.5438208429E-01
    0.2500000000E+05    0.6164232322E+00    0.3403060830E+00    0.1650058639E+00    0.6746110861E-02    0.5446294727E-01
    0.2700000000E+05    0.6171175450E+00    0.3381287909E+00    0.1684224777E+00    0.6681631854E-02    0.5453148853E-01
    0.2900000000E+05    0.6177079599E+00    0.3360726844E+00    0.1716465197E+00    0.6621477278E-02    0.5459037106E-01
    0.3100000000E+05    0.6182158540E+00    0.3341233576E+00    0.1747004753E+00    0.6565070618E-02    0.5464154289E-01
    0.3300000000E+05    0.6186571647E+00    0.3322689878E+00    0.1776029658E+00    0.6511946883E-02    0.5468646118E-01
    0.3500000000E+05    0.6190440064E+00    0.3304997295E+00    0.1803696027E+00    0.6461725115E-02    0.5472623726E-01
    0.3700000000E+05    0.6193857455E+00    0.3288072808E+00    0.1830136146E+00    0.6414088960E-02    0.5476173327E-01
    0.3900000000E+05    0.6196897334E+00    0.3271845649E+00    0.1855463177E+00    0.6368772601E-02    0.5479362816E-01
    0.4100000000E+05    0.6199618180E+00    0.3256254926E+00    0.1879774745E+00    0.6325550355E-02    0.5482246388E-01
    0.4300000000E+05    0.6202067072E+00    0.3241247801E+00    0.1903155709E+00    0.6284228849E-02    0.5484867822E-01
    0.4500000000E+05    0.6204282323E+00    0.3226778083E+00    0.1925680335E+00    0.6244641030E-02    0.5487262870E-01
    0.4700000000E+05    0.6206295422E+00    0.3212805127E+00    0.1947414024E+00    0.6206641519E-02    0.5489461018E-01
    0.4900000000E+05    0.6208132482E+00    0.3199292950E+00    0.1968414694E+00    0.6170102954E-02    0.5491486801E-01
    0.1000000000E+05    0.6006285026E+00    0.3637153353E+00    0.1286525391E+00    0.7505473449E-02    0.5298647286E-01
    0.3000000000E+05    0.6179711207E+00    0.3350854649E+00    0.1731935152E+00    0.6592836765E-02    0.5461682023E-01
    0.5000000000E+05    0.6208991961E+00    0.3192699507E+00    0.1978656480E+00    0.6152345926E-02    0.5492441619E-01
    0.7000000000E+05    0.6220742481E+00    0.3078802941E+00    0.2155011884E+00    0.5852483005E-02    0.5506097410E-01
    0.9000000000E+05    0.6227015836E+00    0.2988798431E+00    0.2293701963E+00    0.5623637995E-02    0.5514104412E-01
    0.1100000000E+06    0.6230893951E+00    0.2914016273E+00    0.2408558420E+00    0.5438187844E-02    0.5519507623E-01
    0.1300000000E+06    0.6233516776E+00    0.2849872521E+00    0.2506842009E+00    0.5282166303E-02    0.5523475675E-01
    0.1500000000E+06    0.6235401917E+00    0.2793622923E+00    0.2592874326E+00    0.5147478704E-02    0.5526558426E-01
    0.1700000000E+06    0.6236817748E+00    0.2743484046E+00    0.2669451044E+00    0.5028995345E-02    0.5529050990E-01
    0.1900000000E+06    0.6237917062E+00    0.2698226773E+00    0.2738491852E+00    0.4923252657E-02    0.5531127122E-01
    0.2100000000E+06    0.6238793130E+00    0.2656965669E+00    0.2801375530E+00    0.4827798167E-02    0.5532896417E-01
    0.2300000000E+06    0.6239506052E+00    0.2619040401E+00    0.2859127784E+00    0.4740829790E-02    0.5534431784E-01
    0.2500000000E+06    0.6240096265E+00    0.2583944587E+00    0.2912533539E+00    0.4660983391E-02    0.5535783830E-01
    0.2700000000E+06    0.6240591957E+00    0.2551280888E+00    0.2962207589E+00    0.4587200839E-02    0.5536988919E-01
    0.2900000000E+06    0.6241013363E+00    0.2520731476E+00    0.3008640940E+00    0.4518644450E-02    0.5538073947E-01
    0.3100000000E+06    0.6241375374E+00    0.2492037929E+00    0.3052232277E+00    0.4454639472E-02    0.5539059292E-01
    0.3300000000E+06    0.6241689192E+00    0.2464987153E+00    0.3093309963E+00    0.4394634236E-02    0.5539960722E-01
    0.3500000000E+06    0.6241963396E+00    0.2439401256E+00    0.3132147817E+00    0.4338171830E-02    0.5540790657E-01
    0.3700000000E+06    0.6242204664E+00    0.2415130133E+00    0.3168976670E+00    0.4284869499E-02    0.5541559036E-01
    0.3900000000E+06    0.6242418273E+00    0.2392045906E+00    0.3203992999E+00    0.4234403373E-02    0.5542273922E-01
    0.4100000000E+06    0.6242608444E+00    0.2370038708E+00    0.3237365476E+00    0.4186496938E-02    0.5542941937E-01
    0.4300000000E+06    0.6242778593E+00    0.2349013416E+00    0.3269240030E+00    0.4140912214E-02    0.5543568580E-01
    0.4500000000E+06    0.6242931512E+00    0.2328887109E+00    0.3299743789E+00    0.4097442891E-02    0.5544158465E-01
    0.4700000000E+06    0.6243069507E+00    0.2309587046E+00    0.3328988205E+00    0.4055908941E-02    0.5544715491E-01
    0.4900000000E+06    0.6243194494E+00    0.2291049051E+00    0.3357071549E+00    0.4016152323E-02    0.5545242987E-01
    0.1000000000E+06    0.6229160941E+00    0.2949849994E+00    0.2353561204E+00    0.5526552272E-02    0.5517036672E-01
    0.3000000000E+06    0.6241201021E+00    0.2506166966E+00    0.3030769899E+00    0.4486110022E-02    0.5538578003E-01
    0.5000000000E+06    0.6243252623E+00    0.2282047791E+00    0.3370705428E+00    0.3996896275E-02    0.5545496571E-01
    0.7000000000E+06    0.6244013843E+00    0.2131066791E+00    0.3599192969E+00    0.3678433505E-02    0.5549540131E-01
    0.9000000000E+06    0.6244374855E+00    0.2017549458E+00    0.3770765033E+00    0.3444350730E-02    0.5552380249E-01
    0.1100000000E+07    0.6244566102E+00    0.1926912530E+00    0.3907637259E+00    0.3260570175E-02    0.5554564141E-01
    0.1300000000E+07    0.6244672164E+00    0.1851714849E+00    0.4021122326E+00    0.3110119739E-02    0.5556336370E-01
    0.1500000000E+07    0.6244730754E+00    0.1787635067E+00    0.4117780821E+00    0.2983323200E-02    0.5557826763E-01
    0.1700000000E+07    0.6244760946E+00    0.1731938137E+00    0.4201760763E+00    0.2874146731E-02    0.5559112304E-01
    0.1900000000E+07    0.6244773278E+00    0.1682782758E+00    0.4275852451E+00    0.2778578427E-02    0.5560242318E-01
    0.2100000000E+07    0.6244773966E+00    0.1638870150E+00    0.4342022760E+00    0.2693818501E-02    0.5561250278E-01
    0.2300000000E+07    0.6244766867E+00    0.1599250118E+00    0.4401709882E+00    0.2617837655E-02    0.5562159925E-01
    0.2500000000E+07    0.6244754470E+00    0.1563206728E+00    0.4455996937E+00    0.2549119511E-02    0.5562988699E-01
    0.2700000000E+07    0.6244738434E+00    0.1530187308E+00    0.4505719707E+00    0.2486502173E-02    0.5563749789E-01
    0.2900000000E+07    0.6244719891E+00    0.1499756456E+00    0.4551536405E+00    0.2429076441E-02    0.5564453404E-01
    0.3100000000E+07    0.6244699634E+00    0.1471565166E+00    0.4593974464E+00    0.2376118015E-02    0.5565107608E-01
    0.3300000000E+07    0.6244678224E+00    0.1445329483E+00    0.4633462895E+00    0.2327040927E-02    0.5565718883E-01
    0.3500000000E+07    0.6244656067E+00    0.1420815353E+00    0.4670355220E+00    0.2281364726E-02    0.5566292513E-01
    0.3700000000E+07    0.6244633457E+00    0.1397827643E+00    0.4704946113E+00    0.2238690803E-02    0.5566832866E-01
    0.3900000000E+07    0.6244610610E+00    0.1376202008E+00    0.4737483696E+00    0.2198684978E-02    0.5567343591E-01
    0.4100000000E+07    0.6244587686E+00    0.1355798782E+00    0.4768178793E+00    0.2161064466E-02    0.5567827769E-01
    0.4300000000E+07    0.6244564804E+00    0.1336498302E+00    0.4797212001E+00    0.2125587962E-02    0.5568288023E-01
    0.4500000000E+07    0.6244542050E+00    0.1318197291E+00    0.4824739161E+00    0.2092047995E-02    0.5568726608E-01
    0.4700000000E+07    0.6244519491E+00    0.1300806018E+00    0.4850895653E+00    0.2060264958E-02    0.5569145472E-01
    0.4900000000E+07    0.6244497173E+00    0.1284246048E+00    0.4875799796E+00    0.2030082391E-02    0.5569546315E-01
    0.1000000000E+07    0.6244484746E+00    0.1969937038E+00    0.3842677604E+00    0.3347471469E-02    0.5553535066E-01
    0.3000000000E+07    0.6244709937E+00    0.1485399936E+00    0.4573148950E+00    0.2402078242E-02    0.5564786245E-01
    0.5000000000E+07    0.6244486115E+00    0.1276255927E+00    0.4887815229E+00    0.2015547777E-02    0.5569740451E-01
    0.7000000000E+07    0.6244281921E+00    0.1147027730E+00    0.5082083241E+00    0.1783043610E-02    0.5572957846E-01
    0.9000000000E+07    0.6244109196E+00    0.1055553725E+00    0.5219525000E+00    0.1621418334E-02    0.5575345338E-01
    0.1100000000E+08    0.6243961765E+00    0.9858171646E-01    0.5324267397E+00    0.1499873384E-02    0.5577244709E-01
    0.1300000000E+08    0.6243833797E+00    0.9300807048E-01    0.5407958430E+00    0.1403789520E-02    0.5578822234E-01
    0.1500000000E+08    0.6243720988E+00    0.8840448061E-01    0.5477067852E+00    0.1325152139E-02    0.5580171455E-01
    0.1700000000E+08    0.6243620234E+00    0.8450871304E-01    0.5535540272E+00    0.1259126580E-02    0.5581350251E-01
    0.1900000000E+08    0.6243529260E+00    0.8114977230E-01    0.5585947137E+00    0.1202589442E-02    0.5582396944E-01
    0.2100000000E+08    0.6243446363E+00    0.7821038154E-01    0.5630051652E+00    0.1153415685E-02    0.5583338220E-01
    0.2300000000E+08    0.6243370243E+00    0.7560685899E-01    0.5669111681E+00    0.1110099687E-02    0.5584193416E-01
    0.2500000000E+08    0.6243299886E+00    0.7327755850E-01    0.5704053696E+00    0.1071539279E-02    0.5584976988E-01
    0.2700000000E+08    0.6243234487E+00    0.7117585722E-01    0.5735578275E+00    0.1036905629E-02    0.5585700032E-01
