  Pressure (Pa) 22mC5-400 (mol/kg) 2mC6-400 (mol/kg) 3mC6-400 (mol/kg) 33mC5-400 (mol/kg) 23mC5-400 (mol/kg)
    0.1000000000E+01    0.2116386442E-02    0.2393782095E-02    0.5307385005E-03    0.1299273997E-03    0.9290366921E-03
    0.3000000000E+01    0.6262942301E-02    0.7079449059E-02    0.1580123795E-02    0.3842155097E-03    0.2749291475E-02
    0.5000000000E+01    0.1029908794E-01    0.1163421287E-01    0.2613722727E-02    0.6313512649E-03    0.4521115120E-02
    0.7000000000E+01    0.1422997324E-01    0.1606370987E-01    0.3631926473E-02    0.8716414298E-03    0.6246766242E-02
    0.9000000000E+01    0.1806042408E-01    0.2037324084E-01    0.4635113105E-02    0.1105374563E-02    0.7928361364E-02
    0.1100000000E+02    0.2179496742E-01    0.2456779644E-01    0.5623648141E-02    0.1332822393E-02    0.9567885917E-02
    0.1300000000E+02    0.2543785402E-01    0.2865208027E-01    0.6597885064E-02    0.1554241070E-02    0.1116720423E-01
    0.1500000000E+02    0.2899307925E-01    0.3263052991E-01    0.7558165818E-02    0.1769872302E-02    0.1272806860E-01
    0.1700000000E+02    0.3246440199E-01    0.3650733612E-01    0.8504821281E-02    0.1979944398E-02    0.1425212765E-01
    0.1900000000E+02    0.3585536184E-01    0.4028646031E-01    0.9438171709E-02    0.2184673213E-02    0.1574093382E-01
    0.2100000000E+02    0.3916929495E-01    0.4397165056E-01    0.1035852717E-01    0.2384263019E-02    0.1719595031E-01
    0.2300000000E+02    0.4240934842E-01    0.4756645634E-01    0.1126618793E-01    0.2578907297E-02    0.1861855746E-01
    0.2500000000E+02    0.4557849356E-01    0.5107424189E-01    0.1216144488E-01    0.2768789467E-02    0.2001005846E-01
    0.2700000000E+02    0.4867953799E-01    0.5449819864E-01    0.1304457985E-01    0.2954083560E-02    0.2137168476E-01
    0.2900000000E+02    0.5171513683E-01    0.5784135651E-01    0.1391586600E-01    0.3134954829E-02    0.2270460091E-01
    0.3100000000E+02    0.5468780291E-01    0.6110659439E-01    0.1477556816E-01    0.3311560321E-02    0.2400990904E-01
    0.3300000000E+02    0.5759991623E-01    0.6429664978E-01    0.1562394312E-01    0.3484049396E-02    0.2528865306E-01
    0.3500000000E+02    0.6045373268E-01    0.6741412768E-01    0.1646123992E-01    0.3652564208E-02    0.2654182243E-01
    0.3700000000E+02    0.6325139201E-01    0.7046150880E-01    0.1728770022E-01    0.3817240155E-02    0.2777035567E-01
    0.3900000000E+02    0.6599492529E-01    0.7344115714E-01    0.1810355848E-01    0.3978206289E-02    0.2897514365E-01
    0.4100000000E+02    0.6868626176E-01    0.7635532707E-01    0.1890904231E-01    0.4135585696E-02    0.3015703257E-01
    0.4300000000E+02    0.7132723514E-01    0.7920616980E-01    0.1970437265E-01    0.4289495852E-02    0.3131682675E-01
    0.4500000000E+02    0.7391958953E-01    0.8199573945E-01    0.2048976406E-01    0.4440048948E-02    0.3245529118E-01
    0.4700000000E+02    0.7646498485E-01    0.8472599869E-01    0.2126542496E-01    0.4587352202E-02    0.3357315396E-01
    0.4900000000E+02    0.7896500191E-01    0.8739882392E-01    0.2203155779E-01    0.4731508132E-02    0.3467110846E-01
    0.1000000000E+02    0.1993941229E-01    0.2248459011E-01    0.5131189704E-02    0.1219867780E-02    0.8753263214E-02
    0.3000000000E+02    0.5320918471E-01    0.5948354115E-01    0.1434714885E-01    0.3223781288E-02    0.2336063941E-01
    0.5000000000E+02    0.8019846712E-01    0.8871426278E-01    0.2241111289E-01    0.4802436671E-02    0.3521282782E-01
    0.7000000000E+02    0.1028163520E+00    0.1124055020E+00    0.2954707438E-01    0.6077516153E-02    0.4514719274E-01
    0.9000000000E+02    0.1222410337E+00    0.1319874006E+00    0.3592335084E-01    0.7127232084E-02    0.5368053847E-01
    0.1100000000E+03    0.1392411026E+00    0.1484271965E+00    0.4166899564E-01    0.8004560530E-02    0.6115001467E-01
    0.1300000000E+03    0.1543410389E+00    0.1624063132E+00    0.4688470735E-01    0.8746872802E-02    0.6778569827E-01
    0.1500000000E+03    0.1679123816E+00    0.1744206660E+00    0.5165027948E-01    0.9381398048E-02    0.7375057993E-01
    0.1700000000E+03    0.1802267840E+00    0.1848408185E+00    0.5602980899E-01    0.9928503477E-02    0.7916383496E-01
    0.1900000000E+03    0.1914883322E+00    0.1939497871E+00    0.6007541444E-01    0.1040375819E-01    0.8411499911E-01
    0.2100000000E+03    0.2018540070E+00    0.2019677381E+00    0.6382993992E-01    0.1081928294E-01    0.8867294404E-01
    0.2300000000E+03    0.2114470760E+00    0.2090686558E+00    0.6732895433E-01    0.1118466203E-01    0.9289175194E-01
    0.2500000000E+03    0.2203661148E+00    0.2153919084E+00    0.7060225199E-01    0.1150757674E-01    0.9681467276E-01
    0.2700000000E+03    0.2286912396E+00    0.2210504675E+00    0.7367499425E-01    0.1179425588E-01    0.1004768582E+00
    0.2900000000E+03    0.2364885100E+00    0.2261368707E+00    0.7656858899E-01    0.1204980289E-01    0.1039072933E+00
    0.3100000000E+03    0.2438131033E+00    0.2307276270E+00    0.7930137559E-01    0.1227843778E-01    0.1071301889E+00
    0.3300000000E+03    0.2507116431E+00    0.2348865234E+00    0.8188916428E-01    0.1248367885E-01    0.1101660034E+00
    0.3500000000E+03    0.2572239379E+00    0.2386671426E+00    0.8434566461E-01    0.1266848119E-01    0.1130322047E+00
    0.3700000000E+03    0.2633842960E+00    0.2421148051E+00    0.8668282911E-01    0.1283534355E-01    0.1157438484E+00
    0.3900000000E+03    0.2692225363E+00    0.2452680836E+00    0.8891113098E-01    0.1298639179E-01    0.1183140200E+00
    0.4100000000E+03    0.2747647733E+00    0.2481599967E+00    0.9103979029E-01    0.1312344468E-01    0.1207541798E+00
    0.4300000000E+03    0.2800340349E+00    0.2508189588E+00    0.9307695963E-01    0.1324806634E-01    0.1230744340E+00
    0.4500000000E+03    0.2850507536E+00    0.2532695427E+00    0.9502987726E-01    0.1336160828E-01    0.1252837502E+00
    0.4700000000E+03    0.2898331612E+00    0.2555330957E+00    0.9690499449E-01    0.1346524352E-01    0.1273901302E+00
    0.4900000000E+03    0.2943976089E+00    0.2576282425E+00    0.9870808206E-01    0.1355999432E-01    0.1294007509E+00
    0.1000000000E+03    0.1310069578E+00    0.1405522062E+00    0.3886814455E-01    0.7584821283E-02    0.5753194745E-01
    0.3000000000E+03    0.2402067996E+00    0.2284899526E+00    0.7795404138E-01    0.1216724981E-01    0.1055433270E+00
    0.5000000000E+03    0.2966027588E+00    0.2586178422E+00    0.9958425429E-01    0.1360432200E-01    0.1303721974E+00
    0.7000000000E+03    0.3321845462E+00    0.2726231459E+00    0.1143414355E+00    0.1419138650E-01    0.1460563080E+00
    0.9000000000E+03    0.3566134658E+00    0.2801810395E+00    0.1255320957E+00    0.1445545925E-01    0.1568370719E+00
    0.1100000000E+04    0.3742978292E+00    0.2846014200E+00    0.1345666580E+00    0.1457227555E-01    0.1646507008E+00
    0.1300000000E+04    0.3876064286E+00    0.2872879607E+00    0.1421646047E+00    0.1461362586E-01    0.1705380988E+00
    0.1500000000E+04    0.3979314977E+00    0.2889279421E+00    0.1487387430E+00    0.1461308501E-01    0.1751113234E+00
    0.1700000000E+04    0.4061423784E+00    0.2898947213E+00    0.1545465396E+00    0.1458797620E-01    0.1787527245E+00
    0.1900000000E+04    0.4128074077E+00    0.2904076203E+00    0.1597589084E+00    0.1454792896E-01    0.1817123730E+00
    0.2100000000E+04    0.4183121524E+00    0.2906035018E+00    0.1644949265E+00    0.1449861500E-01    0.1841599922E+00
    0.2300000000E+04    0.4229263969E+00    0.2905719370E+00    0.1688408162E+00    0.1444353032E-01    0.1862143889E+00
    0.2500000000E+04    0.4268439530E+00    0.2903738267E+00    0.1728610019E+00    0.1438490859E-01    0.1879609497E+00
    0.2700000000E+04    0.4302072667E+00    0.2900518825E+00    0.1766048927E+00    0.1432421769E-01    0.1894624573E+00
    0.2900000000E+04    0.4331231421E+00    0.2896368335E+00    0.1801112228E+00    0.1426244351E-01    0.1907660058E+00
    0.3100000000E+04    0.4356730824E+00    0.2891512621E+00    0.1834109327E+00    0.1420025894E-01    0.1919075479E+00
    0.3300000000E+04    0.4379202648E+00    0.2886120623E+00    0.1865291396E+00    0.1413812828E-01    0.1929149646E+00
    0.3500000000E+04    0.4399143522E+00    0.2880320635E+00    0.1894865222E+00    0.1407637380E-01    0.1938101823E+00
    0.3700000000E+04    0.4416948790E+00    0.2874211344E+00    0.1923003170E+00    0.1401521915E-01    0.1946106631E+00
    0.3900000000E+04    0.4432936776E+00    0.2867869483E+00    0.1949850487E+00    0.1395481857E-01    0.1953304731E+00
    0.4100000000E+04    0.4447366453E+00    0.2861355274E+00    0.1975530766E+00    0.1389527675E-01    0.1959810613E+00
    0.4300000000E+04    0.4460450511E+00    0.2854716349E+00    0.2000150097E+00    0.1383666268E-01    0.1965718343E+00
    0.4500000000E+04    0.4472365140E+00    0.2847990631E+00    0.2023800257E+00    0.1377901941E-01    0.1971105882E+00
    0.4700000000E+04    0.4483257460E+00    0.2841208475E+00    0.2046561213E+00    0.1372237107E-01    0.1976038353E+00
    0.4900000000E+04    0.4493251219E+00    0.2834394287E+00    0.2068503087E+00    0.1366672792E-01    0.1980570562E+00
    0.1000000000E+04    0.3661198636E+00    0.2826711812E+00    0.1302639980E+00    0.1452646799E-01    0.1610361964E+00
    0.3000000000E+04    0.4344395408E+00    0.2894016961E+00    0.1817852175E+00    0.1423136954E-01    0.1913551244E+00
    0.5000000000E+04    0.4497944527E+00    0.2830981489E+00    0.2079186486E+00    0.1363928364E-01    0.1982701361E+00
    0.7000000000E+04    0.4563240629E+00    0.2764196503E+00    0.2261673535E+00    0.1314030125E-01    0.2012553551E+00
    0.9000000000E+04    0.4598977726E+00    0.2703077044E+00    0.2403743846E+00    0.1272161880E-01    0.2029143227E+00
    0.1100000000E+05    0.4621398613E+00    0.2648146471E+00    0.2520764113E+00    0.1236332435E-01    0.2039712399E+00
    0.1300000000E+05    0.4636724562E+00    0.2598660482E+00    0.2620567850E+00    0.1205096059E-01    0.2047049077E+00
    0.1500000000E+05    0.4647836059E+00    0.2553781303E+00    0.2707736398E+00    0.1177443959E-01    0.2052450751E+00
    0.1700000000E+05    0.4656245372E+00    0.2512786615E+00    0.2785199803E+00    0.1152658476E-01    0.2056602119E+00
    0.1900000000E+05    0.4662821061E+00    0.2475088141E+00    0.2854954282E+00    0.1130214811E-01    0.2059898461E+00
    0.2100000000E+05    0.4668096839E+00    0.2440212014E+00    0.2918425537E+00    0.1109718923E-01    0.2062583928E+00
    0.2300000000E+05    0.4672418417E+00    0.2407775242E+00    0.2976669777E+00    0.1090867925E-01    0.2064817489E+00
    0.2500000000E+05    0.4676019410E+00    0.2377465700E+00    0.3030492725E+00    0.1073424189E-01    0.2066707124E+00
    0.2700000000E+05    0.4679063264E+00    0.2349026508E+00    0.3080523925E+00    0.1057197948E-01    0.2068328775E+00
    0.2900000000E+05    0.4681667705E+00    0.2322244132E+00    0.3127265197E+00    0.1042035289E-01    0.2069737423E+00
    0.3100000000E+05    0.4683919638E+00    0.2296939366E+00    0.3171123377E+00    0.1027809677E-01    0.2070973869E+00
    0.3300000000E+05    0.4685884596E+00    0.2272960457E+00    0.3212433126E+00    0.1014415835E-01    0.2072069038E+00
    0.3500000000E+05    0.4687612905E+00    0.2250177834E+00    0.3251473228E+00    0.1001765237E-01    0.2073046803E+00
    0.3700000000E+05    0.4689143848E+00    0.2228480014E+00    0.3288478496E+00    0.9897827362E-02    0.2073925895E+00
    0.3900000000E+05    0.4690508526E+00    0.2207770405E+00    0.3323648654E+00    0.9784039986E-02    0.2074721222E+00
    0.4100000000E+05    0.4691731874E+00    0.2187964774E+00    0.3357155061E+00    0.9675735237E-02    0.2075444797E+00
    0.4300000000E+05    0.4692834116E+00    0.2168989231E+00    0.3389145889E+00    0.9572430986E-02    0.2076106415E+00
    0.4500000000E+05    0.4693831823E+00    0.2150778601E+00    0.3419750165E+00    0.9473705755E-02    0.2076714142E+00
    0.4700000000E+05    0.4694738698E+00    0.2133275109E+00    0.3449080960E+00    0.9379188954E-02    0.2077274685E+00
    0.4900000000E+05    0.4695566169E+00    0.2116427296E+00    0.3477237940E+00    0.9288553007E-02    0.2077793663E+00
    0.1000000000E+05    0.4611346250E+00    0.2674877174E+00    0.2464790142E+00    0.1253594914E-01    0.2034953718E+00
    0.3000000000E+05    0.4682833223E+00    0.2309417107E+00    0.3149532282E+00    0.1034812371E-01    0.2070375046E+00
    0.5000000000E+05    0.4695953191E+00    0.2108234694E+00    0.3490904243E+00    0.9244598146E-02    0.2078039079E+00
    0.7000000000E+05    0.4701212032E+00    0.1969813862E+00    0.3719595857E+00    0.8513081510E-02    0.2081607268E+00
    0.9000000000E+05    0.4703948995E+00    0.1864763922E+00    0.3890864073E+00    0.7970978072E-02    0.2083751564E+00
    0.1100000000E+06    0.4705577720E+00    0.1780464894E+00    0.4027179934E+00    0.7543476335E-02    0.2085220361E+00
    0.1300000000E+06    0.4706628671E+00    0.1710316413E+00    0.4139973578E+00    0.7192580518E-02    0.2086309823E+00
    0.1500000000E+06    0.4707343854E+00    0.1650427556E+00    0.4235867285E+00    0.6896364358E-02    0.2087162196E+00
    0.1700000000E+06    0.4707848636E+00    0.1598310870E+00    0.4319044161E+00    0.6641042463E-02    0.2087854971E+00
    0.1900000000E+06    0.4708214071E+00    0.1552279723E+00    0.4392315518E+00    0.6417394600E-02    0.2088434291E+00
    0.2100000000E+06    0.4708483223E+00    0.1511138094E+00    0.4457661244E+00    0.6218957768E-02    0.2088929520E+00
    0.2300000000E+06    0.4708683592E+00    0.1474007396E+00    0.4516527756E+00    0.6041031585E-02    0.2089360332E+00
    0.2500000000E+06    0.4708833481E+00    0.1440223529E+00    0.4570003418E+00    0.5880094317E-02    0.2089740465E+00
    0.2700000000E+06    0.4708945501E+00    0.1409272524E+00    0.4618927344E+00    0.5733441716E-02    0.2090079840E+00
    0.2900000000E+06    0.4709028582E+00    0.1380748634E+00    0.4663959818E+00    0.5598953990E-02    0.2090385822E+00
    0.3100000000E+06    0.4709089210E+00    0.1354326071E+00    0.4705629513E+00    0.5474940026E-02    0.2090664015E+00
    0.3300000000E+06    0.4709132186E+00    0.1329739396E+00    0.4744366103E+00    0.5360030093E-02    0.2090918766E+00
    0.3500000000E+06    0.4709161133E+00    0.1306769567E+00    0.4780523391E+00    0.5253100005E-02    0.2091153510E+00
    0.3700000000E+06    0.4709178821E+00    0.1285233784E+00    0.4814396063E+00    0.5153216311E-02    0.2091371001E+00
    0.3900000000E+06    0.4709187405E+00    0.1264977964E+00    0.4846232074E+00    0.5059595906E-02    0.2091573480E+00
    0.4100000000E+06    0.4709188575E+00    0.1245871072E+00    0.4876241959E+00    0.4971575737E-02    0.2091762787E+00
    0.4300000000E+06    0.4709183674E+00    0.1227800772E+00    0.4904605944E+00    0.4888589734E-02    0.2091940458E+00
    0.4500000000E+06    0.4709173777E+00    0.1210670064E+00    0.4931479447E+00    0.4810151003E-02    0.2092107778E+00
    0.4700000000E+06    0.4709159756E+00    0.1194394635E+00    0.4956997393E+00    0.4735837893E-02    0.2092265838E+00
    0.4900000000E+06    0.4709142318E+00    0.1178900761E+00    0.4981277630E+00    0.4665282991E-02    0.2092415570E+00
    0.1000000000E+06    0.4704858528E+00    0.1820520069E+00    0.3962520836E+00    0.7745797627E-02    0.2084546518E+00
    0.3000000000E+06    0.4709061370E+00    0.1367292505E+00    0.4685186146E+00    0.5535729916E-02    0.2090528095E+00
    0.5000000000E+06    0.4709132505E+00    0.1171426341E+00    0.4992986452E+00    0.4631312679E-02    0.2092487568E+00
    0.7000000000E+06    0.4708854414E+00    0.1050676779E+00    0.5181778530E+00    0.4088508102E-02    0.2093636855E+00
    0.9000000000E+06    0.4708531111E+00    0.9653917578E-01    0.5314734822E+00    0.3711983724E-02    0.2094445121E+00
    0.1100000000E+07    0.4708218596E+00    0.9004975375E-01    0.5415704036E+00    0.3429356115E-02    0.2095066995E+00
    0.1300000000E+07    0.4707928536E+00    0.8487168092E-01    0.5496152949E+00    0.3206290662E-02    0.2095571801E+00
    0.1500000000E+07    0.4707661866E+00    0.8060095960E-01    0.5562429471E+00    0.3023982902E-02    0.2095996402E+00
    0.1700000000E+07    0.4707416722E+00    0.7699144853E-01    0.5618393062E+00    0.2871101308E-02    0.2096362681E+00
    0.1900000000E+07    0.4707190667E+00    0.7388281559E-01    0.5666553568E+00    0.2740332810E-02    0.2096684668E+00
    0.2100000000E+07    0.4706981355E+00    0.7116520952E-01    0.5708628298E+00    0.2626706809E-02    0.2096971890E+00
    0.2300000000E+07    0.4706786715E+00    0.6876032295E-01    0.5745840056E+00    0.2526704883E-02    0.2097231103E+00
    0.2500000000E+07    0.4706604967E+00    0.6661052166E-01    0.5779087963E+00    0.2437753690E-02    0.2097467276E+00
    0.2700000000E+07    0.4706434602E+00    0.6467225456E-01    0.5809050869E+00    0.2357919689E-02    0.2097684164E+00
    0.2900000000E+07    0.4706274338E+00    0.6291187694E-01    0.5836252822E+00    0.2285716853E-02    0.2097884674E+00
    0.3100000000E+07    0.4706123085E+00    0.6130290335E-01    0.5861106089E+00    0.2219980896E-02    0.2098071105E+00
    0.3300000000E+07    0.4705979913E+00    0.5982414315E-01    0.5883940328E+00    0.2159784366E-02    0.2098245303E+00
    0.3500000000E+07    0.4705844024E+00    0.5845840068E-01    0.5905022901E+00    0.2104377716E-02    0.2098408773E+00
    0.3700000000E+07    0.4705714726E+00    0.5719154764E-01    0.5924573376E+00    0.2053147440E-02    0.2098562761E+00
    0.3900000000E+07    0.4705591423E+00    0.5601184735E-01    0.5942774068E+00    0.2005585699E-02    0.2098708305E+00
    0.4100000000E+07    0.4705473591E+00    0.5490945358E-01    0.5959777868E+00    0.1961267880E-02    0.2098846284E+00
    0.4300000000E+07    0.4705360772E+00    0.5387603284E-01    0.5975714123E+00    0.1919835745E-02    0.2098977446E+00
    0.4500000000E+07    0.4705252562E+00    0.5290447545E-01    0.5990693151E+00    0.1880984577E-02    0.2099102432E+00
    0.4700000000E+07    0.4705148603E+00    0.5198867179E-01    0.6004809718E+00    0.1844453269E-02    0.2099221799E+00
    0.4900000000E+07    0.4705048578E+00    0.5112333682E-01    0.6018145776E+00    0.1810016566E-02    0.2099336030E+00
    0.1000000000E+07    0.4708372352E+00    0.9309572236E-01    0.5368332377E+00    0.3561592834E-02    0.2094773930E+00
    0.3000000000E+07    0.4706197646E+00    0.6208989573E-01    0.5848950774E+00    0.2252103240E-02    0.2097979525E+00
    0.5000000000E+07    0.4704999950E+00    0.5070813419E-01    0.6024543761E+00    0.1793521569E-02    0.2099391354E+00
    0.7000000000E+07    0.4704178592E+00    0.4419684799E-01    0.6124802882E+00    0.1537326550E-02    0.2100308245E+00
    0.9000000000E+07    0.4703553519E+00    0.3981097095E-01    0.6192254985E+00    0.1367530457E-02    0.2100988646E+00
    0.1100000000E+08    0.4703048940E+00    0.3658538536E-01    0.6241820372E+00    0.1244185552E-02    0.2101529958E+00
    0.1300000000E+08    0.4702625873E+00    0.3407804534E-01    0.6280323770E+00    0.1149257893E-02    0.2101979565E+00
    0.1500000000E+08    0.4702261628E+00    0.3205304204E-01    0.6311403839E+00    0.1073231079E-02    0.2102364120E+00
    0.1700000000E+08    0.4701941835E+00    0.3037107503E-01    0.6337207533E+00    0.1010537606E-02    0.2102700117E+00
    0.1900000000E+08    0.4701656820E+00    0.2894371636E-01    0.6359096904E+00    0.9576709198E-03    0.2102998474E+00
    0.2100000000E+08    0.4701399756E+00    0.2771168629E-01    0.6377984565E+00    0.9122963584E-03    0.2103266796E+00
    0.2300000000E+08    0.4701165648E+00    0.2663351411E-01    0.6394508675E+00    0.8727905157E-03    0.2103510591E+00
    0.2500000000E+08    0.4700950731E+00    0.2567917544E-01    0.6409131081E+00    0.8379844366E-03    0.2103733978E+00
    0.2700000000E+08    0.4700752097E+00    0.2482631083E-01    0.6422195602E+00    0.8070118735E-03    0.2103940120E+00
