  Pressure (Pa) 22mC5-400 (mol/kg) 2mC6-400 (mol/kg) 3mC6-400 (mol/kg) 33mC5-400 (mol/kg) 23mC5-400 (mol/kg)
    0.1000000000E+01    0.2118156264E-02    0.2388480596E-02    0.2644620841E-02    0.3889360066E-03    0.1859625579E-03
    0.3000000000E+01    0.6278438292E-02    0.7032794248E-02    0.7820840338E-02    0.1145201741E-02    0.5512173506E-03
    0.5000000000E+01    0.1034098407E-01    0.1150745871E-01    0.1285200435E-01    0.1873832723E-02    0.9078974795E-03
    0.7000000000E+01    0.1430993652E-01    0.1582065904E-01    0.1774452724E-01    0.2576160540E-02    0.1256366360E-02
    0.9000000000E+01    0.1818920083E-01    0.1998007755E-01    0.2250444522E-01    0.3253435024E-02    0.1596966556E-02
    0.1100000000E+02    0.2198246135E-01    0.2399293134E-01    0.2713744395E-01    0.3906830350E-02    0.1930021261E-02
    0.1300000000E+02    0.2569319698E-01    0.2786600645E-01    0.3164888370E-01    0.4537450596E-02    0.2255835649E-02
    0.1500000000E+02    0.2932469536E-01    0.3160568914E-01    0.3604382246E-01    0.5146334820E-02    0.2574698115E-02
    0.1700000000E+02    0.3288006585E-01    0.3521799445E-01    0.4032703705E-01    0.5734461718E-02    0.2886881422E-02
    0.1900000000E+02    0.3636225153E-01    0.3870859246E-01    0.4450304249E-01    0.6302753877E-02    0.3192643743E-02
    0.2100000000E+02    0.3977404019E-01    0.4208283224E-01    0.4857610979E-01    0.6852081686E-02    0.3492229631E-02
    0.2300000000E+02    0.4311807447E-01    0.4534576397E-01    0.5255028231E-01    0.7383266921E-02    0.3785870909E-02
    0.2500000000E+02    0.4639686126E-01    0.4850215920E-01    0.5642939078E-01    0.7897086049E-02    0.4073787491E-02
    0.2700000000E+02    0.4961278030E-01    0.5155652955E-01    0.6021706725E-01    0.8394273256E-02    0.4356188139E-02
    0.2900000000E+02    0.5276809223E-01    0.5451314385E-01    0.6391675779E-01    0.8875523250E-02    0.4633271167E-02
    0.3100000000E+02    0.5586494595E-01    0.5737604409E-01    0.6753173440E-01    0.9341493841E-02    0.4905225089E-02
    0.3300000000E+02    0.5890538549E-01    0.6014906000E-01    0.7106510587E-01    0.9792808319E-02    0.5172229218E-02
    0.3500000000E+02    0.6189135638E-01    0.6283582261E-01    0.7451982792E-01    0.1023005766E-01    0.5434454229E-02
    0.3700000000E+02    0.6482471154E-01    0.6543977679E-01    0.7789871255E-01    0.1065380256E-01    0.5692062671E-02
    0.3900000000E+02    0.6770721675E-01    0.6796419282E-01    0.8120443676E-01    0.1106457531E-01    0.5945209453E-02
    0.4100000000E+02    0.7054055578E-01    0.7041217718E-01    0.8443955058E-01    0.1146288158E-01    0.6194042287E-02
    0.4300000000E+02    0.7332633509E-01    0.7278668247E-01    0.8760648456E-01    0.1184920199E-01    0.6438702104E-02
    0.4500000000E+02    0.7606608829E-01    0.7509051670E-01    0.9070755675E-01    0.1222399366E-01    0.6679323444E-02
    0.4700000000E+02    0.7876128022E-01    0.7732635190E-01    0.9374497917E-01    0.1258769157E-01    0.6916034818E-02
    0.4900000000E+02    0.8141331082E-01    0.7949673210E-01    0.9672086385E-01    0.1294070991E-01    0.7148959040E-02
    0.1000000000E+02    0.2009635949E-01    0.2200439118E-01    0.2483646713E-01    0.3583046996E-02    0.1764417615E-02
    0.3000000000E+02    0.5432369623E-01    0.5595606406E-01    0.6573463734E-01    0.9110378733E-02    0.4769877850E-02
    0.5000000000E+02    0.8272356124E-01    0.8055813843E-01    0.9818636360E-01    0.1311333827E-01    0.7264037870E-02
    0.7000000000E+02    0.1069588198E+00    0.9888172660E-01    0.1247112374E+00    0.1609182626E-01    0.9392776466E-02
    0.9000000000E+02    0.1280921725E+00    0.1128162067E+00    0.1469044130E+00    0.1835352142E-01    0.1124932571E-01
    0.1100000000E+03    0.1468361503E+00    0.1235823844E+00    0.1658268662E+00    0.2009732995E-01    0.1289619922E-01
    0.1300000000E+03    0.1636876196E+00    0.1320010040E+00    0.1822129542E+00    0.2145705418E-01    0.1437699090E-01
    0.1500000000E+03    0.1790045947E+00    0.1386422186E+00    0.1965879391E+00    0.2252570458E-01    0.1572311297E-01
    0.1700000000E+03    0.1930523115E+00    0.1439131325E+00    0.2093380244E+00    0.2336974094E-01    0.1695783790E-01
    0.1900000000E+03    0.2060320292E+00    0.1481112961E+00    0.2207539129E+00    0.2403777664E-01    0.1809882508E-01
    0.2100000000E+03    0.2180996789E+00    0.1514585972E+00    0.2310588923E+00    0.2456609421E-01    0.1915975689E-01
    0.2300000000E+03    0.2293783098E+00    0.1541234088E+00    0.2404275163E+00    0.2498225060E-01    0.2015143065E-01
    0.2500000000E+03    0.2399666186E+00    0.1562354572E+00    0.2489983682E+00    0.2530749811E-01    0.2108250692E-01
    0.2700000000E+03    0.2499449316E+00    0.1578960438E+00    0.2568829921E+00    0.2555844925E-01    0.2196003439E-01
    0.2900000000E+03    0.2593794882E+00    0.1591852192E+00    0.2641722715E+00    0.2574824561E-01    0.2278982571E-01
    0.3100000000E+03    0.2683255646E+00    0.1601669155E+00    0.2709410727E+00    0.2588739430E-01    0.2357673153E-01
    0.3300000000E+03    0.2768297898E+00    0.1608926777E+00    0.2772516805E+00    0.2598437631E-01    0.2432484375E-01
    0.3500000000E+03    0.2849318882E+00    0.1614044186E+00    0.2831563795E+00    0.2604609599E-01    0.2503764840E-01
    0.3700000000E+03    0.2926660095E+00    0.1617364815E+00    0.2886994191E+00    0.2607821748E-01    0.2571814234E-01
    0.3900000000E+03    0.3000617554E+00    0.1619172023E+00    0.2939185298E+00    0.2608541992E-01    0.2636892335E-01
    0.4100000000E+03    0.3071449818E+00    0.1619701076E+00    0.2988461042E+00    0.2607159302E-01    0.2699226053E-01
    0.4300000000E+03    0.3139384323E+00    0.1619148421E+00    0.3035101289E+00    0.2603998874E-01    0.2759014984E-01
    0.4500000000E+03    0.3204622424E+00    0.1617678938E+00    0.3079349249E+00    0.2599333988E-01    0.2816435843E-01
    0.4700000000E+03    0.3267343460E+00    0.1615431665E+00    0.3121417424E+00    0.2593395370E-01    0.2871646024E-01
    0.4900000000E+03    0.3327708046E+00    0.1612524346E+00    0.3161492419E+00    0.2586378649E-01    0.2924786487E-01
    0.1000000000E+03    0.1377278205E+00    0.1185368100E+00    0.1567226082E+00    0.1928062263E-01    0.1209590002E-01
    0.3000000000E+03    0.2639104922E+00    0.1597110266E+00    0.2676175780E+00    0.2582357928E-01    0.2318836778E-01
    0.5000000000E+03    0.3357052414E+00    0.1610855055E+00    0.3180834688E+00    0.2582519032E-01    0.2950620723E-01
    0.7000000000E+03    0.3848922867E+00    0.1560508183E+00    0.3494381729E+00    0.2478211942E-01    0.3383832512E-01
    0.9000000000E+03    0.4210270339E+00    0.1500336286E+00    0.3717683182E+00    0.2359871957E-01    0.3702344309E-01
    0.1100000000E+04    0.4486370076E+00    0.1442851566E+00    0.3889286480E+00    0.2248417260E-01    0.3945907664E-01
    0.1300000000E+04    0.4703208541E+00    0.1390867017E+00    0.4027677539E+00    0.2148383770E-01    0.4137346116E-01
    0.1500000000E+04    0.4877198603E+00    0.1344535606E+00    0.4143051796E+00    0.2059769933E-01    0.4291079683E-01
    0.1700000000E+04    0.5019305161E+00    0.1303286879E+00    0.4241593882E+00    0.1981347002E-01    0.4416745066E-01
    0.1900000000E+04    0.5137137864E+00    0.1266417269E+00    0.4327323664E+00    0.1911681885E-01    0.4521032274E-01
    0.2100000000E+04    0.5236132026E+00    0.1233270337E+00    0.4402994447E+00    0.1849451746E-01    0.4608721240E-01
    0.2300000000E+04    0.5320261656E+00    0.1203282649E+00    0.4470571072E+00    0.1793522909E-01    0.4683307852E-01
    0.2500000000E+04    0.5392490465E+00    0.1175985308E+00    0.4531502806E+00    0.1742950904E-01    0.4747400026E-01
    0.2700000000E+04    0.5455067183E+00    0.1150992196E+00    0.4586888036E+00    0.1696956728E-01    0.4802977121E-01
    0.2900000000E+04    0.5509724352E+00    0.1127985822E+00    0.4637578325E+00    0.1654898872E-01    0.4851564581E-01
    0.3100000000E+04    0.5557815243E+00    0.1106704330E+00    0.4684246701E+00    0.1616247685E-01    0.4894354267E-01
    0.3300000000E+04    0.5600410063E+00    0.1086930614E+00    0.4727433947E+00    0.1580563801E-01    0.4932289009E-01
    0.3500000000E+04    0.5638364753E+00    0.1068483534E+00    0.4767580861E+00    0.1547480650E-01    0.4966123094E-01
    0.3700000000E+04    0.5672370964E+00    0.1051210935E+00    0.4805051280E+00    0.1516690492E-01    0.4996466209E-01
    0.3900000000E+04    0.5702992891E+00    0.1034984140E+00    0.4840148867E+00    0.1487933336E-01    0.5023815833E-01
    0.4100000000E+04    0.5730694777E+00    0.1019693596E+00    0.4873129574E+00    0.1460988152E-01    0.5048581433E-01
    0.4300000000E+04    0.5755861691E+00    0.1005245431E+00    0.4904211051E+00    0.1435665893E-01    0.5071102743E-01
    0.4500000000E+04    0.5778815413E+00    0.9915587082E-01    0.4933579854E+00    0.1411803914E-01    0.5091663745E-01
    0.4700000000E+04    0.5799826691E+00    0.9785632404E-01    0.4961397043E+00    0.1389261511E-01    0.5110503454E-01
    0.4900000000E+04    0.5819124803E+00    0.9661978209E-01    0.4987802580E+00    0.1367916311E-01    0.5127824333E-01
    0.1000000000E+04    0.4357056250E+00    0.1470979348E+00    0.3808517984E+00    0.2302825224E-01    0.3831808472E-01
    0.3000000000E+04    0.5534517975E+00    0.1117143971E+00    0.4661378786E+00    0.1635176798E-01    0.4873620187E-01
    0.5000000000E+04    0.5828193613E+00    0.9602343513E-01    0.5000514822E+00    0.1357658703E-01    0.5135970145E-01
    0.7000000000E+04    0.5954594182E+00    0.8639315285E-01    0.5203632654E+00    0.1195326148E-01    0.5250051184E-01
    0.9000000000E+04    0.6023759044E+00    0.7957565844E-01    0.5344676951E+00    0.1084142269E-01    0.5313141094E-01
    0.1100000000E+05    0.6067059029E+00    0.7436731640E-01    0.5450723012E+00    0.1001208951E-01    0.5353067333E-01
    0.1300000000E+05    0.6096599010E+00    0.7019443164E-01    0.5534564468E+00    0.9359653891E-02    0.5380604684E-01
    0.1500000000E+05    0.6117987495E+00    0.6673994586E-01    0.5603199892E+00    0.8827333891E-02    0.5400762952E-01
    0.1700000000E+05    0.6134164137E+00    0.6381075864E-01    0.5660846179E+00    0.8381323894E-02    0.5416177351E-01
    0.1900000000E+05    0.6146813189E+00    0.6128088747E-01    0.5710225844E+00    0.7999981706E-02    0.5428363164E-01
    0.2100000000E+05    0.6156966897E+00    0.5906380084E-01    0.5753190462E+00    0.7668677673E-02    0.5438252457E-01
    0.2300000000E+05    0.6165292213E+00    0.5709763931E-01    0.5791051595E+00    0.7377095193E-02    0.5446449668E-01
    0.2500000000E+05    0.6172238785E+00    0.5533674102E-01    0.5824769221E+00    0.7117708578E-02    0.5453363801E-01
    0.2700000000E+05    0.6178120550E+00    0.5374650267E-01    0.5855065184E+00    0.6884873592E-02    0.5459281473E-01
    0.2900000000E+05    0.6183163207E+00    0.5230011865E-01    0.5882494675E+00    0.6674257891E-02    0.5464409512E-01
    0.3100000000E+05    0.6187533105E+00    0.5097643264E-01    0.5907492993E+00    0.6482470153E-02    0.5468900922E-01
    0.3300000000E+05    0.6191355498E+00    0.4975847678E-01    0.5930407137E+00    0.6306810519E-02    0.5472871343E-01
    0.3500000000E+05    0.6194726473E+00    0.4863245096E-01    0.5951517733E+00    0.6145097885E-02    0.5476409816E-01
    0.3700000000E+05    0.6197720947E+00    0.4758699290E-01    0.5971054628E+00    0.5995547440E-02    0.5479586025E-01
    0.3900000000E+05    0.6200398186E+00    0.4661264528E-01    0.5989208198E+00    0.5856681971E-02    0.5482455302E-01
    0.4100000000E+05    0.6202805675E+00    0.4570145970E-01    0.6006137722E+00    0.5727266407E-02    0.5485062146E-01
    0.4300000000E+05    0.6204981904E+00    0.4484669755E-01    0.6021977656E+00    0.5606258715E-02    0.5487442762E-01
    0.4500000000E+05    0.6206958398E+00    0.4404260079E-01    0.6036842436E+00    0.5492772499E-02    0.5489626914E-01
    0.4700000000E+05    0.6208761218E+00    0.4328421405E-01    0.6050830174E+00    0.5386048133E-02    0.5491639298E-01
    0.4900000000E+05    0.6210412095E+00    0.4256724492E-01    0.6064025555E+00    0.5285430219E-02    0.5493500585E-01
    0.1000000000E+05    0.6047657290E+00    0.7681468967E-01    0.5401083081E+00    0.1039967497E-01    0.5335123827E-01
    0.3000000000E+05    0.6185423623E+00    0.5162408338E-01    0.5895274268E+00    0.6576193154E-02    0.5466726839E-01
    0.5000000000E+05    0.6211186378E+00    0.4222310409E-01    0.6070349478E+00    0.5237230406E-02    0.5494380125E-01
    0.7000000000E+05    0.6221903055E+00    0.3681643859E-01    0.6168881842E+00    0.4488267350E-02    0.5507121949E-01
    0.9000000000E+05    0.6227734681E+00    0.3316581835E-01    0.6234557984E+00    0.3991592320E-02    0.5514737939E-01
    0.1100000000E+06    0.6231383197E+00    0.3047752746E-01    0.6282493087E+00    0.3630700777E-02    0.5519937604E-01
    0.1300000000E+06    0.6233871235E+00    0.2838629449E-01    0.6319535267E+00    0.3352930835E-02    0.5523785940E-01
    0.1500000000E+06    0.6235670374E+00    0.2669660087E-01    0.6349309239E+00    0.3130468569E-02    0.5526792135E-01
    0.1700000000E+06    0.6237027897E+00    0.2529276299E-01    0.6373941300E+00    0.2947031706E-02    0.5529232655E-01
    0.1900000000E+06    0.6238085806E+00    0.2410123973E-01    0.6394773880E+00    0.2792360898E-02    0.5531271715E-01
    0.2100000000E+06    0.6238931380E+00    0.2307267929E-01    0.6412702738E+00    0.2659623436E-02    0.5533013609E-01
    0.2300000000E+06    0.6239621172E+00    0.2217252896E-01    0.6428352016E+00    0.2544067216E-02    0.5534528105E-01
    0.2500000000E+06    0.6240193408E+00    0.2137575769E-01    0.6442171987E+00    0.2442269933E-02    0.5535863854E-01
    0.2700000000E+06    0.6240674838E+00    0.2066371581E-01    0.6454496922E+00    0.2351695265E-02    0.5537055947E-01
    0.2900000000E+06    0.6241084730E+00    0.2002217733E-01    0.6465580986E+00    0.2270417821E-02    0.5538130423E-01
    0.3100000000E+06    0.6241437306E+00    0.1944007131E-01    0.6475621412E+00    0.2196945836E-02    0.5539107066E-01
    0.3300000000E+06    0.6241743288E+00    0.1890863239E-01    0.6484773954E+00    0.2130103029E-02    0.5540001220E-01
    0.3500000000E+06    0.6242010909E+00    0.1842081580E-01    0.6493163504E+00    0.2068947586E-02    0.5540824997E-01
    0.3700000000E+06    0.6242246590E+00    0.1797088450E-01    0.6500891549E+00    0.2012715238E-02    0.5541588108E-01
    0.3900000000E+06    0.6242455414E+00    0.1755411167E-01    0.6508041544E+00    0.1960778371E-02    0.5542298443E-01
    0.4100000000E+06    0.6242641452E+00    0.1716656205E-01    0.6514682842E+00    0.1912616102E-02    0.5542962492E-01
    0.4300000000E+06    0.6242808005E+00    0.1680492867E-01    0.6520873627E+00    0.1867792000E-02    0.5543585652E-01
    0.4500000000E+06    0.6242957774E+00    0.1646640906E-01    0.6526663128E+00    0.1825937239E-02    0.5544172454E-01
    0.4700000000E+06    0.6243092991E+00    0.1614861002E-01    0.6532093326E+00    0.1786737694E-02    0.5544726734E-01
    0.4900000000E+06    0.6243215516E+00    0.1584947359E-01    0.6537200268E+00    0.1749923922E-02    0.5545251769E-01
    0.1000000000E+06    0.6229748457E+00    0.3172988232E-01    0.6260206961E+00    0.3798299532E-02    0.5517553813E-01
    0.3000000000E+06    0.6241267444E+00    0.1972428926E-01    0.6470721090E+00    0.2232785966E-02    0.5538629927E-01
    0.5000000000E+06    0.6243272517E+00    0.1570633781E-01    0.6539642423E+00    0.1732337748E-02    0.5545504215E-01
    0.7000000000E+06    0.6244019888E+00    0.1349475380E-01    0.6577252121E+00    0.1463118252E-02    0.5549532974E-01
    0.9000000000E+06    0.6244374723E+00    0.1203952329E-01    0.6601871324E+00    0.1288723456E-02    0.5552365424E-01
    0.1100000000E+07    0.6244562553E+00    0.1098657770E-01    0.6619620351E+00    0.1164038126E-02    0.5554544329E-01
    0.1300000000E+07    0.6244666451E+00    0.1017805895E-01    0.6633211877E+00    0.1069219548E-02    0.5556312857E-01
    0.1500000000E+07    0.6244723537E+00    0.9531358994E-02    0.6644059469E+00    0.9939933861E-03    0.5557800274E-01
    0.1700000000E+07    0.6244752610E+00    0.8998436623E-02    0.6652982517E+00    0.9324364530E-03    0.5559083294E-01
    0.1900000000E+07    0.6244764065E+00    0.8549169004E-02    0.6660493442E+00    0.8808622889E-03    0.5560211097E-01
    0.2100000000E+07    0.6244764040E+00    0.8163569012E-02    0.6666931504E+00    0.8368406514E-03    0.5561217072E-01
    0.2300000000E+07    0.6244756343E+00    0.7827775927E-02    0.6672531531E+00    0.7986958705E-03    0.5562124904E-01
    0.2500000000E+07    0.6244743431E+00    0.7531830478E-02    0.6677461980E+00    0.7652301407E-03    0.5562952000E-01
    0.2700000000E+07    0.6244726944E+00    0.7268365081E-02    0.6681847293E+00    0.7355615094E-03    0.5563711522E-01
    0.2900000000E+07    0.6244708000E+00    0.7031794912E-02    0.6685781679E+00    0.7090243023E-03    0.5564413661E-01
    0.3100000000E+07    0.6244687381E+00    0.6817797977E-02    0.6689337962E+00    0.6851054069E-03    0.5565066468E-01
    0.3300000000E+07    0.6244665641E+00    0.6622969488E-02    0.6692573453E+00    0.6634020889E-03    0.5565676413E-01
    0.3500000000E+07    0.6244643181E+00    0.6444585376E-02    0.6695533959E+00    0.6435932396E-03    0.5566248773E-01
    0.3700000000E+07    0.6244620289E+00    0.6280436401E-02    0.6698256599E+00    0.6254192754E-03    0.5566787908E-01
    0.3900000000E+07    0.6244597180E+00    0.6128709195E-02    0.6700771817E+00    0.6086677731E-03    0.5567297462E-01
    0.4100000000E+07    0.6244574011E+00    0.5987899311E-02    0.6703104850E+00    0.5931630016E-03    0.5567780511E-01
    0.4300000000E+07    0.6244550897E+00    0.5856746551E-02    0.6705276823E+00    0.5787581597E-03    0.5568239675E-01
    0.4500000000E+07    0.6244527924E+00    0.5734186141E-02    0.6707305576E+00    0.5653295303E-03    0.5568677205E-01
    0.4700000000E+07    0.6244505157E+00    0.5619311332E-02    0.6709206288E+00    0.5527720164E-03    0.5569095047E-01
    0.4900000000E+07    0.6244482640E+00    0.5511344413E-02    0.6710991975E+00    0.5409956883E-03    0.5569494897E-01
    0.1000000000E+07    0.6244482689E+00    0.1147516903E-01    0.6611391175E+00    0.1221731267E-02    0.5553517530E-01
    0.3000000000E+07    0.6244697861E+00    0.6922205897E-02    0.6687603192E+00    0.6967649352E-03    0.5564745795E-01
    0.5000000000E+07    0.6244471487E+00    0.5459737964E-02    0.6711845253E+00    0.5353758361E-03    0.5569688546E-01
    0.7000000000E+07    0.6244265717E+00    0.4666871204E-02    0.6724933849E+00    0.4498085326E-03    0.5572897368E-01
    0.9000000000E+07    0.6244091814E+00    0.4149699355E-02    0.6733449231E+00    0.3948436744E-03    0.5575277809E-01
    0.1100000000E+08    0.6243943431E+00    0.3777694859E-02    0.6739562977E+00    0.3557687465E-03    0.5577171112E-01
    0.1300000000E+08    0.6243814657E+00    0.3493281805E-02    0.6744230430E+00    0.3261778234E-03    0.5578743268E-01
    0.1500000000E+08    0.6243701149E+00    0.3266556083E-02    0.6747946809E+00    0.3027775181E-03    0.5580087648E-01
    0.1700000000E+08    0.6243599773E+00    0.3080225585E-02    0.6750998032E+00    0.2836794172E-03    0.5581262019E-01
    0.1900000000E+08    0.6243508239E+00    0.2923496760E-02    0.6753562338E+00    0.2677132565E-03    0.5582304623E-01
    0.2100000000E+08    0.6243424832E+00    0.2789234408E-02    0.6755757429E+00    0.2541102770E-03    0.5583242092E-01
    0.2300000000E+08    0.6243348244E+00    0.2672505822E-02    0.6757664598E+00    0.2423419873E-03    0.5584093717E-01
    0.2500000000E+08    0.6243277453E+00    0.2569776201E-02    0.6759342051E+00    0.2320315719E-03    0.5584873923E-01
    0.2700000000E+08    0.6243211650E+00    0.2478436676E-02    0.6760832717E+00    0.2229021939E-03    0.5585593778E-01
