  Pressure (Pa) 22mC5-400 (mol/kg) 2mC6-400 (mol/kg) 3mC6-400 (mol/kg) 33mC5-400 (mol/kg) 23mC5-400 (mol/kg)
    0.1000000000E+01    0.2110722510E-02    0.6335960076E-02    0.2632994849E-02    0.6448330623E-04    0.1853102162E-03
    0.3000000000E+01    0.6214216628E-02    0.1846767452E-01    0.7720433389E-02    0.1879496993E-03    0.5455815920E-03
    0.5000000000E+01    0.1016959344E-01    0.2992584865E-01    0.1258412461E-01    0.3045581396E-03    0.8928570007E-03
    0.7000000000E+01    0.1398692957E-01    0.4076167516E-01    0.1723981394E-01    0.4148296872E-03    0.1228020466E-02
    0.9000000000E+01    0.1767537627E-01    0.5102136661E-01    0.2170177569E-01    0.5192347169E-03    0.1551874837E-02
    0.1100000000E+02    0.2124326424E-01    0.6074674218E-01    0.2598298217E-01    0.6181988898E-03    0.1865150979E-02
    0.1300000000E+02    0.2469819452E-01    0.6997573370E-01    0.3009524976E-01    0.7121083036E-03    0.2168515749E-02
    0.1500000000E+02    0.2804711743E-01    0.7874282374E-01    0.3404936585E-01    0.8013139499E-03    0.2462578921E-02
    0.1700000000E+02    0.3129640152E-01    0.8707942588E-01    0.3785519925E-01    0.8861355861E-03    0.2747899232E-02
    0.1900000000E+02    0.3445189385E-01    0.9501421617E-01    0.4152179666E-01    0.9668651069E-03    0.3024989669E-02
    0.2100000000E+02    0.3751897292E-01    0.1025734226E+00    0.4505746725E-01    0.1043769491E-02    0.3294322117E-02
    0.2300000000E+02    0.4050259523E-01    0.1097810788E+00    0.4846985684E-01    0.1117093384E-02    0.3556331438E-02
    0.2500000000E+02    0.4340733640E-01    0.1166592470E+00    0.5176601343E-01    0.1187061367E-02    0.3811419078E-02
    0.2700000000E+02    0.4623742750E-01    0.1232282145E+00    0.5495244494E-01    0.1253879954E-02    0.4059956261E-02
    0.2900000000E+02    0.4899678733E-01    0.1295066673E+00    0.5803517046E-01    0.1317739362E-02    0.4302286812E-02
    0.3100000000E+02    0.5168905111E-01    0.1355118436E+00    0.6101976569E-01    0.1378815072E-02    0.4538729677E-02
    0.3300000000E+02    0.5431759601E-01    0.1412596700E+00    0.6391140340E-01    0.1437269217E-02    0.4769581167E-02
    0.3500000000E+02    0.5688556397E-01    0.1467648834E+00    0.6671488955E-01    0.1493251817E-02    0.4995116953E-02
    0.3700000000E+02    0.5939588217E-01    0.1520411385E+00    0.6943469550E-01    0.1546901882E-02    0.5215593864E-02
    0.3900000000E+02    0.6185128131E-01    0.1571011051E+00    0.7207498699E-01    0.1598348392E-02    0.5431251495E-02
    0.4100000000E+02    0.6425431211E-01    0.1619565540E+00    0.7463964998E-01    0.1647711179E-02    0.5642313647E-02
    0.4300000000E+02    0.6660736012E-01    0.1666184348E+00    0.7713231408E-01    0.1695101720E-02    0.5848989633E-02
    0.4500000000E+02    0.6891265910E-01    0.1710969461E+00    0.7955637351E-01    0.1740623841E-02    0.6051475446E-02
    0.4700000000E+02    0.7117230309E-01    0.1754015976E+00    0.8191500612E-01    0.1784374360E-02    0.6249954824E-02
    0.4900000000E+02    0.7338825740E-01    0.1795412670E+00    0.8421119051E-01    0.1826443663E-02    0.6444600209E-02
    0.1000000000E+02    0.1947389891E-01    0.5594838747E-01    0.2386420930E-01    0.5693719074E-03    0.1709792093E-02
    0.3000000000E+02    0.5035108939E-01    0.1325423903E+00    0.5953940206E-01    0.1348614749E-02    0.4421225180E-02
    0.5000000000E+02    0.7448043233E-01    0.1815518476E+00    0.8533674483E-01    0.1846874474E-02    0.6540536168E-02
    0.7000000000E+02    0.9442437337E-01    0.2148530022E+00    0.1051642867E+00    0.2185055800E-02    0.8292555275E-02
    0.9000000000E+02    0.1115475618E+00    0.2384352976E+00    0.1210759593E+00    0.2424143379E-02    0.9797024471E-02
    0.1100000000E+03    0.1266500245E+00    0.2556304830E+00    0.1342608975E+00    0.2598067948E-02    0.1112414600E-01
    0.1300000000E+03    0.1402354551E+00    0.2684314430E+00    0.1454586773E+00    0.2727130190E-02    0.1231812070E-01
    0.1500000000E+03    0.1526389656E+00    0.2780988752E+00    0.1551554164E+00    0.2824176192E-02    0.1340835679E-01
    0.1700000000E+03    0.1640935406E+00    0.2854666202E+00    0.1636850088E+00    0.2897705609E-02    0.1441530074E-01
    0.1900000000E+03    0.1747670953E+00    0.2911065649E+00    0.1712851705E+00    0.2953550421E-02    0.1535368892E-01
    0.2100000000E+03    0.1847843334E+00    0.2954229250E+00    0.1781302656E+00    0.2995834815E-02    0.1623446564E-01
    0.2300000000E+03    0.1942402527E+00    0.2987087478E+00    0.1843514522E+00    0.3027550477E-02    0.1706596825E-01
    0.2500000000E+03    0.2032088218E+00    0.3011811383E+00    0.1900495364E+00    0.3050915278E-02    0.1785468859E-01
    0.2700000000E+03    0.2117487422E+00    0.3030039737E+00    0.1953034550E+00    0.3067604586E-02    0.1860577859E-01
    0.2900000000E+03    0.2199073860E+00    0.3043029822E+00    0.2001760342E+00    0.3078904833E-02    0.1932339589E-01
    0.3100000000E+03    0.2277235558E+00    0.3051760098E+00    0.2047180009E+00    0.3085818094E-02    0.2001094602E-01
    0.3300000000E+03    0.2352294606E+00    0.3057001690E+00    0.2089708374E+00    0.3089134902E-02    0.2067125584E-01
    0.3500000000E+03    0.2424521597E+00    0.3059369154E+00    0.2129688545E+00    0.3089485983E-02    0.2130670021E-01
    0.3700000000E+03    0.2494146346E+00    0.3059357174E+00    0.2167407224E+00    0.3087379641E-02    0.2191929610E-01
    0.3900000000E+03    0.2561365987E+00    0.3057367510E+00    0.2203106206E+00    0.3083229236E-02    0.2251077365E-01
    0.4100000000E+03    0.2626351165E+00    0.3053729081E+00    0.2236991128E+00    0.3077373647E-02    0.2308263051E-01
    0.4300000000E+03    0.2689250836E+00    0.3048713116E+00    0.2269238212E+00    0.3070092730E-02    0.2363617399E-01
    0.4500000000E+03    0.2750196033E+00    0.3042544732E+00    0.2299999537E+00    0.3061619126E-02    0.2417255405E-01
    0.4700000000E+03    0.2809302846E+00    0.3035411872E+00    0.2329407184E+00    0.3052147376E-02    0.2469278954E-01
    0.4900000000E+03    0.2866674808E+00    0.3027472273E+00    0.2357576551E+00    0.3041841045E-02    0.2519778910E-01
    0.1000000000E+03    0.1193148713E+00    0.2476845226E+00    0.1279554545E+00    0.2517756220E-02    0.1047954963E-01
    0.3000000000E+03    0.2238561316E+00    0.3047875058E+00    0.2024855622E+00    0.3082856160E-02    0.1967074078E-01
    0.5000000000E+03    0.2894739623E+00    0.3023242357E+00    0.2371229045E+00    0.3036418957E-02    0.2544483344E-01
    0.7000000000E+03    0.3383362281E+00    0.2919528482E+00    0.2598461406E+00    0.2908389302E-02    0.2974736897E-01
    0.9000000000E+03    0.3766227271E+00    0.2808200609E+00    0.2768427867E+00    0.2773396276E-02    0.3312071015E-01
    0.1100000000E+04    0.4073756237E+00    0.2704792537E+00    0.2904591488E+00    0.2648078252E-02    0.3583188212E-01
    0.1300000000E+04    0.4324825272E+00    0.2612370120E+00    0.3018356335E+00    0.2535845205E-02    0.3804661056E-01
    0.1500000000E+04    0.4532429233E+00    0.2530607492E+00    0.3116137975E+00    0.2436383727E-02    0.3987901998E-01
    0.1700000000E+04    0.4705980188E+00    0.2458280453E+00    0.3201912598E+00    0.2348336987E-02    0.4141179510E-01
    0.1900000000E+04    0.4852490765E+00    0.2394040871E+00    0.3278320361E+00    0.2270168482E-02    0.4270655985E-01
    0.2100000000E+04    0.4977283037E+00    0.2336657555E+00    0.3347207030E+00    0.2200446449E-02    0.4381009555E-01
    0.2300000000E+04    0.5084452514E+00    0.2285076247E+00    0.3409915639E+00    0.2137924380E-02    0.4475841171E-01
    0.2500000000E+04    0.5177187605E+00    0.2238417405E+00    0.3467455106E+00    0.2081547553E-02    0.4557954947E-01
    0.2700000000E+04    0.5257996281E+00    0.2195954604E+00    0.3520603358E+00    0.2030434204E-02    0.4629557133E-01
    0.2900000000E+04    0.5328870123E+00    0.2157089304E+00    0.3569973348E+00    0.1983850133E-02    0.4692400139E-01
    0.3100000000E+04    0.5391404743E+00    0.2121327540E+00    0.3616056963E+00    0.1941183894E-02    0.4747888302E-01
    0.3300000000E+04    0.5446889253E+00    0.2088260095E+00    0.3659255159E+00    0.1901924975E-02    0.4797156467E-01
    0.3500000000E+04    0.5496373398E+00    0.2057546279E+00    0.3699899234E+00    0.1865645491E-02    0.4841128977E-01
    0.3700000000E+04    0.5540718411E+00    0.2028900865E+00    0.3738266187E+00    0.1831985166E-02    0.4880564359E-01
    0.3900000000E+04    0.5580635880E+00    0.2002083662E+00    0.3774590044E+00    0.1800639142E-02    0.4916089486E-01
    0.4100000000E+04    0.5616717688E+00    0.1976891208E+00    0.3809070372E+00    0.1771348136E-02    0.4948225899E-01
    0.4300000000E+04    0.5649459273E+00    0.1953150143E+00    0.3841878760E+00    0.1743890496E-02    0.4977410260E-01
    0.4500000000E+04    0.5679277830E+00    0.1930711914E+00    0.3873163853E+00    0.1718075775E-02    0.5004010354E-01
    0.4700000000E+04    0.5706526662E+00    0.1909448520E+00    0.3903055283E+00    0.1693739534E-02    0.5028337713E-01
    0.4900000000E+04    0.5731506565E+00    0.1889249082E+00    0.3931666798E+00    0.1670739109E-02    0.5050657635E-01
    0.1000000000E+04    0.3928051098E+00    0.2755183575E+00    0.2839858031E+00    0.2709172341E-02    0.3454714859E-01
    0.3000000000E+04    0.5361092961E+00    0.2138847835E+00    0.3593399045E+00    0.1962061326E-02    0.4720987104E-01
    0.5000000000E+04    0.5743227591E+00    0.1879517684E+00    0.3945524417E+00    0.1659700336E-02    0.5061137076E-01
    0.7000000000E+04    0.5904854506E+00    0.1722792285E+00    0.4174651877E+00    0.1485921056E-02    0.5206221162E-01
    0.9000000000E+04    0.5991196272E+00    0.1611416776E+00    0.4342936796E+00    0.1367201671E-02    0.5284435804E-01
    0.1100000000E+05    0.6044095916E+00    0.1525423404E+00    0.4474912477E+00    0.1278227867E-02    0.5332817904E-01
    0.1300000000E+05    0.6079531887E+00    0.1455655155E+00    0.4582817448E+00    0.1207681779E-02    0.5365550296E-01
    0.1500000000E+05    0.6104798488E+00    0.1397157898E+00    0.4673638837E+00    0.1149603248E-02    0.5389126498E-01
    0.1700000000E+05    0.6123661694E+00    0.1346945357E+00    0.4751737806E+00    0.1100488824E-02    0.5406909196E-01
    0.1900000000E+05    0.6138248812E+00    0.1303076252E+00    0.4820015810E+00    0.1058111582E-02    0.5420803815E-01
    0.2100000000E+05    0.6149846820E+00    0.1264216565E+00    0.4880498278E+00    0.1020971143E-02    0.5431966783E-01
    0.2300000000E+05    0.6159277533E+00    0.1229409786E+00    0.4934653345E+00    0.9880101977E-03    0.5441138959E-01
    0.2500000000E+05    0.6167089144E+00    0.1197946669E+00    0.4983577949E+00    0.9584566298E-03    0.5448816170E-01
    0.2700000000E+05    0.6173660719E+00    0.1169286817E+00    0.5028112395E+00    0.9317300239E-03    0.5455342429E-01
    0.2900000000E+05    0.6179262408E+00    0.1143009112E+00    0.5068914011E+00    0.9073834782E-03    0.5460963737E-01
    0.3100000000E+05    0.6184091741E+00    0.1118779117E+00    0.5106506236E+00    0.8850658746E-03    0.5465860584E-01
    0.3300000000E+05    0.6188296373E+00    0.1096326904E+00    0.5141312335E+00    0.8644965549E-03    0.5470168355E-01
    0.3500000000E+05    0.6191988818E+00    0.1075431546E+00    0.5173679182E+00    0.8454478186E-03    0.5473990575E-01
    0.3700000000E+05    0.6195256267E+00    0.1055910003E+00    0.5203894407E+00    0.8277325164E-03    0.5477407750E-01
    0.3900000000E+05    0.6198167304E+00    0.1037608983E+00    0.5232199011E+00    0.8111950602E-03    0.5480483428E-01
    0.4100000000E+05    0.6200776594E+00    0.1020398878E+00    0.5258796815E+00    0.7957047829E-03    0.5483268442E-01
    0.4300000000E+05    0.6203128230E+00    0.1004169160E+00    0.5283861641E+00    0.7811509480E-03    0.5485803938E-01
    0.4500000000E+05    0.6205258163E+00    0.9888248479E-01    0.5307542849E+00    0.7674389424E-03    0.5488123583E-01
    0.4700000000E+05    0.6207195989E+00    0.9742837496E-01    0.5329969665E+00    0.7544873316E-03    0.5490255192E-01
    0.4900000000E+05    0.6208966287E+00    0.9604742867E-01    0.5351254591E+00    0.7422255537E-03    0.5492221950E-01
    0.1000000000E+05    0.6020521534E+00    0.1565960579E+00    0.4412527156E+00    0.1319884869E-02    0.5311198588E-01
    0.3000000000E+05    0.6181763424E+00    0.1130656325E+00    0.5088082813E+00    0.8959900160E-03    0.5463493381E-01
    0.5000000000E+05    0.6209795178E+00    0.9538240192E-01    0.5361500114E+00    0.7363338173E-03    0.5493149721E-01
    0.7000000000E+05    0.6221172083E+00    0.8474157323E-01    0.5525007622E+00    0.6432159134E-03    0.5506474835E-01
    0.9000000000E+05    0.6227283757E+00    0.7734052170E-01    0.5638252432E+00    0.5797166234E-03    0.5514338367E-01
    0.1100000000E+06    0.6231076958E+00    0.7177158803E-01    0.5723205256E+00    0.5326220874E-03    0.5519665974E-01
    0.1300000000E+06    0.6233649483E+00    0.6736656698E-01    0.5790248325E+00    0.4957922496E-03    0.5523589046E-01
    0.1500000000E+06    0.6235502268E+00    0.6375912349E-01    0.5845052766E+00    0.4659129257E-03    0.5526642708E-01
    0.1700000000E+06    0.6236895996E+00    0.6072827731E-01    0.5891029356E+00    0.4410092599E-03    0.5529115272E-01
    0.1900000000E+06    0.6237979502E+00    0.5813127200E-01    0.5930376097E+00    0.4198182523E-03    0.5531176991E-01
    0.2100000000E+06    0.6238843846E+00    0.5587098621E-01    0.5964585267E+00    0.4014879623E-03    0.5532935505E-01
    0.2300000000E+06    0.6239547816E+00    0.5387861089E-01    0.5994712253E+00    0.3854192665E-03    0.5534462557E-01
    0.2500000000E+06    0.6240131026E+00    0.5210377644E-01    0.6021528439E+00    0.3711764605E-03    0.5535808025E-01
    0.2700000000E+06    0.6240621125E+00    0.5050860522E-01    0.6045613121E+00    0.3584338144E-03    0.5537007799E-01
    0.2900000000E+06    0.6241037986E+00    0.4906396303E-01    0.6067411343E+00    0.3469421148E-03    0.5538088450E-01
    0.3100000000E+06    0.6241396249E+00    0.4774700609E-01    0.6087271691E+00    0.3365069016E-03    0.5539070132E-01
    0.3300000000E+06    0.6241706933E+00    0.4653952380E-01    0.6105471781E+00    0.3269738445E-03    0.5539968454E-01
    0.3500000000E+06    0.6241978487E+00    0.4542678809E-01    0.6122235947E+00    0.3182186414E-03    0.5540795718E-01
    0.3700000000E+06    0.6242217491E+00    0.4439673554E-01    0.6137747789E+00    0.3101398693E-03    0.5541561775E-01
    0.3900000000E+06    0.6242429148E+00    0.4343937364E-01    0.6152159279E+00    0.3026538173E-03    0.5542274622E-01
    0.4100000000E+06    0.6242617622E+00    0.4254634188E-01    0.6165597484E+00    0.2956906827E-03    0.5542940831E-01
    0.4300000000E+06    0.6242786284E+00    0.4171058201E-01    0.6178169612E+00    0.2891917220E-03    0.5543565862E-01
    0.4500000000E+06    0.6242937892E+00    0.4092608653E-01    0.6189966859E+00    0.2831070870E-03    0.5544154295E-01
    0.4700000000E+06    0.6243074721E+00    0.4018770445E-01    0.6201067378E+00    0.2773941579E-03    0.5544710005E-01
    0.4900000000E+06    0.6243198669E+00    0.3949098935E-01    0.6211538597E+00    0.2720162440E-03    0.5545236302E-01
    0.1000000000E+06    0.6229380390E+00    0.7437879374E-01    0.5683460313E+00    0.5545966465E-03    0.5517227505E-01
    0.3000000000E+06    0.6241223683E+00    0.4839075521E-01    0.6077564974E+00    0.3416028978E-03    0.5538590597E-01
    0.5000000000E+06    0.6243256319E+00    0.3915702999E-01    0.6216556818E+00    0.2694428168E-03    0.5545489324E-01
    0.7000000000E+06    0.6244011460E+00    0.3394834975E-01    0.6294742752E+00    0.2296874883E-03    0.5549524985E-01
    0.9000000000E+06    0.6244369537E+00    0.3047009344E-01    0.6346869887E+00    0.2035628218E-03    0.5552360320E-01
    0.1100000000E+07    0.6244559026E+00    0.2792751331E-01    0.6384933084E+00    0.1846980839E-03    0.5554540703E-01
    0.1300000000E+07    0.6244663885E+00    0.2596015508E-01    0.6414361518E+00    0.1702448783E-03    0.5556310091E-01
    0.1500000000E+07    0.6244721578E+00    0.2437703700E-01    0.6438027669E+00    0.1587106867E-03    0.5557798052E-01
    0.1700000000E+07    0.6244751059E+00    0.2306602212E-01    0.6457616325E+00    0.1492271104E-03    0.5559081438E-01
    0.1900000000E+07    0.6244762802E+00    0.2195625205E-01    0.6474191180E+00    0.1412496470E-03    0.5560209502E-01
    0.2100000000E+07    0.6244762987E+00    0.2100040745E-01    0.6488462077E+00    0.1344171174E-03    0.5561215667E-01
    0.2300000000E+07    0.6244755449E+00    0.2016549332E-01    0.6500923685E+00    0.1284791746E-03    0.5562123644E-01
    0.2500000000E+07    0.6244742660E+00    0.1942768967E-01    0.6511932940E+00    0.1232560509E-03    0.5562950853E-01
    0.2700000000E+07    0.6244726269E+00    0.1876930202E-01    0.6521754873E+00    0.1186148540E-03    0.5563710464E-01
    0.2900000000E+07    0.6244707403E+00    0.1817686814E-01    0.6530591047E+00    0.1144549254E-03    0.5564412675E-01
    0.3100000000E+07    0.6244686848E+00    0.1763993554E-01    0.6538597908E+00    0.1106984305E-03    0.5565065541E-01
    0.3300000000E+07    0.6244665161E+00    0.1715024550E-01    0.6545899028E+00    0.1072841036E-03    0.5565675536E-01
    0.3500000000E+07    0.6244642745E+00    0.1670117263E-01    0.6552593516E+00    0.1041629694E-03    0.5566247937E-01
    0.3700000000E+07    0.6244619891E+00    0.1628733043E-01    0.6558761924E+00    0.1012953424E-03    0.5566787108E-01
    0.3900000000E+07    0.6244596813E+00    0.1590428759E-01    0.6564470507E+00    0.9864867623E-04    0.5567296692E-01
    0.4100000000E+07    0.6244573671E+00    0.1554836001E-01    0.6569774336E+00    0.9619599219E-04    0.5567779768E-01
    0.4300000000E+07    0.6244550581E+00    0.1521645572E-01    0.6574719622E+00    0.9391471080E-04    0.5568238955E-01
    0.4500000000E+07    0.6244527629E+00    0.1490595752E-01    0.6579345472E+00    0.9178577011E-04    0.5568676505E-01
    0.4700000000E+07    0.6244504880E+00    0.1461463287E-01    0.6583685240E+00    0.8979295080E-04    0.5569094365E-01
    0.4900000000E+07    0.6244482380E+00    0.1434056391E-01    0.6587767575E+00    0.8792235315E-04    0.5569494231E-01
    0.1000000000E+07    0.6244478454E+00    0.2911005912E-01    0.6367234309E+00    0.1934466750E-03    0.5553513273E-01
    0.3000000000E+07    0.6244697298E+00    0.1790202422E-01    0.6534689761E+00    0.1125304085E-03    0.5564744840E-01
    0.5000000000E+07    0.6244471234E+00    0.1420947325E-01    0.6589720078E+00    0.8702907532E-04    0.5569687888E-01
    0.7000000000E+07    0.6244265554E+00    0.1218806671E-01    0.6619816820E+00    0.7337974739E-04    0.5572896804E-01
    0.9000000000E+07    0.6244091690E+00    0.1086202749E-01    0.6639549343E+00    0.6456322581E-04    0.5575277291E-01
    0.1100000000E+08    0.6243943327E+00    0.9904495087E-02    0.6653792810E+00    0.5827173790E-04    0.5577170622E-01
    0.1300000000E+08    0.6243814567E+00    0.9170315402E-02    0.6664710792E+00    0.5349390504E-04    0.5578742796E-01
    0.1500000000E+08    0.6243701067E+00    0.8583734713E-02    0.6673431903E+00    0.4970734873E-04    0.5580087190E-01
    0.1700000000E+08    0.6243599698E+00    0.8100787292E-02    0.6680610929E+00    0.4661147778E-04    0.5581261572E-01
    0.1900000000E+08    0.6243508168E+00    0.7693949557E-02    0.6686657670E+00    0.4401948575E-04    0.5582304185E-01
    0.2100000000E+08    0.6243424766E+00    0.7344982632E-02    0.6691843619E+00    0.4180837071E-04    0.5583241661E-01
    0.2300000000E+08    0.6243348180E+00    0.7041251794E-02    0.6696356813E+00    0.3989340671E-04    0.5584093293E-01
    0.2500000000E+08    0.6243277391E+00    0.6773686992E-02    0.6700332215E+00    0.3821408141E-04    0.5584873505E-01
    0.2700000000E+08    0.6243211590E+00    0.6535583766E-02    0.6703869573E+00    0.3672587199E-04    0.5585593365E-01
