  Pressure (Pa) 22mC5-400 (mol/kg) 2mC6-400 (mol/kg) 3mC6-400 (mol/kg) 33mC5-400 (mol/kg) 23mC5-400 (mol/kg)
    0.1000000000E+01    0.2118580138E-02    0.2385873152E-02    0.3697007277E-02    0.3237651532E-03    0.9299987148E-04
    0.3000000000E+01    0.6282146953E-02    0.7010129103E-02    0.1090159151E-01    0.9513091640E-03    0.2757713499E-03
    0.5000000000E+01    0.1035100355E-01    0.1144661485E-01    0.1786478010E-01    0.1553407693E-02    0.4543882301E-03
    0.7000000000E+01    0.1432904470E-01    0.1570534432E-01    0.2459916024E-01    0.2131416686E-02    0.6290213363E-03
    0.9000000000E+01    0.1821994826E-01    0.1979564900E-01    0.3111644838E-01    0.2686599657E-02    0.7998319800E-03
    0.1100000000E+02    0.2202719010E-01    0.2372623461E-01    0.3742756444E-01    0.3220135377E-02    0.9669726149E-03
    0.1300000000E+02    0.2575405785E-01    0.2750523239E-01    0.4354269872E-01    0.3733124810E-02    0.1130587438E-02
    0.1500000000E+02    0.2940366345E-01    0.3114024530E-01    0.4947137205E-01    0.4226597384E-02    0.1290812942E-02
    0.1700000000E+02    0.3297895482E-01    0.3463838991E-01    0.5522249013E-01    0.4701516661E-02    0.1447778426E-02
    0.1900000000E+02    0.3648272655E-01    0.3800633437E-01    0.6080439261E-01    0.5158785480E-02    0.1601606466E-02
    0.2100000000E+02    0.3991762977E-01    0.4125033284E-01    0.6622489759E-01    0.5599250626E-02    0.1752413343E-02
    0.2300000000E+02    0.4328618129E-01    0.4437625686E-01    0.7149134194E-01    0.6023707074E-02    0.1900309449E-02
    0.2500000000E+02    0.4659077201E-01    0.4738962389E-01    0.7661061794E-01    0.6432901859E-02    0.2045399654E-02
    0.2700000000E+02    0.4983367476E-01    0.5029562332E-01    0.8158920663E-01    0.6827537597E-02    0.2187783651E-02
    0.2900000000E+02    0.5301705154E-01    0.5309914030E-01    0.8643320818E-01    0.7208275712E-02    0.2327556270E-02
    0.3100000000E+02    0.5614296021E-01    0.5580477741E-01    0.9114836958E-01    0.7575739375E-02    0.2464807773E-02
    0.3300000000E+02    0.5921336073E-01    0.5841687466E-01    0.9574011003E-01    0.7930516207E-02    0.2599624131E-02
    0.3500000000E+02    0.6223012094E-01    0.6093952769E-01    0.1002135441E+00    0.8273160745E-02    0.2732087273E-02
    0.3700000000E+02    0.6519502195E-01    0.6337660454E-01    0.1045735027E+00    0.8604196720E-02    0.2862275324E-02
    0.3900000000E+02    0.6810976316E-01    0.6573176107E-01    0.1088245533E+00    0.8924119136E-02    0.2990262827E-02
    0.4100000000E+02    0.7097596690E-01    0.6800845515E-01    0.1129710167E+00    0.9233396194E-02    0.3116120942E-02
    0.4300000000E+02    0.7379518280E-01    0.7020995970E-01    0.1170169846E+00    0.9532471063E-02    0.3239917642E-02
    0.4500000000E+02    0.7656889184E-01    0.7233937475E-01    0.1209663338E+00    0.9821763503E-02    0.3361717889E-02
    0.4700000000E+02    0.7929851013E-01    0.7439963853E-01    0.1248227410E+00    0.1010167138E-01    0.3481583801E-02
    0.4900000000E+02    0.8198539248E-01    0.7639353781E-01    0.1285896950E+00    0.1037257205E-01    0.3599574806E-02
    0.1000000000E+02    0.2013381716E-01    0.2178038558E-01    0.3429712466E-01    0.2956002866E-02    0.8838518495E-03
    0.3000000000E+02    0.5458706467E-01    0.5446391665E-01    0.8880654780E-01    0.7393629321E-02    0.2396491690E-02
    0.5000000000E+02    0.8331321511E-01    0.7736643255E-01    0.1304406689E+00    0.1050475732E-01    0.3657885089E-02
    0.7000000000E+02    0.1079136245E+00    0.9391607130E-01    0.1634864744E+00    0.1275357116E-01    0.4738273427E-02
    0.9000000000E+02    0.1294224777E+00    0.1061421380E+00    0.1904970864E+00    0.1441490661E-01    0.5683021821E-02
    0.1100000000E+03    0.1485389688E+00    0.1153168521E+00    0.2130911973E+00    0.1566112890E-01    0.6522801984E-02
    0.1300000000E+03    0.1657539310E+00    0.1222747453E+00    0.2323468012E+00    0.1660536198E-01    0.7279146125E-02
    0.1500000000E+03    0.1814229540E+00    0.1275836940E+00    0.2490108901E+00    0.1732463386E-01    0.7967653956E-02
    0.1700000000E+03    0.1958106471E+00    0.1316420202E+00    0.2636183263E+00    0.1787301606E-01    0.8599934174E-02
    0.1900000000E+03    0.2091185228E+00    0.1347363259E+00    0.2765627578E+00    0.1828944960E-01    0.9184827556E-02
    0.2100000000E+03    0.2215031708E+00    0.1370773492E+00    0.2881407627E+00    0.1860259732E-01    0.9729204157E-02
    0.2300000000E+03    0.2330884564E+00    0.1388229644E+00    0.2985803376E+00    0.1883395663E-01    0.1023849842E-01
    0.2500000000E+03    0.2439739222E+00    0.1400933749E+00    0.3080598620E+00    0.1899991612E-01    0.1071707773E-01
    0.2700000000E+03    0.2542407059E+00    0.1409814076E+00    0.3167210655E+00    0.1911314938E-01    0.1116850202E-01
    0.2900000000E+03    0.2639557939E+00    0.1415596480E+00    0.3246781063E+00    0.1918358124E-01    0.1159571035E-01
    0.3100000000E+03    0.2731751342E+00    0.1418854831E+00    0.3320240614E+00    0.1921907097E-01    0.1200115753E-01
    0.3300000000E+03    0.2819459509E+00    0.1420047304E+00    0.3388356532E+00    0.1922590414E-01    0.1238691559E-01
    0.3500000000E+03    0.2903084913E+00    0.1419542916E+00    0.3451767490E+00    0.1920915232E-01    0.1275475049E-01
    0.3700000000E+03    0.2982973611E+00    0.1417641197E+00    0.3511009918E+00    0.1917294000E-01    0.1310618065E-01
    0.3900000000E+03    0.3059425589E+00    0.1414586977E+00    0.3566538052E+00    0.1912064525E-01    0.1344252236E-01
    0.4100000000E+03    0.3132702850E+00    0.1410581632E+00    0.3618739395E+00    0.1905505243E-01    0.1376492528E-01
    0.4300000000E+03    0.3203035816E+00    0.1405791724E+00    0.3667946783E+00    0.1897846959E-01    0.1407440047E-01
    0.4500000000E+03    0.3270628434E+00    0.1400355706E+00    0.3714447900E+00    0.1889281974E-01    0.1437184287E-01
    0.4700000000E+03    0.3335662292E+00    0.1394389186E+00    0.3758492847E+00    0.1879971237E-01    0.1465804929E-01
    0.4900000000E+03    0.3398299959E+00    0.1387989074E+00    0.3800300229E+00    0.1870050002E-01    0.1493373312E-01
    0.1000000000E+03    0.1392452479E+00    0.1110509838E+00    0.2022692084E+00    0.1508178466E-01    0.6114518573E-02
    0.3000000000E+03    0.2686242993E+00    0.1417510165E+00    0.3284223371E+00    0.1920526889E-01    0.1180101661E-01
    0.5000000000E+03    0.3428766507E+00    0.1384652422E+00    0.3820425764E+00    0.1864896817E-01    0.1506783218E-01
    0.7000000000E+03    0.3941310535E+00    0.1309260370E+00    0.4141755619E+00    0.1749616100E-01    0.1732469818E-01
    0.9000000000E+03    0.4320444969E+00    0.1234084377E+00    0.4364698261E+00    0.1634910370E-01    0.1899542113E-01
    0.1100000000E+04    0.4611880090E+00    0.1167101153E+00    0.4532455021E+00    0.1532447542E-01    0.2028065805E-01
    0.1300000000E+04    0.4841933299E+00    0.1108967987E+00    0.4665352052E+00    0.1443355214E-01    0.2129597177E-01
    0.1500000000E+04    0.5027319545E+00    0.1058670691E+00    0.4774438643E+00    0.1366235315E-01    0.2211478316E-01
    0.1700000000E+04    0.5179277767E+00    0.1014946385E+00    0.4866336758E+00    0.1299253205E-01    0.2278647518E-01
    0.1900000000E+04    0.5305657997E+00    0.9766528866E-01    0.4945304772E+00    0.1240709620E-01    0.2334555087E-01
    0.2100000000E+04    0.5412100896E+00    0.9428421909E-01    0.5014231069E+00    0.1189170751E-01    0.2381680988E-01
    0.2300000000E+04    0.5502752973E+00    0.9127498565E-01    0.5075158317E+00    0.1143465689E-01    0.2421848803E-01
    0.2500000000E+04    0.5580721503E+00    0.8857644186E-01    0.5129580434E+00    0.1102648364E-01    0.2456425466E-01
    0.2700000000E+04    0.5648374200E+00    0.8613963370E-01    0.5178620579E+00    0.1065955201E-01    0.2486452862E-01
    0.2900000000E+04    0.5707542124E+00    0.8392516970E-01    0.5223142884E+00    0.1032767776E-01    0.2512736954E-01
    0.3100000000E+04    0.5759660229E+00    0.8190113045E-01    0.5263825347E+00    0.1002582375E-01    0.2535909532E-01
    0.3300000000E+04    0.5805866630E+00    0.8004144830E-01    0.5301208954E+00    0.9749859642E-02    0.2556471829E-01
    0.3500000000E+04    0.5847073923E+00    0.7832466249E-01    0.5335731735E+00    0.9496374496E-02    0.2574825872E-01
    0.3700000000E+04    0.5884021223E+00    0.7673296356E-01    0.5367752928E+00    0.9262531272E-02    0.2591297355E-01
    0.3900000000E+04    0.5917312668E+00    0.7525145760E-01    0.5397570514E+00    0.9045953659E-02    0.2606152567E-01
    0.4100000000E+04    0.5947446260E+00    0.7386759663E-01    0.5425434171E+00    0.8844637726E-02    0.2619611075E-01
    0.4300000000E+04    0.5974835737E+00    0.7257073472E-01    0.5451555007E+00    0.8656882588E-02    0.2631855350E-01
    0.4500000000E+04    0.5999827335E+00    0.7135177971E-01    0.5476112974E+00    0.8481235644E-02    0.2643038130E-01
    0.4700000000E+04    0.6022712757E+00    0.7020291782E-01    0.5499262611E+00    0.8316449082E-02    0.2653288138E-01
    0.4900000000E+04    0.6043739313E+00    0.6911739444E-01    0.5521137523E+00    0.8161445060E-02    0.2662714535E-01
    0.1000000000E+04    0.4475183469E+00    0.1199457421E+00    0.4453896466E+00    0.1581974072E-01    0.1967770093E-01
    0.3000000000E+04    0.5734405262E+00    0.8289109716E-01    0.5243927530E+00    0.1017327519E-01    0.2524678211E-01
    0.5000000000E+04    0.6053622663E+00    0.6859651949E-01    0.5531633874E+00    0.8087314147E-02    0.2667148525E-01
    0.7000000000E+04    0.6191513182E+00    0.6041436257E-01    0.5696277790E+00    0.6945077632E-02    0.2729293504E-01
    0.9000000000E+04    0.6267055358E+00    0.5486654891E-01    0.5807211328E+00    0.6195873964E-02    0.2763685202E-01
    0.1100000000E+05    0.6314372829E+00    0.5075200599E-01    0.5888796401E+00    0.5653921817E-02    0.2785450522E-01
    0.1300000000E+05    0.6346663883E+00    0.4752679842E-01    0.5952200709E+00    0.5237277550E-02    0.2800459489E-01
    0.1500000000E+05    0.6370050253E+00    0.4490176433E-01    0.6003389912E+00    0.4903416292E-02    0.2811443898E-01
    0.1700000000E+05    0.6387742285E+00    0.4270608316E-01    0.6045889475E+00    0.4627738384E-02    0.2819841226E-01
    0.1900000000E+05    0.6401579813E+00    0.4083101945E-01    0.6081938737E+00    0.4394865907E-02    0.2826478118E-01
    0.2100000000E+05    0.6412690584E+00    0.3920339285E-01    0.6113039558E+00    0.4194610183E-02    0.2831863036E-01
    0.2300000000E+05    0.6421803297E+00    0.3777177803E-01    0.6140242931E+00    0.4019908477E-02    0.2836325676E-01
    0.2500000000E+05    0.6429409246E+00    0.3649876862E-01    0.6164309912E+00    0.3865684645E-02    0.2840089106E-01
    0.2700000000E+05    0.6435851444E+00    0.3535637666E-01    0.6185807328E+00    0.3728180771E-02    0.2843309617E-01
    0.2900000000E+05    0.6441376497E+00    0.3432316261E-01    0.6205167414E+00    0.3604545356E-02    0.2846099975E-01
    0.3100000000E+05    0.6446166162E+00    0.3338237261E-01    0.6222726437E+00    0.3492569025E-02    0.2848543586E-01
    0.3300000000E+05    0.6450357302E+00    0.3252068858E-01    0.6238750556E+00    0.3390508994E-02    0.2850703478E-01
    0.3500000000E+05    0.6454054902E+00    0.3172736527E-01    0.6253453626E+00    0.3296969012E-02    0.2852628176E-01
    0.3700000000E+05    0.6457340825E+00    0.3099361974E-01    0.6267009756E+00    0.3210815138E-02    0.2854355648E-01
    0.3900000000E+05    0.6460279831E+00    0.3031218994E-01    0.6279562357E+00    0.3131115329E-02    0.2855916039E-01
    0.4100000000E+05    0.6462923809E+00    0.2967700956E-01    0.6291230797E+00    0.3057095270E-02    0.2857333589E-01
    0.4300000000E+05    0.6465314823E+00    0.2908296444E-01    0.6302115357E+00    0.2988105490E-02    0.2858628019E-01
    0.4500000000E+05    0.6467487321E+00    0.2852570724E-01    0.6312301003E+00    0.2923596518E-02    0.2859815536E-01
    0.4700000000E+05    0.6469469787E+00    0.2800151473E-01    0.6321860273E+00    0.2863099848E-02    0.2860909590E-01
    0.4900000000E+05    0.6471285972E+00    0.2750717625E-01    0.6330855528E+00    0.2806213154E-02    0.2861921436E-01
    0.1000000000E+05    0.6293168753E+00    0.5267267529E-01    0.5850800446E+00    0.5905447697E-02    0.2775669157E-01
    0.3000000000E+05    0.6443853825E+00    0.3384211591E-01    0.6214154020E+00    0.3547218045E-02    0.2847360787E-01
    0.5000000000E+05    0.6472138074E+00    0.2727031711E-01    0.6335158801E+00    0.2779013012E-02    0.2862399556E-01
    0.7000000000E+05    0.6483957378E+00    0.2358401498E-01    0.6401566473E+00    0.2360492432E-02    0.2869324537E-01
    0.9000000000E+05    0.6490420662E+00    0.2113082927E-01    0.6445169835E+00    0.2087108853E-02    0.2873462421E-01
    0.1100000000E+06    0.6494485101E+00    0.1934202417E-01    0.6476667128E+00    0.1890472297E-02    0.2876286988E-01
    0.1300000000E+06    0.6497271395E+00    0.1796059441E-01    0.6500820105E+00    0.1740250371E-02    0.2878377267E-01
    0.1500000000E+06    0.6499297098E+00    0.1685072728E-01    0.6520117151E+00    0.1620633684E-02    0.2880010018E-01
    0.1700000000E+06    0.6500834009E+00    0.1593284411E-01    0.6536003676E+00    0.1522459474E-02    0.2881335479E-01
    0.1900000000E+06    0.6502038458E+00    0.1515674609E-01    0.6549385040E+00    0.1439999838E-02    0.2882442874E-01
    0.2100000000E+06    0.6503006683E+00    0.1448895945E-01    0.6560861413E+00    0.1369464619E-02    0.2883388863E-01
    0.2300000000E+06    0.6503801145E+00    0.1390617334E-01    0.6570848659E+00    0.1308232068E-02    0.2884211349E-01
    0.2500000000E+06    0.6504464135E+00    0.1339157803E-01    0.6579645366E+00    0.1254422843E-02    0.2884936756E-01
    0.2700000000E+06    0.6505025296E+00    0.1293269926E-01    0.6587472267E+00    0.1206649745E-02    0.2885584146E-01
    0.2900000000E+06    0.6505506018E+00    0.1252005511E-01    0.6594496582E+00    0.1163863443E-02    0.2886167661E-01
    0.3100000000E+06    0.6505922117E+00    0.1214628972E-01    0.6600847644E+00    0.1125253495E-02    0.2886698046E-01
    0.3300000000E+06    0.6506285535E+00    0.1180559553E-01    0.6606627284E+00    0.1090182655E-02    0.2887183635E-01
    0.3500000000E+06    0.6506605459E+00    0.1149331686E-01    0.6611916934E+00    0.1058142008E-02    0.2887631006E-01
    0.3700000000E+06    0.6506889069E+00    0.1120567111E-01    0.6616782606E+00    0.1028719529E-02    0.2888045432E-01
    0.3900000000E+06    0.6507142055E+00    0.1093954832E-01    0.6621278459E+00    0.1001577588E-02    0.2888431199E-01
    0.4100000000E+06    0.6507368986E+00    0.1069236446E-01    0.6625449407E+00    0.9764365183E-03    0.2888791830E-01
    0.4300000000E+06    0.6507573570E+00    0.1046195197E-01    0.6629333058E+00    0.9530624194E-03    0.2889130257E-01
    0.4500000000E+06    0.6507758851E+00    0.1024647705E-01    0.6632961175E+00    0.9312579542E-03    0.2889448939E-01
    0.4700000000E+06    0.6507927345E+00    0.1004437616E-01    0.6636360798E+00    0.9108553141E-03    0.2889749962E-01
    0.4900000000E+06    0.6508081154E+00    0.9854306765E-02    0.6639555114E+00    0.8917107702E-03    0.2890035102E-01
    0.1000000000E+06    0.6492661404E+00    0.2017351309E-01    0.6462057418E+00    0.1981583514E-02    0.2874992108E-01
    0.3000000000E+06    0.6505721324E+00    0.1232870649E-01    0.6597749356E+00    0.1144079706E-02    0.2886438926E-01
    0.5000000000E+06    0.6508153116E+00    0.9763415065E-02    0.6641081642E+00    0.8825708838E-03    0.2890172203E-01
    0.7000000000E+06    0.6509132339E+00    0.8363613806E-02    0.6664509146E+00    0.7431019099E-03    0.2892360237E-01
    0.9000000000E+06    0.6509642931E+00    0.7447165015E-02    0.6679762852E+00    0.6532064997E-03    0.2893898612E-01
    0.1100000000E+07    0.6509946968E+00    0.6786319857E-02    0.6690720279E+00    0.5891513289E-03    0.2895082068E-01
    0.1300000000E+07    0.6510143126E+00    0.6280157069E-02    0.6699088868E+00    0.5405605889E-03    0.2896042655E-01
    0.1500000000E+07    0.6510276522E+00    0.5876091452E-02    0.6705754280E+00    0.5020845254E-03    0.2896850570E-01
    0.1700000000E+07    0.6510370562E+00    0.5543641970E-02    0.6711228107E+00    0.4706488871E-03    0.2897547476E-01
    0.1900000000E+07    0.6510438527E+00    0.5263746267E-02    0.6715829399E+00    0.4443452123E-03    0.2898160080E-01
    0.2100000000E+07    0.6510488472E+00    0.5023783229E-02    0.6719768908E+00    0.4219180148E-03    0.2898706515E-01
    0.2300000000E+07    0.6510525543E+00    0.4815016170E-02    0.6723192233E+00    0.4025031551E-03    0.2899199645E-01
    0.2500000000E+07    0.6510553167E+00    0.4631177311E-02    0.6726203651E+00    0.3854838625E-03    0.2899648924E-01
    0.2700000000E+07    0.6510573707E+00    0.4467636200E-02    0.6728880082E+00    0.3704066026E-03    0.2900061499E-01
    0.2900000000E+07    0.6510588835E+00    0.4320887016E-02    0.6731279689E+00    0.3569294570E-03    0.2900442906E-01
    0.3100000000E+07    0.6510599766E+00    0.4188219551E-02    0.6733447379E+00    0.3447891418E-03    0.2900797518E-01
    0.3300000000E+07    0.6510607399E+00    0.4067500787E-02    0.6735418459E+00    0.3337792012E-03    0.2901128849E-01
    0.3500000000E+07    0.6510612413E+00    0.3957025638E-02    0.6737221122E+00    0.3237351617E-03    0.2901439764E-01
    0.3700000000E+07    0.6510615327E+00    0.3855412350E-02    0.6738878196E+00    0.3145241650E-03    0.2901732633E-01
    0.3900000000E+07    0.6510616545E+00    0.3761527586E-02    0.6740408390E+00    0.3060375660E-03    0.2902009433E-01
    0.4100000000E+07    0.6510616382E+00    0.3674431700E-02    0.6741827203E+00    0.2981855441E-03    0.2902271837E-01
    0.4300000000E+07    0.6510615091E+00    0.3593338087E-02    0.6743147599E+00    0.2908931099E-03    0.2902521266E-01
    0.4500000000E+07    0.6510612872E+00    0.3517582497E-02    0.6744380520E+00    0.2840971011E-03    0.2902758943E-01
    0.4700000000E+07    0.6510609889E+00    0.3446599568E-02    0.6745535272E+00    0.2777438891E-03    0.2902985927E-01
    0.4900000000E+07    0.6510606274E+00    0.3379904629E-02    0.6746619829E+00    0.2717876069E-03    0.2903203137E-01
    0.1000000000E+07    0.6509812708E+00    0.7092732785E-02    0.6685644066E+00    0.6187678585E-03    0.2894524365E-01
    0.3000000000E+07    0.6510594763E+00    0.4252937896E-02    0.6732390126E+00    0.3507062304E-03    0.2900623325E-01
    0.5000000000E+07    0.6510604264E+00    0.3348032191E-02    0.6747137970E+00    0.2689457561E-03    0.2903308333E-01
    0.7000000000E+07    0.6510549093E+00    0.2858893828E-02    0.6755077280E+00    0.2257226607E-03    0.2905051476E-01
    0.9000000000E+07    0.6510485986E+00    0.2540383120E-02    0.6760234075E+00    0.1980043890E-03    0.2906344629E-01
    0.1100000000E+08    0.6510425283E+00    0.2311541333E-02    0.6763932451E+00    0.1783215373E-03    0.2907373154E-01
    0.1300000000E+08    0.6510369069E+00    0.2136731021E-02    0.6766753709E+00    0.1634283763E-03    0.2908227219E-01
    0.1500000000E+08    0.6510317454E+00    0.1997469511E-02    0.6768998744E+00    0.1516585758E-03    0.2908957546E-01
    0.1700000000E+08    0.6510270044E+00    0.1883080966E-02    0.6770841089E+00    0.1420576904E-03    0.2909595516E-01
    0.1900000000E+08    0.6510226350E+00    0.1786907493E-02    0.6772388832E+00    0.1340347455E-03    0.2910161904E-01
    0.2100000000E+08    0.6510185907E+00    0.1704550997E-02    0.6773713300E+00    0.1272017949E-03    0.2910671176E-01
    0.2300000000E+08    0.6510148309E+00    0.1632972833E-02    0.6774863727E+00    0.1212922975E-03    0.2911133813E-01
    0.2500000000E+08    0.6510113209E+00    0.1569996628E-02    0.6775875348E+00    0.1161163048E-03    0.2911557651E-01
    0.2700000000E+08    0.6510080311E+00    0.1514016837E-02    0.6776774140E+00    0.1115343276E-03    0.2911948703E-01
