  Pressure (Pa) 22mC5-400 (mol/kg) 2mC6-400 (mol/kg) 3mC6-400 (mol/kg) 33mC5-400 (mol/kg) 23mC5-400 (mol/kg)
    0.1000000000E+01    0.2117155311E-02    0.2393733224E-02    0.5305327171E-03    0.4547400555E-03    0.4646868865E-03
    0.3000000000E+01    0.6269686780E-02    0.7078947725E-02    0.1578304814E-02    0.1344690074E-02    0.1376124170E-02
    0.5000000000E+01    0.1031735654E-01    0.1163266294E-01    0.2608759388E-02    0.2209521321E-02    0.2264562164E-02
    0.7000000000E+01    0.1426490499E-01    0.1606038805E-01    0.3622368845E-02    0.3050283383E-02    0.3131040420E-02
    0.9000000000E+01    0.1811678286E-01    0.2036731766E-01    0.4619588173E-02    0.3867966045E-02    0.3976534973E-02
    0.1100000000E+02    0.2187717303E-01    0.2455835458E-01    0.5600855750E-02    0.4663503618E-02    0.4801963123E-02
    0.1300000000E+02    0.2555001042E-01    0.2863813060E-01    0.6566594092E-02    0.5437778879E-02    0.5608187804E-02
    0.1500000000E+02    0.2913900015E-01    0.3261102552E-01    0.7517210581E-02    0.6191626688E-02    0.6396021553E-02
    0.1700000000E+02    0.3264763412E-01    0.3648118457E-01    0.8453098133E-02    0.6925837286E-02    0.7166230151E-02
    0.1900000000E+02    0.3607920613E-01    0.4025253431E-01    0.9374635847E-02    0.7641159330E-02    0.7919535948E-02
    0.2100000000E+02    0.3943682582E-01    0.4392879733E-01    0.1028218961E-01    0.8338302668E-02    0.8656620905E-02
    0.2300000000E+02    0.4272343142E-01    0.4751350568E-01    0.1117611267E-01    0.9017940899E-02    0.9378129393E-02
    0.2500000000E+02    0.4594180139E-01    0.5101001324E-01    0.1205674619E-01    0.9680713726E-02    0.1008467075E-01
    0.2700000000E+02    0.4909456524E-01    0.5442150718E-01    0.1292441975E-01    0.1032722912E-01    0.1077682166E-01
    0.2900000000E+02    0.5218421337E-01    0.5775101845E-01    0.1377945186E-01    0.1095806533E-01    0.1145512828E-01
    0.3100000000E+02    0.5521310623E-01    0.6100143153E-01    0.1462215040E-01    0.1157377271E-01    0.1212010831E-01
    0.3300000000E+02    0.5818348275E-01    0.6417549341E-01    0.1545281311E-01    0.1217487546E-01    0.1277225274E-01
    0.3500000000E+02    0.6109746805E-01    0.6727582191E-01    0.1627172793E-01    0.1276187318E-01    0.1341202767E-01
    0.3700000000E+02    0.6395708065E-01    0.7030491341E-01    0.1707917349E-01    0.1333524235E-01    0.1403987578E-01
    0.3900000000E+02    0.6676423914E-01    0.7326515001E-01    0.1787541942E-01    0.1389543767E-01    0.1465621784E-01
    0.4100000000E+02    0.6952076829E-01    0.7615880615E-01    0.1866072676E-01    0.1444289337E-01    0.1526145407E-01
    0.4300000000E+02    0.7222840477E-01    0.7898805481E-01    0.1943534827E-01    0.1497802433E-01    0.1585596534E-01
    0.4500000000E+02    0.7488880245E-01    0.8175497326E-01    0.2019952878E-01    0.1550122721E-01    0.1644011439E-01
    0.4700000000E+02    0.7750353732E-01    0.8446154839E-01    0.2095350550E-01    0.1601288145E-01    0.1701424686E-01
    0.4900000000E+02    0.8007411205E-01    0.8710968173E-01    0.2169750830E-01    0.1651335023E-01    0.1757869231E-01
    0.1000000000E+02    0.2000816238E-01    0.2247702710E-01    0.5112189160E-02    0.4268446630E-02    0.4391702189E-02
    0.3000000000E+02    0.5370611152E-01    0.5938593745E-01    0.1420232398E-01    0.1126777677E-01    0.1178925283E-01
    0.5000000000E+02    0.8134328993E-01    0.8841240477E-01    0.2206583939E-01    0.1675949933E-01    0.1785738122E-01
    0.7000000000E+02    0.1047241694E+00    0.1118028985E+00    0.2895961937E-01    0.2117247400E-01    0.2299183860E-01
    0.9000000000E+02    0.1249757229E+00    0.1310132923E+00    0.3507207065E-01    0.2478492480E-01    0.2743980090E-01
    0.1100000000E+03    0.1428400413E+00    0.1470335468E+00    0.4054468178E-01    0.2778621410E-01    0.3136403545E-01
    0.1300000000E+03    0.1588272092E+00    0.1605627211E+00    0.4548589126E-01    0.3031017142E-01    0.3487642622E-01
    0.1500000000E+03    0.1733005473E+00    0.1721097159E+00    0.4998029198E-01    0.3245429539E-01    0.3805666786E-01
    0.1700000000E+03    0.1865267406E+00    0.1820544072E+00    0.5409490868E-01    0.3429141529E-01    0.4096325945E-01
    0.1900000000E+03    0.1987066554E+00    0.1906863825E+00    0.5788358216E-01    0.3587708545E-01    0.4364026342E-01
    0.2100000000E+03    0.2099950110E+00    0.1982303856E+00    0.6139009635E-01    0.3725444547E-01    0.4612161997E-01
    0.2300000000E+03    0.2205133472E+00    0.2048635462E+00    0.6465045064E-01    0.3845751345E-01    0.4843399142E-01
    0.2500000000E+03    0.2303588170E+00    0.2107273558E+00    0.6769453922E-01    0.3951347613E-01    0.5059869067E-01
    0.2700000000E+03    0.2396102951E+00    0.2159361821E+00    0.7054741078E-01    0.4044431806E-01    0.5263302116E-01
    0.2900000000E+03    0.2483327160E+00    0.2205834423E+00    0.7323022668E-01    0.4126800342E-01    0.5455122831E-01
    0.3100000000E+03    0.2565802134E+00    0.2247461593E+00    0.7576099871E-01    0.4199934854E-01    0.5636518834E-01
    0.3300000000E+03    0.2643984338E+00    0.2284883758E+00    0.7815516376E-01    0.4265067616E-01    0.5808491559E-01
    0.3500000000E+03    0.2718262671E+00    0.2318637484E+00    0.8042603602E-01    0.4323231276E-01    0.5971894222E-01
    0.3700000000E+03    0.2788971593E+00    0.2349175449E+00    0.8258516641E-01    0.4375297152E-01    0.6127460622E-01
    0.3900000000E+03    0.2856401232E+00    0.2376881971E+00    0.8464263065E-01    0.4422005039E-01    0.6275827303E-01
    0.4100000000E+03    0.2920805238E+00    0.2402085235E+00    0.8660726217E-01    0.4463986676E-01    0.6417550784E-01
    0.4300000000E+03    0.2982406962E+00    0.2425066988E+00    0.8848684180E-01    0.4501784364E-01    0.6553121125E-01
    0.4500000000E+03    0.3041404374E+00    0.2446070308E+00    0.9028825339E-01    0.4535865895E-01    0.6682972699E-01
    0.4700000000E+03    0.3097974002E+00    0.2465305869E+00    0.9201761231E-01    0.4566636600E-01    0.6807492845E-01
    0.4900000000E+03    0.3152274125E+00    0.2482957043E+00    0.9368037231E-01    0.4594449157E-01    0.6927028868E-01
    0.1000000000E+03    0.1341701932E+00    0.1393731103E+00    0.3788092964E-01    0.2635257172E-01    0.2945946739E-01
    0.3000000000E+03    0.2525128009E+00    0.2227210956E+00    0.7451359884E-01    0.4164439637E-01    0.5547057465E-01
    0.5000000000E+03    0.3178618245E+00    0.2491239364E+00    0.9448832334E-01    0.4607343950E-01    0.6985026847E-01
    0.7000000000E+03    0.3614708296E+00    0.2603564827E+00    0.1081031884E+00    0.4767262917E-01    0.7945547135E-01
    0.9000000000E+03    0.3927789420E+00    0.2658427904E+00    0.1184532046E+00    0.4824766835E-01    0.8635767999E-01
    0.1100000000E+04    0.4162431519E+00    0.2687036430E+00    0.1268367747E+00    0.4838721898E-01    0.9153536851E-01
    0.1300000000E+04    0.4343801469E+00    0.2702075682E+00    0.1339109037E+00    0.4832350980E-01    0.9554125356E-01
    0.1500000000E+04    0.4487449912E+00    0.2709450095E+00    0.1400510725E+00    0.4815983950E-01    0.9871698790E-01
    0.1700000000E+04    0.4603533031E+00    0.2712195640E+00    0.1454910736E+00    0.4794614642E-01    0.1012857877E+00
    0.1900000000E+04    0.4698951270E+00    0.2711999227E+00    0.1503860456E+00    0.4770807317E-01    0.1033993671E+00
    0.2100000000E+04    0.4778540512E+00    0.2709858516E+00    0.1548441177E+00    0.4745937460E-01    0.1051640852E+00
    0.2300000000E+04    0.4845777869E+00    0.2706394497E+00    0.1589436520E+00    0.4720765231E-01    0.1066564426E+00
    0.2500000000E+04    0.4903218981E+00    0.2702010438E+00    0.1627432672E+00    0.4695717684E-01    0.1079326856E+00
    0.2700000000E+04    0.4952778578E+00    0.2696977637E+00    0.1662879783E+00    0.4671034983E-01    0.1090349688E+00
    0.2900000000E+04    0.4995915751E+00    0.2691484080E+00    0.1696131247E+00    0.4646849445E-01    0.1099954262E+00
    0.3100000000E+04    0.5033759340E+00    0.2685663289E+00    0.1727469751E+00    0.4623229812E-01    0.1108389269E+00
    0.3300000000E+04    0.5067194656E+00    0.2679612084E+00    0.1757125111E+00    0.4600206827E-01    0.1115849814E+00
    0.3500000000E+04    0.5096924617E+00    0.2673401895E+00    0.1785286800E+00    0.4577788356E-01    0.1122490858E+00
    0.3700000000E+04    0.5123513604E+00    0.2667086180E+00    0.1812112974E+00    0.4555968535E-01    0.1128436863E+00
    0.3900000000E+04    0.5147419407E+00    0.2660705416E+00    0.1837737086E+00    0.4534733393E-01    0.1133788818E+00
    0.4100000000E+04    0.5169016850E+00    0.2654290543E+00    0.1862272844E+00    0.4514064339E-01    0.1138629439E+00
    0.4300000000E+04    0.5188615464E+00    0.2647865386E+00    0.1885817975E+00    0.4493940359E-01    0.1143027055E+00
    0.4500000000E+04    0.5206472899E+00    0.2641448385E+00    0.1908457127E+00    0.4474339389E-01    0.1147038564E+00
    0.4700000000E+04    0.5222805192E+00    0.2635053864E+00    0.1930264142E+00    0.4455239181E-01    0.1150711687E+00
    0.4900000000E+04    0.5237794718E+00    0.2628692959E+00    0.1951303844E+00    0.4436617832E-01    0.1154086728E+00
    0.1000000000E+04    0.4053044217E+00    0.2674986648E+00    0.1228405954E+00    0.4835288011E-01    0.8912100010E-01
    0.3000000000E+04    0.5015439021E+00    0.2688607833E+00    0.1712024184E+00    0.4634966293E-01    0.1104304691E+00
    0.5000000000E+04    0.5244835290E+00    0.2625527900E+00    0.1961554104E+00    0.4427480064E-01    0.1155673376E+00
    0.7000000000E+04    0.5342776117E+00    0.2565262742E+00    0.2137236325E+00    0.4265217914E-01    0.1177867639E+00
    0.9000000000E+04    0.5396267866E+00    0.2511442611E+00    0.2274740390E+00    0.4132534123E-01    0.1190138533E+00
    0.1100000000E+05    0.5429741700E+00    0.2463463655E+00    0.2388449378E+00    0.4020260745E-01    0.1197913257E+00
    0.1300000000E+05    0.5452575765E+00    0.2420358195E+00    0.2485737092E+00    0.3922912583E-01    0.1203283472E+00
    0.1500000000E+05    0.5469106993E+00    0.2381286506E+00    0.2570934127E+00    0.3836967463E-01    0.1207220406E+00
    0.1700000000E+05    0.5481607274E+00    0.2345580018E+00    0.2646819304E+00    0.3760028726E-01    0.1210234926E+00
    0.1900000000E+05    0.5491378295E+00    0.2312713360E+00    0.2715290938E+00    0.3690390010E-01    0.1212620952E+00
    0.2100000000E+05    0.5499218052E+00    0.2282271282E+00    0.2777707921E+00    0.3626792051E-01    0.1214559424E+00
    0.2300000000E+05    0.5505642335E+00    0.2253921827E+00    0.2835078973E+00    0.3568278182E-01    0.1216167785E+00
    0.2500000000E+05    0.5510999021E+00    0.2227396263E+00    0.2888174951E+00    0.3514104036E-01    0.1217525579E+00
    0.2700000000E+05    0.5515531083E+00    0.2202474347E+00    0.2937599113E+00    0.3463678703E-01    0.1218688599E+00
    0.2900000000E+05    0.5519413264E+00    0.2178973481E+00    0.2983833018E+00    0.3416525034E-01    0.1219697142E+00
    0.3100000000E+05    0.5522774395E+00    0.2156740670E+00    0.3027267596E+00    0.3372252044E-01    0.1220581043E+00
    0.3300000000E+05    0.5525711508E+00    0.2135646481E+00    0.3068224819E+00    0.3330535235E-01    0.1221362867E+00
    0.3500000000E+05    0.5528299054E+00    0.2115580455E+00    0.3106973206E+00    0.3291102261E-01    0.1222060005E+00
    0.3700000000E+05    0.5530595094E+00    0.2096447567E+00    0.3143739170E+00    0.3253722263E-01    0.1222686073E+00
    0.3900000000E+05    0.5532645561E+00    0.2078165479E+00    0.3178715483E+00    0.3218197813E-01    0.1223251893E+00
    0.4100000000E+05    0.5534487266E+00    0.2060662371E+00    0.3212067701E+00    0.3184358729E-01    0.1223766171E+00
    0.4300000000E+05    0.5536150046E+00    0.2043875219E+00    0.3243939106E+00    0.3152057261E-01    0.1224235997E+00
    0.4500000000E+05    0.5537658338E+00    0.2027748408E+00    0.3274454578E+00    0.3121164301E-01    0.1224667200E+00
    0.4700000000E+05    0.5539032346E+00    0.2012232608E+00    0.3303723643E+00    0.3091566358E-01    0.1225064621E+00
    0.4900000000E+05    0.5540288915E+00    0.1997283863E+00    0.3331842918E+00    0.3063163133E-01    0.1225432313E+00
    0.1000000000E+05    0.5414743486E+00    0.2486784758E+00    0.2334009862E+00    0.4074249086E-01    0.1194417799E+00
    0.3000000000E+05    0.5521152277E+00    0.2167707150E+00    0.3005878689E+00    0.3394050104E-01    0.1220153121E+00
    0.5000000000E+05    0.5540877674E+00    0.1990009678E+00    0.3345498542E+00    0.3049381308E-01    0.1225606101E+00
    0.7000000000E+05    0.5548973490E+00    0.1866600157E+00    0.3574754109E+00    0.2819269163E-01    0.1228126474E+00
    0.9000000000E+05    0.5553312108E+00    0.1772294434E+00    0.3747370340E+00    0.2647763875E-01    0.1229635368E+00
    0.1100000000E+06    0.5555982153E+00    0.1696206622E+00    0.3885332392E+00    0.2511885882E-01    0.1230666543E+00
    0.1300000000E+06    0.5557771400E+00    0.1632609778E+00    0.3999875969E+00    0.2399922991E-01    0.1231430226E+00
    0.1500000000E+06    0.5559041655E+00    0.1578110911E+00    0.4097535700E+00    0.2305093072E-01    0.1232027063E+00
    0.1700000000E+06    0.5559981796E+00    0.1530531487E+00    0.4182452788E+00    0.2223118457E-01    0.1232511759E+00
    0.1900000000E+06    0.5560699774E+00    0.1488388721E+00    0.4257418294E+00    0.2151129694E-01    0.1232916827E+00
    0.2100000000E+06    0.5561261617E+00    0.1450627591E+00    0.4324402800E+00    0.2087110037E-01    0.1233262933E+00
    0.2300000000E+06    0.5561709887E+00    0.1416470729E+00    0.4384849185E+00    0.2029589155E-01    0.1233563905E+00
    0.2500000000E+06    0.5562073207E+00    0.1385328926E+00    0.4439845382E+00    0.1977462914E-01    0.1233829389E+00
    0.2700000000E+06    0.5562371497E+00    0.1356745025E+00    0.4490231755E+00    0.1929881704E-01    0.1234066349E+00
    0.2900000000E+06    0.5562619028E+00    0.1330357290E+00    0.4536670719E+00    0.1886178239E-01    0.1234279948E+00
    0.3100000000E+06    0.5562826274E+00    0.1305874648E+00    0.4579693503E+00    0.1845819206E-01    0.1234474114E+00
    0.3300000000E+06    0.5563001088E+00    0.1283059473E+00    0.4619732508E+00    0.1808371908E-01    0.1234651893E+00
    0.3500000000E+06    0.5563149465E+00    0.1261715305E+00    0.4657144281E+00    0.1773480648E-01    0.1234815689E+00
    0.3700000000E+06    0.5563276051E+00    0.1241677904E+00    0.4692226184E+00    0.1740849629E-01    0.1234967430E+00
    0.3900000000E+06    0.5563384504E+00    0.1222808606E+00    0.4725228733E+00    0.1710230344E-01    0.1235108684E+00
    0.4100000000E+06    0.5563477736E+00    0.1204989301E+00    0.4756364888E+00    0.1681412098E-01    0.1235240739E+00
    0.4300000000E+06    0.5563558092E+00    0.1188118590E+00    0.4785817150E+00    0.1654214782E-01    0.1235364667E+00
    0.4500000000E+06    0.5563627481E+00    0.1172108791E+00    0.4813743067E+00    0.1628483288E-01    0.1235481368E+00
    0.4700000000E+06    0.5563687467E+00    0.1156883590E+00    0.4840279551E+00    0.1604083138E-01    0.1235591606E+00
    0.4900000000E+06    0.5563739349E+00    0.1142376174E+00    0.4865546297E+00    0.1580897020E-01    0.1235696029E+00
    0.1000000000E+06    0.5554791413E+00    0.1732406032E+00    0.3819828756E+00    0.2576263127E-01    0.1230193702E+00
    0.3000000000E+06    0.5562727145E+00    0.1317893774E+00    0.4558580098E+00    0.1865609755E-01    0.1234379252E+00
    0.5000000000E+06    0.5563762596E+00    0.1135372977E+00    0.4877736904E+00    0.1569726563E-01    0.1235746239E+00
    0.7000000000E+06    0.5563989293E+00    0.1021814967E+00    0.5074840757E+00    0.1390614422E-01    0.1236547613E+00
    0.9000000000E+06    0.5563996952E+00    0.9411295232E-01    0.5214263077E+00    0.1265669412E-01    0.1237111110E+00
    0.1100000000E+07    0.5563927120E+00    0.8794678192E-01    0.5320478595E+00    0.1171495995E-01    0.1237544633E+00
    0.1300000000E+07    0.5563827248E+00    0.8301001646E-01    0.5405313421E+00    0.1096930522E-01    0.1237896535E+00
    0.1500000000E+07    0.5563716301E+00    0.7892719250E-01    0.5475339110E+00    0.1035830852E-01    0.1238192523E+00
    0.1700000000E+07    0.5563602661E+00    0.7546863447E-01    0.5534563193E+00    0.9844820476E-02    0.1238447853E+00
    0.1900000000E+07    0.5563490228E+00    0.7248423568E-01    0.5585598343E+00    0.9404791777E-02    0.1238672308E+00
    0.2100000000E+07    0.5563380832E+00    0.6987085794E-01    0.5630236034E+00    0.9021833296E-02    0.1238872527E+00
    0.2300000000E+07    0.5563275284E+00    0.6755479770E-01    0.5669754224E+00    0.8684317408E-02    0.1239053222E+00
    0.2500000000E+07    0.5563173879E+00    0.6548169123E-01    0.5705094101E+00    0.8383722580E-02    0.1239217855E+00
    0.2700000000E+07    0.5563076642E+00    0.6361037930E-01    0.5736967291E+00    0.8113634413E-02    0.1239369045E+00
    0.2900000000E+07    0.5562983461E+00    0.6190900976E-01    0.5765923848E+00    0.7869115097E-02    0.1239508818E+00
    0.3100000000E+07    0.5562894156E+00    0.6035246878E-01    0.5792396995E+00    0.7646290237E-02    0.1239638776E+00
    0.3300000000E+07    0.5562808516E+00    0.5892063430E-01    0.5816733506E+00    0.7442069391E-02    0.1239760207E+00
    0.3500000000E+07    0.5562726322E+00    0.5759715630E-01    0.5839214900E+00    0.7253951858E-02    0.1239874159E+00
    0.3700000000E+07    0.5562647359E+00    0.5636858493E-01    0.5860072567E+00    0.7079888474E-02    0.1239981501E+00
    0.3900000000E+07    0.5562571420E+00    0.5522373457E-01    0.5879498801E+00    0.6918181224E-02    0.1240082957E+00
    0.4100000000E+07    0.5562498310E+00    0.5415321149E-01    0.5897654975E+00    0.6767408978E-02    0.1240179139E+00
    0.4300000000E+07    0.5562427847E+00    0.5314905736E-01    0.5914677714E+00    0.6626371643E-02    0.1240270568E+00
    0.4500000000E+07    0.5562359864E+00    0.5220447642E-01    0.5930683613E+00    0.6494047560E-02    0.1240357693E+00
    0.4700000000E+07    0.5562294204E+00    0.5131362375E-01    0.5945772894E+00    0.6369560567E-02    0.1240440900E+00
    0.4900000000E+07    0.5562230724E+00    0.5047143923E-01    0.5960032278E+00    0.6252154235E-02    0.1240520526E+00
    0.1000000000E+07    0.5563967722E+00    0.9084390714E-01    0.5270609582E+00    0.1215599910E-01    0.1237340332E+00
    0.3000000000E+07    0.5562938336E+00    0.6111399398E-01    0.5779447432E+00    0.7755199780E-02    0.1239574937E+00
    0.5000000000E+07    0.5562199760E+00    0.5006719784E-01    0.5966874734E+00    0.6195897570E-02    0.1240559091E+00
    0.7000000000E+07    0.5561668101E+00    0.4371537637E-01    0.6074222909E+00    0.5320491742E-02    0.1241198208E+00
    0.9000000000E+07    0.5561254875E+00    0.3942377069E-01    0.6146569513E+00    0.4738587453E-02    0.1241672457E+00
    0.1100000000E+08    0.5560917317E+00    0.3626079355E-01    0.6199791054E+00    0.4315005475E-02    0.1242049740E+00
    0.1300000000E+08    0.5560632116E+00    0.3379819950E-01    0.6241167085E+00    0.3988509533E-02    0.1242363089E+00
    0.1500000000E+08    0.5560385253E+00    0.3180683944E-01    0.6274585297E+00    0.3726704391E-02    0.1242631088E+00
    0.1700000000E+08    0.5560167658E+00    0.3015112711E-01    0.6302342484E+00    0.3510600547E-02    0.1242865235E+00
    0.1900000000E+08    0.5559973137E+00    0.2874484996E-01    0.6325897197E+00    0.3328219129E-02    0.1243073142E+00
    0.2100000000E+08    0.5559797268E+00    0.2753013395E-01    0.6346227490E+00    0.3171574175E-02    0.1243260110E+00
    0.2300000000E+08    0.5559636790E+00    0.2646644449E-01    0.6364017734E+00    0.3035106486E-02    0.1243429981E+00
    0.2500000000E+08    0.5559489227E+00    0.2552440535E-01    0.6379763493E+00    0.2914809243E-02    0.1243585625E+00
    0.2700000000E+08    0.5559352655E+00    0.2468212043E-01    0.6393833867E+00    0.2807710713E-02    0.1243729247E+00
