  Pressure (Pa) 22mC5-400 (mol/kg) 2mC6-400 (mol/kg) 3mC6-400 (mol/kg) 33mC5-400 (mol/kg) 23mC5-400 (mol/kg)
    0.1000000000E+01    0.2113870773E-02    0.3981195603E-02    0.5296757110E-03    0.1944793529E-03    0.6495529083E-03
    0.3000000000E+01    0.6241213342E-02    0.1172538128E-01    0.1570762159E-02    0.5727289121E-03    0.1917829132E-02
    0.5000000000E+01    0.1024112055E-01    0.1919164092E-01    0.2588264946E-02    0.9373373561E-03    0.3146973404E-02
    0.7000000000E+01    0.1412078391E-01    0.2639460492E-01    0.3583066341E-02    0.1289021675E-02    0.4339193741E-02
    0.9000000000E+01    0.1788684723E-01    0.3334786779E-01    0.4556004123E-02    0.1628448164E-02    0.5496530001E-02
    0.1100000000E+02    0.2154545794E-01    0.4006408043E-01    0.5507874372E-02    0.1956236935E-02    0.6620869664E-02
    0.1300000000E+02    0.2510231285E-01    0.4655503257E-01    0.6439434058E-02    0.2272965944E-02    0.7713961863E-02
    0.1500000000E+02    0.2856269890E-01    0.5283172658E-01    0.7351403434E-02    0.2579174603E-02    0.8777429895E-02
    0.1700000000E+02    0.3193152955E-01    0.5890444359E-01    0.8244468256E-02    0.2875367015E-02    0.9812782400E-02
    0.1900000000E+02    0.3521337742E-01    0.6478280307E-01    0.9119281842E-02    0.3162014881E-02    0.1082142336E-01
    0.2100000000E+02    0.3841250345E-01    0.7047581638E-01    0.9976466990E-02    0.3439560126E-02    0.1180466110E-01
    0.2300000000E+02    0.4153288325E-01    0.7599193518E-01    0.1081661775E-01    0.3708417263E-02    0.1276371630E-01
    0.2500000000E+02    0.4457823073E-01    0.8133909514E-01    0.1164030110E-01    0.3968975533E-02    0.1369972933E-01
    0.2700000000E+02    0.4755201943E-01    0.8652475565E-01    0.1244805844E-01    0.4221600845E-02    0.1461376674E-01
    0.2900000000E+02    0.5045750183E-01    0.9155593571E-01    0.1324040708E-01    0.4466637536E-02    0.1550682721E-01
    0.3100000000E+02    0.5329772678E-01    0.9643924669E-01    0.1401784158E-01    0.4704409972E-02    0.1637984692E-01
    0.3300000000E+02    0.5607555534E-01    0.1011809221E+00    0.1478083495E-01    0.4935224004E-02    0.1723370438E-01
    0.3500000000E+02    0.5879367514E-01    0.1057868447E+00    0.1552983987E-01    0.5159368298E-02    0.1806922484E-01
    0.3700000000E+02    0.6145461345E-01    0.1102625715E+00    0.1626528976E-01    0.5377115548E-02    0.1888718433E-01
    0.3900000000E+02    0.6406074908E-01    0.1146133560E+00    0.1698759983E-01    0.5588723590E-02    0.1968831330E-01
    0.4100000000E+02    0.6661432322E-01    0.1188441697E+00    0.1769716800E-01    0.5794436418E-02    0.2047329993E-01
    0.4300000000E+02    0.6911744938E-01    0.1229597204E+00    0.1839437581E-01    0.5994485119E-02    0.2124279321E-01
    0.4500000000E+02    0.7157212242E-01    0.1269644704E+00    0.1907958930E-01    0.6189088729E-02    0.2199740571E-01
    0.4700000000E+02    0.7398022688E-01    0.1308626521E+00    0.1975315974E-01    0.6378455025E-02    0.2273771611E-01
    0.4900000000E+02    0.7634354458E-01    0.1346582833E+00    0.2041542444E-01    0.6562781250E-02    0.2346427154E-01
    0.1000000000E+02    0.1972921805E-01    0.3673484925E-01    0.5034524491E-02    0.1793760198E-02    0.6062711998E-02
    0.3000000000E+02    0.5188558844E-01    0.9401567672E-01    0.1363095855E-01    0.4586412253E-02    0.1594578596E-01
    0.5000000000E+02    0.7750893887E-01    0.1365188425E+00    0.2074241888E-01    0.6653113260E-02    0.2382255405E-01
    0.7000000000E+02    0.9883064292E-01    0.1691792305E+00    0.2676115505E-01    0.8236059081E-02    0.3037818944E-01
    0.9000000000E+02    0.1171319055E+00    0.1949438157E+00    0.3194970292E-01    0.9479980769E-02    0.3600612412E-01
    0.1100000000E+03    0.1332045837E+00    0.2156892163E+00    0.3649080444E-01    0.1047709491E-01    0.4094953203E-01
    0.1300000000E+03    0.1475669315E+00    0.2326703276E+00    0.4051583969E-01    0.1128909763E-01    0.4536757131E-01
    0.1500000000E+03    0.1605740795E+00    0.2467592867E+00    0.4412186098E-01    0.1195888658E-01    0.4936930752E-01
    0.1700000000E+03    0.1724787480E+00    0.2585814647E+00    0.4738223798E-01    0.1251723495E-01    0.5303235661E-01
    0.1900000000E+03    0.1834665721E+00    0.2685970517E+00    0.5035355240E-01    0.1298679702E-01    0.5641373238E-01
    0.2100000000E+03    0.1936776487E+00    0.2771521601E+00    0.5308020271E-01    0.1338461802E-01    0.5955646329E-01
    0.2300000000E+03    0.2032202108E+00    0.2845120073E+00    0.5559756249E-01    0.1372376429E-01    0.6249379187E-01
    0.2500000000E+03    0.2121796049E+00    0.2908831314E+00    0.5793419797E-01    0.1401441503E-01    0.6525193165E-01
    0.2700000000E+03    0.2206243591E+00    0.2964286595E+00    0.6011345748E-01    0.1426461280E-01    0.6785193074E-01
    0.2900000000E+03    0.2286103907E+00    0.3012790444E+00    0.6215463191E-01    0.1448079134E-01    0.7031096409E-01
    0.3100000000E+03    0.2361839897E+00    0.3055397674E+00    0.6407381594E-01    0.1466815446E-01    0.7264324974E-01
    0.3300000000E+03    0.2433839769E+00    0.3092969642E+00    0.6588455695E-01    0.1483095269E-01    0.7486071172E-01
    0.3500000000E+03    0.2502432930E+00    0.3126215997E+00    0.6759835035E-01    0.1497268877E-01    0.7697346804E-01
    0.3700000000E+03    0.2567901877E+00    0.3155726099E+00    0.6922502257E-01    0.1509627221E-01    0.7899019593E-01
    0.3900000000E+03    0.2630491221E+00    0.3181992985E+00    0.7077303042E-01    0.1520413731E-01    0.8091840905E-01
    0.4100000000E+03    0.2690414634E+00    0.3205431850E+00    0.7224969746E-01    0.1529833416E-01    0.8276467073E-01
    0.4300000000E+03    0.2747860251E+00    0.3226394466E+00    0.7366140255E-01    0.1538059966E-01    0.8453476003E-01
    0.4500000000E+03    0.2802994929E+00    0.3245180532E+00    0.7501373145E-01    0.1545241347E-01    0.8623380251E-01
    0.4700000000E+03    0.2855967634E+00    0.3262046693E+00    0.7631159976E-01    0.1551504244E-01    0.8786637419E-01
    0.4900000000E+03    0.2906912161E+00    0.3277213774E+00    0.7755935338E-01    0.1556957628E-01    0.8943658517E-01
    0.1000000000E+03    0.1254096388E+00    0.2058543853E+00    0.3429200901E-01    0.1000498783E-01    0.3855197626E-01
    0.3000000000E+03    0.2324461638E+00    0.3034773316E+00    0.6312857275E-01    0.1457778952E-01    0.7149215778E-01
    0.5000000000E+03    0.2931662071E+00    0.3284220829E+00    0.7816566015E-01    0.1559410683E-01    0.9019947933E-01
    0.7000000000E+03    0.3344343736E+00    0.3370027075E+00    0.8840375069E-01    0.1583149535E-01    0.1029257527E+00
    0.9000000000E+03    0.3643536428E+00    0.3401379206E+00    0.9624638136E-01    0.1582673478E-01    0.1121605325E+00
    0.1100000000E+04    0.3868841040E+00    0.3410942043E+00    0.1026572835E+00    0.1573742724E-01    0.1191209547E+00
    0.1300000000E+04    0.4043305743E+00    0.3410782385E+00    0.1081145399E+00    0.1561934693E-01    0.1245156856E+00
    0.1500000000E+04    0.4181485910E+00    0.3405976338E+00    0.1128891058E+00    0.1549418113E-01    0.1287924353E+00
    0.1700000000E+04    0.4293030316E+00    0.3398861109E+00    0.1171492701E+00    0.1537065981E-01    0.1322481018E+00
    0.1900000000E+04    0.4384560171E+00    0.3390587518E+00    0.1210067789E+00    0.1525218919E-01    0.1350864963E+00
    0.2100000000E+04    0.4460745939E+00    0.3381752124E+00    0.1245397053E+00    0.1513988984E-01    0.1374514331E+00
    0.2300000000E+04    0.4524959625E+00    0.3372676597E+00    0.1278048200E+00    0.1503388870E-01    0.1394467796E+00
    0.2500000000E+04    0.4579685657E+00    0.3363539476E+00    0.1308447545E+00    0.1493389345E-01    0.1411490889E+00
    0.2700000000E+04    0.4626787737E+00    0.3354441702E+00    0.1336923806E+00    0.1483945421E-01    0.1426158068E+00
    0.2900000000E+04    0.4667686646E+00    0.3345440715E+00    0.1363736113E+00    0.1475008330E-01    0.1438907415E+00
    0.3100000000E+04    0.4703481368E+00    0.3336568868E+00    0.1389092599E+00    0.1466530853E-01    0.1450077900E+00
    0.3300000000E+04    0.4735033250E+00    0.3327843720E+00    0.1413163143E+00    0.1458469490E-01    0.1459935289E+00
    0.3500000000E+04    0.4763025538E+00    0.3319273949E+00    0.1436088345E+00    0.1450785141E-01    0.1468690463E+00
    0.3700000000E+04    0.4788006178E+00    0.3310862834E+00    0.1457985996E+00    0.1443443086E-01    0.1476512601E+00
    0.3900000000E+04    0.4810419041E+00    0.3302610356E+00    0.1478955839E+00    0.1436412670E-01    0.1483538797E+00
    0.4100000000E+04    0.4830627031E+00    0.3294514485E+00    0.1499083146E+00    0.1429666872E-01    0.1489881174E+00
    0.4300000000E+04    0.4848929389E+00    0.3286571981E+00    0.1518441438E+00    0.1423181869E-01    0.1495632219E+00
    0.4500000000E+04    0.4865574811E+00    0.3278778902E+00    0.1537094591E+00    0.1416936623E-01    0.1500868822E+00
    0.4700000000E+04    0.4880771498E+00    0.3271130925E+00    0.1555098483E+00    0.1410912502E-01    0.1505655376E+00
    0.4900000000E+04    0.4894694933E+00    0.3263623555E+00    0.1572502307E+00    0.1405092958E-01    0.1510046175E+00
    0.1000000000E+04    0.3763724286E+00    0.3407882124E+00    0.9959414590E-01    0.1578794550E-01    0.1158727603E+00
    0.3000000000E+04    0.4686163422E+00    0.3340987289E+00    0.1376584939E+00    0.1470714958E-01    0.1444671934E+00
    0.5000000000E+04    0.4901226598E+00    0.3259921178E+00    0.1580992999E+00    0.1402255233E-01    0.1512107842E+00
    0.7000000000E+04    0.4991477636E+00    0.3192203608E+00    0.1727680741E+00    0.1353387832E-01    0.1540759977E+00
    0.9000000000E+04    0.5040199124E+00    0.3134179273E+00    0.1843969003E+00    0.1314870136E-01    0.1556428234E+00
    0.1100000000E+05    0.5070432415E+00    0.3083341288E+00    0.1941085072E+00    0.1282866538E-01    0.1566279719E+00
    0.1300000000E+05    0.5090923300E+00    0.3038038663E+00    0.2024855122E+00    0.1255394469E-01    0.1573046179E+00
    0.1500000000E+05    0.5105681466E+00    0.2997135172E+00    0.2098730795E+00    0.1231280682E-01    0.1577985356E+00
    0.1700000000E+05    0.5116793012E+00    0.2959816325E+00    0.2164941919E+00    0.1209766750E-01    0.1581754437E+00
    0.1900000000E+05    0.5125446502E+00    0.2925478177E+00    0.2225020200E+00    0.1190331077E-01    0.1584729496E+00
    0.2100000000E+05    0.5132367186E+00    0.2893660201E+00    0.2280067234E+00    0.1172598102E-01    0.1587141020E+00
    0.2300000000E+05    0.5138021975E+00    0.2864002934E+00    0.2330904095E+00    0.1156287665E-01    0.1589138060E+00
    0.2500000000E+05    0.5142724696E+00    0.2836220198E+00    0.2378160530E+00    0.1141184777E-01    0.1590821247E+00
    0.2700000000E+05    0.5146693887E+00    0.2810080280E+00    0.2422330996E+00    0.1127120609E-01    0.1592260970E+00
    0.2900000000E+05    0.5150086295E+00    0.2785392810E+00    0.2463811405E+00    0.1113960000E-01    0.1593507948E+00
    0.3100000000E+05    0.5153017212E+00    0.2761999380E+00    0.2502924063E+00    0.1101592963E-01    0.1594599654E+00
    0.3300000000E+05    0.5155573284E+00    0.2739766697E+00    0.2539935124E+00    0.1089928730E-01    0.1595564378E+00
    0.3500000000E+05    0.5157820865E+00    0.2718581485E+00    0.2575067113E+00    0.1078891474E-01    0.1596423884E+00
    0.3700000000E+05    0.5159811607E+00    0.2698346621E+00    0.2608508105E+00    0.1068417172E-01    0.1597195190E+00
    0.3900000000E+05    0.5161586308E+00    0.2678978174E+00    0.2640418591E+00    0.1058451249E-01    0.1597891802E+00
    0.4100000000E+05    0.5163177610E+00    0.2660403088E+00    0.2670936701E+00    0.1048946790E-01    0.1598524573E+00
    0.4300000000E+05    0.5164611936E+00    0.2642557363E+00    0.2700182231E+00    0.1039863159E-01    0.1599102330E+00
    0.4500000000E+05    0.5165910899E+00    0.2625384598E+00    0.2728259798E+00    0.1031164918E-01    0.1599632324E+00
    0.4700000000E+05    0.5167092343E+00    0.2608834822E+00    0.2755261335E+00    0.1022820965E-01    0.1600120570E+00
    0.4900000000E+05    0.5168171129E+00    0.2592863539E+00    0.2781268093E+00    0.1014803855E-01    0.1600572103E+00
    0.1000000000E+05    0.5056912992E+00    0.3107980314E+00    0.1894482830E+00    0.1298204149E-01    0.1561858360E+00
    0.3000000000E+05    0.5151603467E+00    0.2773543192E+00    0.2483645918E+00    0.1107683352E-01    0.1594071263E+00
    0.5000000000E+05    0.5168676004E+00    0.2585082230E+00    0.2793921303E+00    0.1010910149E-01    0.1600785454E+00
    0.7000000000E+05    0.5175570886E+00    0.2452046221E+00    0.3008713257E+00    0.9455023664E-02    0.1603875106E+00
    0.9000000000E+05    0.5179212789E+00    0.2348954073E+00    0.3173530468E+00    0.8961893375E-02    0.1605720998E+00
    0.1100000000E+06    0.5181421980E+00    0.2264775719E+00    0.3307292534E+00    0.8567188929E-02    0.1606980983E+00
    0.1300000000E+06    0.5182880472E+00    0.2193679239E+00    0.3419792291E+00    0.8238984093E-02    0.1607913411E+00
    0.1500000000E+06    0.5183899750E+00    0.2132189280E+00    0.3516787682E+00    0.7958726823E-02    0.1608641746E+00
    0.1700000000E+06    0.5184641594E+00    0.2078061159E+00    0.3601963074E+00    0.7714667999E-02    0.1609233006E+00
    0.1900000000E+06    0.5185198026E+00    0.2029758182E+00    0.3677823310E+00    0.7498892578E-02    0.1609726992E+00
    0.2100000000E+06    0.5185625067E+00    0.1986180844E+00    0.3746150982E+00    0.7305813643E-02    0.1610148977E+00
    0.2300000000E+06    0.5185958664E+00    0.1946514657E+00    0.3808260896E+00    0.7131340720E-02    0.1610515869E+00
    0.2500000000E+06    0.5186222880E+00    0.1910139111E+00    0.3865151169E+00    0.6972389397E-02    0.1610839455E+00
    0.2700000000E+06    0.5186434385E+00    0.1876570411E+00    0.3917597687E+00    0.6826576745E-02    0.1611128238E+00
    0.2900000000E+06    0.5186605065E+00    0.1845423949E+00    0.3966215689E+00    0.6692023940E-02    0.1611388527E+00
    0.3100000000E+06    0.5186743607E+00    0.1816388870E+00    0.4011501345E+00    0.6567223745E-02    0.1611625114E+00
    0.3300000000E+06    0.5186856490E+00    0.1789210310E+00    0.4053860665E+00    0.6450948849E-02    0.1611841719E+00
    0.3500000000E+06    0.5186948637E+00    0.1763676693E+00    0.4093630121E+00    0.6342186810E-02    0.1612041274E+00
    0.3700000000E+06    0.5187023845E+00    0.1739610448E+00    0.4131091680E+00    0.6240092849E-02    0.1612226133E+00
    0.3900000000E+06    0.5187085089E+00    0.1716861087E+00    0.4166483974E+00    0.6143954921E-02    0.1612398207E+00
    0.4100000000E+06    0.5187134725E+00    0.1695299963E+00    0.4200010746E+00    0.6053167414E-02    0.1612559068E+00
    0.4300000000E+06    0.5187174639E+00    0.1674816243E+00    0.4231847333E+00    0.5967211054E-02    0.1612710025E+00
    0.4500000000E+06    0.5187206360E+00    0.1655313763E+00    0.4262145702E+00    0.5885637325E-02    0.1612852173E+00
    0.4700000000E+06    0.5187231135E+00    0.1636708554E+00    0.4291038425E+00    0.5808056247E-02    0.1612986444E+00
    0.4900000000E+06    0.5187249990E+00    0.1618926869E+00    0.4318641837E+00    0.5734126675E-02    0.1613113630E+00
    0.1000000000E+06    0.5180440731E+00    0.2304940610E+00    0.3243551235E+00    0.8754666306E-02    0.1606403364E+00
    0.3000000000E+06    0.5186677906E+00    0.1830659559E+00    0.3989247846E+00    0.6628487167E-02    0.1611509530E+00
    0.5000000000E+06    0.5187257470E+00    0.1610324197E+00    0.4331992601E+00    0.5698436006E-02    0.1613174784E+00
    0.7000000000E+06    0.5187242164E+00    0.1469061087E+00    0.4550906860E+00    0.5119364360E-02    0.1614150735E+00
    0.9000000000E+06    0.5187089851E+00    0.1366570641E+00    0.4709391534E+00    0.4707365684E-02    0.1614836906E+00
    0.1100000000E+07    0.5186902067E+00    0.1286987600E+00    0.4832272710E+00    0.4392109092E-02    0.1615364775E+00
    0.1300000000E+07    0.5186709385E+00    0.1222451909E+00    0.4931811054E+00    0.4139438391E-02    0.1615793243E+00
    0.1500000000E+07    0.5186522211E+00    0.1168509344E+00    0.5014939504E+00    0.3930290222E-02    0.1616153621E+00
    0.1700000000E+07    0.5186344043E+00    0.1122399353E+00    0.5085947855E+00    0.3752994683E-02    0.1616464492E+00
    0.1900000000E+07    0.5186175745E+00    0.1082297367E+00    0.5147667804E+00    0.3599918075E-02    0.1616737767E+00
    0.2100000000E+07    0.5186017143E+00    0.1046937338E+00    0.5202062185E+00    0.3465810465E-02    0.1616981532E+00
    0.2300000000E+07    0.5185867657E+00    0.1015406604E+00    0.5250544723E+00    0.3346916790E-02    0.1617201526E+00
    0.2500000000E+07    0.5185726583E+00    0.9870266940E-01    0.5294165597E+00    0.3240464899E-02    0.1617401964E+00
    0.2700000000E+07    0.5185593202E+00    0.9612802716E-01    0.5333725047E+00    0.3144354234E-02    0.1617586034E+00
    0.2900000000E+07    0.5185466834E+00    0.9377643831E-01    0.5369846029E+00    0.3056957957E-02    0.1617756204E+00
    0.3100000000E+07    0.5185346859E+00    0.9161594242E-01    0.5403022391E+00    0.2976992457E-02    0.1617914425E+00
    0.3300000000E+07    0.5185232714E+00    0.8962079065E-01    0.5433651816E+00    0.2903428561E-02    0.1618062263E+00
    0.3500000000E+07    0.5185123900E+00    0.8776995406E-01    0.5462058958E+00    0.2835429495E-02    0.1618200996E+00
    0.3700000000E+07    0.5185019969E+00    0.8604605144E-01    0.5488512053E+00    0.2772306506E-02    0.1618331681E+00
    0.3900000000E+07    0.5184920523E+00    0.8443456323E-01    0.5513235097E+00    0.2713486478E-02    0.1618455201E+00
    0.4100000000E+07    0.5184825206E+00    0.8292324487E-01    0.5536416928E+00    0.2658487861E-02    0.1618572299E+00
    0.4300000000E+07    0.5184733703E+00    0.8150168201E-01    0.5558218113E+00    0.2606902493E-02    0.1618683612E+00
    0.4500000000E+07    0.5184645729E+00    0.8016094856E-01    0.5578776232E+00    0.2558381687E-02    0.1618789683E+00
    0.4700000000E+07    0.5184561030E+00    0.7889334038E-01    0.5598210002E+00    0.2512625417E-02    0.1618890985E+00
    0.4900000000E+07    0.5184479376E+00    0.7769216549E-01    0.5616622519E+00    0.2469373844E-02    0.1618987928E+00
    0.1000000000E+07    0.5186997733E+00    0.1324518212E+00    0.4774342043E+00    0.4540275483E-02    0.1615116016E+00
    0.3000000000E+07    0.5185406084E+00    0.9267403869E-01    0.5386775488E+00    0.3016115816E-02    0.1617836702E+00
    0.5000000000E+07    0.5184439626E+00    0.7711463426E-01    0.5625474399E+00    0.2448615423E-02    0.1619034880E+00
    0.7000000000E+07    0.5183763689E+00    0.6795514225E-01    0.5765780028E+00    0.2122690580E-02    0.1619812994E+00
    0.9000000000E+07    0.5183244775E+00    0.6167387483E-01    0.5861906552E+00    0.1902902571E-02    0.1620390395E+00
    0.1100000000E+08    0.5182823803E+00    0.5699503877E-01    0.5933461720E+00    0.1741259076E-02    0.1620849748E+00
    0.1300000000E+08    0.5182469699E+00    0.5332248077E-01    0.5989598202E+00    0.1615678281E-02    0.1621231268E+00
    0.1500000000E+08    0.5182164138E+00    0.5033327524E-01    0.6035270028E+00    0.1514341360E-02    0.1621557577E+00
    0.1700000000E+08    0.5181895419E+00    0.4783448549E-01    0.6073435276E+00    0.1430255924E-02    0.1621842674E+00
    0.1900000000E+08    0.5181655612E+00    0.4570244990E-01    0.6105988980E+00    0.1358977350E-02    0.1622095825E+00
    0.2100000000E+08    0.5181439100E+00    0.4385359409E-01    0.6134211332E+00    0.1297523421E-02    0.1622323486E+00
    0.2300000000E+08    0.5181241758E+00    0.4222904283E-01    0.6159003863E+00    0.1243806624E-02    0.1622530330E+00
    0.2500000000E+08    0.5181060467E+00    0.4078591128E-01    0.6181023045E+00    0.1196315067E-02    0.1622719855E+00
    0.2700000000E+08    0.5180892811E+00    0.3949209080E-01    0.6200760254E+00    0.1153922610E-02    0.1622894744E+00
