  Pressure (Pa) 22mC5-400 (mol/kg) 2mC6-400 (mol/kg) 3mC6-400 (mol/kg) 33mC5-400 (mol/kg) 23mC5-400 (mol/kg)
    0.1000000000E+01    0.2639897160E-02    0.4765137272E-02    0.1584913173E-02    0.2586418919E-03    0.1854151658E-03
    0.3000000000E+01    0.7780491770E-02    0.1396370561E-01    0.4676375499E-02    0.7578760912E-03    0.5464752214E-03
    0.5000000000E+01    0.1274546121E-01    0.2274375394E-01    0.7667994996E-02    0.1234335531E-02    0.8952082439E-03
    0.7000000000E+01    0.1754586575E-01    0.3113170305E-01    0.1056499534E-01    0.1689456561E-02    0.1232390444E-02
    0.9000000000E+01    0.2219182657E-01    0.3915181050E-01    0.1337223472E-01    0.2124558009E-02    0.1558732132E-02
    0.1100000000E+02    0.2669262394E-01    0.4682638779E-01    0.1609423749E-01    0.2540852972E-02    0.1874884608E-02
    0.1300000000E+02    0.3105678330E-01    0.5417599178E-01    0.1873522254E-01    0.2939459210E-02    0.2181446204E-02
    0.1500000000E+02    0.3529215096E-01    0.6121959392E-01    0.2129912893E-01    0.3321408337E-02    0.2478967592E-02
    0.1700000000E+02    0.3940596091E-01    0.6797473018E-01    0.2378963879E-01    0.3687653962E-02    0.2767956473E-02
    0.1900000000E+02    0.4340489382E-01    0.7445763432E-01    0.2621019819E-01    0.4039078930E-02    0.3048881720E-02
    0.2100000000E+02    0.4729512936E-01    0.8068335645E-01    0.2856403585E-01    0.4376501760E-02    0.3322177046E-02
    0.2300000000E+02    0.5108239270E-01    0.8666586897E-01    0.3085418018E-01    0.4700682397E-02    0.3588244269E-02
    0.2500000000E+02    0.5477199589E-01    0.9241816118E-01    0.3308347473E-01    0.5012327353E-02    0.3847456214E-02
    0.2700000000E+02    0.5836887480E-01    0.9795232420E-01    0.3525459216E-01    0.5312094324E-02    0.4100159308E-02
    0.2900000000E+02    0.6187762213E-01    0.1032796271E+00    0.3737004703E-01    0.5600596320E-02    0.4346675892E-02
    0.3100000000E+02    0.6530251705E-01    0.1084105857E+00    0.3943220743E-01    0.5878405398E-02    0.4587306308E-02
    0.3300000000E+02    0.6864755178E-01    0.1133550239E+00    0.4144330557E-01    0.6146056017E-02    0.4822330754E-02
    0.3500000000E+02    0.7191645548E-01    0.1181221301E+00    0.4340544749E-01    0.6404048070E-02    0.5052010971E-02
    0.3700000000E+02    0.7511271579E-01    0.1227205072E+00    0.4532062195E-01    0.6652849632E-02    0.5276591748E-02
    0.3900000000E+02    0.7823959835E-01    0.1271582187E+00    0.4719070852E-01    0.6892899440E-02    0.5496302295E-02
    0.4100000000E+02    0.8130016436E-01    0.1314428299E+00    0.4901748509E-01    0.7124609155E-02    0.5711357472E-02
    0.4300000000E+02    0.8429728653E-01    0.1355814460E+00    0.5080263471E-01    0.7348365410E-02    0.5921958911E-02
    0.4500000000E+02    0.8723366356E-01    0.1395807462E+00    0.5254775187E-01    0.7564531680E-02    0.6128296034E-02
    0.4700000000E+02    0.9011183330E-01    0.1434470152E+00    0.5425434834E-01    0.7773449983E-02    0.6330546970E-02
    0.4900000000E+02    0.9293418470E-01    0.1471861716E+00    0.5592385852E-01    0.7975442436E-02    0.6528879400E-02
    0.1000000000E+02    0.2445982109E-01    0.4303096657E-01    0.1474362015E-01    0.2334984320E-02    0.1718043450E-02
    0.3000000000E+02    0.6360029519E-01    0.1058690199E+00    0.3840764646E-01    0.5740803226E-02    0.4467708907E-02
    0.5000000000E+02    0.9432513707E-01    0.1490098386E+00    0.5674513456E-01    0.8073937040E-02    0.6626625909E-02
    0.7000000000E+02    0.1196969785E+00    0.1800077993E+00    0.7152061770E-01    0.9745432656E-02    0.8409754999E-02
    0.9000000000E+02    0.1413976223E+00    0.2030285893E+00    0.8378339603E-01    0.1098205984E-01    0.9935145510E-02
    0.1100000000E+03    0.1604336422E+00    0.2205531879E+00    0.9419883465E-01    0.1191893834E-01    0.1127345428E-01
    0.1300000000E+03    0.1774481985E+00    0.2341482347E+00    0.1032105884E+00    0.1264142993E-01    0.1246982994E-01
    0.1500000000E+03    0.1928739791E+00    0.2448496162E+00    0.1111266866E+00    0.1320600390E-01    0.1355464727E-01
    0.1700000000E+03    0.2070144965E+00    0.2533682464E+00    0.1181682275E+00    0.1365143374E-01    0.1454921346E-01
    0.1900000000E+03    0.2200901612E+00    0.2602072306E+00    0.1244983932E+00    0.1400517358E-01    0.1546900210E-01
    0.2100000000E+03    0.2322657946E+00    0.2657319021E+00    0.1302405053E+00    0.1428717068E-01    0.1632558440E-01
    0.2300000000E+03    0.2436677878E+00    0.2702134273E+00    0.1354896783E+00    0.1451223962E-01    0.1712783371E-01
    0.2500000000E+03    0.2543952066E+00    0.2738569071E+00    0.1403205814E+00    0.1469159265E-01    0.1788270505E-01
    0.2700000000E+03    0.2645272053E+00    0.2768200320E+00    0.1447927513E+00    0.1483385582E-01    0.1859575561E-01
    0.2900000000E+03    0.2741281169E+00    0.2792257909E+00    0.1489543149E+00    0.1494576144E-01    0.1927150201E-01
    0.3100000000E+03    0.2832510292E+00    0.2811713256E+00    0.1528446554E+00    0.1503263055E-01    0.1991367143E-01
    0.3300000000E+03    0.2919403533E+00    0.2827342272E+00    0.1564963560E+00    0.1509871619E-01    0.2052538189E-01
    0.3500000000E+03    0.3002337018E+00    0.2839770917E+00    0.1599366418E+00    0.1514745175E-01    0.2110927411E-01
    0.3700000000E+03    0.3081632860E+00    0.2849508712E+00    0.1631884653E+00    0.1518163377E-01    0.2166760963E-01
    0.3900000000E+03    0.3157569714E+00    0.2856973738E+00    0.1662713355E+00    0.1520355836E-01    0.2220234488E-01
    0.4100000000E+03    0.3230390857E+00    0.2862511539E+00    0.1692019582E+00    0.1521512433E-01    0.2271518791E-01
    0.4300000000E+03    0.3300310453E+00    0.2866409580E+00    0.1719947367E+00    0.1521791218E-01    0.2320764241E-01
    0.4500000000E+03    0.3367518474E+00    0.2868908433E+00    0.1746621676E+00    0.1521324517E-01    0.2368104221E-01
    0.4700000000E+03    0.3432184588E+00    0.2870210513E+00    0.1772151562E+00    0.1520223710E-01    0.2413657862E-01
    0.4900000000E+03    0.3494461288E+00    0.2870486966E+00    0.1796632703E+00    0.1518582995E-01    0.2457532236E-01
    0.1000000000E+03    0.1512022695E+00    0.2123642524E+00    0.8919036166E-01    0.1148177556E-01    0.1062442510E-01
    0.3000000000E+03    0.2787463687E+00    0.2802508389E+00    0.1509312111E+00    0.1499203800E-01    0.1959657643E-01
    0.5000000000E+03    0.3524747194E+00    0.2870286887E+00    0.1808506751E+00    0.1517585663E-01    0.2478870302E-01
    0.7000000000E+03    0.4032657791E+00    0.2838144927E+00    0.2006990174E+00    0.1483438894E-01    0.2836876658E-01
    0.9000000000E+03    0.4404228070E+00    0.2785382345E+00    0.2156566304E+00    0.1440312387E-01    0.3099008676E-01
    0.1100000000E+04    0.4685742788E+00    0.2731022378E+00    0.2277216019E+00    0.1398433927E-01    0.3297781227E-01
    0.1300000000E+04    0.4904629318E+00    0.2680092231E+00    0.2378690203E+00    0.1360261761E-01    0.3452469531E-01
    0.1500000000E+04    0.5078467199E+00    0.2633640545E+00    0.2466474824E+00    0.1326072811E-01    0.3575432801E-01
    0.1700000000E+04    0.5219045630E+00    0.2591515347E+00    0.2543966244E+00    0.1295521047E-01    0.3674962453E-01
    0.1900000000E+04    0.5334527085E+00    0.2553236382E+00    0.2613416834E+00    0.1268123527E-01    0.3756801247E-01
    0.2100000000E+04    0.5430708793E+00    0.2518281590E+00    0.2676399653E+00    0.1243414639E-01    0.3825029264E-01
    0.2300000000E+04    0.5511798394E+00    0.2486176913E+00    0.2734058542E+00    0.1220989284E-01    0.3882608830E-01
    0.2500000000E+04    0.5580908628E+00    0.2456517574E+00    0.2787252518E+00    0.1200508236E-01    0.3931732149E-01
    0.2700000000E+04    0.5640381872E+00    0.2428965983E+00    0.2836643948E+00    0.1181691425E-01    0.3974049425E-01
    0.2900000000E+04    0.5692008143E+00    0.2403242720E+00    0.2882754914E+00    0.1164308400E-01    0.4010822136E-01
    0.3100000000E+04    0.5737174608E+00    0.2379116514E+00    0.2926004632E+00    0.1148169181E-01    0.4043028178E-01
    0.3300000000E+04    0.5776970021E+00    0.2356395233E+00    0.2966735107E+00    0.1133116436E-01    0.4071435329E-01
    0.3500000000E+04    0.5812258935E+00    0.2334918349E+00    0.3005229216E+00    0.1119019094E-01    0.4096653465E-01
    0.3700000000E+04    0.5843735239E+00    0.2314550858E+00    0.3041723753E+00    0.1105767253E-01    0.4119172230E-01
    0.3900000000E+04    0.5871961345E+00    0.2295178427E+00    0.3076419043E+00    0.1093268137E-01    0.4139388626E-01
    0.4100000000E+04    0.5897397248E+00    0.2276703562E+00    0.3109486155E+00    0.1081442905E-01    0.4157627464E-01
    0.4300000000E+04    0.5920422334E+00    0.2259042550E+00    0.3141072400E+00    0.1070224121E-01    0.4174156728E-01
    0.4500000000E+04    0.5941351941E+00    0.2242123048E+00    0.3171305596E+00    0.1059553743E-01    0.4189199238E-01
    0.4700000000E+04    0.5960450065E+00    0.2225882141E+00    0.3200297396E+00    0.1049381517E-01    0.4202941597E-01
    0.4900000000E+04    0.5977939201E+00    0.2210264792E+00    0.3228145940E+00    0.1039663684E-01    0.4215541127E-01
    0.1000000000E+04    0.4554228959E+00    0.2757936833E+00    0.2219757297E+00    0.1418979999E-01    0.3204900083E-01
    0.3000000000E+04    0.5715324800E+00    0.2390992815E+00    0.2904714485E+00    0.1156093832E-01    0.4027443776E-01
    0.5000000000E+04    0.5986140510E+00    0.2202674594E+00    0.3241668996E+00    0.1034963004E-01    0.4221454848E-01
    0.7000000000E+04    0.6099228932E+00    0.2074407432E+00    0.3468737426E+00    0.9575994258E-02    0.4303465855E-01
    0.9000000000E+04    0.6160069038E+00    0.1976396005E+00    0.3639979016E+00    0.9008488559E-02    0.4348152404E-01
    0.1100000000E+05    0.6197743972E+00    0.1896972512E+00    0.3777148215E+00    0.8561439580E-02    0.4376187010E-01
    0.1300000000E+05    0.6223250791E+00    0.1830243353E+00    0.3891292730E+00    0.8193665938E-02    0.4395418572E-01
    0.1500000000E+05    0.6241614790E+00    0.1772773626E+00    0.3988822019E+00    0.7882106141E-02    0.4409448850E-01
    0.1700000000E+05    0.6255443390E+00    0.1722370505E+00    0.4073795007E+00    0.7612501054E-02    0.4420154650E-01
    0.1900000000E+05    0.6266218906E+00    0.1677542628E+00    0.4148947704E+00    0.7375401155E-02    0.4428607573E-01
    0.2100000000E+05    0.6274844207E+00    0.1637227155E+00    0.4216212997E+00    0.7164214776E-02    0.4435463190E-01
    0.2300000000E+05    0.6281899709E+00    0.1600638801E+00    0.4277007378E+00    0.6974158493E-02    0.4441144808E-01
    0.2500000000E+05    0.6287775068E+00    0.1567180408E+00    0.4332399941E+00    0.6801650299E-02    0.4445937878E-01
    0.2700000000E+05    0.6292741368E+00    0.1536387058E+00    0.4383217366E+00    0.6643938280E-02    0.4450041880E-01
    0.2900000000E+05    0.6296992900E+00    0.1507889599E+00    0.4430111987E+00    0.6498862745E-02    0.4453600428E-01
    0.3100000000E+05    0.6300672484E+00    0.1481389992E+00    0.4473607511E+00    0.6364697981E-02    0.4456719565E-01
    0.3300000000E+05    0.6303887406E+00    0.1456644134E+00    0.4514130670E+00    0.6240043613E-02    0.4459479313E-01
    0.3500000000E+05    0.6306719798E+00    0.1433449590E+00    0.4552033706E+00    0.6123747956E-02    0.4461941208E-01
    0.3700000000E+05    0.6309233581E+00    0.1411636626E+00    0.4587610687E+00    0.6014852687E-02    0.4464153358E-01
    0.3900000000E+05    0.6311479234E+00    0.1391061544E+00    0.4621109598E+00    0.5912552080E-02    0.4466153928E-01
    0.4100000000E+05    0.6313497147E+00    0.1371601626E+00    0.4652741450E+00    0.5816162439E-02    0.4467973593E-01
    0.4300000000E+05    0.6315320010E+00    0.1353151252E+00    0.4682687241E+00    0.5725098796E-02    0.4469637292E-01
    0.4500000000E+05    0.6316974566E+00    0.1335618880E+00    0.4711103360E+00    0.5638856920E-02    0.4471165519E-01
    0.4700000000E+05    0.6318482899E+00    0.1318924660E+00    0.4738125828E+00    0.5556999224E-02    0.4472575275E-01
    0.4900000000E+05    0.6319863404E+00    0.1302998533E+00    0.4763873664E+00    0.5479143621E-02    0.4473880783E-01
    0.1000000000E+05    0.6180903792E+00    0.1934809109E+00    0.3711981717E+00    0.8773079507E-02    0.4363610704E-01
    0.3000000000E+05    0.6298896790E+00    0.1494406422E+00    0.4452255992E+00    0.6430510642E-02    0.4455209415E-01
    0.5000000000E+05    0.6320510646E+00    0.1295303905E+00    0.4776302815E+00    0.5441610144E-02    0.4474498268E-01
    0.7000000000E+05    0.6329453475E+00    0.1169951645E+00    0.4977852323E+00    0.4837560041E-02    0.4483496370E-01
    0.9000000000E+05    0.6334307459E+00    0.1080243602E+00    0.5121102345E+00    0.4413682158E-02    0.4488939456E-01
    0.1100000000E+06    0.6337339782E+00    0.1011343176E+00    0.5230623534E+00    0.4092826315E-02    0.4492695550E-01
    0.1300000000E+06    0.6339405584E+00    0.9559725850E-01    0.5318345612E+00    0.3837938431E-02    0.4495501743E-01
    0.1500000000E+06    0.6340898363E+00    0.9100438096E-01    0.5390922692E+00    0.3628528543E-02    0.4497712048E-01
    0.1700000000E+06    0.6342024144E+00    0.8710431081E-01    0.5452425141E+00    0.3452153401E-02    0.4499519585E-01
    0.1900000000E+06    0.6342901110E+00    0.8373207254E-01    0.5505513477E+00    0.3300730602E-02    0.4501039598E-01
    0.2100000000E+06    0.6343601840E+00    0.8077391936E-01    0.5552016048E+00    0.3168736518E-02    0.4502345615E-01
    0.2300000000E+06    0.6344173328E+00    0.7814832862E-01    0.5593239666E+00    0.3052242714E-02    0.4503487040E-01
    0.2500000000E+06    0.6344647324E+00    0.7579501743E-01    0.5630148437E+00    0.2948364018E-02    0.4504498466E-01
    0.2700000000E+06    0.6345046034E+00    0.7366824440E-01    0.5663472448E+00    0.2854924582E-02    0.4505404947E-01
    0.2900000000E+06    0.6345385448E+00    0.7173254217E-01    0.5693776817E+00    0.2770246616E-02    0.4506225147E-01
    0.3100000000E+06    0.6345677365E+00    0.6995989767E-01    0.5721507204E+00    0.2693011663E-02    0.4506973295E-01
    0.3300000000E+06    0.6345930677E+00    0.6832783057E-01    0.5747020757E+00    0.2622166599E-02    0.4507660470E-01
    0.3500000000E+06    0.6346152211E+00    0.6681804853E-01    0.5770607733E+00    0.2556858192E-02    0.4508295444E-01
    0.3700000000E+06    0.6346347291E+00    0.6541548427E-01    0.5792506947E+00    0.2496386468E-02    0.4508885272E-01
    0.3900000000E+06    0.6346520128E+00    0.6410759197E-01    0.5812917046E+00    0.2440170783E-02    0.4509435705E-01
    0.4100000000E+06    0.6346674096E+00    0.6288382395E-01    0.5832004885E+00    0.2387724694E-02    0.4509951488E-01
    0.4300000000E+06    0.6346811931E+00    0.6173523508E-01    0.5849911846E+00    0.2338637043E-02    0.4510436577E-01
    0.4500000000E+06    0.6346935870E+00    0.6065417961E-01    0.5866758677E+00    0.2292557500E-02    0.4510894301E-01
    0.4700000000E+06    0.6347047763E+00    0.5963407572E-01    0.5882649248E+00    0.2249185387E-02    0.4511327488E-01
    0.4900000000E+06    0.6347149149E+00    0.5866922055E-01    0.5897673494E+00    0.2208260920E-02    0.4511738557E-01
    0.1000000000E+06    0.6335981567E+00    0.1043751805E+00    0.5179160025E+00    0.4243238596E-02    0.4490968926E-01
    0.3000000000E+06    0.6345536731E+00    0.7082735439E-01    0.5707939651E+00    0.2730769924E-02    0.4506607472E-01
    0.5000000000E+06    0.6347196315E+00    0.5820593265E-01    0.5904885627E+00    0.2188644816E-02    0.4511936461E-01
    0.7000000000E+06    0.6347814678E+00    0.5091227835E-01    0.6018263262E+00    0.1882842127E-02    0.4515116428E-01
    0.9000000000E+06    0.6348108254E+00    0.4596946950E-01    0.6094925147E+00    0.1678982114E-02    0.4517374941E-01
    0.1100000000E+07    0.6348263683E+00    0.4231892063E-01    0.6151456665E+00    0.1530289654E-02    0.4519123764E-01
    0.1300000000E+07    0.6348349690E+00    0.3947224875E-01    0.6195488347E+00    0.1415504542E-02    0.4520549750E-01
    0.1500000000E+07    0.6348396979E+00    0.3716744715E-01    0.6231105782E+00    0.1323352401E-02    0.4521753162E-01
    0.1700000000E+07    0.6348421098E+00    0.3524917743E-01    0.6260727617E+00    0.1247211976E-02    0.4522793934E-01
    0.1900000000E+07    0.6348430646E+00    0.3361850826E-01    0.6285892392E+00    0.1182900135E-02    0.4523710709E-01
    0.2100000000E+07    0.6348430697E+00    0.3220893857E-01    0.6307633286E+00    0.1127624579E-02    0.4524529843E-01
    0.2300000000E+07    0.6348424400E+00    0.3097383839E-01    0.6326674152E+00    0.1079439435E-02    0.4525270110E-01
    0.2500000000E+07    0.6348413789E+00    0.2987938073E-01    0.6343539718E+00    0.1036940898E-02    0.4525945348E-01
    0.2700000000E+07    0.6348400219E+00    0.2890033026E-01    0.6358621192E+00    0.9990869565E-03    0.4526566053E-01
    0.2900000000E+07    0.6348384614E+00    0.2801741478E-01    0.6372217172E+00    0.9650854711E-03    0.4527140371E-01
    0.3100000000E+07    0.6348367623E+00    0.2721561995E-01    0.6384560171E+00    0.9343219144E-03    0.4527674751E-01
    0.3300000000E+07    0.6348349703E+00    0.2648304616E-01    0.6395834382E+00    0.9063111480E-03    0.4528174386E-01
    0.3500000000E+07    0.6348331184E+00    0.2581012053E-01    0.6406187923E+00    0.8806643145E-03    0.4528643519E-01
    0.3700000000E+07    0.6348312308E+00    0.2518904034E-01    0.6415741477E+00    0.8570655421E-03    0.4529085659E-01
    0.3900000000E+07    0.6348293250E+00    0.2461337140E-01    0.6424594527E+00    0.8352551960E-03    0.4529503744E-01
    0.4100000000E+07    0.6348274140E+00    0.2407775280E-01    0.6432829933E+00    0.8150176057E-03    0.4529900258E-01
    0.4300000000E+07    0.6348255074E+00    0.2357767624E-01    0.6440517357E+00    0.7961719188E-03    0.4530277319E-01
    0.4500000000E+07    0.6348236125E+00    0.2310931841E-01    0.6447715861E+00    0.7785651808E-03    0.4530636745E-01
    0.4700000000E+07    0.6348217343E+00    0.2266941226E-01    0.6454475899E+00    0.7620670264E-03    0.4530980115E-01
    0.4900000000E+07    0.6348198767E+00    0.2225514658E-01    0.6460840876E+00    0.7465655573E-03    0.4531308802E-01
    0.1000000000E+07    0.6348197590E+00    0.4402074397E-01    0.6125111848E+00    0.1599403546E-02    0.4518298476E-01
    0.3000000000E+07    0.6348376260E+00    0.2760718341E-01    0.6378532814E+00    0.9493318593E-03    0.4527412204E-01
    0.5000000000E+07    0.6348189566E+00    0.2205685527E-01    0.6463887159E+00    0.7391578500E-03    0.4531468022E-01
    0.7000000000E+07    0.6348019789E+00    0.1898746867E-01    0.6511010919E+00    0.6255450950E-03    0.4534109315E-01
    0.9000000000E+07    0.6347876290E+00    0.1696188590E-01    0.6542077372E+00    0.5517301302E-03    0.4536071810E-01
    0.1100000000E+08    0.6347753845E+00    0.1549321778E-01    0.6564585815E+00    0.4988451163E-03    0.4537634191E-01
    0.1300000000E+08    0.6347647582E+00    0.1436370384E-01    0.6581886619E+00    0.4585644964E-03    0.4538932406E-01
    0.1500000000E+08    0.6347553916E+00    0.1345912075E-01    0.6595735766E+00    0.4265670601E-03    0.4540043068E-01
    0.1700000000E+08    0.6347470262E+00    0.1271291795E-01    0.6607155708E+00    0.4003569450E-03    0.4541013637E-01
    0.1900000000E+08    0.6347394731E+00    0.1208330348E-01    0.6616788189E+00    0.3783784109E-03    0.4541875562E-01
    0.2100000000E+08    0.6347325907E+00    0.1154251203E-01    0.6625059378E+00    0.3596045488E-03    0.4542650760E-01
    0.2300000000E+08    0.6347262709E+00    0.1107126777E-01    0.6632265027E+00    0.3433265232E-03    0.4543355119E-01
    0.2500000000E+08    0.6347204297E+00    0.1065570726E-01    0.6638617778E+00    0.3290371618E-03    0.4544000524E-01
    0.2700000000E+08    0.6347150001E+00    0.1028556610E-01    0.6644275021E+00    0.3163627173E-03    0.4544596096E-01
