  Pressure (Pa) 22mC5-400 (mol/kg) 2mC6-400 (mol/kg) 3mC6-400 (mol/kg) 33mC5-400 (mol/kg) 23mC5-400 (mol/kg)
    0.1000000000E+01    0.2643801030E-02    0.3183426113E-02    0.1587592309E-02    0.4535746999E-03    0.9284460961E-04
    0.3000000000E+01    0.7814154391E-02    0.9366716118E-02    0.4699697303E-02    0.1334498311E-02    0.2744191867E-03
    0.5000000000E+01    0.1283513089E-01    0.1531608378E-01    0.7730690072E-02    0.2181998682E-02    0.4507516036E-03
    0.7000000000E+01    0.1771455055E-01    0.2104373746E-01    0.1068398347E-01    0.2997817416E-02    0.6221162532E-03
    0.9000000000E+01    0.2245968061E-01    0.2656105755E-01    0.1356279791E-01    0.3783578125E-02    0.7887681329E-03
    0.1100000000E+02    0.2707728363E-01    0.3187866560E-01    0.1637017486E-01    0.4540796275E-02    0.9509445344E-03
    0.1300000000E+02    0.3157366074E-01    0.3700648655E-01    0.1910898914E-01    0.5270888048E-02    0.1108866559E-02
    0.1500000000E+02    0.3595469048E-01    0.4195380498E-01    0.2178196030E-01    0.5975178353E-02    0.1262740482E-02
    0.1700000000E+02    0.4022586379E-01    0.4672931595E-01    0.2439166302E-01    0.6654908064E-02    0.1412758977E-02
    0.1900000000E+02    0.4439231558E-01    0.5134117103E-01    0.2694053672E-01    0.7311240586E-02    0.1559102230E-02
    0.2100000000E+02    0.4845885330E-01    0.5579702016E-01    0.2943089435E-01    0.7945267803E-02    0.1701938933E-02
    0.2300000000E+02    0.5242998272E-01    0.6010404959E-01    0.3186493060E-01    0.8558015494E-02    0.1841427196E-02
    0.2500000000E+02    0.5630993142E-01    0.6426901646E-01    0.3424472936E-01    0.9150448260E-02    0.1977715368E-02
    0.2700000000E+02    0.6010267004E-01    0.6829828039E-01    0.3657227074E-01    0.9723474013E-02    0.2110942780E-02
    0.2900000000E+02    0.6381193162E-01    0.7219783219E-01    0.3884943745E-01    0.1027794808E-01    0.2241240429E-02
    0.3100000000E+02    0.6744122926E-01    0.7597332020E-01    0.4107802080E-01    0.1081467694E-01    0.2368731594E-02
    0.3300000000E+02    0.7099387218E-01    0.7963007440E-01    0.4325972620E-01    0.1133442169E-01    0.2493532401E-02
    0.3500000000E+02    0.7447298042E-01    0.8317312845E-01    0.4539617832E-01    0.1183790114E-01    0.2615752336E-02
    0.3700000000E+02    0.7788149828E-01    0.8660723998E-01    0.4748892581E-01    0.1232579474E-01    0.2735494721E-02
    0.3900000000E+02    0.8122220661E-01    0.8993690922E-01    0.4953944579E-01    0.1279874523E-01    0.2852857140E-02
    0.4100000000E+02    0.8449773411E-01    0.9316639609E-01    0.5154914791E-01    0.1325736108E-01    0.2967931842E-02
    0.4300000000E+02    0.8771056770E-01    0.9629973603E-01    0.5351937823E-01    0.1370221869E-01    0.3080806097E-02
    0.4500000000E+02    0.9086306202E-01    0.9934075454E-01    0.5545142279E-01    0.1413386457E-01    0.3191562536E-02
    0.4700000000E+02    0.9395744821E-01    0.1022930806E+00    0.5734651094E-01    0.1455281715E-01    0.3300279457E-02
    0.4900000000E+02    0.9699584198E-01    0.1051601590E+00    0.5920581848E-01    0.1495956861E-01    0.3407031105E-02
    0.1000000000E+02    0.2478401884E-01    0.2924418963E-01    0.1497523263E-01    0.4165664279E-02    0.8704015868E-03
    0.3000000000E+02    0.6563636451E-01    0.7410074385E-01    0.3996969350E-01    0.1054848207E-01    0.2305329403E-02
    0.5000000000E+02    0.9849467316E-01    0.1065627595E+00    0.6012240802E-01    0.1515851595E-01    0.3459692111E-02
    0.7000000000E+02    0.1259690056E+00    0.1308532399E+00    0.7682509683E-01    0.1859893205E-01    0.4425082195E-02
    0.9000000000E+02    0.1496027078E+00    0.1494944523E+00    0.9097396695E-01    0.2123023111E-01    0.5255661660E-02
    0.1100000000E+03    0.1703706255E+00    0.1640835794E+00    0.1031735150E+00    0.2328084729E-01    0.5985643094E-02
    0.1300000000E+03    0.1889214489E+00    0.1756795113E+00    0.1138471149E+00    0.2490232705E-01    0.6637793376E-02
    0.1500000000E+03    0.2057054885E+00    0.1850107452E+00    0.1233006797E+00    0.2619900133E-01    0.7227917396E-02
    0.1700000000E+03    0.2210465179E+00    0.1925940058E+00    0.1317611338E+00    0.2724492236E-01    0.7767379181E-02
    0.1900000000E+03    0.2351843491E+00    0.1988053070E+00    0.1394006284E+00    0.2809401397E-01    0.8264596013E-02
    0.2100000000E+03    0.2483011940E+00    0.2039242878E+00    0.1463523197E+00    0.2878640686E-01    0.8725963565E-02
    0.2300000000E+03    0.2605386038E+00    0.2081628433E+00    0.1527209598E+00    0.2935253122E-01    0.9156450389E-02
    0.2500000000E+03    0.2720087053E+00    0.2116841677E+00    0.1585901934E+00    0.2981583985E-01    0.9559992287E-02
    0.2700000000E+03    0.2828018642E+00    0.2146157512E+00    0.1640276998E+00    0.3019466730E-01    0.9939761257E-02
    0.2900000000E+03    0.2929920386E+00    0.2170584510E+00    0.1690888909E+00    0.3050352799E-01    0.1029835340E-01
    0.3100000000E+03    0.3026406002E+00    0.2190929508E+00    0.1738196191E+00    0.3075404093E-01    0.1063792303E-01
    0.3300000000E+03    0.3117991146E+00    0.2207844424E+00    0.1782581917E+00    0.3095560022E-01    0.1096028027E-01
    0.3500000000E+03    0.3205113983E+00    0.2221860737E+00    0.1824368927E+00    0.3111586904E-01    0.1126696324E-01
    0.3700000000E+03    0.3288150653E+00    0.2233415243E+00    0.1863831465E+00    0.3124114887E-01    0.1155929235E-01
    0.3900000000E+03    0.3367427056E+00    0.2242869550E+00    0.1901204191E+00    0.3133665912E-01    0.1183841168E-01
    0.4100000000E+03    0.3443227950E+00    0.2250525011E+00    0.1936689244E+00    0.3140675127E-01    0.1210532088E-01
    0.4300000000E+03    0.3515804063E+00    0.2256634278E+00    0.1970461822E+00    0.3145507493E-01    0.1236090015E-01
    0.4500000000E+03    0.3585377706E+00    0.2261410350E+00    0.2002674639E+00    0.3148470760E-01    0.1260592997E-01
    0.4700000000E+03    0.3652147253E+00    0.2265033696E+00    0.2033461516E+00    0.3149825722E-01    0.1284110678E-01
    0.4900000000E+03    0.3716290751E+00    0.2267657934E+00    0.2062940294E+00    0.3149794379E-01    0.1306705568E-01
    0.1000000000E+03    0.1602985667E+00    0.1572197475E+00    0.9728760637E-01    0.2231728151E-01    0.5631601363E-02
    0.3000000000E+03    0.2978805953E+00    0.2181223337E+00    0.1714930117E+00    0.3063544516E-01    0.1047039578E-01
    0.5000000000E+03    0.3747428545E+00    0.2268637190E+00    0.2077222198E+00    0.3149319249E-01    0.1317674807E-01
    0.7000000000E+03    0.4264363108E+00    0.2259260343E+00    0.2314129368E+00    0.3100950476E-01    0.1499864980E-01
    0.9000000000E+03    0.4636719760E+00    0.2225818507E+00    0.2490003139E+00    0.3023199800E-01    0.1631220693E-01
    0.1100000000E+04    0.4916025386E+00    0.2187162682E+00    0.2630005202E+00    0.2942633065E-01    0.1729841752E-01
    0.1300000000E+04    0.5131818140E+00    0.2148975637E+00    0.2746427196E+00    0.2866695525E-01    0.1806108099E-01
    0.1500000000E+04    0.5302530847E+00    0.2112964824E+00    0.2846159849E+00    0.2797151010E-01    0.1866499687E-01
    0.1700000000E+04    0.5440274599E+00    0.2079508423E+00    0.2933446446E+00    0.2733952876E-01    0.1915275693E-01
    0.1900000000E+04    0.5553306436E+00    0.2048529465E+00    0.3011084299E+00    0.2676507626E-01    0.1955340963E-01
    0.2100000000E+04    0.5647423231E+00    0.2019808139E+00    0.3081015285E+00    0.2624111145E-01    0.1988735571E-01
    0.2300000000E+04    0.5726795955E+00    0.1993096902E+00    0.3144643138E+00    0.2576097214E-01    0.2016927899E-01
    0.2500000000E+04    0.5794490176E+00    0.1968161796E+00    0.3203016133E+00    0.2531881069E-01    0.2040997543E-01
    0.2700000000E+04    0.5852801568E+00    0.1944795213E+00    0.3256938272E+00    0.2490964543E-01    0.2061753242E-01
    0.2900000000E+04    0.5903478145E+00    0.1922817638E+00    0.3307040092E+00    0.2452928075E-01    0.2079811008E-01
    0.3100000000E+04    0.5947870954E+00    0.1902075398E+00    0.3353825504E+00    0.2417419281E-01    0.2095647121E-01
    0.3300000000E+04    0.5987038410E+00    0.1882437255E+00    0.3397703779E+00    0.2384141721E-01    0.2109634829E-01
    0.3500000000E+04    0.6021819888E+00    0.1863790949E+00    0.3439012009E+00    0.2352845045E-01    0.2122070233E-01
    0.3700000000E+04    0.6052888514E+00    0.1846040104E+00    0.3478031253E+00    0.2323316754E-01    0.2133190872E-01
    0.3900000000E+04    0.6080789621E+00    0.1829101588E+00    0.3514998392E+00    0.2295375467E-01    0.2143189254E-01
    0.4100000000E+04    0.6105969158E+00    0.1812903321E+00    0.3550114995E+00    0.2268865469E-01    0.2152222856E-01
    0.4300000000E+04    0.6128794955E+00    0.1797382469E+00    0.3583554051E+00    0.2243652306E-01    0.2160421617E-01
    0.4500000000E+04    0.6149572820E+00    0.1782483969E+00    0.3615465174E+00    0.2219619232E-01    0.2167893602E-01
    0.4700000000E+04    0.6168558873E+00    0.1768159317E+00    0.3645978659E+00    0.2196664326E-01    0.2174729350E-01
    0.4900000000E+04    0.6185969085E+00    0.1754365576E+00    0.3675208696E+00    0.2174698154E-01    0.2181005236E-01
    0.1000000000E+04    0.4785815750E+00    0.2206639818E+00    0.2563542475E+00    0.2982590559E-01    0.1683854195E-01
    0.3000000000E+04    0.5926387995E+00    0.1912300788E+00    0.3330819852E+00    0.2434877434E-01    0.2087981375E-01
    0.5000000000E+04    0.6194141630E+00    0.1747655697E+00    0.3689374344E+00    0.2164060830E-01    0.2183953882E-01
    0.7000000000E+04    0.6307476581E+00    0.1633940131E+00    0.3924502982E+00    0.1988203263E-01    0.2225079708E-01
    0.9000000000E+04    0.6369084237E+00    0.1547067788E+00    0.4098457649E+00    0.1858826051E-01    0.2247720253E-01
    0.1100000000E+05    0.6407535015E+00    0.1476958848E+00    0.4235736505E+00    0.1757081961E-01    0.2262033402E-01
    0.1300000000E+05    0.6433727176E+00    0.1418361057E+00    0.4348580532E+00    0.1673663964E-01    0.2271910027E-01
    0.1500000000E+05    0.6452677983E+00    0.1368165965E+00    0.4443999803E+00    0.1603279496E-01    0.2279148939E-01
    0.1700000000E+05    0.6467006923E+00    0.1324374147E+00    0.4526385223E+00    0.1542627004E-01    0.2284693304E-01
    0.1900000000E+05    0.6478211006E+00    0.1285621218E+00    0.4598668489E+00    0.1489507566E-01    0.2289084460E-01
    0.2100000000E+05    0.6487206150E+00    0.1250933886E+00    0.4662903272E+00    0.1442383256E-01    0.2292655052E-01
    0.2300000000E+05    0.6494583440E+00    0.1219593338E+00    0.4720583128E+00    0.1400136806E-01    0.2295620694E-01
    0.2500000000E+05    0.6500741044E+00    0.1191053669E+00    0.4772827494E+00    0.1361931486E-01    0.2298127264E-01
    0.2700000000E+05    0.6505956792E+00    0.1164890624E+00    0.4820496454E+00    0.1327124838E-01    0.2300276999E-01
    0.2900000000E+05    0.6510430341E+00    0.1140768059E+00    0.4864264685E+00    0.1295213182E-01    0.2302143695E-01
    0.3100000000E+05    0.6514308805E+00    0.1118415210E+00    0.4904670849E+00    0.1265794591E-01    0.2303781966E-01
    0.3300000000E+05    0.6517702935E+00    0.1097610854E+00    0.4942151600E+00    0.1238543417E-01    0.2305233110E-01
    0.3500000000E+05    0.6520697678E+00    0.1078171981E+00    0.4977065616E+00    0.1213192296E-01    0.2306528943E-01
    0.3700000000E+05    0.6523359265E+00    0.1059945531E+00    0.5009710972E+00    0.1189519152E-01    0.2307694378E-01
    0.3900000000E+05    0.6525740088E+00    0.1042802242E+00    0.5040337943E+00    0.1167337614E-01    0.2308749211E-01
    0.4100000000E+05    0.6527882128E+00    0.1026631997E+00    0.5069158609E+00    0.1146489835E-01    0.2309709374E-01
    0.4300000000E+05    0.6529819411E+00    0.1011340253E+00    0.5096354175E+00    0.1126841017E-01    0.2310587837E-01
    0.4500000000E+05    0.6531579811E+00    0.9968452625E-01    0.5122080624E+00    0.1108275188E-01    0.2311395271E-01
    0.4700000000E+05    0.6533186370E+00    0.9830758847E-01    0.5146473140E+00    0.1090691891E-01    0.2312140536E-01
    0.4900000000E+05    0.6534658307E+00    0.9699698464E-01    0.5169649604E+00    0.1074003576E-01    0.2312831055E-01
    0.1000000000E+05    0.6390315773E+00    0.1510315127E+00    0.4170745974E+00    0.1805212982E-01    0.2255600899E-01
    0.3000000000E+05    0.6512436329E+00    0.1129385257E+00    0.4884858665E+00    0.1280214154E-01    0.2302988543E-01
    0.5000000000E+05    0.6535348942E+00    0.9636481933E-01    0.5180814624E+00    0.1065970681E-01    0.2313157781E-01
    0.7000000000E+05    0.6544931898E+00    0.8616321138E-01    0.5359788063E+00    0.9378282931E-02    0.2317927587E-01
    0.9000000000E+05    0.6550175370E+00    0.7897586066E-01    0.5484615431E+00    0.8492265142E-02    0.2320820484E-01
    0.1100000000E+06    0.6553474108E+00    0.7352054990E-01    0.5578721259E+00    0.7829089923E-02    0.2322819818E-01
    0.1300000000E+06    0.6555736193E+00    0.6917761704E-01    0.5653265771E+00    0.7306978811E-02    0.2324314997E-01
    0.1500000000E+06    0.6557381180E+00    0.6560314535E-01    0.5714382562E+00    0.6881202699E-02    0.2325493478E-01
    0.1700000000E+06    0.6558629482E+00    0.6258776588E-01    0.5765778468E+00    0.6524847307E-02    0.2326457687E-01
    0.1900000000E+06    0.6559607910E+00    0.5999524135E-01    0.5809851769E+00    0.6220568558E-02    0.2327268821E-01
    0.2100000000E+06    0.6560394549E+00    0.5773233577E-01    0.5848236140E+00    0.5956594978E-02    0.2327965960E-01
    0.2300000000E+06    0.6561040090E+00    0.5573266406E-01    0.5882090268E+00    0.5724605762E-02    0.2328575380E-01
    0.2500000000E+06    0.6561578858E+00    0.5394742391E-01    0.5912263130E+00    0.5518523244E-02    0.2329115492E-01
    0.2700000000E+06    0.6562034919E+00    0.5233978026E-01    0.5939393685E+00    0.5333786601E-02    0.2329599636E-01
    0.2900000000E+06    0.6562425637E+00    0.5088130832E-01    0.5963973762E+00    0.5166894801E-02    0.2330037753E-01
    0.3100000000E+06    0.6562763857E+00    0.4954965573E-01    0.5986389259E+00    0.5015107958E-02    0.2330437426E-01
    0.3300000000E+06    0.6563059277E+00    0.4832695706E-01    0.6006947991E+00    0.4876245875E-02    0.2330804560E-01
    0.3500000000E+06    0.6563319357E+00    0.4719872928E-01    0.6025899045E+00    0.4748548375E-02    0.2331143831E-01
    0.3700000000E+06    0.6563549929E+00    0.4615308406E-01    0.6043446548E+00    0.4630576157E-02    0.2331459002E-01
    0.3900000000E+06    0.6563755617E+00    0.4518015449E-01    0.6059759664E+00    0.4521138926E-02    0.2331753141E-01
    0.4100000000E+06    0.6563940130E+00    0.4427167013E-01    0.6074979988E+00    0.4419242341E-02    0.2332028779E-01
    0.4300000000E+06    0.6564106482E+00    0.4342063699E-01    0.6089227112E+00    0.4324048199E-02    0.2332288025E-01
    0.4500000000E+06    0.6564257145E+00    0.4262109298E-01    0.6102602858E+00    0.4234844114E-02    0.2332532657E-01
    0.4700000000E+06    0.6564394164E+00    0.4186791856E-01    0.6115194566E+00    0.4151020118E-02    0.2332764184E-01
    0.4900000000E+06    0.6564519247E+00    0.4115668846E-01    0.6127077651E+00    0.4072050393E-02    0.2332983897E-01
    0.1000000000E+06    0.6551993835E+00    0.7607950456E-01    0.5534644845E+00    0.8139160058E-02    0.2321900460E-01
    0.3000000000E+06    0.6562600642E+00    0.5020083655E-01    0.5975431275E+00    0.5089260765E-02    0.2330241993E-01
    0.5000000000E+06    0.6564577771E+00    0.4081558003E-01    0.6132774276E+00    0.4034240958E-02    0.2333089678E-01
    0.7000000000E+06    0.6565374282E+00    0.3547944011E-01    0.6221675470E+00    0.3448419752E-02    0.2334789579E-01
    0.9000000000E+06    0.6565789759E+00    0.3189952756E-01    0.6281091966E+00    0.3061692637E-02    0.2335997083E-01
    0.1100000000E+07    0.6566037248E+00    0.2927435820E-01    0.6324546559E+00    0.2781566531E-02    0.2336932160E-01
    0.1300000000E+07    0.6566196984E+00    0.2723833915E-01    0.6358180699E+00    0.2566454939E-02    0.2337694660E-01
    0.1500000000E+07    0.6566305659E+00    0.2559697815E-01    0.6385251340E+00    0.2394480673E-02    0.2338338171E-01
    0.1700000000E+07    0.6566382309E+00    0.2423572284E-01    0.6407672126E+00    0.2252876425E-02    0.2338894727E-01
    0.1900000000E+07    0.6566437738E+00    0.2308200946E-01    0.6426652891E+00    0.2133617612E-02    0.2339384986E-01
    0.2100000000E+07    0.6566478498E+00    0.2208728098E-01    0.6443001888E+00    0.2031370851E-02    0.2339823038E-01
    0.2300000000E+07    0.6566508778E+00    0.2121762125E-01    0.6457282880E+00    0.1942433215E-02    0.2340218920E-01
    0.2500000000E+07    0.6566531367E+00    0.2044850909E-01    0.6469902972E+00    0.1864141927E-02    0.2340580031E-01
    0.2700000000E+07    0.6566548185E+00    0.1976170569E-01    0.6481164641E+00    0.1794526092E-02    0.2340911982E-01
    0.2900000000E+07    0.6566560595E+00    0.1914331895E-01    0.6491298060E+00    0.1732091233E-02    0.2341219128E-01
    0.3100000000E+07    0.6566569585E+00    0.1858255172E-01    0.6500481968E+00    0.1675680605E-02    0.2341504918E-01
    0.3300000000E+07    0.6566575888E+00    0.1807086516E-01    0.6508857609E+00    0.1624382905E-02    0.2341772128E-01
    0.3500000000E+07    0.6566580056E+00    0.1760140356E-01    0.6516538305E+00    0.1577469067E-02    0.2342023026E-01
    0.3700000000E+07    0.6566582512E+00    0.1716858898E-01    0.6523616197E+00    0.1534347888E-02    0.2342259491E-01
    0.3900000000E+07    0.6566583584E+00    0.1676782946E-01    0.6530167091E+00    0.1494534200E-02    0.2342483092E-01
    0.4100000000E+07    0.6566583530E+00    0.1639530492E-01    0.6536254017E+00    0.1457625582E-02    0.2342695157E-01
    0.4300000000E+07    0.6566582555E+00    0.1604780743E-01    0.6541929877E+00    0.1423285046E-02    0.2342896819E-01
    0.4500000000E+07    0.6566580822E+00    0.1572262010E-01    0.6547239450E+00    0.1391227951E-02    0.2343089052E-01
    0.4700000000E+07    0.6566578465E+00    0.1541742423E-01    0.6552220938E+00    0.1361211987E-02    0.2343272697E-01
    0.4900000000E+07    0.6566575592E+00    0.1513022698E-01    0.6556907158E+00    0.1333029401E-02    0.2343448490E-01
    0.1000000000E+07    0.6565927948E+00    0.3049618118E-01    0.6304333907E+00    0.2911566642E-02    0.2336490880E-01
    0.3000000000E+07    0.6566565467E+00    0.1885631176E-01    0.6495999125E+00    0.1703194747E-02    0.2341364505E-01
    0.5000000000E+07    0.6566573989E+00    0.1499282995E-01    0.6559148561E+00    0.1319568626E-02    0.2343533646E-01
    0.7000000000E+07    0.6566529675E+00    0.1287198256E-01    0.6593703262E+00    0.1113679912E-02    0.2344946329E-01
    0.9000000000E+07    0.6566478783E+00    0.1147848344E-01    0.6616361016E+00    0.9804823506E-03    0.2345995986E-01
    0.1100000000E+08    0.6566429770E+00    0.1047115095E-01    0.6632715485E+00    0.8853321448E-03    0.2346831653E-01
    0.1300000000E+08    0.6566384358E+00    0.9698174036E-02    0.6645250483E+00    0.8130179730E-03    0.2347526036E-01
    0.1500000000E+08    0.6566342649E+00    0.9080215359E-02    0.6655262079E+00    0.7556727041E-03    0.2348120107E-01
    0.1700000000E+08    0.6566304331E+00    0.8571181093E-02    0.6663502353E+00    0.7087648024E-03    0.2348639249E-01
    0.1900000000E+08    0.6566269012E+00    0.8142191394E-02    0.6670442042E+00    0.6694758263E-03    0.2349100283E-01
    0.2100000000E+08    0.6566236319E+00    0.7774095562E-02    0.6676393032E+00    0.6359487642E-03    0.2349514930E-01
    0.2300000000E+08    0.6566205925E+00    0.7453619599E-02    0.6681571341E+00    0.6069037655E-03    0.2349891687E-01
    0.2500000000E+08    0.6566177549E+00    0.7171229852E-02    0.6686132017E+00    0.5814263117E-03    0.2350236912E-01
    0.2700000000E+08    0.6566150954E+00    0.6919876154E-02    0.6690189649E+00    0.5588432556E-03    0.2350555482E-01
