  Pressure (Pa) 22mC5-400 (mol/kg) 2mC6-400 (mol/kg) 3mC6-400 (mol/kg) 33mC5-400 (mol/kg) 23mC5-400 (mol/kg)
    0.1000000000E+01    0.2643633024E-02    0.3185165566E-02    0.1059136556E-02    0.5186502138E-03    0.9283871246E-04
    0.3000000000E+01    0.7812700220E-02    0.9381957298E-02    0.3139631957E-02    0.1527586261E-02    0.2743681438E-03
    0.5000000000E+01    0.1283124331E-01    0.1535731581E-01    0.5171384379E-02    0.2500327076E-02    0.4506151445E-03
    0.7000000000E+01    0.1770721206E-01    0.2112247120E-01    0.7156257565E-02    0.3438705190E-02    0.6218586597E-03
    0.9000000000E+01    0.2244798928E-01    0.2668790094E-01    0.9096019453E-02    0.4344430482E-02    0.7883577440E-03
    0.1100000000E+02    0.2706044069E-01    0.3206339269E-01    0.1099234830E-01    0.5219100409E-02    0.9503533089E-03
    0.1300000000E+02    0.3155095959E-01    0.3725810085E-01    0.1284683834E-01    0.6064209209E-02    0.1108069690E-02
    0.1500000000E+02    0.3592550692E-01    0.4228059756E-01    0.1466100504E-01    0.6881156209E-02    0.1261716054E-02
    0.1700000000E+02    0.4018964740E-01    0.4713891886E-01    0.1643628990E-01    0.7671253338E-02    0.1411487667E-02
    0.1900000000E+02    0.4434858208E-01    0.5184060639E-01    0.1817406498E-01    0.8435731921E-02    0.1557567032E-02
    0.2100000000E+02    0.4840717769E-01    0.5639274528E-01    0.1987563708E-01    0.9175748850E-02    0.1700124925E-02
    0.2300000000E+02    0.5236999325E-01    0.6080199852E-01    0.2154225157E-01    0.9892392184E-02    0.1839321324E-02
    0.2500000000E+02    0.5624130417E-01    0.6507463832E-01    0.2317509601E-01    0.1058668625E-01    0.1975306255E-02
    0.2700000000E+02    0.6002512406E-01    0.6921657459E-01    0.2477530350E-01    0.1125959629E-01    0.2108220560E-02
    0.2900000000E+02    0.6372522464E-01    0.7323338100E-01    0.2634395576E-01    0.1191203271E-01    0.2238196592E-02
    0.3100000000E+02    0.6734515380E-01    0.7713031879E-01    0.2788208609E-01    0.1254485495E-01    0.2365358852E-02
    0.3300000000E+02    0.7088825208E-01    0.8091235852E-01    0.2939068203E-01    0.1315887503E-01    0.2489824565E-02
    0.3500000000E+02    0.7435766776E-01    0.8458420012E-01    0.3087068791E-01    0.1375486082E-01    0.2611704208E-02
    0.3700000000E+02    0.7775637055E-01    0.8815029116E-01    0.3232300719E-01    0.1433353901E-01    0.2731101995E-02
    0.3900000000E+02    0.8108716421E-01    0.9161484369E-01    0.3374850468E-01    0.1489559788E-01    0.2848116316E-02
    0.4100000000E+02    0.8435269810E-01    0.9498184983E-01    0.3514800863E-01    0.1544168981E-01    0.2962840142E-02
    0.4300000000E+02    0.8755547775E-01    0.9825509593E-01    0.3652231261E-01    0.1597243360E-01    0.3075361400E-02
    0.4500000000E+02    0.9069787456E-01    0.1014381759E+00    0.3787217737E-01    0.1648841665E-01    0.3185763307E-02
    0.4700000000E+02    0.9378213480E-01    0.1045345031E+00    0.3919833248E-01    0.1699019690E-01    0.3294124692E-02
    0.4900000000E+02    0.9681038780E-01    0.1075473221E+00    0.4050147801E-01    0.1747830470E-01    0.3400520279E-02
    0.1000000000E+02    0.2476984555E-01    0.2939880270E-01    0.1004951146E-01    0.4785551659E-02    0.8699040741E-03
    0.3000000000E+02    0.6554499718E-01    0.7519651624E-01    0.2711677340E-01    0.1223084378E-01    0.2302121953E-02
    0.5000000000E+02    0.9830414691E-01    0.1090233862E+00    0.4114463323E-01    0.1771739003E-01    0.3453003195E-02
    0.7000000000E+02    0.1256786367E+00    0.1348356198E+00    0.5294967830E-01    0.2189168094E-01    0.4414887355E-02
    0.9000000000E+02    0.1492191662E+00    0.1550260692E+00    0.6307473859E-01    0.2514502787E-01    0.5242194682E-02
    0.1100000000E+03    0.1699027784E+00    0.1711290097E+00    0.7189548725E-01    0.2772850696E-01    0.5969215001E-02
    0.1300000000E+03    0.1883783812E+00    0.1841738855E+00    0.7968067490E-01    0.2981068917E-01    0.6618722906E-02
    0.1500000000E+03    0.2050957590E+00    0.1948770082E+00    0.8662797518E-01    0.3150894207E-01    0.7206504879E-02
    0.1700000000E+03    0.2203779173E+00    0.2037519074E+00    0.9288625641E-01    0.3290745761E-01    0.7743898044E-02
    0.1900000000E+03    0.2344638649E+00    0.2111760401E+00    0.9856993376E-01    0.3406815511E-01    0.8239291509E-02
    0.2100000000E+03    0.2475350554E+00    0.2174327867E+00    0.1037685118E+00    0.3503754795E-01    0.8699054361E-02
    0.2300000000E+03    0.2597323553E+00    0.2227388078E+00    0.1085531037E+00    0.3585121826E-01    0.9128131130E-02
    0.2500000000E+03    0.2711672845E+00    0.2272623940E+00    0.1129809921E+00    0.3653681954E-01    0.9530436333E-02
    0.2700000000E+03    0.2819296754E+00    0.2311360896E+00    0.1170988877E+00    0.3711614297E-01    0.9909123262E-02
    0.2900000000E+03    0.2920930188E+00    0.2344655719E+00    0.1209453010E+00    0.3760657134E-01    0.1026677162E-01
    0.3100000000E+03    0.3017182765E+00    0.2373360197E+00    0.1245522981E+00    0.3802212230E-01    0.1060552133E-01
    0.3300000000E+03    0.3108566536E+00    0.2398167621E+00    0.1279468199E+00    0.3837421008E-01    0.1092716987E-01
    0.3500000000E+03    0.3195516489E+00    0.2419647242E+00    0.1311516873E+00    0.3867221034E-01    0.1123324422E-01
    0.3700000000E+03    0.3278405951E+00    0.2438270182E+00    0.1341863761E+00    0.3892388510E-01    0.1152505491E-01
    0.3900000000E+03    0.3357558322E+00    0.2454429160E+00    0.1370676221E+00    0.3913570640E-01    0.1180373724E-01
    0.4100000000E+03    0.3433256136E+00    0.2468453696E+00    0.1398098975E+00    0.3931310572E-01    0.1207028305E-01
    0.4300000000E+03    0.3505748127E+00    0.2480621936E+00    0.1424257905E+00    0.3946066828E-01    0.1232556556E-01
    0.4500000000E+03    0.3575254821E+00    0.2491169957E+00    0.1449263101E+00    0.3958228587E-01    0.1257035897E-01
    0.4700000000E+03    0.3641972984E+00    0.2500299146E+00    0.1473211325E+00    0.3968127809E-01    0.1280535408E-01
    0.4900000000E+03    0.3706079212E+00    0.2508182097E+00    0.1496188024E+00    0.3976048940E-01    0.1303117088E-01
    0.1000000000E+03    0.1598717237E+00    0.1635150808E+00    0.6762935417E-01    0.2650848454E-01    0.5616613532E-02
    0.3000000000E+03    0.2969695063E+00    0.2359535158E+00    0.1227769357E+00    0.3782293951E-01    0.1043838938E-01
    0.5000000000E+03    0.3737203249E+00    0.2511703486E+00    0.1507336073E+00    0.3979345576E-01    0.1314081437E-01
    0.7000000000E+03    0.4254344162E+00    0.2543633421E+00    0.1693854935E+00    0.3985741206E-01    0.1496343145E-01
    0.9000000000E+03    0.4627388404E+00    0.2539269953E+00    0.1834388917E+00    0.3939304515E-01    0.1627939787E-01
    0.1100000000E+04    0.4907521094E+00    0.2522456770E+00    0.1947647376E+00    0.3878385978E-01    0.1726851032E-01
    0.1300000000E+04    0.5124137097E+00    0.2501428844E+00    0.2042854731E+00    0.3815550587E-01    0.1803406407E-01
    0.1500000000E+04    0.5295612565E+00    0.2479341703E+00    0.2125213539E+00    0.3755099819E-01    0.1864065894E-01
    0.1700000000E+04    0.5434040528E+00    0.2457461795E+00    0.2197941789E+00    0.3698372518E-01    0.1913082280E-01
    0.1900000000E+04    0.5547676890E+00    0.2436290750E+00    0.2263168513E+00    0.3645590582E-01    0.1953359986E-01
    0.2100000000E+04    0.5642324326E+00    0.2416003971E+00    0.2322376278E+00    0.3596559575E-01    0.1986941103E-01
    0.2300000000E+04    0.5722161952E+00    0.2396634447E+00    0.2376639834E+00    0.3550947991E-01    0.2015296862E-01
    0.2500000000E+04    0.5790263761E+00    0.2378153751E+00    0.2426763923E+00    0.3508400085E-01    0.2039509811E-01
    0.2700000000E+04    0.5848933267E+00    0.2360508898E+00    0.2473367353E+00    0.3468579883E-01    0.2060391438E-01
    0.2900000000E+04    0.5899925430E+00    0.2343639335E+00    0.2516936639E+00    0.3431186081E-01    0.2078560191E-01
    0.3100000000E+04    0.5944597299E+00    0.2327484696E+00    0.2557861557E+00    0.3395954686E-01    0.2094494457E-01
    0.3300000000E+04    0.5984012413E+00    0.2311988153E+00    0.2596459454E+00    0.3362656742E-01    0.2108569282E-01
    0.3500000000E+04    0.6019014490E+00    0.2297097656E+00    0.2632992344E+00    0.3331094373E-01    0.2121082293E-01
    0.3700000000E+04    0.6050280331E+00    0.2282766175E+00    0.2667679214E+00    0.3301096533E-01    0.2132272319E-01
    0.3900000000E+04    0.6078358377E+00    0.2268951481E+00    0.2700705076E+00    0.3272515046E-01    0.2142332960E-01
    0.4100000000E+04    0.6103697211E+00    0.2255615743E+00    0.2732227734E+00    0.3245221118E-01    0.2151422618E-01
    0.4300000000E+04    0.6126666897E+00    0.2242725065E+00    0.2762382944E+00    0.3219102354E-01    0.2159672017E-01
    0.4500000000E+04    0.6147575147E+00    0.2230249033E+00    0.2791288391E+00    0.3194060256E-01    0.2167189892E-01
    0.4700000000E+04    0.6166679707E+00    0.2218160297E+00    0.2819046807E+00    0.3170008125E-01    0.2174067353E-01
    0.4900000000E+04    0.6184197940E+00    0.2206434196E+00    0.2845748434E+00    0.3146869317E-01    0.2180381262E-01
    0.1000000000E+04    0.4776892330E+00    0.2531721899E+00    0.1893719317E+00    0.3909570001E-01    0.1680716388E-01
    0.3000000000E+04    0.5922979036E+00    0.2335476306E+00    0.2537708341E+00    0.3413315170E-01    0.2086781119E-01
    0.5000000000E+04    0.6192420945E+00    0.2200700080E+00    0.2858728232E+00    0.3135620844E-01    0.2183347671E-01
    0.7000000000E+04    0.6306431386E+00    0.2100618791E+00    0.3078117023E+00    0.2945496037E-01    0.2224711359E-01
    0.9000000000E+04    0.6368376293E+00    0.2020599054E+00    0.3245553827E+00    0.2800463061E-01    0.2247470730E-01
    0.1100000000E+05    0.6407020513E+00    0.1953841264E+00    0.3381041322E+00    0.2683206870E-01    0.2261852071E-01
    0.1300000000E+05    0.6433334479E+00    0.1896569311E+00    0.3494775831E+00    0.2584892828E-01    0.2271771654E-01
    0.1500000000E+05    0.6452367273E+00    0.1846443878E+00    0.3592701203E+00    0.2500363788E-01    0.2279039496E-01
    0.1700000000E+05    0.6466754226E+00    0.1801906267E+00    0.3678600570E+00    0.2426331219E-01    0.2284604342E-01
    0.1900000000E+05    0.6478000986E+00    0.1761862077E+00    0.3755036901E+00    0.2360562997E-01    0.2289010572E-01
    0.2100000000E+05    0.6487028513E+00    0.1725511775E+00    0.3823829706E+00    0.2301471779E-01    0.2292592609E-01
    0.2300000000E+05    0.6494431006E+00    0.1692252676E+00    0.3886318665E+00    0.2247887164E-01    0.2295567163E-01
    0.2500000000E+05    0.6500608643E+00    0.1661618805E+00    0.3943519440E+00    0.2198920821E-01    0.2298080821E-01
    0.2700000000E+05    0.6505840601E+00    0.1633242227E+00    0.3996220763E+00    0.2153882309E-01    0.2300236296E-01
    0.2900000000E+05    0.6510327470E+00    0.1606827225E+00    0.4045047555E+00    0.2112224239E-01    0.2302107712E-01
    0.3100000000E+05    0.6514217023E+00    0.1582132487E+00    0.4090503472E+00    0.2073505265E-01    0.2303749916E-01
    0.3300000000E+05    0.6517620493E+00    0.1558958492E+00    0.4133000429E+00    0.2037364346E-01    0.2305204375E-01
    0.3500000000E+05    0.6520623183E+00    0.1537138363E+00    0.4172879638E+00    0.2003502385E-01    0.2306503030E-01
    0.3700000000E+05    0.6523291595E+00    0.1516531103E+00    0.4210426923E+00    0.1971668848E-01    0.2307670891E-01
    0.3900000000E+05    0.6525678326E+00    0.1497016499E+00    0.4245884099E+00    0.1941651805E-01    0.2308727826E-01
    0.4100000000E+05    0.6527825517E+00    0.1478491227E+00    0.4279457565E+00    0.1913270410E-01    0.2309689824E-01
    0.4300000000E+05    0.6529767322E+00    0.1460865828E+00    0.4311324888E+00    0.1886369125E-01    0.2310569900E-01
    0.4500000000E+05    0.6531531714E+00    0.1444062337E+00    0.4341639934E+00    0.1860813222E-01    0.2311378759E-01
    0.4700000000E+05    0.6533141818E+00    0.1428012392E+00    0.4370536896E+00    0.1836485252E-01    0.2312125291E-01
    0.4900000000E+05    0.6534616919E+00    0.1412655726E+00    0.4398133503E+00    0.1813282218E-01    0.2312816942E-01
    0.1000000000E+05    0.6389716582E+00    0.1985843675E+00    0.3316516126E+00    0.2739034262E-01    0.2255389709E-01
    0.3000000000E+05    0.6512339248E+00    0.1594278151E+00    0.4068169258E+00    0.2092521568E-01    0.2302954613E-01
    0.5000000000E+05    0.6535309010E+00    0.1405220446E+00    0.4411477109E+00    0.1802073752E-01    0.2313144189E-01
    0.7000000000E+05    0.6544910185E+00    0.1282647636E+00    0.4629891399E+00    0.1619660105E-01    0.2317920566E-01
    0.9000000000E+05    0.6550161923E+00    0.1193255766E+00    0.4787520912E+00    0.1489339834E-01    0.2320816500E-01
    0.1100000000E+06    0.6553465177E+00    0.1123645531E+00    0.4909420124E+00    0.1389392252E-01    0.2322817534E-01
    0.1300000000E+06    0.6555730031E+00    0.1067100224E+00    0.5007941526E+00    0.1309177112E-01    0.2324313786E-01
    0.1500000000E+06    0.6557376857E+00    0.1019785359E+00    0.5090058974E+00    0.1242722577E-01    0.2325493004E-01
    0.1700000000E+06    0.6558626454E+00    0.9793124508E-01    0.5160081202E+00    0.1186358682E-01    0.2326457752E-01
    0.1900000000E+06    0.6559605834E+00    0.9440970942E-01    0.5220848458E+00    0.1137677977E-01    0.2327269300E-01
    0.2100000000E+06    0.6560393200E+00    0.9130368891E-01    0.5274326939E+00    0.1095021253E-01    0.2327966767E-01
    0.2300000000E+06    0.6561039310E+00    0.8853354767E-01    0.5321931049E+00    0.1057199797E-01    0.2328576456E-01
    0.2500000000E+06    0.6561578536E+00    0.8603998679E-01    0.5364710255E+00    0.1023334911E-01    0.2329116795E-01
    0.2700000000E+06    0.6562034973E+00    0.8377773142E-01    0.5403463381E+00    0.9927600900E-02    0.2329601133E-01
    0.2900000000E+06    0.6562426005E+00    0.8171147930E-01    0.5438811633E+00    0.9649587105E-02    0.2330039420E-01
    0.3100000000E+06    0.6562764490E+00    0.7981320599E-01    0.5471246990E+00    0.9395228685E-02    0.2330439244E-01
    0.3300000000E+06    0.6563060137E+00    0.7806031752E-01    0.5501165261E+00    0.9161253344E-02    0.2330806513E-01
    0.3500000000E+06    0.6563320415E+00    0.7643435055E-01    0.5528889280E+00    0.8944999308E-02    0.2331145908E-01
    0.3700000000E+06    0.6563551160E+00    0.7492003691E-01    0.5554685554E+00    0.8744274841E-02    0.2331461191E-01
    0.3900000000E+06    0.6563757000E+00    0.7350461690E-01    0.5578776457E+00    0.8557255610E-02    0.2331755434E-01
    0.4100000000E+06    0.6563941650E+00    0.7217732638E-01    0.5601349312E+00    0.8382408360E-02    0.2332031167E-01
    0.4300000000E+06    0.6564108124E+00    0.7092900746E-01    0.5622563278E+00    0.8218433239E-02    0.2332290504E-01
    0.4500000000E+06    0.6564258897E+00    0.6975180907E-01    0.5642554637E+00    0.8064219590E-02    0.2332535220E-01
    0.4700000000E+06    0.6564396017E+00    0.6863895353E-01    0.5661440899E+00    0.7918811637E-02    0.2332766827E-01
    0.4900000000E+06    0.6564521192E+00    0.6758455263E-01    0.5679324048E+00    0.7781381521E-02    0.2332986616E-01
    0.1000000000E+06    0.6551982946E+00    0.1156491532E+00    0.4851988804E+00    0.1436387489E-01    0.2321897433E-01
    0.3000000000E+06    0.6562601148E+00    0.8074286732E-01    0.5455366742E+00    0.9519671773E-02    0.2330243738E-01
    0.5000000000E+06    0.6564579759E+00    0.6707763913E-01    0.5687917722E+00    0.7715429067E-02    0.2333092433E-01
    0.7000000000E+06    0.6565376876E+00    0.5904303322E-01    0.5823799896E+00    0.6680571489E-02    0.2334792927E-01
    0.9000000000E+06    0.6565792709E+00    0.5353964985E-01    0.5916521663E+00    0.5983547553E-02    0.2336000873E-01
    0.1100000000E+07    0.6566040447E+00    0.4944440393E-01    0.5985334444E+00    0.5471440929E-02    0.2336936312E-01
    0.1300000000E+07    0.6566200375E+00    0.4623271415E-01    0.6039190383E+00    0.5073929466E-02    0.2337699125E-01
    0.1500000000E+07    0.6566309206E+00    0.4362058561E-01    0.6082920453E+00    0.4753398100E-02    0.2338342912E-01
    0.1700000000E+07    0.6566385989E+00    0.4143844250E-01    0.6119402139E+00    0.4487606459E-02    0.2338899718E-01
    0.1900000000E+07    0.6566441533E+00    0.3957765936E-01    0.6150474992E+00    0.4262426158E-02    0.2339390206E-01
    0.2100000000E+07    0.6566482396E+00    0.3796486428E-01    0.6177379477E+00    0.4068382749E-02    0.2339828471E-01
    0.2300000000E+07    0.6566512769E+00    0.3654839606E-01    0.6200987758E+00    0.3898847683E-02    0.2340224551E-01
    0.2500000000E+07    0.6566535441E+00    0.3529064282E-01    0.6221934023E+00    0.3749022529E-02    0.2340585848E-01
    0.2700000000E+07    0.6566552337E+00    0.3416345664E-01    0.6240692366E+00    0.3615334757E-02    0.2340917974E-01
    0.2900000000E+07    0.6566564819E+00    0.3314528033E-01    0.6257625515E+00    0.3495061218E-02    0.2341225287E-01
    0.3100000000E+07    0.6566573876E+00    0.3221927679E-01    0.6273016529E+00    0.3386084233E-02    0.2341511235E-01
    0.3300000000E+07    0.6566580242E+00    0.3137207120E-01    0.6287090076E+00    0.3286728342E-02    0.2341778597E-01
    0.3500000000E+07    0.6566584470E+00    0.3059288144E-01    0.6300027144E+00    0.3195647923E-02    0.2342029641E-01
    0.3700000000E+07    0.6566586982E+00    0.2987290231E-01    0.6311975431E+00    0.3111747919E-02    0.2342266246E-01
    0.3900000000E+07    0.6566588107E+00    0.2920486017E-01    0.6323056871E+00    0.3034126718E-02    0.2342489981E-01
    0.4100000000E+07    0.6566588104E+00    0.2858268485E-01    0.6333373165E+00    0.2962034213E-02    0.2342702176E-01
    0.4300000000E+07    0.6566587177E+00    0.2800126377E-01    0.6343009920E+00    0.2894840485E-02    0.2342903964E-01
    0.4500000000E+07    0.6566585491E+00    0.2745625512E-01    0.6352039802E+00    0.2832012065E-02    0.2343096317E-01
    0.4700000000E+07    0.6566583179E+00    0.2694394382E-01    0.6360524958E+00    0.2773093697E-02    0.2343280080E-01
    0.4900000000E+07    0.6566580348E+00    0.2646112921E-01    0.6368518906E+00    0.2717694150E-02    0.2343455987E-01
    0.1000000000E+07    0.6565931032E+00    0.5135679787E-01    0.5953219913E+00    0.5709867587E-02    0.2336494859E-01
    0.3000000000E+07    0.6566569725E+00    0.3267166235E-01    0.6265498576E+00    0.3439274224E-02    0.2341370745E-01
    0.5000000000E+07    0.6566578767E+00    0.2622990143E-01    0.6372346414E+00    0.2691206388E-02    0.2343541199E-01
    0.7000000000E+07    0.6566534804E+00    0.2264033983E-01    0.6431685576E+00    0.2283823746E-02    0.2344954865E-01
    0.9000000000E+07    0.6566484183E+00    0.2026080231E-01    0.6470936648E+00    0.2017984721E-02    0.2346005326E-01
    0.1100000000E+08    0.6566435391E+00    0.1853017054E-01    0.6499438516E+00    0.1826951643E-02    0.2346841681E-01
    0.1300000000E+08    0.6566390167E+00    0.1719613599E-01    0.6521381356E+00    0.1681124171E-02    0.2347536669E-01
    0.1500000000E+08    0.6566348623E+00    0.1612584487E-01    0.6538967949E+00    0.1565082183E-02    0.2348131284E-01
    0.1700000000E+08    0.6566310451E+00    0.1524166378E-01    0.6553483830E+00    0.1469894078E-02    0.2348650922E-01
    0.1900000000E+08    0.6566275264E+00    0.1449472592E-01    0.6565737320E+00    0.1389979926E-02    0.2349112413E-01
    0.2100000000E+08    0.6566242691E+00    0.1385250235E-01    0.6576265996E+00    0.1321649641E-02    0.2349527486E-01
    0.2300000000E+08    0.6566212408E+00    0.1329237281E-01    0.6585443387E+00    0.1262352066E-02    0.2349904641E-01
    0.2500000000E+08    0.6566184135E+00    0.1279804545E-01    0.6593538331E+00    0.1210259353E-02    0.2350250240E-01
    0.2700000000E+08    0.6566157636E+00    0.1235744287E-01    0.6600749994E+00    0.1164022916E-02    0.2350569166E-01
