  Pressure (Pa) 22mC5-400 (mol/kg) 2mC6-400 (mol/kg) 3mC6-400 (mol/kg) 33mC5-400 (mol/kg) 23mC5-400 (mol/kg)
    0.1000000000E+01    0.2643609252E-02    0.3183438294E-02    0.1587715049E-02    0.3887792136E-03    0.1856757668E-03
    0.3000000000E+01    0.7812479596E-02    0.9366827497E-02    0.4700769692E-02    0.1143864020E-02    0.5487208934E-03
    0.5000000000E+01    0.1283061381E-01    0.1531639680E-01    0.7733583164E-02    0.1870308205E-02    0.9011863527E-03
    0.7000000000E+01    0.1770594897E-01    0.2104435597E-01    0.1068949303E-01    0.2569604801E-02    0.1243629140E-02
    0.9000000000E+01    0.2244585801E-01    0.2656208520E-01    0.1357165080E-01    0.3243145513E-02    0.1576566664E-02
    0.1100000000E+02    0.2705719912E-01    0.3188020450E-01    0.1638303484E-01    0.3892229194E-02    0.1900480217E-02
    0.1300000000E+02    0.3154636004E-01    0.3700863633E-01    0.1912646212E-01    0.4518069482E-02    0.2215818076E-02
    0.1500000000E+02    0.3591929783E-01    0.4195666196E-01    0.2180459915E-01    0.5121801686E-02    0.2522998300E-02
    0.1700000000E+02    0.4018157477E-01    0.4673297260E-01    0.2441997189E-01    0.5704489023E-02    0.2822411240E-02
    0.1900000000E+02    0.4433839058E-01    0.5134571557E-01    0.2697497502E-01    0.6267128257E-02    0.3114421812E-02
    0.2100000000E+02    0.4839461169E-01    0.5580253623E-01    0.2947188038E-01    0.6810654815E-02    0.3399371540E-02
    0.2300000000E+02    0.5235479764E-01    0.6011061613E-01    0.3191284483E-01    0.7335947445E-02    0.3677580414E-02
    0.2500000000E+02    0.5622322500E-01    0.6427670760E-01    0.3429991749E-01    0.7843832442E-02    0.3949348566E-02
    0.2700000000E+02    0.6000390913E-01    0.6830716540E-01    0.3663504639E-01    0.8335087512E-02    0.4214957801E-02
    0.2900000000E+02    0.6370062397E-01    0.7220797554E-01    0.3892008474E-01    0.8810445289E-02    0.4474672978E-02
    0.3100000000E+02    0.6731691999E-01    0.7598478164E-01    0.4115679665E-01    0.9270596555E-02    0.4728743276E-02
    0.3300000000E+02    0.7085614063E-01    0.7964290905E-01    0.4334686245E-01    0.9716193186E-02    0.4977403346E-02
    0.3500000000E+02    0.7432143728E-01    0.8318738695E-01    0.4549188367E-01    0.1014785085E-01    0.5220874361E-02
    0.3700000000E+02    0.7771578296E-01    0.8662296863E-01    0.4759338761E-01    0.1056615150E-01    0.5459364978E-02
    0.3900000000E+02    0.8104198490E-01    0.8995415016E-01    0.4965283169E-01    0.1097164560E-01    0.5693072219E-02
    0.4100000000E+02    0.8430269602E-01    0.9318518748E-01    0.5167160737E-01    0.1136485431E-01    0.5922182275E-02
    0.4300000000E+02    0.8750042546E-01    0.9632011223E-01    0.5365104389E-01    0.1174627131E-01    0.6146871250E-02
    0.4500000000E+02    0.9063754833E-01    0.9936274629E-01    0.5559241179E-01    0.1211636466E-01    0.6367305839E-02
    0.4700000000E+02    0.9371631460E-01    0.1023167152E+00    0.5749692605E-01    0.1247557839E-01    0.6583643957E-02
    0.4900000000E+02    0.9673885729E-01    0.1051854606E+00    0.5936574923E-01    0.1282433406E-01    0.6796035312E-02
    0.1000000000E+02    0.2476718978E-01    0.2924546028E-01    0.1498600983E-01    0.3570666717E-02    0.1739622680E-02
    0.3000000000E+02    0.6551861070E-01    0.7411153907E-01    0.4004437458E-01    0.9042380115E-02    0.4602398743E-02
    0.5000000000E+02    0.9822968128E-01    0.1065889026E+00    0.6028712630E-01    0.1299491605E-01    0.6900795625E-02
    0.7000000000E+02    0.1255349930E+00    0.1308968332E+00    0.7708775392E-01    0.1594489911E-01    0.8819718872E-02
    0.9000000000E+02    0.1489886099E+00    0.1495554727E+00    0.9133422643E-01    0.1820113809E-01    0.1046824417E-01
    0.1100000000E+03    0.1695703035E+00    0.1641610560E+00    0.1036273645E+00    0.1995937285E-01    0.1191514209E-01
    0.1300000000E+03    0.1879311053E+00    0.1757721918E+00    0.1143890378E+00    0.2134951007E-01    0.1320611050E-01
    0.1500000000E+03    0.2045224697E+00    0.1851174310E+00    0.1239247105E+00    0.2246101799E-01    0.1437283930E-01
    0.1700000000E+03    0.2196687518E+00    0.1927136979E+00    0.1324613708E+00    0.2335742249E-01    0.1543809727E-01
    0.1900000000E+03    0.2336100854E+00    0.1989372517E+00    0.1401714723E+00    0.2408499665E-01    0.1641874149E-01
    0.2100000000E+03    0.2465288907E+00    0.2040679731E+00    0.1471885731E+00    0.2467818594E-01    0.1732757785E-01
    0.2300000000E+03    0.2585668841E+00    0.2083179720E+00    0.1536178553E+00    0.2516311428E-01    0.1817455504E-01
    0.2500000000E+03    0.2698363488E+00    0.2118506226E+00    0.1595433854E+00    0.2555991782E-01    0.1896755559E-01
    0.2700000000E+03    0.2804278118E+00    0.2147935590E+00    0.1650332393E+00    0.2588433892E-01    0.1971293484E-01
    0.2900000000E+03    0.2904154027E+00    0.2172477489E+00    0.1701431937E+00    0.2614883949E-01    0.2041589700E-01
    0.3100000000E+03    0.2998606745E+00    0.2192939573E+00    0.1749194313E+00    0.2636339453E-01    0.2108076345E-01
    0.3300000000E+03    0.3088153820E+00    0.2209974323E+00    0.1794005568E+00    0.2653606755E-01    0.2171116772E-01
    0.3500000000E+03    0.3173235362E+00    0.2224113573E+00    0.1836191208E+00    0.2667343484E-01    0.2231019971E-01
    0.3700000000E+03    0.3254229472E+00    0.2235794308E+00    0.1876027857E+00    0.2678090252E-01    0.2288051406E-01
    0.3900000000E+03    0.3331464006E+00    0.2245378191E+00    0.1913752308E+00    0.2686294680E-01    0.2342441265E-01
    0.4100000000E+03    0.3405225646E+00    0.2253166525E+00    0.1949568603E+00    0.2692329809E-01    0.2394390833E-01
    0.4300000000E+03    0.3475766992E+00    0.2259411833E+00    0.1983653644E+00    0.2696508361E-01    0.2444077468E-01
    0.4500000000E+03    0.3543312156E+00    0.2264326922E+00    0.2016161671E+00    0.2699093905E-01    0.2491658533E-01
    0.4700000000E+03    0.3608061234E+00    0.2268092025E+00    0.2047227876E+00    0.2700309674E-01    0.2537274529E-01
    0.4900000000E+03    0.3670193905E+00    0.2270860499E+00    0.2076971335E+00    0.2700345578E-01    0.2581051622E-01
    0.1000000000E+03    0.1595919387E+00    0.1572891458E+00    0.9769529038E-01    0.1913321245E-01    0.1121363202E-01
    0.3000000000E+03    0.2952023912E+00    0.2183174546E+00    0.1725704565E+00    0.2626181702E-01    0.2075285087E-01
    0.5000000000E+03    0.3700330385E+00    0.2271912715E+00    0.2091380438E+00    0.2699972726E-01    0.2602286602E-01
    0.7000000000E+03    0.4198060338E+00    0.2264054636E+00    0.2330280885E+00    0.2659529282E-01    0.2953170109E-01
    0.9000000000E+03    0.4553284289E+00    0.2232085704E+00    0.2507463968E+00    0.2594230823E-01    0.3203834284E-01
    0.1100000000E+04    0.4817764117E+00    0.2194723571E+00    0.2648388268E+00    0.2526550402E-01    0.3390646196E-01
    0.1300000000E+04    0.5020900238E+00    0.2157613708E+00    0.2765491208E+00    0.2462726426E-01    0.3534270627E-01
    0.1500000000E+04    0.5180852206E+00    0.2122472948E+00    0.2865743662E+00    0.2404218937E-01    0.3647476577E-01
    0.1700000000E+04    0.5309437100E+00    0.2089705975E+00    0.2953436787E+00    0.2350981062E-01    0.3738576509E-01
    0.1900000000E+04    0.5414643327E+00    0.2059265639E+00    0.3031398350E+00    0.2302516599E-01    0.3813191798E-01
    0.2100000000E+04    0.5502038366E+00    0.2030959699E+00    0.3101590587E+00    0.2258241307E-01    0.3875241661E-01
    0.2300000000E+04    0.5575603327E+00    0.2004564190E+00    0.3165431385E+00    0.2217604374E-01    0.3927529609E-01
    0.2500000000E+04    0.5638248863E+00    0.1979864584E+00    0.3223979188E+00    0.2180123303E-01    0.3972106060E-01
    0.2700000000E+04    0.5692144909E+00    0.1956668994E+00    0.3278045504E+00    0.2145387479E-01    0.4010500178E-01
    0.2900000000E+04    0.5738937453E+00    0.1934810525E+00    0.3328266535E+00    0.2113051197E-01    0.4043872309E-01
    0.3100000000E+04    0.5779894557E+00    0.1914145604E+00    0.3375150556E+00    0.2082824066E-01    0.4073116698E-01
    0.3300000000E+04    0.5816006856E+00    0.1894551071E+00    0.3419110254E+00    0.2054461667E-01    0.4098932195E-01
    0.3500000000E+04    0.5848058088E+00    0.1875921147E+00    0.3460485437E+00    0.2027757418E-01    0.4121871893E-01
    0.3700000000E+04    0.5876675460E+00    0.1858164664E+00    0.3499559350E+00    0.2002535795E-01    0.4142378576E-01
    0.3900000000E+04    0.5902366193E+00    0.1841202693E+00    0.3536570653E+00    0.1978646802E-01    0.4160810454E-01
    0.4100000000E+04    0.5925544419E+00    0.1824966557E+00    0.3571722379E+00    0.1955961505E-01    0.4177460106E-01
    0.4300000000E+04    0.5946551263E+00    0.1809396190E+00    0.3605188736E+00    0.1934368426E-01    0.4192568614E-01
    0.4500000000E+04    0.5965669989E+00    0.1794438784E+00    0.3637120354E+00    0.1913770636E-01    0.4206336249E-01
    0.4700000000E+04    0.5983137594E+00    0.1780047682E+00    0.3667648387E+00    0.1894083396E-01    0.4218930628E-01
    0.4900000000E+04    0.5999153736E+00    0.1766181463E+00    0.3696887754E+00    0.1875232240E-01    0.4230493017E-01
    0.1000000000E+04    0.4694682406E+00    0.2213580181E+00    0.2581501549E+00    0.2560119130E-01    0.3303686315E-01
    0.3000000000E+04    0.5760077963E+00    0.1924337011E+00    0.3352097942E+00    0.2097690239E-01    0.4058962879E-01
    0.5000000000E+04    0.6006671440E+00    0.1759433484E+00    0.3711056310E+00    0.1866099343E-01    0.4235925386E-01
    0.7000000000E+04    0.6110918527E+00    0.1644847466E+00    0.3946081377E+00    0.1714780134E-01    0.4311709264E-01
    0.9000000000E+04    0.6167609130E+00    0.1557119709E+00    0.4119778542E+00    0.1603145948E-01    0.4353471850E-01
    0.1100000000E+05    0.6203013078E+00    0.1486260539E+00    0.4256747803E+00    0.1515235950E-01    0.4379905613E-01
    0.1300000000E+05    0.6227143180E+00    0.1427017571E+00    0.4369267964E+00    0.1443110020E-01    0.4398166420E-01
    0.1500000000E+05    0.6244609627E+00    0.1376266755E+00    0.4464364971E+00    0.1382231537E-01    0.4411563653E-01
    0.1700000000E+05    0.6257820406E+00    0.1331992743E+00    0.4546436704E+00    0.1329761695E-01    0.4421833608E-01
    0.1900000000E+05    0.6268152371E+00    0.1292817799E+00    0.4618417843E+00    0.1283805763E-01    0.4429973565E-01
    0.2100000000E+05    0.6276448363E+00    0.1257757981E+00    0.4682363133E+00    0.1243036605E-01    0.4436596784E-01
    0.2300000000E+05    0.6283252582E+00    0.1226086074E+00    0.4739766259E+00    0.1206489066E-01    0.4442101041E-01
    0.2500000000E+05    0.6288931781E+00    0.1197249521E+00    0.4791746320E+00    0.1173439776E-01    0.4446755638E-01
    0.2700000000E+05    0.6293741977E+00    0.1170818769E+00    0.4839162837E+00    0.1143333007E-01    0.4450749428E-01
    0.2900000000E+05    0.6297867220E+00    0.1146453408E+00    0.4882689828E+00    0.1115732889E-01    0.4454218803E-01
    0.3100000000E+05    0.6301443168E+00    0.1123879210E+00    0.4922865271E+00    0.1090291503E-01    0.4457264755E-01
    0.3300000000E+05    0.6304571979E+00    0.1102872108E+00    0.4960125149E+00    0.1066726890E-01    0.4459963687E-01
    0.3500000000E+05    0.6307332033E+00    0.1083246737E+00    0.4994827497E+00    0.1044807519E-01    0.4462374488E-01
    0.3700000000E+05    0.6309784450E+00    0.1064848072E+00    0.5027269786E+00    0.1024341055E-01    0.4464543291E-01
    0.3900000000E+05    0.6311977592E+00    0.1047545196E+00    0.5057701728E+00    0.1005166071E-01    0.4466506766E-01
    0.4100000000E+05    0.6313950216E+00    0.1031226588E+00    0.5086334885E+00    0.9871458408E-02    0.4468294435E-01
    0.4300000000E+05    0.6315733743E+00    0.1015796507E+00    0.5113349982E+00    0.9701635981E-02    0.4469930341E-01
    0.4500000000E+05    0.6317353912E+00    0.1001172175E+00    0.5138902561E+00    0.9541188820E-02    0.4471434270E-01
    0.4700000000E+05    0.6318832006E+00    0.9872815622E-01    0.5163127401E+00    0.9389246736E-02    0.4472822658E-01
    0.4900000000E+05    0.6320185778E+00    0.9740616203E-01    0.5186142009E+00    0.9245051330E-02    0.4474109274E-01
    0.1000000000E+05    0.6187155644E+00    0.1519978074E+00    0.4191915445E+00    0.1556832829E-01    0.4368022119E-01
    0.3000000000E+05    0.6299716819E+00    0.1134957441E+00    0.4903167175E+00    0.1102761316E-01    0.4455789452E-01
    0.5000000000E+05    0.6320820799E+00    0.9676855503E-01    0.5197228175E+00    0.9175647668E-02    0.4474718123E-01
    0.7000000000E+05    0.6329616148E+00    0.8648395871E-01    0.5374859982E+00    0.8068933488E-02    0.4483611974E-01
    0.9000000000E+05    0.6334407747E+00    0.7924374415E-01    0.5498666240E+00    0.7304222352E-02    0.4489010943E-01
    0.1100000000E+06    0.6337407891E+00    0.7375147397E-01    0.5591956808E+00    0.6732135793E-02    0.4492744277E-01
    0.1300000000E+06    0.6339454925E+00    0.6938109175E-01    0.5665828299E+00    0.6281921257E-02    0.4495537191E-01
    0.1500000000E+06    0.6340935794E+00    0.6578534754E-01    0.5726375658E+00    0.5914899018E-02    0.4497739070E-01
    0.1700000000E+06    0.6342053543E+00    0.6275295213E-01    0.5777280600E+00    0.5607804593E-02    0.4499540923E-01
    0.1900000000E+06    0.6342924834E+00    0.6014647868E-01    0.5820924220E+00    0.5345651394E-02    0.4501056920E-01
    0.2100000000E+06    0.6343621402E+00    0.5787191245E-01    0.5858927954E+00    0.5118271249E-02    0.4502359992E-01
    0.2300000000E+06    0.6344189748E+00    0.5586233585E-01    0.5892441480E+00    0.4918478712E-02    0.4503499193E-01
    0.2500000000E+06    0.6344661312E+00    0.5406856938E-01    0.5922306970E+00    0.4741026741E-02    0.4504508898E-01
    0.2700000000E+06    0.6345058102E+00    0.5245350288E-01    0.5949158124E+00    0.4581978733E-02    0.4505414021E-01
    0.2900000000E+06    0.6345395972E+00    0.5098850598E-01    0.5973482630E+00    0.4438313456E-02    0.4506233128E-01
    0.3100000000E+06    0.6345686629E+00    0.4965106939E-01    0.5995663068E+00    0.4307666960E-02    0.4506980385E-01
    0.3300000000E+06    0.6345938900E+00    0.4842320574E-01    0.6016004561E+00    0.4188158516E-02    0.4507666822E-01
    0.3500000000E+06    0.6346159563E+00    0.4729033574E-01    0.6034753983E+00    0.4078269966E-02    0.4508301179E-01
    0.3700000000E+06    0.6346353907E+00    0.4624049399E-01    0.6052113621E+00    0.3976760091E-02    0.4508890486E-01
    0.3900000000E+06    0.6346526116E+00    0.4526375110E-01    0.6068251092E+00    0.3882602553E-02    0.4509440475E-01
    0.4100000000E+06    0.6346679545E+00    0.4435178547E-01    0.6083306685E+00    0.3794940085E-02    0.4509955877E-01
    0.4300000000E+06    0.6346816912E+00    0.4349756076E-01    0.6097398871E+00    0.3713050120E-02    0.4510440634E-01
    0.4500000000E+06    0.6346940444E+00    0.4269507949E-01    0.6110628514E+00    0.3636318619E-02    0.4510898070E-01
    0.4700000000E+06    0.6347051979E+00    0.4193919235E-01    0.6123082121E+00    0.3564219881E-02    0.4511331004E-01
    0.4900000000E+06    0.6347153050E+00    0.4122544882E-01    0.6134834383E+00    0.3496300772E-02    0.4511741850E-01
    0.1000000000E+06    0.6336063422E+00    0.7632742283E-01    0.5548267052E+00    0.6999585129E-02    0.4491027376E-01
    0.3000000000E+06    0.6345546594E+00    0.5030505790E-01    0.5984820230E+00    0.4371490111E-02    0.4506614986E-01
    0.5000000000E+06    0.6347200072E+00    0.4088315155E-01    0.6140468125E+00    0.3463783698E-02    0.4511939652E-01
    0.7000000000E+06    0.6347816710E+00    0.3552981056E-01    0.6228374315E+00    0.2960087727E-02    0.4515118396E-01
    0.9000000000E+06    0.6348109563E+00    0.3193982154E-01    0.6287112389E+00    0.2627705028E-02    0.4517376395E-01
    0.1100000000E+07    0.6348264620E+00    0.2930800384E-01    0.6330064663E+00    0.2387008424E-02    0.4519124953E-01
    0.1300000000E+07    0.6348350410E+00    0.2726725712E-01    0.6363306764E+00    0.2202212477E-02    0.4520550782E-01
    0.1500000000E+07    0.6348397561E+00    0.2562235585E-01    0.6390060003E+00    0.2054497959E-02    0.4521754094E-01
    0.1700000000E+07    0.6348421587E+00    0.2425834697E-01    0.6412216759E+00    0.1932884968E-02    0.4522794797E-01
    0.1900000000E+07    0.6348431067E+00    0.2310242881E-01    0.6430973264E+00    0.1830473776E-02    0.4523711522E-01
    0.2100000000E+07    0.6348431069E+00    0.2210589397E-01    0.6447128604E+00    0.1742679396E-02    0.4524530619E-01
    0.2300000000E+07    0.6348424734E+00    0.2123472648E-01    0.6461240099E+00    0.1666318975E-02    0.4525270857E-01
    0.2500000000E+07    0.6348414094E+00    0.2046433625E-01    0.6473710171E+00    0.1599104003E-02    0.4525946072E-01
    0.2700000000E+07    0.6348400500E+00    0.1977643533E-01    0.6484837802E+00    0.1539340794E-02    0.4526566758E-01
    0.2900000000E+07    0.6348384876E+00    0.1915709563E-01    0.6494850493E+00    0.1485745196E-02    0.4527141060E-01
    0.3100000000E+07    0.6348367869E+00    0.1859549301E-01    0.6503924900E+00    0.1437323343E-02    0.4527675427E-01
    0.3300000000E+07    0.6348349935E+00    0.1808306799E-01    0.6512200615E+00    0.1393292313E-02    0.4528175051E-01
    0.3500000000E+07    0.6348331405E+00    0.1761294881E-01    0.6519789633E+00    0.1353025794E-02    0.4528644173E-01
    0.3700000000E+07    0.6348312519E+00    0.1717954484E-01    0.6526783010E+00    0.1316015938E-02    0.4529086305E-01
    0.3900000000E+07    0.6348293452E+00    0.1677825398E-01    0.6533255662E+00    0.1281846006E-02    0.4529504383E-01
    0.4100000000E+07    0.6348274335E+00    0.1640524792E-01    0.6539269873E+00    0.1250170356E-02    0.4529900890E-01
    0.4300000000E+07    0.6348255263E+00    0.1605731198E-01    0.6544877920E+00    0.1220699562E-02    0.4530277944E-01
    0.4500000000E+07    0.6348236307E+00    0.1573172372E-01    0.6550124052E+00    0.1193189166E-02    0.4530637365E-01
    0.4700000000E+07    0.6348217520E+00    0.1542615979E-01    0.6555046017E+00    0.1167431075E-02    0.4530980729E-01
    0.4900000000E+07    0.6348198940E+00    0.1513862344E-01    0.6559676244E+00    0.1143246883E-02    0.4531309411E-01
    0.1000000000E+07    0.6348198687E+00    0.3053284346E-01    0.6310086274E+00    0.2498703382E-02    0.4518299779E-01
    0.3000000000E+07    0.6348376513E+00    0.1886965746E-01    0.6499495516E+00    0.1460940695E-02    0.4527412886E-01
    0.5000000000E+07    0.6348189737E+00    0.1500106667E-01    0.6561890867E+00    0.1131696052E-02    0.4531468629E-01
    0.7000000000E+07    0.6348019930E+00    0.1287795625E-01    0.6596032987E+00    0.9550371126E-03    0.4534109889E-01
    0.9000000000E+07    0.6347876416E+00    0.1148317578E-01    0.6618420823E+00    0.8407657897E-03    0.4536072363E-01
    0.1100000000E+08    0.6347753962E+00    0.1047501732E-01    0.6634581002E+00    0.7591434984E-03    0.4537634729E-01
    0.1300000000E+08    0.6347647692E+00    0.9701463147E-02    0.6646967506E+00    0.6971149442E-03    0.4538932933E-01
    0.1500000000E+08    0.6347554020E+00    0.9083078014E-02    0.6656860826E+00    0.6479288942E-03    0.4540043585E-01
    0.1700000000E+08    0.6347470362E+00    0.8573715691E-02    0.6665004004E+00    0.6076969395E-03    0.4541014145E-01
    0.1900000000E+08    0.6347394827E+00    0.8144465716E-02    0.6671862126E+00    0.5740008173E-03    0.4541876063E-01
    0.2100000000E+08    0.6347326000E+00    0.7776158302E-02    0.6677743334E+00    0.5452472812E-03    0.4542651255E-01
    0.2300000000E+08    0.6347262800E+00    0.7455506923E-02    0.6682861058E+00    0.5203383235E-03    0.4543355608E-01
    0.2500000000E+08    0.6347204386E+00    0.7172969361E-02    0.6687368486E+00    0.4984893955E-03    0.4544001007E-01
    0.2700000000E+08    0.6347150087E+00    0.6921489396E-02    0.6691378838E+00    0.4791230387E-03    0.4544596575E-01
