  Pressure (Pa) 22mC5-400 (mol/kg) 2mC6-400 (mol/kg) 3mC6-400 (mol/kg) 33mC5-400 (mol/kg) 23mC5-400 (mol/kg)
    0.1000000000E+01    0.2647696393E-02    0.1594195311E-02    0.2119052878E-02    0.5191843574E-03    0.9298134296E-04
    0.3000000000E+01    0.7847984066E-02    0.4704886531E-02    0.6286062493E-02    0.1532194786E-02    0.2756066721E-03
    0.5000000000E+01    0.1292586131E-01    0.7715701902E-02    0.1036106952E-01    0.2512606228E-02    0.4539364408E-03
    0.7000000000E+01    0.1788634478E-01    0.1063089391E-01    0.1434728617E-01    0.3461803092E-02    0.6281466605E-03
    0.9000000000E+01    0.2273417349E-01    0.1345448364E-01    0.1824777467E-01    0.4381094561E-02    0.7984036032E-03
    0.1100000000E+02    0.2747382777E-01    0.1619027612E-01    0.2206545602E-01    0.5271719578E-02    0.9648644649E-03
    0.1300000000E+02    0.3210954663E-01    0.1884187447E-01    0.2580311800E-01    0.6134851451E-02    0.1127677977E-02
    0.1500000000E+02    0.3664534383E-01    0.2141269301E-01    0.2946342280E-01    0.6971602097E-02    0.1286984967E-02
    0.1700000000E+02    0.4108502262E-01    0.2390596933E-01    0.3304891398E-01    0.7783025965E-02    0.1442918877E-02
    0.1900000000E+02    0.4543218936E-01    0.2632477540E-01    0.3656202309E-01    0.8570123661E-02    0.1595606243E-02
    0.2100000000E+02    0.4969026613E-01    0.2867202797E-01    0.4000507576E-01    0.9333845308E-02    0.1745167136E-02
    0.2300000000E+02    0.5386250232E-01    0.3095049809E-01    0.4338029747E-01    0.1007509365E-01    0.1891715567E-02
    0.2500000000E+02    0.5795198547E-01    0.3316282002E-01    0.4668981887E-01    0.1079472696E-01    0.2035359869E-02
    0.2700000000E+02    0.6196165119E-01    0.3531149946E-01    0.4993568086E-01    0.1149356166E-01    0.2176203046E-02
    0.2900000000E+02    0.6589429241E-01    0.3739892119E-01    0.5311983924E-01    0.1217237489E-01    0.2314343096E-02
    0.3100000000E+02    0.6975256801E-01    0.3942735621E-01    0.5624416917E-01    0.1283190675E-01    0.2449873312E-02
    0.3300000000E+02    0.7353901074E-01    0.4139896835E-01    0.5931046927E-01    0.1347286247E-01    0.2582882565E-02
    0.3500000000E+02    0.7725603466E-01    0.4331582044E-01    0.6232046553E-01    0.1409591447E-01    0.2713455558E-02
    0.3700000000E+02    0.8090594204E-01    0.4517988007E-01    0.6527581495E-01    0.1470170413E-01    0.2841673076E-02
    0.3900000000E+02    0.8449092978E-01    0.4699302493E-01    0.6817810899E-01    0.1529084363E-01    0.2967612204E-02
    0.4100000000E+02    0.8801309539E-01    0.4875704785E-01    0.7102887679E-01    0.1586391749E-01    0.3091346541E-02
    0.4300000000E+02    0.9147444257E-01    0.5047366146E-01    0.7382958818E-01    0.1642148418E-01    0.3212946396E-02
    0.4500000000E+02    0.9487688645E-01    0.5214450255E-01    0.7658165661E-01    0.1696407747E-01    0.3332478967E-02
    0.4700000000E+02    0.9822225844E-01    0.5377113621E-01    0.7928644178E-01    0.1749220780E-01    0.3450008518E-02
    0.4900000000E+02    0.1015123108E+00    0.5535505962E-01    0.8194525224E-01    0.1800636349E-01    0.3565596534E-02
    0.1000000000E+02    0.2511725203E-01    0.1483312477E-01    0.2016678897E-01    0.4829915557E-02    0.8820990569E-03
    0.3000000000E+02    0.6783256475E-01    0.3842037436E-01    0.5468936860E-01    0.1250450612E-01    0.2382428779E-02
    0.5000000000E+02    0.1031371190E+00    0.5613145517E-01    0.8325781246E-01    0.1825834771E-01    0.3622680958E-02
    0.7000000000E+02    0.1331010374E+00    0.6973465223E-01    0.1073781949E+00    0.2266798052E-01    0.4675493520E-02
    0.9000000000E+02    0.1590622852E+00    0.8037028612E-01    0.1280815599E+00    0.2610556406E-01    0.5587816123E-02
    0.1100000000E+03    0.1819257619E+00    0.8880428240E-01    0.1460983537E+00    0.2882132376E-01    0.6391403292E-02
    0.1300000000E+03    0.2023268993E+00    0.9556856273E-01    0.1619611064E+00    0.3098921948E-01    0.7108554265E-02
    0.1500000000E+03    0.2207262654E+00    0.1010429750E+00    0.1760676186E+00    0.3273361039E-01    0.7755432309E-02
    0.1700000000E+03    0.2374668623E+00    0.1055052448E+00    0.1887213288E+00    0.3414552068E-01    0.8344075165E-02
    0.1900000000E+03    0.2528102136E+00    0.1091625764E+00    0.2001579429E+00    0.3529293567E-01    0.8883661319E-02
    0.2100000000E+03    0.2669598682E+00    0.1121722878E+00    0.2105634962E+00    0.3622752890E-01    0.9381334762E-02
    0.2300000000E+03    0.2800771616E+00    0.1146556597E+00    0.2200869058E+00    0.3698917984E-01    0.9842758044E-02
    0.2500000000E+03    0.2922920564E+00    0.1167074559E+00    0.2288488834E+00    0.3760908135E-01    0.1027249271E-01
    0.2700000000E+03    0.3037107697E+00    0.1184026075E+00    0.2369483849E+00    0.3811192316E-01    0.1067426694E-01
    0.2900000000E+03    0.3144212486E+00    0.1198009955E+00    0.2444673593E+00    0.3851745508E-01    0.1105116774E-01
    0.3100000000E+03    0.3244971712E+00    0.1209509303E+00    0.2514742985E+00    0.3884162524E-01    0.1140578132E-01
    0.3300000000E+03    0.3340009207E+00    0.1218917225E+00    0.2580269279E+00    0.3909742156E-01    0.1174029747E-01
    0.3500000000E+03    0.3429858267E+00    0.1226556071E+00    0.2641742730E+00    0.3929550236E-01    0.1205658824E-01
    0.3700000000E+03    0.3514978794E+00    0.1232692032E+00    0.2699582634E+00    0.3944467492E-01    0.1235626808E-01
    0.3900000000E+03    0.3595770552E+00    0.1237546332E+00    0.2754149927E+00    0.3955226276E-01    0.1264074037E-01
    0.4100000000E+03    0.3672583563E+00    0.1241303898E+00    0.2805757169E+00    0.3962439047E-01    0.1291123391E-01
    0.4300000000E+03    0.3745726314E+00    0.1244120138E+00    0.2854676524E+00    0.3966620668E-01    0.1316883173E-01
    0.4500000000E+03    0.3815472337E+00    0.1246126299E+00    0.2901146209E+00    0.3968206027E-01    0.1341449414E-01
    0.4700000000E+03    0.3882065499E+00    0.1247433723E+00    0.2945375722E+00    0.3967564055E-01    0.1364907736E-01
    0.4900000000E+03    0.3945724324E+00    0.1248137253E+00    0.2987550136E+00    0.3965008980E-01    0.1387334865E-01
    0.1000000000E+03    0.1708365600E+00    0.8482492144E-01    0.1373887381E+00    0.2754139006E-01    0.6001633522E-02
    0.3000000000E+03    0.3195343950E+00    0.1204043769E+00    0.2480309999E+00    0.3868883751E-01    0.1123111531E-01
    0.5000000000E+03    0.3976515602E+00    0.1248288376E+00    0.3007918718E+00    0.3963099541E-01    0.1398183586E-01
    0.7000000000E+03    0.4477239558E+00    0.1234102676E+00    0.3338931695E+00    0.3872410961E-01    0.1574697947E-01
    0.9000000000E+03    0.4826269839E+00    0.1206218974E+00    0.3575079371E+00    0.3744307342E-01    0.1697869573E-01
    0.1100000000E+04    0.5082328057E+00    0.1176037572E+00    0.3756466022E+00    0.3615299594E-01    0.1788328574E-01
    0.1300000000E+04    0.5277220331E+00    0.1146869222E+00    0.3902587882E+00    0.3495064823E-01    0.1857253829E-01
    0.1500000000E+04    0.5429864073E+00    0.1119631745E+00    0.4024264733E+00    0.3385538300E-01    0.1911296978E-01
    0.1700000000E+04    0.5552223428E+00    0.1094464558E+00    0.4128077371E+00    0.3286296899E-01    0.1954666475E-01
    0.1900000000E+04    0.5652216321E+00    0.1071251681E+00    0.4218306641E+00    0.3196265255E-01    0.1990148588E-01
    0.2100000000E+04    0.5735274865E+00    0.1049804550E+00    0.4297884125E+00    0.3114282568E-01    0.2019655583E-01
    0.2300000000E+04    0.5805238283E+00    0.1029927551E+00    0.4368900480E+00    0.3039284239E-01    0.2044539495E-01
    0.2500000000E+04    0.5864889353E+00    0.1011440447E+00    0.4432896337E+00    0.2970347654E-01    0.2065780693E-01
    0.2700000000E+04    0.5916289547E+00    0.9941844707E-01    0.4491038110E+00    0.2906690520E-01    0.2084105705E-01
    0.2900000000E+04    0.5960995380E+00    0.9780222834E-01    0.4544229132E+00    0.2847654342E-01    0.2100063303E-01
    0.3100000000E+04    0.6000202039E+00    0.9628358400E-01    0.4593182594E+00    0.2792685077E-01    0.2114075030E-01
    0.3300000000E+04    0.6034841111E+00    0.9485237394E-01    0.4638470973E+00    0.2741315191E-01    0.2126469583E-01
    0.3500000000E+04    0.6065648532E+00    0.9349986771E-01    0.4680560456E+00    0.2693148321E-01    0.2137506723E-01
    0.3700000000E+04    0.6093212748E+00    0.9221851998E-01    0.4719835494E+00    0.2647846620E-01    0.2147394234E-01
    0.3900000000E+04    0.6118009454E+00    0.9100178027E-01    0.4756616693E+00    0.2605120468E-01    0.2156300151E-01
    0.4100000000E+04    0.6140427049E+00    0.8984393450E-01    0.4791174078E+00    0.2564720165E-01    0.2164361726E-01
    0.4300000000E+04    0.6160785558E+00    0.8873997411E-01    0.4823737107E+00    0.2526429220E-01    0.2171692094E-01
    0.4500000000E+04    0.6179350872E+00    0.8768548809E-01    0.4854502332E+00    0.2490058920E-01    0.2178385288E-01
    0.4700000000E+04    0.6196345613E+00    0.8667657396E-01    0.4883639345E+00    0.2455443920E-01    0.2184520070E-01
    0.4900000000E+04    0.6211957498E+00    0.8570976403E-01    0.4911295438E+00    0.2422438646E-01    0.2190162881E-01
    0.1000000000E+04    0.4963526790E+00    0.1191119189E+00    0.3671114153E+00    0.3679018706E-01    0.1746346955E-01
    0.3000000000E+04    0.5981222616E+00    0.9703137903E-01    0.4569196942E+00    0.2819692400E-01    0.2107290002E-01
    0.5000000000E+04    0.6219295621E+00    0.8524116811E-01    0.4924609000E+00    0.2406498832E-01    0.2192817766E-01
    0.7000000000E+04    0.6321841780E+00    0.7747851131E-01    0.5137290548E+00    0.2147579125E-01    0.2230144394E-01
    0.9000000000E+04    0.6378380042E+00    0.7178731155E-01    0.5284953020E+00    0.1963403439E-01    0.2250998935E-01
    0.1100000000E+05    0.6414050365E+00    0.6734906374E-01    0.5395974468E+00    0.1822766465E-01    0.2264332134E-01
    0.1300000000E+05    0.6438553079E+00    0.6374505186E-01    0.5483750769E+00    0.1710363437E-01    0.2273613139E-01
    0.1500000000E+05    0.6456400013E+00    0.6073316516E-01    0.5555607402E+00    0.1617607068E-01    0.2280462774E-01
    0.1700000000E+05    0.6469967541E+00    0.5816130914E-01    0.5615957927E+00    0.1539224314E-01    0.2285738565E-01
    0.1900000000E+05    0.6480623933E+00    0.5592800843E-01    0.5667651974E+00    0.1471759893E-01    0.2289936492E-01
    0.2100000000E+05    0.6489211723E+00    0.5396238031E-01    0.5712627772E+00    0.1412835500E-01    0.2293363339E-01
    0.2300000000E+05    0.6496277660E+00    0.5221308412E-01    0.5752258426E+00    0.1360749657E-01    0.2296219091E-01
    0.2500000000E+05    0.6502191832E+00    0.5064182396E-01    0.5787549087E+00    0.1314246549E-01    0.2298639728E-01
    0.2700000000E+05    0.6507213572E+00    0.4921932982E-01    0.5819255653E+00    0.1272375126E-01    0.2300720966E-01
    0.2900000000E+05    0.6511529950E+00    0.4792276608E-01    0.5847959567E+00    0.1234399402E-01    0.2302532161E-01
    0.3100000000E+05    0.6515279268E+00    0.4673400152E-01    0.5874116757E+00    0.1199739227E-01    0.2304124822E-01
    0.3300000000E+05    0.6518565956E+00    0.4563841979E-01    0.5898090692E+00    0.1167929957E-01    0.2305538014E-01
    0.3500000000E+05    0.6521470334E+00    0.4462408054E-01    0.5920175343E+00    0.1138594259E-01    0.2306801922E-01
    0.3700000000E+05    0.6524055179E+00    0.4368111457E-01    0.5940611498E+00    0.1111421936E-01    0.2307940241E-01
    0.3900000000E+05    0.6526370260E+00    0.4280127927E-01    0.5959598607E+00    0.1086155208E-01    0.2308971841E-01
    0.4100000000E+05    0.6528455541E+00    0.4197762615E-01    0.5977303546E+00    0.1062577765E-01    0.2309911944E-01
    0.4300000000E+05    0.6530343475E+00    0.4120424828E-01    0.5993867191E+00    0.1040506512E-01    0.2310772962E-01
    0.4500000000E+05    0.6532060693E+00    0.4047608600E-01    0.6009409442E+00    0.1019785245E-01    0.2311565129E-01
    0.4700000000E+05    0.6533629245E+00    0.3978877535E-01    0.6024033099E+00    0.1000279742E-01    0.2312296955E-01
    0.4900000000E+05    0.6535067550E+00    0.3913852861E-01    0.6037826895E+00    0.9818739176E-02    0.2312975580E-01
    0.1000000000E+05    0.6398035119E+00    0.6944344574E-01    0.5344005359E+00    0.1888819254E-01    0.2258324010E-01
    0.3000000000E+05    0.6513468305E+00    0.4731589361E-01    0.5861331927E+00    0.1216686241E-01    0.2303353124E-01
    0.5000000000E+05    0.6535742801E+00    0.3882625428E-01    0.6044437078E+00    0.9730513024E-02    0.2313296865E-01
    0.7000000000E+05    0.6545139431E+00    0.3390751420E-01    0.6147378060E+00    0.8355284971E-02    0.2318000722E-01
    0.9000000000E+05    0.6550303524E+00    0.3057409348E-01    0.6215926949E+00    0.7439250058E-02    0.2320865472E-01
    0.1100000000E+06    0.6553561074E+00    0.2811381827E-01    0.6265916891E+00    0.6771857225E-02    0.2322850169E-01
    0.1300000000E+06    0.6555799008E+00    0.2619697754E-01    0.6304518536E+00    0.6257245020E-02    0.2324336741E-01
    0.1500000000E+06    0.6557428598E+00    0.2464641465E-01    0.6335525708E+00    0.5844552697E-02    0.2325509717E-01
    0.1700000000E+06    0.6558666467E+00    0.2335702970E-01    0.6361162958E+00    0.5503912039E-02    0.2326470183E-01
    0.1900000000E+06    0.6559637490E+00    0.2226187588E-01    0.6382834163E+00    0.5216459048E-02    0.2327278648E-01
    0.2100000000E+06    0.6560418678E+00    0.2131595633E-01    0.6401475718E+00    0.4969607441E-02    0.2327973812E-01
    0.2300000000E+06    0.6561060085E+00    0.2048772759E-01    0.6417739825E+00    0.4754590760E-02    0.2328581726E-01
    0.2500000000E+06    0.6561595642E+00    0.1975431477E-01    0.6432096839E+00    0.4565088127E-02    0.2329120661E-01
    0.2700000000E+06    0.6562049155E+00    0.1909865964E-01    0.6444895816E+00    0.4396410339E-02    0.2329603865E-01
    0.2900000000E+06    0.6562437818E+00    0.1850774038E-01    0.6456402080E+00    0.4244994645E-02    0.2330041217E-01
    0.3100000000E+06    0.6562774353E+00    0.1797141652E-01    0.6466821456E+00    0.4108078643E-02    0.2330440259E-01
    0.3300000000E+06    0.6563068374E+00    0.1748165482E-01    0.6476316441E+00    0.3983482722E-02    0.2330806864E-01
    0.3500000000E+06    0.6563327279E+00    0.1703199560E-01    0.6485017292E+00    0.3869460747E-02    0.2331145688E-01
    0.3700000000E+06    0.6563556855E+00    0.1661717598E-01    0.6493029830E+00    0.3764595029E-02    0.2331460475E-01
    0.3900000000E+06    0.6563761688E+00    0.1623285797E-01    0.6500441053E+00    0.3667720847E-02    0.2331754282E-01
    0.4100000000E+06    0.6563945464E+00    0.1587542875E-01    0.6507323238E+00    0.3577871156E-02    0.2332029629E-01
    0.4300000000E+06    0.6564111175E+00    0.1554185127E-01    0.6513737009E+00    0.3494235394E-02    0.2332288620E-01
    0.4500000000E+06    0.6564261276E+00    0.1522955101E-01    0.6519733649E+00    0.3416128335E-02    0.2332533026E-01
    0.4700000000E+06    0.6564397800E+00    0.1493632881E-01    0.6525356877E+00    0.3342966193E-02    0.2332764351E-01
    0.4900000000E+06    0.6564522444E+00    0.1466029311E-01    0.6530644231E+00    0.3274248082E-02    0.2332983883E-01
    0.1000000000E+06    0.6552098423E+00    0.2926050685E-01    0.6242680264E+00    0.7081972832E-02    0.2321937078E-01
    0.3000000000E+06    0.6562611940E+00    0.1823329831E-01    0.6461736607E+00    0.4174872055E-02    0.2330245127E-01
    0.5000000000E+06    0.6564580767E+00    0.1452819980E-01    0.6533172266E+00    0.3241418031E-02    0.2333089580E-01
    0.7000000000E+06    0.6565374814E+00    0.1248634881E-01    0.6572070393E+00    0.2738605052E-02    0.2334788385E-01
    0.9000000000E+06    0.6565789196E+00    0.1114194768E-01    0.6597494976E+00    0.2412673806E-02    0.2335995317E-01
    0.1100000000E+07    0.6566036083E+00    0.1016880086E-01    0.6615803631E+00    0.2179547473E-02    0.2336930022E-01
    0.1300000000E+07    0.6566195442E+00    0.9421345166E-02    0.6629810676E+00    0.2002211418E-02    0.2337692247E-01
    0.1500000000E+07    0.6566303856E+00    0.8823360614E-02    0.6640981179E+00    0.1861487716E-02    0.2338335537E-01
    0.1700000000E+07    0.6566380314E+00    0.8330501639E-02    0.6650163676E+00    0.1746315192E-02    0.2338891908E-01
    0.1900000000E+07    0.6566435594E+00    0.7914953351E-02    0.6657888437E+00    0.1649807232E-02    0.2339382007E-01
    0.2100000000E+07    0.6566476235E+00    0.7558255080E-02    0.6664506316E+00    0.1567422694E-02    0.2339819916E-01
    0.2300000000E+07    0.6566506416E+00    0.7247601888E-02    0.6670260034E+00    0.1496029725E-02    0.2340215668E-01
    0.2500000000E+07    0.6566528920E+00    0.6973791430E-02    0.6675323623E+00    0.1433389193E-02    0.2340576660E-01
    0.2700000000E+07    0.6566545664E+00    0.6730015019E-02    0.6679825582E+00    0.1377852148E-02    0.2340908500E-01
    0.2900000000E+07    0.6566558009E+00    0.6511110800E-02    0.6683863154E+00    0.1328173837E-02    0.2341215543E-01
    0.3100000000E+07    0.6566566941E+00    0.6313083637E-02    0.6687511478E+00    0.1283394670E-02    0.2341501235E-01
    0.3300000000E+07    0.6566573192E+00    0.6132785911E-02    0.6690829664E+00    0.1242761400E-02    0.2341768353E-01
    0.3500000000E+07    0.6566577312E+00    0.5967699073E-02    0.6693864945E+00    0.1205673393E-02    0.2342019164E-01
    0.3700000000E+07    0.6566579723E+00    0.5815780394E-02    0.6696655582E+00    0.1171645056E-02    0.2342255545E-01
    0.3900000000E+07    0.6566580754E+00    0.5675353055E-02    0.6699232943E+00    0.1140278986E-02    0.2342479066E-01
    0.4100000000E+07    0.6566580662E+00    0.5545025799E-02    0.6701623028E+00    0.1111246405E-02    0.2342691054E-01
    0.4300000000E+07    0.6566579651E+00    0.5423633174E-02    0.6703847594E+00    0.1084272640E-02    0.2342892642E-01
    0.4500000000E+07    0.6566577885E+00    0.5310190398E-02    0.6705925010E+00    0.1059126198E-02    0.2343084803E-01
    0.4700000000E+07    0.6566575496E+00    0.5203858804E-02    0.6707870901E+00    0.1035610416E-02    0.2343268379E-01
    0.4900000000E+07    0.6566572592E+00    0.5103919036E-02    0.6709698661E+00    0.1013557006E-02    0.2343444105E-01
    0.1000000000E+07    0.6565927045E+00    0.1062040334E-01    0.6607317297E+00    0.2287427228E-02    0.2336488911E-01
    0.3000000000E+07    0.6566562851E+00    0.6409701230E-02    0.6685731958E+00    0.1305223049E-02    0.2341360871E-01
    0.5000000000E+07    0.6566570975E+00    0.5056148645E-02    0.6710571916E+00    0.1003032592E-02    0.2343529229E-01
    0.7000000000E+07    0.6566526422E+00    0.4322155829E-02    0.6723955943E+00    0.8427754319E-03    0.2344941341E-01
    0.9000000000E+07    0.6566475356E+00    0.3843326396E-02    0.6732651516E+00    0.7398201155E-03    0.2345990536E-01
    0.1100000000E+08    0.6566426203E+00    0.3498874428E-02    0.6738888120E+00    0.6666226523E-03    0.2346825811E-01
    0.1300000000E+08    0.6566380672E+00    0.3235511773E-02    0.6743645376E+00    0.6111881397E-03    0.2347519848E-01
    0.1500000000E+08    0.6566338861E+00    0.3025558090E-02    0.6747430608E+00    0.5673491030E-03    0.2348113608E-01
    0.1700000000E+08    0.6566300452E+00    0.2853005817E-02    0.6750536495E+00    0.5315688453E-03    0.2348632468E-01
    0.1900000000E+08    0.6566265051E+00    0.2707862546E-02    0.6753145372E+00    0.5016555086E-03    0.2349093241E-01
    0.2100000000E+08    0.6566232284E+00    0.2583522341E-02    0.6755377575E+00    0.4761691659E-03    0.2349507647E-01
    0.2300000000E+08    0.6566201821E+00    0.2475418193E-02    0.6757316174E+00    0.4541198827E-03    0.2349884178E-01
    0.2500000000E+08    0.6566173382E+00    0.2380277242E-02    0.6759020623E+00    0.4348018094E-03    0.2350229190E-01
    0.2700000000E+08    0.6566146728E+00    0.2295683874E-02    0.6760534751E+00    0.4176963608E-03    0.2350547559E-01
