  Pressure (Pa) 22mC5-400 (mol/kg) 2mC6-400 (mol/kg) 3mC6-400 (mol/kg) 33mC5-400 (mol/kg) 23mC5-400 (mol/kg)
    0.1000000000E+01    0.2644089540E-02    0.3176517460E-02    0.3694603401E-02    0.6465762451E-04    0.2785642416E-03
    0.3000000000E+01    0.7816622417E-02    0.9306612722E-02    0.1088078698E-01    0.1894356779E-03    0.8235177337E-03
    0.5000000000E+01    0.1284165079E-01    0.1515460367E-01    0.1780916660E-01    0.3084720661E-03    0.1352942154E-02
    0.7000000000E+01    0.1772671032E-01    0.2073743680E-01    0.2449418893E-01    0.4221112704E-03    0.1867630725E-02
    0.9000000000E+01    0.2247881711E-01    0.2607076948E-01    0.3094922686E-01    0.5306715743E-03    0.2368321991E-02
    0.1100000000E+02    0.2710451186E-01    0.3116908860E-01    0.3718667787E-01    0.6344474738E-03    0.2855704450E-02
    0.1300000000E+02    0.3160989948E-01    0.3604581634E-01    0.4321805176E-01    0.7337118285E-03    0.3330420737E-02
    0.1500000000E+02    0.3600068489E-01    0.4071340490E-01    0.4905404909E-01    0.8287177854E-03    0.3793071384E-02
    0.1700000000E+02    0.4028220534E-01    0.4518342128E-01    0.5470463136E-01    0.9197005027E-03    0.4244218227E-02
    0.1900000000E+02    0.4445945968E-01    0.4946662341E-01    0.6017908409E-01    0.1006878697E-02    0.4684387478E-02
    0.2100000000E+02    0.4853713479E-01    0.5357302866E-01    0.6548607345E-01    0.1090456034E-02    0.5114072516E-02
    0.2300000000E+02    0.5251962971E-01    0.5751197550E-01    0.7063369736E-01    0.1170622386E-02    0.5533736419E-02
    0.2500000000E+02    0.5641107742E-01    0.6129217921E-01    0.7562953153E-01    0.1247554958E-02    0.5943814266E-02
    0.2700000000E+02    0.6021536482E-01    0.6492178222E-01    0.8048067112E-01    0.1321419313E-02    0.6344715228E-02
    0.2900000000E+02    0.6393615081E-01    0.6840839968E-01    0.8519376848E-01    0.1392370303E-02    0.6736824479E-02
    0.3100000000E+02    0.6757688290E-01    0.7175916078E-01    0.8977506734E-01    0.1460552899E-02    0.7120504942E-02
    0.3300000000E+02    0.7114081230E-01    0.7498074631E-01    0.9423043391E-01    0.1526102962E-02    0.7496098879E-02
    0.3500000000E+02    0.7463100785E-01    0.7807942278E-01    0.9856538515E-01    0.1589147935E-02    0.7863929351E-02
    0.3700000000E+02    0.7805036864E-01    0.8106107356E-01    0.1027851145E+00    0.1649807472E-02    0.8224301555E-02
    0.3900000000E+02    0.8140163572E-01    0.8393122720E-01    0.1068945156E+00    0.1708194019E-02    0.8577504051E-02
    0.4100000000E+02    0.8468740279E-01    0.8669508335E-01    0.1108982034E+00    0.1764413334E-02    0.8923809888E-02
    0.4300000000E+02    0.8791012604E-01    0.8935753645E-01    0.1148005341E+00    0.1818564976E-02    0.9263477640E-02
    0.4500000000E+02    0.9107213323E-01    0.9192319745E-01    0.1186056232E+00    0.1870742739E-02    0.9596752363E-02
    0.4700000000E+02    0.9417563205E-01    0.9439641361E-01    0.1223173619E+00    0.1921035061E-02    0.9923866473E-02
    0.4900000000E+02    0.9722271784E-01    0.9678128686E-01    0.1259394323E+00    0.1969525392E-02    0.1024504056E-01
    0.1000000000E+02    0.2480707466E-01    0.2864844306E-01    0.3409441152E-01    0.5831400374E-03    0.2613635628E-02
    0.3000000000E+02    0.6576631596E-01    0.7010033464E-01    0.8750051758E-01    0.1426798953E-02    0.6929696451E-02
    0.5000000000E+02    0.9872573168E-01    0.9794181379E-01    0.1277179387E+00    0.1993119609E-02    0.1040346598E-01
    0.7000000000E+02    0.1262585524E+00    0.1173488798E+00    0.1593366819E+00    0.2387380478E-02    0.1330583768E-01
    0.9000000000E+02    0.1498999133E+00    0.1312306322E+00    0.1850133133E+00    0.2668786208E-02    0.1579842911E-01
    0.1100000000E+03    0.1706258009E+00    0.1413359775E+00    0.2063962014E+00    0.2872955778E-02    0.1798399561E-01
    0.1300000000E+03    0.1890889386E+00    0.1487729280E+00    0.2245648760E+00    0.3022475174E-02    0.1993126072E-01
    0.1500000000E+03    0.2057443017E+00    0.1542735396E+00    0.2402575043E+00    0.3132281893E-02    0.2168812905E-01
    0.1700000000E+03    0.2209201784E+00    0.1583383513E+00    0.2539969710E+00    0.3212601016E-02    0.2328916721E-01
    0.1900000000E+03    0.2348605062E+00    0.1613194987E+00    0.2661647258E+00    0.3270635123E-02    0.2476006083E-01
    0.2100000000E+03    0.2477511924E+00    0.1634707332E+00    0.2770460593E+00    0.3311581615E-02    0.2612038560E-01
    0.2300000000E+03    0.2597370812E+00    0.1649786872E+00    0.2868589509E+00    0.3339268825E-02    0.2738539363E-01
    0.2500000000E+03    0.2709332377E+00    0.1659830600E+00    0.2957730637E+00    0.3356566900E-02    0.2856720149E-01
    0.2700000000E+03    0.2814326580E+00    0.1665900216E+00    0.3039226128E+00    0.3365660763E-02    0.2967560205E-01
    0.2900000000E+03    0.2913116655E+00    0.1668813353E+00    0.3114153012E+00    0.3368235984E-02    0.3071863259E-01
    0.3100000000E+03    0.3006337668E+00    0.1669207007E+00    0.3183386636E+00    0.3365608108E-02    0.3170298084E-01
    0.3300000000E+03    0.3094524613E+00    0.1667582507E+00    0.3247646571E+00    0.3358814407E-02    0.3263428081E-01
    0.3500000000E+03    0.3178133222E+00    0.1664337945E+00    0.3307530421E+00    0.3348680092E-02    0.3351733189E-01
    0.3700000000E+03    0.3257555622E+00    0.1659791926E+00    0.3363539119E+00    0.3335866854E-02    0.3435626376E-01
    0.3900000000E+03    0.3333132291E+00    0.1654201204E+00    0.3416096109E+00    0.3320908937E-02    0.3515466219E-01
    0.4100000000E+03    0.3405161285E+00    0.1647773946E+00    0.3465562098E+00    0.3304240299E-02    0.3591566631E-01
    0.4300000000E+03    0.3473905476E+00    0.1640679822E+00    0.3512246517E+00    0.3286215296E-02    0.3664204472E-01
    0.4500000000E+03    0.3539598257E+00    0.1633057760E+00    0.3556416532E+00    0.3267124599E-02    0.3733625568E-01
    0.4700000000E+03    0.3602448122E+00    0.1625021965E+00    0.3598304202E+00    0.3247207564E-02    0.3800049518E-01
    0.4900000000E+03    0.3662642343E+00    0.1616666631E+00    0.3638112205E+00    0.3226661932E-02    0.3863673582E-01
    0.1000000000E+03    0.1605807465E+00    0.1366749878E+00    0.1961640078E+00    0.2778887764E-02    0.1692468996E-01
    0.3000000000E+03    0.2960387785E+00    0.1669291033E+00    0.3149433303E+00    0.3367501960E-02    0.3121776805E-01
    0.5000000000E+03    0.3691797060E+00    0.1612394033E+00    0.3657292791E+00    0.3216205726E-02    0.3894491982E-01
    0.7000000000E+03    0.4169179582E+00    0.1523194643E+00    0.3965323679E+00    0.3001524177E-02    0.4399376659E-01
    0.9000000000E+03    0.4504822183E+00    0.1440604634E+00    0.4181427571E+00    0.2805226095E-02    0.4754726790E-01
    0.1100000000E+04    0.4751855486E+00    0.1369510829E+00    0.4345613952E+00    0.2637272419E-02    0.5016540268E-01
    0.1300000000E+04    0.4939923303E+00    0.1308886797E+00    0.4476772523E+00    0.2494895950E-02    0.5216074263E-01
    0.1500000000E+04    0.5087013164E+00    0.1256855596E+00    0.4585219339E+00    0.2373508283E-02    0.5372303256E-01
    0.1700000000E+04    0.5204647259E+00    0.1211722036E+00    0.4677167596E+00    0.2268978598E-02    0.5497386573E-01
    0.1900000000E+04    0.5300511048E+00    0.1172132417E+00    0.4756632571E+00    0.2177994384E-02    0.5599437856E-01
    0.2100000000E+04    0.5379901207E+00    0.1137039850E+00    0.4826350812E+00    0.2097981903E-02    0.5684051039E-01
    0.2300000000E+04    0.5446570042E+00    0.1105638117E+00    0.4888266481E+00    0.2026951640E-02    0.5755190534E-01
    0.2500000000E+04    0.5503239689E+00    0.1077302460E+00    0.4943807644E+00    0.1963357951E-02    0.5815733445E-01
    0.2700000000E+04    0.5551926415E+00    0.1051543731E+00    0.4994052381E+00    0.1905989050E-02    0.5867811634E-01
    0.2900000000E+04    0.5594151351E+00    0.1027974453E+00    0.5039833380E+00    0.1853884743E-02    0.5913034052E-01
    0.3100000000E+04    0.5631081017E+00    0.1006284020E+00    0.5081806389E+00    0.1806275810E-02    0.5952635041E-01
    0.3300000000E+04    0.5663623211E+00    0.9862205671E-01    0.5120496474E+00    0.1762539374E-02    0.5987575544E-01
    0.3500000000E+04    0.5692493787E+00    0.9675776282E-01    0.5156330188E+00    0.1722165867E-02    0.6018613618E-01
    0.3700000000E+04    0.5718264035E+00    0.9501842229E-01    0.5189658465E+00    0.1684734383E-02    0.6046354469E-01
    0.3900000000E+04    0.5741394863E+00    0.9338974174E-01    0.5220773275E+00    0.1649894105E-02    0.6071286558E-01
    0.4100000000E+04    0.5762261833E+00    0.9185966780E-01    0.5249919959E+00    0.1617350178E-02    0.6093808056E-01
    0.4300000000E+04    0.5781173761E+00    0.9041795398E-01    0.5277306527E+00    0.1586852840E-02    0.6114246498E-01
    0.4500000000E+04    0.5798386708E+00    0.8905582491E-01    0.5303110755E+00    0.1558189000E-02    0.6132873577E-01
    0.4700000000E+04    0.5814114637E+00    0.8776571341E-01    0.5327485693E+00    0.1531175626E-02    0.6149916409E-01
    0.4900000000E+04    0.5828537609E+00    0.8654105273E-01    0.5350563980E+00    0.1505654527E-02    0.6165566200E-01
    0.1000000000E+04    0.4637199832E+00    0.1403640147E+00    0.4268545394E+00    0.2717782183E-02    0.4894990187E-01
    0.3000000000E+04    0.5613216188E+00    0.1016911323E+00    0.5061260435E+00    0.1829560280E-02    0.5933471705E-01
    0.5000000000E+04    0.5835308334E+00    0.8595144640E-01    0.5361653603E+00    0.1493409895E-02    0.6172920330E-01
    0.7000000000E+04    0.5929296329E+00    0.7652184200E-01    0.5536991738E+00    0.1301310179E-02    0.6275662150E-01
    0.9000000000E+04    0.5980543102E+00    0.6995389284E-01    0.5656672165E+00    0.1171580502E-02    0.6332475708E-01
    0.1100000000E+05    0.6012626296E+00    0.6499869560E-01    0.5745529574E+00    0.1075837593E-02    0.6368551526E-01
    0.1300000000E+05    0.6034538143E+00    0.6106862262E-01    0.5815098671E+00    0.1001162331E-02    0.6393542025E-01
    0.1500000000E+05    0.6050425504E+00    0.5784236712E-01    0.5871603738E+00    0.9406722584E-03    0.6411919567E-01
    0.1700000000E+05    0.6062458220E+00    0.5512609631E-01    0.5918753265E+00    0.8903009648E-03    0.6426035456E-01
    0.1900000000E+05    0.6071879126E+00    0.5279443202E-01    0.5958918999E+00    0.8474625598E-03    0.6437242918E-01
    0.2100000000E+05    0.6079450250E+00    0.5076192472E-01    0.5993700924E+00    0.8104195711E-03    0.6446375652E-01
    0.2300000000E+05    0.6085664335E+00    0.4896791727E-01    0.6024224405E+00    0.7779534884E-03    0.6453975343E-01
    0.2500000000E+05    0.6090853893E+00    0.4736792099E-01    0.6051308021E+00    0.7491799147E-03    0.6460409298E-01
    0.2700000000E+05    0.6095251316E+00    0.4592841790E-01    0.6075563888E+00    0.7234386296E-03    0.6465935466E-01
    0.2900000000E+05    0.6099023853E+00    0.4462358137E-01    0.6097460462E+00    0.7002250381E-03    0.6470740385E-01
    0.3100000000E+05    0.6102294897E+00    0.4343312754E-01    0.6117363387E+00    0.6791457154E-03    0.6474962345E-01
    0.3300000000E+05    0.6105157450E+00    0.4234086160E-01    0.6135562940E+00    0.6598886089E-03    0.6478706080E-01
    0.3500000000E+05    0.6107682925E+00    0.4133366716E-01    0.6152292999E+00    0.6422024915E-03    0.6482052394E-01
    0.3700000000E+05    0.6109927051E+00    0.4040078669E-01    0.6167744456E+00    0.6258824441E-03    0.6485064655E-01
    0.3900000000E+05    0.6111933951E+00    0.3953329851E-01    0.6182074923E+00    0.6107593748E-03    0.6487793270E-01
    0.4100000000E+05    0.6113739006E+00    0.3872372967E-01    0.6195415871E+00    0.5966923100E-03    0.6490278855E-01
    0.4300000000E+05    0.6115370918E+00    0.3796576458E-01    0.6207877981E+00    0.5835626264E-03    0.6492554514E-01
    0.4500000000E+05    0.6116853208E+00    0.3725402265E-01    0.6219555210E+00    0.5712696723E-03    0.6494647509E-01
    0.4700000000E+05    0.6118205335E+00    0.3658388625E-01    0.6230527916E+00    0.5597273964E-03    0.6496580498E-01
    0.4900000000E+05    0.6119443537E+00    0.3595136601E-01    0.6240865306E+00    0.5488617213E-03    0.6498372477E-01
    0.1000000000E+05    0.5998247327E+00    0.6732026843E-01    0.5704055902E+00    0.1120470589E-02    0.6352320171E-01
    0.3000000000E+05    0.6100715657E+00    0.4401515108E-01    0.6107641477E+00    0.6894397272E-03    0.6472917035E-01
    0.5000000000E+05    0.6120024269E+00    0.3564811038E-01    0.6245814817E+00    0.5436622157E-03    0.6499220702E-01
    0.7000000000E+05    0.6128058203E+00    0.3091320947E-01    0.6322544314E+00    0.4633319706E-03    0.6511628227E-01
    0.9000000000E+05    0.6132419912E+00    0.2774684531E-01    0.6373292783E+00    0.4105406050E-03    0.6519175497E-01
    0.1100000000E+06    0.6135139129E+00    0.2543055074E-01    0.6410140308E+00    0.3724208523E-03    0.6524400830E-01
    0.1300000000E+06    0.6136985499E+00    0.2363754368E-01    0.6438506752E+00    0.3432176695E-03    0.6528313133E-01
    0.1500000000E+06    0.6138314219E+00    0.2219437903E-01    0.6461241049E+00    0.3199147541E-03    0.6531399306E-01
    0.1700000000E+06    0.6139311563E+00    0.2099909713E-01    0.6480005642E+00    0.3007568391E-03    0.6533925872E-01
    0.1900000000E+06    0.6140084471E+00    0.1998721750E-01    0.6495845731E+00    0.2846432335E-03    0.6536052291E-01
    0.2100000000E+06    0.6140698629E+00    0.1911565421E-01    0.6509456364E+00    0.2708437894E-03    0.6537880506E-01
    0.2300000000E+06    0.6141196566E+00    0.1835435078E-01    0.6521320444E+00    0.2588524034E-03    0.6539479121E-01
    0.2500000000E+06    0.6141606998E+00    0.1768160125E-01    0.6531785500E+00    0.2483056555E-03    0.6540896239E-01
    0.2700000000E+06    0.6141949999E+00    0.1708127735E-01    0.6541108983E+00    0.2389348940E-03    0.6542166738E-01
    0.2900000000E+06    0.6142240009E+00    0.1654110594E-01    0.6549486284E+00    0.2305366362E-03    0.6543316618E-01
    0.3100000000E+06    0.6142487674E+00    0.1605155632E-01    0.6557068779E+00    0.2229535434E-03    0.6544365724E-01
    0.3300000000E+06    0.6142701008E+00    0.1560509712E-01    0.6563975833E+00    0.2160617752E-03    0.6545329512E-01
    0.3500000000E+06    0.6142886154E+00    0.1519568587E-01    0.6570303032E+00    0.2097623391E-03    0.6546220231E-01
    0.3700000000E+06    0.6143047898E+00    0.1481840964E-01    0.6576127959E+00    0.2039750237E-03    0.6547047736E-01
    0.3900000000E+06    0.6143190020E+00    0.1446922646E-01    0.6581514341E+00    0.1986340504E-03    0.6547820064E-01
    0.4100000000E+06    0.6143315546E+00    0.1414477575E-01    0.6586515085E+00    0.1936848958E-03    0.6548543848E-01
    0.4300000000E+06    0.6143426923E+00    0.1384223700E-01    0.6591174535E+00    0.1890819297E-03    0.6549224620E-01
    0.4500000000E+06    0.6143526149E+00    0.1355922269E-01    0.6595530182E+00    0.1847866325E-03    0.6549867040E-01
    0.4700000000E+06    0.6143614874E+00    0.1329369621E-01    0.6599613967E+00    0.1807662303E-03    0.6550475063E-01
    0.4900000000E+06    0.6143694471E+00    0.1304390797E-01    0.6603453303E+00    0.1769926380E-03    0.6551052077E-01
    0.1000000000E+06    0.6133922104E+00    0.2650800411E-01    0.6393028873E+00    0.3900987425E-03    0.6521997149E-01
    0.3000000000E+06    0.6142368583E+00    0.1629051410E-01    0.6553368783E+00    0.2266516027E-03    0.6543852715E-01
    0.5000000000E+06    0.6143731212E+00    0.1292443487E-01    0.6605288828E+00    0.1751906933E-03    0.6551329884E-01
    0.7000000000E+06    0.6144187563E+00    0.1108252038E-01    0.6633520538E+00    0.1476639088E-03    0.6555794559E-01
    0.9000000000E+06    0.6144371619E+00    0.9874644060E-02    0.6651967045E+00    0.1298911820E-03    0.6558966115E-01
    0.1100000000E+07    0.6144444883E+00    0.9002678038E-02    0.6665251034E+00    0.1172126278E-03    0.6561422084E-01
    0.1300000000E+07    0.6144465354E+00    0.8334256724E-02    0.6675415818E+00    0.1075868325E-03    0.6563424705E-01
    0.1500000000E+07    0.6144458229E+00    0.7800315290E-02    0.6683524216E+00    0.9995972803E-04    0.6565114739E-01
    0.1700000000E+07    0.6144435874E+00    0.7360777934E-02    0.6690191489E+00    0.9372493057E-04    0.6566576342E-01
    0.1900000000E+07    0.6144404888E+00    0.6990560689E-02    0.6695802015E+00    0.8850567746E-04    0.6567863784E-01
    0.2100000000E+07    0.6144369014E+00    0.6673043967E-02    0.6700610076E+00    0.8405393816E-04    0.6569014082E-01
    0.2300000000E+07    0.6144330468E+00    0.6396716439E-02    0.6704791569E+00    0.8019889334E-04    0.6570053602E-01
    0.2500000000E+07    0.6144290607E+00    0.6153315578E-02    0.6708472609E+00    0.7681855985E-04    0.6571001784E-01
    0.2700000000E+07    0.6144250277E+00    0.5936734561E-02    0.6711746317E+00    0.7382319883E-04    0.6571873368E-01
    0.2900000000E+07    0.6144210016E+00    0.5742347966E-02    0.6714683165E+00    0.7114512975E-04    0.6572679799E-01
    0.3100000000E+07    0.6144170166E+00    0.5566578811E-02    0.6717337612E+00    0.6873221894E-04    0.6573430134E-01
    0.3300000000E+07    0.6144130941E+00    0.5406611017E-02    0.6719752501E+00    0.6654357257E-04    0.6574131667E-01
    0.3500000000E+07    0.6144092476E+00    0.5260192828E-02    0.6721962070E+00    0.6454660316E-04    0.6574790358E-01
    0.3700000000E+07    0.6144054848E+00    0.5125499013E-02    0.6723994055E+00    0.6271498035E-04    0.6575411138E-01
    0.3900000000E+07    0.6144018098E+00    0.5001032123E-02    0.6725871202E+00    0.6102716735E-04    0.6575998132E-01
    0.4100000000E+07    0.6143982245E+00    0.4885550362E-02    0.6727612361E+00    0.5946535501E-04    0.6576554830E-01
    0.4300000000E+07    0.6143947287E+00    0.4778013968E-02    0.6729233312E+00    0.5801467185E-04    0.6577084205E-01
    0.4500000000E+07    0.6143913214E+00    0.4677544752E-02    0.6730747376E+00    0.5666258948E-04    0.6577588815E-01
    0.4700000000E+07    0.6143880006E+00    0.4583395121E-02    0.6732165888E+00    0.5539846870E-04    0.6578070873E-01
    0.4900000000E+07    0.6143847643E+00    0.4494924086E-02    0.6733498564E+00    0.5421320860E-04    0.6578532311E-01
    0.1000000000E+07    0.6144417302E+00    0.9407082747E-02    0.6659093493E+00    0.1230761928E-03    0.6560263077E-01
    0.3000000000E+07    0.6144190024E+00    0.5652327395E-02    0.6716042780E+00    0.6990830923E-04    0.6573061487E-01
    0.5000000000E+07    0.6143831769E+00    0.4452642164E-02    0.6734135379E+00    0.5364765911E-04    0.6578755833E-01
    0.7000000000E+07    0.6143551869E+00    0.3803505156E-02    0.6743904392E+00    0.4504270923E-04    0.6582463577E-01
    0.9000000000E+07    0.6143327124E+00    0.3380558444E-02    0.6750261562E+00    0.3952126303E-04    0.6585218099E-01
    0.1100000000E+08    0.6143140271E+00    0.3076559629E-02    0.6754827015E+00    0.3559890376E-04    0.6587410800E-01
    0.1300000000E+08    0.6142980640E+00    0.2844268259E-02    0.6758313379E+00    0.3263015255E-04    0.6589232598E-01
    0.1500000000E+08    0.6142841409E+00    0.2659171786E-02    0.6761090047E+00    0.3028346399E-04    0.6590791079E-01
    0.1700000000E+08    0.6142717998E+00    0.2507106053E-02    0.6763370300E+00    0.2836886390E-04    0.6592152887E-01
    0.1900000000E+08    0.6142607203E+00    0.2379235028E-02    0.6765287106E+00    0.2676868898E-04    0.6593362179E-01
    0.2100000000E+08    0.6142506693E+00    0.2269720310E-02    0.6766928278E+00    0.2540568007E-04    0.6594449731E-01
    0.2300000000E+08    0.6142414730E+00    0.2174527294E-02    0.6768354470E+00    0.2422674480E-04    0.6595437846E-01
    0.2500000000E+08    0.6142329976E+00    0.2090765747E-02    0.6769609120E+00    0.2319404059E-04    0.6596343210E-01
    0.2700000000E+08    0.6142251386E+00    0.2016303155E-02    0.6770724263E+00    0.2227977334E-04    0.6597178632E-01
