  Pressure (Pa) 22mC5-400 (mol/kg) 2mC6-400 (mol/kg) 3mC6-400 (mol/kg) 33mC5-400 (mol/kg) 23mC5-400 (mol/kg)
    0.1000000000E+01    0.2634022065E-02    0.7133036924E-02    0.5276457233E-03    0.1935798303E-03    0.1850027154E-03
    0.3000000000E+01    0.7730329162E-02    0.2082064514E-01    0.1553109524E-02    0.5649869446E-03    0.5429536070E-03
    0.5000000000E+01    0.1261308558E-01    0.3378689968E-01    0.2540855533E-02    0.9167499543E-03    0.8859148482E-03
    0.7000000000E+01    0.1729905126E-01    0.4608637069E-01    0.3493168112E-02    0.1250354424E-02    0.1215062714E-02
    0.9000000000E+01    0.2180321735E-01    0.5776820674E-01    0.4412146399E-02    0.1567138391E-02    0.1531449350E-02
    0.1100000000E+02    0.2613903562E-01    0.6887679977E-01    0.5299722882E-02    0.1868310448E-02    0.1836018870E-02
    0.1300000000E+02    0.3031861294E-01    0.7945235341E-01    0.6157679769E-02    0.2154965207E-02    0.2129621005E-02
    0.1500000000E+02    0.3435287691E-01    0.8953137095E-01    0.6987663458E-02    0.2428096567E-02    0.2413022723E-02
    0.1700000000E+02    0.3825171751E-01    0.9914707585E-01    0.7791197360E-02    0.2688609160E-02    0.2686918174E-02
    0.1900000000E+02    0.4202410871E-01    0.1083297757E+00    0.8569693284E-02    0.2937328247E-02    0.2951937219E-02
    0.2100000000E+02    0.4567821334E-01    0.1171071781E+00    0.9324461583E-02    0.3175008321E-02    0.3208652793E-02
    0.2300000000E+02    0.4922147377E-01    0.1255046663E+00    0.1005672020E-01    0.3402340599E-02    0.3457587268E-02
    0.2500000000E+02    0.5266069067E-01    0.1335455398E+00    0.1076760275E-01    0.3619959574E-02    0.3699217979E-02
    0.2700000000E+02    0.5600209156E-01    0.1412512260E+00    0.1145816579E-01    0.3828448765E-02    0.3933982036E-02
    0.2900000000E+02    0.5925139079E-01    0.1486414653E+00    0.1212939533E-01    0.4028345774E-02    0.4162280531E-02
    0.3100000000E+02    0.6241384200E-01    0.1557344757E+00    0.1278221267E-01    0.4220146748E-02    0.4384482225E-02
    0.3300000000E+02    0.6549428435E-01    0.1625470975E+00    0.1341747969E-01    0.4404310324E-02    0.4600926783E-02
    0.3500000000E+02    0.6849718314E-01    0.1690949222E+00    0.1403600366E-01    0.4581261136E-02    0.4811927637E-02
    0.3700000000E+02    0.7142666583E-01    0.1753924065E+00    0.1463854147E-01    0.4751392921E-02    0.5017774503E-02
    0.3900000000E+02    0.7428655386E-01    0.1814529747E+00    0.1522580364E-01    0.4915071300E-02    0.5218735619E-02
    0.4100000000E+02    0.7708039096E-01    0.1872891093E+00    0.1579845778E-01    0.5072636256E-02    0.5415059733E-02
    0.4300000000E+02    0.7981146837E-01    0.1929124330E+00    0.1635713188E-01    0.5224404353E-02    0.5606977870E-02
    0.4500000000E+02    0.8248284728E-01    0.1983337816E+00    0.1690241721E-01    0.5370670728E-02    0.5794704909E-02
    0.4700000000E+02    0.8509737895E-01    0.2035632698E+00    0.1743487102E-01    0.5511710882E-02    0.5978440995E-02
    0.4900000000E+02    0.8765772274E-01    0.2086103505E+00    0.1795501895E-01    0.5647782291E-02    0.6158372801E-02
    0.1000000000E+02    0.2399138383E-01    0.6339155382E-01    0.4859745134E-02    0.1719604989E-02    0.1685156074E-02
    0.3000000000E+02    0.6084316074E-01    0.1522240409E+00    0.1245805032E-01    0.4125228764E-02    0.4274121602E-02
    0.5000000000E+02    0.8891835676E-01    0.2110682743E+00    0.1821063441E-01    0.5714030612E-02    0.6246967034E-02
    0.7000000000E+02    0.1118100915E+00    0.2525219803E+00    0.2278387580E-01    0.6829118903E-02    0.7855904366E-02
    0.9000000000E+02    0.1313132840E+00    0.2830072945E+00    0.2655154788E-01    0.7645428834E-02    0.9226932551E-02
    0.1100000000E+03    0.1484348582E+00    0.3061465840E+00    0.2974070378E-01    0.8261639894E-02    0.1043073886E-01
    0.1300000000E+03    0.1637890044E+00    0.3241383876E+00    0.3249788744E-01    0.8737648421E-02    0.1151044196E-01
    0.1500000000E+03    0.1777749081E+00    0.3383936934E+00    0.3492230093E-01    0.9111898164E-02    0.1249406725E-01
    0.1700000000E+03    0.1906652964E+00    0.3498588549E+00    0.3708373718E-01    0.9410176211E-02    0.1340076241E-01
    0.1900000000E+03    0.2026541801E+00    0.3591916839E+00    0.3903288546E-01    0.9650409671E-02    0.1424414883E-01
    0.2100000000E+03    0.2138842681E+00    0.3668631507E+00    0.4080755664E-01    0.9845435964E-02    0.1503424618E-01
    0.2300000000E+03    0.2244635390E+00    0.3732189516E+00    0.4243660386E-01    0.1000467985E-01    0.1577863576E-01
    0.2500000000E+03    0.2344756944E+00    0.3785182755E+00    0.4394248032E-01    0.1013520938E-01    0.1648319438E-01
    0.2700000000E+03    0.2439869962E+00    0.3829590438E+00    0.4534295953E-01    0.1024242336E-01    0.1715257437E-01
    0.2900000000E+03    0.2530508787E+00    0.3866948234E+00    0.4665232308E-01    0.1033051205E-01    0.1779052745E-01
    0.3100000000E+03    0.2617111437E+00    0.3898464472E+00    0.4788219994E-01    0.1040277361E-01    0.1840012899E-01
    0.3300000000E+03    0.2700042270E+00    0.3925101765E+00    0.4904217178E-01    0.1046183649E-01    0.1898393717E-01
    0.3500000000E+03    0.2779608388E+00    0.3947635472E+00    0.5014021758E-01    0.1050981861E-01    0.1954410820E-01
    0.3700000000E+03    0.2856071736E+00    0.3966696306E+00    0.5118304554E-01    0.1054844345E-01    0.2008248117E-01
    0.3900000000E+03    0.2929658163E+00    0.3982801876E+00    0.5217634455E-01    0.1057912595E-01    0.2060064181E-01
    0.4100000000E+03    0.3000564325E+00    0.3996380377E+00    0.5312497727E-01    0.1060303706E-01    0.2109997080E-01
    0.4300000000E+03    0.3068962990E+00    0.4007788600E+00    0.5403313020E-01    0.1062115277E-01    0.2158168117E-01
    0.4500000000E+03    0.3135007190E+00    0.4017325795E+00    0.5490443161E-01    0.1063429197E-01    0.2204684734E-01
    0.4700000000E+03    0.3198833487E+00    0.4025244455E+00    0.5574204515E-01    0.1064314574E-01    0.2249642813E-01
    0.4900000000E+03    0.3260564579E+00    0.4031758786E+00    0.5654874490E-01    0.1064830051E-01    0.2293128500E-01
    0.1000000000E+03    0.1401268818E+00    0.2953340173E+00    0.2820788488E-01    0.7974155821E-02    0.9846586897E-02
    0.3000000000E+03    0.2574290352E+00    0.3883371402E+00    0.4727655636E-01    0.1036844336E-01    0.1809870168E-01
    0.5000000000E+03    0.3290679500E+00    0.4034547478E+00    0.5694127766E-01    0.1064964998E-01    0.2314343825E-01
    0.7000000000E+03    0.3805285975E+00    0.4049187955E+00    0.6363452484E-01    0.1057166834E-01    0.2677011798E-01
    0.9000000000E+03    0.4193765299E+00    0.4028632268E+00    0.6886024110E-01    0.1041153315E-01    0.2950997397E-01
    0.1100000000E+04    0.4495134569E+00    0.3999292839E+00    0.7320208847E-01    0.1024042510E-01    0.3163705287E-01
    0.1300000000E+04    0.4733659611E+00    0.3969348228E+00    0.7694798547E-01    0.1007916913E-01    0.3332185511E-01
    0.1500000000E+04    0.4925630912E+00    0.3941360497E+00    0.8026179687E-01    0.9933154302E-02    0.3467888654E-01
    0.1700000000E+04    0.5082419222E+00    0.3915964890E+00    0.8324611532E-01    0.9802624868E-02    0.3578810080E-01
    0.1900000000E+04    0.5212163637E+00    0.3893119730E+00    0.8596970156E-01    0.9686168784E-02    0.3670674756E-01
    0.2100000000E+04    0.5320804613E+00    0.3872564452E+00    0.8848105648E-01    0.9581977807E-02    0.3747662501E-01
    0.2300000000E+04    0.5412750813E+00    0.3853992171E+00    0.9081577528E-01    0.9488300986E-02    0.3812876305E-01
    0.2500000000E+04    0.5491323499E+00    0.3837112720E+00    0.9300082255E-01    0.9403590587E-02    0.3868654515E-01
    0.2700000000E+04    0.5559059381E+00    0.3821672418E+00    0.9505716012E-01    0.9326529568E-02    0.3916783647E-01
    0.2900000000E+04    0.5617920743E+00    0.3807456882E+00    0.9700143759E-01    0.9256015602E-02    0.3958646075E-01
    0.3100000000E+04    0.5669443538E+00    0.3794287652E+00    0.9884712162E-01    0.9191131857E-02    0.3995324154E-01
    0.3300000000E+04    0.5714843267E+00    0.3782017009E+00    0.1006052747E+00    0.9131116473E-02    0.4027674673E-01
    0.3500000000E+04    0.5755091697E+00    0.3770522760E+00    0.1022851073E+00    0.9075335062E-02    0.4056382818E-01
    0.3700000000E+04    0.5790973136E+00    0.3759703604E+00    0.1038943779E+00    0.9023257400E-02    0.4082001761E-01
    0.3900000000E+04    0.5823126211E+00    0.3749475236E+00    0.1054396899E+00    0.8974438262E-02    0.4104982057E-01
    0.4100000000E+04    0.5852075226E+00    0.3739767156E+00    0.1069267151E+00    0.8928501862E-02    0.4125693717E-01
    0.4300000000E+04    0.5878253942E+00    0.3730520095E+00    0.1083603652E+00    0.8885129324E-02    0.4144442943E-01
    0.4500000000E+04    0.5902023798E+00    0.3721683947E+00    0.1097449245E+00    0.8844048594E-02    0.4161484962E-01
    0.4700000000E+04    0.5923687993E+00    0.3713216110E+00    0.1110841557E+00    0.8805026321E-02    0.4177033938E-01
    0.4900000000E+04    0.5943502474E+00    0.3705080159E+00    0.1123813825E+00    0.8767861302E-02    0.4191270717E-01
    0.1000000000E+04    0.4353584152E+00    0.4014342838E+00    0.7111958576E-01    0.1032547895E-01    0.3063778401E-01
    0.3000000000E+04    0.5644516998E+00    0.3800751369E+00    0.9793586339E-01    0.9222920858E-02    0.3977575037E-01
    0.5000000000E+04    0.5952785299E+00    0.3701126680E+00    0.1130151798E+00    0.8749919849E-02    0.4197945960E-01
    0.7000000000E+04    0.6080001648E+00    0.3633776850E+00    0.1240570486E+00    0.8456439893E-02    0.4289907400E-01
    0.9000000000E+04    0.6147571371E+00    0.3580592723E+00    0.1329286627E+00    0.8240335506E-02    0.4339335978E-01
    0.1100000000E+05    0.6188961894E+00    0.3535703633E+00    0.1404145644E+00    0.8067323960E-02    0.4369989766E-01
    0.1300000000E+05    0.6216734943E+00    0.3496447891E+00    0.1469273173E+00    0.7922035756E-02    0.4390819333E-01
    0.1500000000E+05    0.6236583283E+00    0.3461353296E+00    0.1527135971E+00    0.7796244300E-02    0.4405896559E-01
    0.1700000000E+05    0.6251437457E+00    0.3429498940E+00    0.1579338738E+00    0.7685004160E-02    0.4417325903E-01
    0.1900000000E+05    0.6262951603E+00    0.3400260247E+00    0.1626989946E+00    0.7585092394E-02    0.4426300044E-01
    0.2100000000E+05    0.6272126807E+00    0.3373189082E+00    0.1670890551E+00    0.7494281179E-02    0.4433543783E-01
    0.2300000000E+05    0.6279602946E+00    0.3347950372E+00    0.1711639968E+00    0.7410960218E-02    0.4439522345E-01
    0.2500000000E+05    0.6285807401E+00    0.3324285574E+00    0.1749699591E+00    0.7333924185E-02    0.4444547780E-01
    0.2700000000E+05    0.6291036128E+00    0.3301990172E+00    0.1785432870E+00    0.7262245212E-02    0.4448837107E-01
    0.2900000000E+05    0.6295500366E+00    0.3280899093E+00    0.1819131678E+00    0.7195192402E-02    0.4452545894E-01
    0.3100000000E+05    0.6299354807E+00    0.3260876852E+00    0.1851034284E+00    0.7132178854E-02    0.4455788558E-01
    0.3300000000E+05    0.6302715259E+00    0.3241810664E+00    0.1881337949E+00    0.7072725558E-02    0.4458651133E-01
    0.3500000000E+05    0.6305670096E+00    0.3223605495E+00    0.1910207995E+00    0.7016436064E-02    0.4461199559E-01
    0.3700000000E+05    0.6308287902E+00    0.3206180419E+00    0.1937784473E+00    0.6962978248E-02    0.4463485235E-01
    0.3900000000E+05    0.6310622697E+00    0.3189465886E+00    0.1964187153E+00    0.6912070898E-02    0.4465548824E-01
    0.4100000000E+05    0.6312717593E+00    0.3173401630E+00    0.1989519333E+00    0.6863473664E-02    0.4467422923E-01
    0.4300000000E+05    0.6314607410E+00    0.3157935045E+00    0.2013870778E+00    0.6816979395E-02    0.4469133973E-01
    0.4500000000E+05    0.6316320571E+00    0.3143019911E+00    0.2037320034E+00    0.6772408205E-02    0.4470703654E-01
    0.4700000000E+05    0.6317880499E+00    0.3128615373E+00    0.2059936249E+00    0.6729602826E-02    0.4472149913E-01
    0.4900000000E+05    0.6319306672E+00    0.3114685128E+00    0.2081780648E+00    0.6688424921E-02    0.4473487738E-01
    0.1000000000E+05    0.6170510646E+00    0.3557317885E+00    0.1368137142E+00    0.8149645239E-02    0.4356277682E-01
    0.3000000000E+05    0.6297495819E+00    0.3270761884E+00    0.1835294337E+00    0.7163212848E-02    0.4454219563E-01
    0.5000000000E+05    0.6319974806E+00    0.3107887597E+00    0.2092430679E+00    0.6668407476E-02    0.4474120010E-01
    0.7000000000E+05    0.6329170966E+00    0.2990511162E+00    0.2275478363E+00    0.6330014828E-02    0.4483297601E-01
    0.9000000000E+05    0.6334133129E+00    0.2897898254E+00    0.2418973113E+00    0.6071638188E-02    0.4488817570E-01
    0.1100000000E+06    0.6337221714E+00    0.2821090687E+00    0.2537494027E+00    0.5862377474E-02    0.4492613821E-01
    0.1300000000E+06    0.6339320591E+00    0.2755329337E+00    0.2638681770E+00    0.5686487360E-02    0.4495443754E-01
    0.1500000000E+06    0.6340834512E+00    0.2697760029E+00    0.2727077599E+00    0.5534806553E-02    0.4497669345E-01
    0.1700000000E+06    0.6341974662E+00    0.2646526839E+00    0.2805615524E+00    0.5401517103E-02    0.4499487361E-01
    0.1900000000E+06    0.6342861862E+00    0.2600350679E+00    0.2876307856E+00    0.5282686038E-02    0.4501014916E-01
    0.2100000000E+06    0.6343570153E+00    0.2558310377E+00    0.2940598318E+00    0.5175526667E-02    0.4502326574E-01
    0.2300000000E+06    0.6344147398E+00    0.2519719250E+00    0.2999559830E+00    0.5077990633E-02    0.4503472352E-01
    0.2500000000E+06    0.6344625887E+00    0.2484050987E+00    0.3054012655E+00    0.4988527189E-02    0.4504487230E-01
    0.2700000000E+06    0.6345028178E+00    0.2450892850E+00    0.3104598679E+00    0.4905933480E-02    0.4505396510E-01
    0.2900000000E+06    0.6345370498E+00    0.2419914889E+00    0.3151830097E+00    0.4829257361E-02    0.4506219021E-01
    0.3100000000E+06    0.6345664809E+00    0.2390848994E+00    0.3196122453E+00    0.4757732024E-02    0.4506969115E-01
    0.3300000000E+06    0.6345920122E+00    0.2363474213E+00    0.3237817726E+00    0.4690730688E-02    0.4507657948E-01
    0.3500000000E+06    0.6346143347E+00    0.2337606213E+00    0.3277200868E+00    0.4627734374E-02    0.4508294357E-01
    0.3700000000E+06    0.6346339871E+00    0.2313089544E+00    0.3314511918E+00    0.4568308461E-02    0.4508885440E-01
    0.3900000000E+06    0.6346513954E+00    0.2289791857E+00    0.3349955047E+00    0.4512085309E-02    0.4509436983E-01
    0.4100000000E+06    0.6346669007E+00    0.2267599505E+00    0.3383705412E+00    0.4458751141E-02    0.4509953757E-01
    0.4300000000E+06    0.6346807792E+00    0.2246414157E+00    0.3415914451E+00    0.4408035995E-02    0.4510439737E-01
    0.4500000000E+06    0.6346932571E+00    0.2226150137E+00    0.3446714006E+00    0.4359705921E-02    0.4510898270E-01
    0.4700000000E+06    0.6347045210E+00    0.2206732333E+00    0.3476219591E+00    0.4313556840E-02    0.4511332196E-01
    0.4900000000E+06    0.6347147264E+00    0.2188094514E+00    0.3504532996E+00    0.4269409662E-02    0.4511743946E-01
    0.1000000000E+06    0.6335839412E+00    0.2857877172E+00    0.2480778174E+00    0.5962065831E-02    0.4490869980E-01
    0.3000000000E+06    0.6345523034E+00    0.2405157708E+00    0.3174320779E+00    0.4792892871E-02    0.4506602360E-01
    0.5000000000E+06    0.6347194738E+00    0.2179049490E+00    0.3518271215E+00    0.4248036674E-02    0.4511942170E-01
    0.7000000000E+06    0.6347817054E+00    0.2027799849E+00    0.3747783465E+00    0.3895507141E-02    0.4515126822E-01
    0.9000000000E+06    0.6348112604E+00    0.1914671301E+00    0.3919210305E+00    0.3637578699E-02    0.4517388389E-01
    0.1100000000E+07    0.6348269262E+00    0.1824718124E+00    0.4055391223E+00    0.3435830539E-02    0.4519139573E-01
    0.1300000000E+07    0.6348356143E+00    0.1750343954E+00    0.4167909230E+00    0.3271186726E-02    0.4520567542E-01
    0.1500000000E+07    0.6348404107E+00    0.1687151926E+00    0.4263458677E+00    0.3132801171E-02    0.4521772694E-01
    0.1700000000E+07    0.6348428777E+00    0.1632367257E+00    0.4346259564E+00    0.3013926975E-02    0.4522815035E-01
    0.1900000000E+07    0.6348438792E+00    0.1584126701E+00    0.4419143122E+00    0.2910087939E-02    0.4523733250E-01
    0.2100000000E+07    0.6348439250E+00    0.1541119054E+00    0.4484100351E+00    0.2818166506E-02    0.4524553722E-01
    0.2300000000E+07    0.6348433316E+00    0.1502387058E+00    0.4542583941E+00    0.2735907207E-02    0.4525295242E-01
    0.2500000000E+07    0.6348423033E+00    0.1467210857E+00    0.4595685766E+00    0.2661627520E-02    0.4525971663E-01
    0.2700000000E+07    0.6348409763E+00    0.1435035752E+00    0.4644246828E+00    0.2594040285E-02    0.4526593491E-01
    0.2900000000E+07    0.6348394436E+00    0.1405425472E+00    0.4688928321E+00    0.2532139770E-02    0.4527168878E-01
    0.3100000000E+07    0.6348377702E+00    0.1378030862E+00    0.4730259234E+00    0.2475125880E-02    0.4527704281E-01
    0.3300000000E+07    0.6348360023E+00    0.1352568259E+00    0.4768669198E+00    0.2422352177E-02    0.4528204897E-01
    0.3500000000E+07    0.6348341731E+00    0.1328804177E+00    0.4804511756E+00    0.2373289281E-02    0.4528674973E-01
    0.3700000000E+07    0.6348323070E+00    0.1306544204E+00    0.4838081206E+00    0.2327498504E-02    0.4529118023E-01
    0.3900000000E+07    0.6348304215E+00    0.1285624810E+00    0.4869625045E+00    0.2284612472E-02    0.4529536988E-01
    0.4100000000E+07    0.6348285299E+00    0.1265907180E+00    0.4899353319E+00    0.2244320640E-02    0.4529934353E-01
    0.4300000000E+07    0.6348266419E+00    0.1247272518E+00    0.4927445749E+00    0.2206358283E-02    0.4530312238E-01
    0.4500000000E+07    0.6348247647E+00    0.1229618399E+00    0.4954057259E+00    0.2170498013E-02    0.4530672466E-01
    0.4700000000E+07    0.6348229035E+00    0.1212855927E+00    0.4979322289E+00    0.2136543163E-02    0.4531016614E-01
    0.4900000000E+07    0.6348210623E+00    0.1196907471E+00    0.5003358223E+00    0.2104322562E-02    0.4531346058E-01
    0.1000000000E+07    0.6348202615E+00    0.1867376287E+00    0.3990823970E+00    0.3531143080E-02    0.4518313165E-01
    0.3000000000E+07    0.6348386212E+00    0.1391470268E+00    0.4709983729E+00    0.2503065512E-02    0.4527441227E-01
    0.5000000000E+07    0.6348201502E+00    0.1189216867E+00    0.5014947984E+00    0.2088815044E-02    0.4531505649E-01
    0.7000000000E+07    0.6348033073E+00    0.1065239110E+00    0.5201716076E+00    0.1841514035E-02    0.4534153542E-01
    0.9000000000E+07    0.6347890614E+00    0.9779485711E-01    0.5333142323E+00    0.1670474121E-02    0.4536121507E-01
    0.1100000000E+08    0.6347769024E+00    0.9116644448E-01    0.5432900912E+00    0.1542335069E-02    0.4537688614E-01
    0.1300000000E+08    0.6347663488E+00    0.8588523735E-01    0.5512359303E+00    0.1441340577E-02    0.4538991021E-01
    0.1500000000E+08    0.6347570456E+00    0.8153431845E-01    0.5577804693E+00    0.1358886435E-02    0.4540105466E-01
    0.1700000000E+08    0.6347487368E+00    0.7786027846E-01    0.5633057112E+00    0.1289798964E-02    0.4541079497E-01
    0.1900000000E+08    0.6347412345E+00    0.7469835481E-01    0.5680599520E+00    0.1230744807E-02    0.4541944623E-01
    0.2100000000E+08    0.6347343985E+00    0.7193582769E-01    0.5722130163E+00    0.1179461391E-02    0.4542722804E-01
    0.2300000000E+08    0.6347281215E+00    0.6949244296E-01    0.5758857891E+00    0.1134348951E-02    0.4543429961E-01
    0.2500000000E+08    0.6347223198E+00    0.6730919434E-01    0.5791671331E+00    0.1094238535E-02    0.4544078003E-01
    0.2700000000E+08    0.6347169270E+00    0.6534153327E-01    0.5821241264E+00    0.1058252539E-02    0.4544676075E-01
