  Pressure (Pa) 22mC5-400 (mol/kg) 2mC6-400 (mol/kg) 3mC6-400 (mol/kg) 33mC5-400 (mol/kg) 23mC5-400 (mol/kg)
    0.1000000000E+01    0.3173584191E-02    0.1593568086E-02    0.2120201926E-02    0.6487133993E-04    0.6501221813E-03
    0.3000000000E+01    0.9385575192E-02    0.4699463813E-02    0.6296161304E-02    0.1912930365E-03    0.1922697203E-02
    0.5000000000E+01    0.1542440979E-01    0.7701224481E-02    0.1038847109E-01    0.3134570502E-03    0.3159828704E-02
    0.7000000000E+01    0.2129811428E-01    0.1060360772E-01    0.1439976143E-01    0.4315569863E-03    0.4363159262E-02
    0.9000000000E+01    0.2701421540E-01    0.1341108860E-01    0.1833255194E-01    0.5457749883E-03    0.5534229234E-02
    0.1100000000E+02    0.3257977846E-01    0.1612788038E-01    0.2218925753E-01    0.6562825781E-03    0.6674484559E-02
    0.1300000000E+02    0.3800144208E-01    0.1875795341E-01    0.2597219373E-01    0.7632414226E-03    0.7785283855E-02
    0.1500000000E+02    0.4328544978E-01    0.2130505246E-01    0.2968358186E-01    0.8668040351E-03    0.8867904900E-02
    0.1700000000E+02    0.4843767893E-01    0.2377271256E-01    0.3332555372E-01    0.9671144166E-03    0.9923550538E-02
    0.1900000000E+02    0.5346366712E-01    0.2616427350E-01    0.3690015612E-01    0.1064308644E-02    0.1095335408E-01
    0.2100000000E+02    0.5836863631E-01    0.2848289314E-01    0.4040935507E-01    0.1158515411E-02    0.1195838427E-01
    0.2300000000E+02    0.6315751505E-01    0.3073155972E-01    0.4385503976E-01    0.1249856520E-02    0.1293964977E-01
    0.2500000000E+02    0.6783495873E-01    0.3291310302E-01    0.4723902629E-01    0.1338447346E-02    0.1389810338E-01
    0.2700000000E+02    0.7240536827E-01    0.3503020482E-01    0.5056306116E-01    0.1424397249E-02    0.1483464581E-01
    0.2900000000E+02    0.7687290731E-01    0.3708540843E-01    0.5382882463E-01    0.1507809967E-02    0.1575012921E-01
    0.3100000000E+02    0.8124151796E-01    0.3908112750E-01    0.5703793384E-01    0.1588783970E-02    0.1664536040E-01
    0.3300000000E+02    0.8551493542E-01    0.4101965422E-01    0.6019194572E-01    0.1667412794E-02    0.1752110386E-01
    0.3500000000E+02    0.8969670138E-01    0.4290316685E-01    0.6329235982E-01    0.1743785346E-02    0.1837808446E-01
    0.3700000000E+02    0.9379017644E-01    0.4473373669E-01    0.6634062094E-01    0.1817986186E-02    0.1921699003E-01
    0.3900000000E+02    0.9779855158E-01    0.4651333460E-01    0.6933812160E-01    0.1890095791E-02    0.2003847365E-01
    0.4100000000E+02    0.1017248588E+00    0.4824383699E-01    0.7228620441E-01    0.1960190799E-02    0.2084315591E-01
    0.4300000000E+02    0.1055719808E+00    0.4992703138E-01    0.7518616429E-01    0.2028344233E-02    0.2163162682E-01
    0.4500000000E+02    0.1093426604E+00    0.5156462165E-01    0.7803925059E-01    0.2094625716E-02    0.2240444776E-01
    0.4700000000E+02    0.1130395087E+00    0.5315823282E-01    0.8084666908E-01    0.2159101662E-02    0.2316215317E-01
    0.4900000000E+02    0.1166650130E+00    0.5470941556E-01    0.8360958384E-01    0.2221835462E-02    0.2390525216E-01
    0.1000000000E+02    0.2981538966E-01    0.1478056700E-01    0.2027026836E-01    0.6014822581E-03    0.6108121846E-02
    0.3000000000E+02    0.7906934054E-01    0.3809055751E-01    0.5544036234E-01    0.1548595850E-02    0.1620022760E-01
    0.5000000000E+02    0.1184517565E+00    0.5546956156E-01    0.8497470515E-01    0.2252568082E-02    0.2427147679E-01
    0.7000000000E+02    0.1509622458E+00    0.6877150932E-01    0.1101948128E+00    0.2789115406E-02    0.3093580733E-01
    0.9000000000E+02    0.1784574415E+00    0.7916299268E-01    0.1320342175E+00    0.3205990190E-02    0.3657324322E-01
    0.1100000000E+03    0.2021514396E+00    0.8741393286E-01    0.1511716745E+00    0.3534777270E-02    0.4143230388E-01
    0.1300000000E+03    0.2228746997E+00    0.9405208657E-01    0.1681129248E+00    0.3797172372E-02    0.4568298848E-01
    0.1500000000E+03    0.2412170017E+00    0.9945054745E-01    0.1832428082E+00    0.4008542842E-02    0.4944603337E-01
    0.1700000000E+03    0.2576107258E+00    0.1038799099E+00    0.1968595682E+00    0.4180053659E-02    0.5280995684E-01
    0.1900000000E+03    0.2723815983E+00    0.1075407125E+00    0.2091980728E+00    0.4319991878E-02    0.5584144572E-01
    0.2100000000E+03    0.2857808245E+00    0.1105843460E+00    0.2204459222E+00    0.4434621617E-02    0.5859193223E-01
    0.2300000000E+03    0.2980061225E+00    0.1131269417E+00    0.2307548653E+00    0.4528752969E-02    0.6110189937E-01
    0.2500000000E+03    0.3092158988E+00    0.1152588394E+00    0.2402490477E+00    0.4606130549E-02    0.6340378270E-01
    0.2700000000E+03    0.3195390529E+00    0.1170511907E+00    0.2490310738E+00    0.4669704928E-02    0.6552397709E-01
    0.2900000000E+03    0.3290819151E+00    0.1185606552E+00    0.2571865318E+00    0.4721826055E-02    0.6748425710E-01
    0.3100000000E+03    0.3379332604E+00    0.1198328012E+00    0.2647874191E+00    0.4764383531E-02    0.6930280318E-01
    0.3300000000E+03    0.3461679994E+00    0.1209046050E+00    0.2718947671E+00    0.4798909928E-02    0.7099495733E-01
    0.3500000000E+03    0.3538499431E+00    0.1218063165E+00    0.2785606782E+00    0.4826657968E-02    0.7257378901E-01
    0.3700000000E+03    0.3610339056E+00    0.1225628663E+00    0.2848299220E+00    0.4848658896E-02    0.7405052563E-01
    0.3900000000E+03    0.3677673272E+00    0.1231949416E+00    0.2907411985E+00    0.4865767145E-02    0.7543488480E-01
    0.4100000000E+03    0.3740915429E+00    0.1237198166E+00    0.2963281475E+00    0.4878694857E-02    0.7673533405E-01
    0.4300000000E+03    0.3800427863E+00    0.1241519993E+00    0.3016201619E+00    0.4888038827E-02    0.7795929631E-01
    0.4500000000E+03    0.3856529930E+00    0.1245037402E+00    0.3066430478E+00    0.4894301705E-02    0.7911331441E-01
    0.4700000000E+03    0.3909504497E+00    0.1247854359E+00    0.3114195635E+00    0.4897908830E-02    0.8020318396E-01
    0.4900000000E+03    0.3959603240E+00    0.1250059506E+00    0.3159698650E+00    0.4899221674E-02    0.8123406180E-01
    0.1000000000E+03    0.1907207553E+00    0.8351862141E-01    0.1419057450E+00    0.3379857827E-02    0.3908802682E-01
    0.3000000000E+03    0.3335890566E+00    0.1192239051E+00    0.2610522516E+00    0.4744197107E-02    0.6841022889E-01
    0.5000000000E+03    0.3983645386E+00    0.1250956810E+00    0.3181658643E+00    0.4899115947E-02    0.8172883798E-01
    0.7000000000E+03    0.4357257348E+00    0.1250422027E+00    0.3536641833E+00    0.4831512202E-02    0.8942390047E-01
    0.9000000000E+03    0.4598777501E+00    0.1233067402E+00    0.3787004710E+00    0.4711193876E-02    0.9440687335E-01
    0.1100000000E+04    0.4766671851E+00    0.1210517452E+00    0.3977195038E+00    0.4581382288E-02    0.9787683917E-01
    0.1300000000E+04    0.4889582495E+00    0.1186731277E+00    0.4128868446E+00    0.4455020956E-02    0.1004215838E+00
    0.1500000000E+04    0.4983142822E+00    0.1163218568E+00    0.4254024182E+00    0.4336011084E-02    0.1023621251E+00
    0.1700000000E+04    0.5056569981E+00    0.1140573478E+00    0.4359935536E+00    0.4225201026E-02    0.1038878417E+00
    0.1900000000E+04    0.5115628390E+00    0.1119011702E+00    0.4451313403E+00    0.4122358178E-02    0.1051172413E+00
    0.2100000000E+04    0.5164096497E+00    0.1098582948E+00    0.4531368557E+00    0.4026885652E-02    0.1061280490E+00
    0.2300000000E+04    0.5204548022E+00    0.1079262618E+00    0.4602379521E+00    0.3938097429E-02    0.1069732394E+00
    0.2500000000E+04    0.5238793219E+00    0.1060993858E+00    0.4666017103E+00    0.3855324794E-02    0.1076900946E+00
    0.2700000000E+04    0.5268140447E+00    0.1043707594E+00    0.4723540140E+00    0.3777954713E-02    0.1083055766E+00
    0.2900000000E+04    0.5293557665E+00    0.1027332246E+00    0.4775918932E+00    0.3705440078E-02    0.1088396444E+00
    0.3100000000E+04    0.5315775655E+00    0.1011798373E+00    0.4823916035E+00    0.3637298420E-02    0.1093073756E+00
    0.3300000000E+04    0.5335356021E+00    0.9970407862E-01    0.4868140845E+00    0.3573106282E-02    0.1097203644E+00
    0.3500000000E+04    0.5352737178E+00    0.9829993447E-01    0.4909087505E+00    0.3512492339E-02    0.1100876672E+00
    0.3700000000E+04    0.5368266175E+00    0.9696190970E-01    0.4947161860E+00    0.3455130611E-02    0.1104164576E+00
    0.3900000000E+04    0.5382221193E+00    0.9568500893E-01    0.4982701024E+00    0.3400734263E-02    0.1107124889E+00
    0.4100000000E+04    0.5394827725E+00    0.9446470231E-01    0.5015987862E+00    0.3349050176E-02    0.1109804278E+00
    0.4300000000E+04    0.5406270428E+00    0.9329688545E-01    0.5047261870E+00    0.3299854254E-02    0.1112240984E+00
    0.4500000000E+04    0.5416701920E+00    0.9217783865E-01    0.5076727489E+00    0.3252947439E-02    0.1114466629E+00
    0.4700000000E+04    0.5426249406E+00    0.9110418789E-01    0.5104560528E+00    0.3208152312E-02    0.1116507588E+00
    0.4900000000E+04    0.5435019735E+00    0.9007286866E-01    0.5130913192E+00    0.3165310216E-02    0.1118386029E+00
    0.1000000000E+04    0.4689713376E+00    0.1222106044E+00    0.3887950986E+00    0.4646330621E-02    0.9628554407E-01
    0.3000000000E+04    0.5305028121E+00    0.1019464313E+00    0.4800424027E+00    0.3670850397E-02    0.1090810086E+00
    0.5000000000E+04    0.5439142267E+00    0.8957220221E-01    0.5143576491E+00    0.3144576496E-02    0.1119270284E+00
    0.7000000000E+04    0.5496825577E+00    0.8122306771E-01    0.5343874340E+00    0.2804568147E-02    0.1131755571E+00
    0.9000000000E+04    0.5528757582E+00    0.7506729905E-01    0.5480757533E+00    0.2560169793E-02    0.1138803377E+00
    0.1100000000E+05    0.5548980366E+00    0.7026480471E-01    0.5582521324E+00    0.2372846680E-02    0.1143353844E+00
    0.1300000000E+05    0.5562911219E+00    0.6637025305E-01    0.5662290938E+00    0.2222976953E-02    0.1146548986E+00
    0.1500000000E+05    0.5573077270E+00    0.6312190180E-01    0.5727148953E+00    0.2099327968E-02    0.1148925135E+00
    0.1700000000E+05    0.5580814353E+00    0.6035400025E-01    0.5781317464E+00    0.1994922059E-02    0.1150767688E+00
    0.1900000000E+05    0.5586894326E+00    0.5795552775E-01    0.5827498678E+00    0.1905155029E-02    0.1152242645E+00
    0.2100000000E+05    0.5591794000E+00    0.5584880050E-01    0.5867516978E+00    0.1826844216E-02    0.1153453232E+00
    0.2300000000E+05    0.5595823673E+00    0.5397752499E-01    0.5902656605E+00    0.1757706767E-02    0.1154467067E+00
    0.2500000000E+05    0.5599193909E+00    0.5229972158E-01    0.5933852437E+00    0.1696055174E-02    0.1155330333E+00
    0.2700000000E+05    0.5602052573E+00    0.5078332680E-01    0.5961804077E+00    0.1640610402E-02    0.1156075678E+00
    0.2900000000E+05    0.5604506530E+00    0.4940334942E-01    0.5987047313E+00    0.1590382299E-02    0.1156726846E+00
    0.3100000000E+05    0.5606634911E+00    0.4813996857E-01    0.6010000614E+00    0.1544590353E-02    0.1157301536E+00
    0.3300000000E+05    0.5608497550E+00    0.4697722478E-01    0.6030996402E+00    0.1502609578E-02    0.1157813215E+00
    0.3500000000E+05    0.5610140522E+00    0.4590209647E-01    0.6050302659E+00    0.1463932616E-02    0.1158272321E+00
    0.3700000000E+05    0.5611599872E+00    0.4490383418E-01    0.6068138232E+00    0.1428142581E-02    0.1158687073E+00
    0.3900000000E+05    0.5612904205E+00    0.4397347119E-01    0.6084683902E+00    0.1394893225E-02    0.1159064032E+00
    0.4100000000E+05    0.5614076501E+00    0.4310345778E-01    0.6100090537E+00    0.1363894184E-02    0.1159408506E+00
    0.4300000000E+05    0.5615135436E+00    0.4228738365E-01    0.6114485202E+00    0.1334899837E-02    0.1159724834E+00
    0.4500000000E+05    0.5616096340E+00    0.4151976432E-01    0.6127975803E+00    0.1307700777E-02    0.1160016600E+00
    0.4700000000E+05    0.5616971911E+00    0.4079587479E-01    0.6140654669E+00    0.1282117194E-02    0.1160286794E+00
    0.4900000000E+05    0.5617772761E+00    0.4011161850E-01    0.6152601339E+00    0.1257993676E-02    0.1160537926E+00
    0.1000000000E+05    0.5539892512E+00    0.7253058424E-01    0.5535007613E+00    0.2460871557E-02    0.1141298160E+00
    0.3000000000E+05    0.5605607301E+00    0.4875816007E-01    0.5998787703E+00    0.1566974006E-02    0.1157022826E+00
    0.5000000000E+05    0.5618148012E+00    0.3978321836E-01    0.6158322012E+00    0.1246436519E-02    0.1160657022E+00
    0.7000000000E+05    0.5623302857E+00    0.3462835646E-01    0.6247056425E+00    0.1066823606E-02    0.1162417187E+00
    0.9000000000E+05    0.5626049909E+00    0.3115421296E-01    0.6305790784E+00    0.9477658651E-03    0.1163506878E+00
    0.1100000000E+06    0.5627725131E+00    0.2860013400E-01    0.6348455550E+00    0.8613304462E-03    0.1164271315E+00
    0.1300000000E+06    0.5628834925E+00    0.2661613034E-01    0.6381309197E+00    0.7948627018E-03    0.1164849646E+00
    0.1500000000E+06    0.5629612336E+00    0.2501502471E-01    0.6407644362E+00    0.7416746356E-03    0.1165309752E+00
    0.1700000000E+06    0.5630179066E+00    0.2368618181E-01    0.6429383581E+00    0.6978510863E-03    0.1165689120E+00
    0.1900000000E+06    0.5630604623E+00    0.2255934178E-01    0.6447736120E+00    0.6609258332E-03    0.1166010348E+00
    0.2100000000E+06    0.5630931455E+00    0.2158740072E-01    0.6463506404E+00    0.6292570554E-03    0.1166287978E+00
    0.2300000000E+06    0.5631186872E+00    0.2073740976E-01    0.6477253471E+00    0.6017034115E-03    0.1166531855E+00
    0.2500000000E+06    0.5631389191E+00    0.1998551988E-01    0.6489379732E+00    0.5774433470E-03    0.1166748919E+00
    0.2700000000E+06    0.5631551125E+00    0.1931397595E-01    0.6500183340E+00    0.5558682922E-03    0.1166944223E+00
    0.2900000000E+06    0.5631681754E+00    0.1870924412E-01    0.6509890608E+00    0.5365164849E-03    0.1167121554E+00
    0.3100000000E+06    0.5631787718E+00    0.1816079914E-01    0.6518676888E+00    0.5190303240E-03    0.1167283813E+00
    0.3300000000E+06    0.5631873978E+00    0.1766031291E-01    0.6526680465E+00    0.5031279591E-03    0.1167433267E+00
    0.3500000000E+06    0.5631944305E+00    0.1720109592E-01    0.6534012083E+00    0.4885838171E-03    0.1167571720E+00
    0.3700000000E+06    0.5632001614E+00    0.1677770346E-01    0.6540761633E+00    0.4752149219E-03    0.1167700628E+00
    0.3900000000E+06    0.5632048185E+00    0.1638565179E-01    0.6547002958E+00    0.4628710726E-03    0.1167821181E+00
    0.4100000000E+06    0.5632085828E+00    0.1602120982E-01    0.6552797364E+00    0.4514276571E-03    0.1167934365E+00
    0.4300000000E+06    0.5632115992E+00    0.1568124358E-01    0.6558196238E+00    0.4407803032E-03    0.1168041004E+00
    0.4500000000E+06    0.5632139853E+00    0.1536309827E-01    0.6563243026E+00    0.4308408362E-03    0.1168141794E+00
    0.4700000000E+06    0.5632158370E+00    0.1506450777E-01    0.6567974745E+00    0.4215341825E-03    0.1168237328E+00
    0.4900000000E+06    0.5632172332E+00    0.1478352410E-01    0.6572423163E+00    0.4127959668E-03    0.1168328113E+00
    0.1000000000E+06    0.5626980203E+00    0.2978947919E-01    0.6328640909E+00    0.9014615388E-03    0.1163918581E+00
    0.3000000000E+06    0.5631737476E+00    0.1842855026E-01    0.6514389489E+00    0.5275593272E-03    0.1167204413E+00
    0.5000000000E+06    0.5632177814E+00    0.1464909920E-01    0.6574549856E+00    0.4086223591E-03    0.1168371865E+00
    0.7000000000E+06    0.5632160638E+00    0.1257417023E-01    0.6607257454E+00    0.3447877104E-03    0.1169078594E+00
    0.9000000000E+06    0.5632038348E+00    0.1121099983E-01    0.6628625223E+00    0.3034964354E-03    0.1169584358E+00
    0.1100000000E+07    0.5631889177E+00    0.1022573870E-01    0.6644010828E+00    0.2740046514E-03    0.1169977838E+00
    0.1300000000E+07    0.5631736642E+00    0.9469808886E-02    0.6655782348E+00    0.2515943361E-03    0.1170299719E+00
    0.1500000000E+07    0.5631588711E+00    0.8865559983E-02    0.6665171449E+00    0.2338253875E-03    0.1170571999E+00
    0.1700000000E+07    0.5631448026E+00    0.8367879654E-02    0.6672891084E+00    0.2192923628E-03    0.1170807902E+00
    0.1900000000E+07    0.5631315214E+00    0.7948504688E-02    0.6679386632E+00    0.2071211968E-03    0.1171015992E+00
    0.2100000000E+07    0.5631190101E+00    0.7588694633E-02    0.6684952709E+00    0.1967360340E-03    0.1171202130E+00
    0.2300000000E+07    0.5631072214E+00    0.7275460849E-02    0.6689793102E+00    0.1877400293E-03    0.1171370503E+00
    0.2500000000E+07    0.5630960983E+00    0.6999475348E-02    0.6694053910E+00    0.1798496400E-03    0.1171524206E+00
    0.2700000000E+07    0.5630855833E+00    0.6753840582E-02    0.6697843009E+00    0.1728561765E-03    0.1171665589E+00
    0.2900000000E+07    0.5630756226E+00    0.6533330065E-02    0.6701242029E+00    0.1666021824E-03    0.1171796481E+00
    0.3100000000E+07    0.5630661665E+00    0.6333900519E-02    0.6704314048E+00    0.1609663269E-03    0.1171918331E+00
    0.3300000000E+07    0.5630571708E+00    0.6152367723E-02    0.6707108690E+00    0.1558534071E-03    0.1172032308E+00
    0.3500000000E+07    0.5630485957E+00    0.5986184808E-02    0.6709665608E+00    0.1511875360E-03    0.1172139368E+00
    0.3700000000E+07    0.5630404058E+00    0.5833286780E-02    0.6712016926E+00    0.1469073815E-03    0.1172240303E+00
    0.3900000000E+07    0.5630325697E+00    0.5691979075E-02    0.6714188983E+00    0.1429627655E-03    0.1172335775E+00
    0.4100000000E+07    0.5630250593E+00    0.5560856121E-02    0.6716203611E+00    0.1393121858E-03    0.1172426346E+00
    0.4300000000E+07    0.5630178495E+00    0.5438740785E-02    0.6718079081E+00    0.1359209790E-03    0.1172512496E+00
    0.4500000000E+07    0.5630109180E+00    0.5324638664E-02    0.6719830820E+00    0.1327599380E-03    0.1172594635E+00
    0.4700000000E+07    0.5630042447E+00    0.5217703089E-02    0.6721471952E+00    0.1298042552E-03    0.1172673120E+00
    0.4900000000E+07    0.5629978114E+00    0.5117207998E-02    0.6723013727E+00    0.1270327070E-03    0.1172748265E+00
    0.1000000000E+07    0.5631965075E+00    0.1068281023E-01    0.6636879364E+00    0.2876476504E-03    0.1169791964E+00
    0.3000000000E+07    0.5630708344E+00    0.6431196327E-02    0.6702815543E+00    0.1637134579E-03    0.1171858458E+00
    0.5000000000E+07    0.5629946797E+00    0.5069176388E-02    0.6723750443E+00    0.1257101706E-03    0.1172784670E+00
    0.7000000000E+07    0.5629414278E+00    0.4331510853E-02    0.6735050467E+00    0.1055806592E-03    0.1173389007E+00
    0.9000000000E+07    0.5629005480E+00    0.3850627019E-02    0.6742402269E+00    0.9265759961E-04    0.1173838442E+00
    0.1100000000E+08    0.5628673839E+00    0.3504861688E-02    0.6747681092E+00    0.8347401767E-04    0.1174196437E+00
    0.1300000000E+08    0.5628394871E+00    0.3240586716E-02    0.6751711627E+00    0.7652137702E-04    0.1174494007E+00
    0.1500000000E+08    0.5628154141E+00    0.3029962257E-02    0.6754921294E+00    0.7102448253E-04    0.1174748650E+00
    0.1700000000E+08    0.5627942430E+00    0.2856895961E-02    0.6757556847E+00    0.6653900104E-04    0.1174971215E+00
    0.1900000000E+08    0.5627753494E+00    0.2711346180E-02    0.6759772106E+00    0.6278965503E-04    0.1175168894E+00
    0.2100000000E+08    0.5627582907E+00    0.2586676414E-02    0.6761668646E+00    0.5959565465E-04    0.1175346703E+00
    0.2300000000E+08    0.5627427419E+00    0.2478299678E-02    0.6763316623E+00    0.5683273880E-04    0.1175508279E+00
    0.2500000000E+08    0.5627284575E+00    0.2382929502E-02    0.6764766271E+00    0.5441232422E-04    0.1175656342E+00
    0.2700000000E+08    0.5627152472E+00    0.2298140680E-02    0.6766054642E+00    0.5226934072E-04    0.1175792982E+00
