  Pressure (Pa) 22mC5-400 (mol/kg) 2mC6-400 (mol/kg) 3mC6-400 (mol/kg) 33mC5-400 (mol/kg) 23mC5-400 (mol/kg)
    0.1000000000E+01    0.3174045706E-02    0.1593555468E-02    0.2119873482E-02    0.1946130697E-03    0.4644404313E-03
    0.3000000000E+01    0.9389626920E-02    0.4699340937E-02    0.6293272156E-02    0.5738694519E-03    0.1373947258E-02
    0.5000000000E+01    0.1543539341E-01    0.7700859605E-02    0.1038062521E-01    0.9403415225E-03    0.2258625640E-02
    0.7000000000E+01    0.2131913264E-01    0.1060285057E-01    0.1438472383E-01    0.1294607886E-02    0.3119613953E-02
    0.9000000000E+01    0.2704815202E-01    0.1340977391E-01    0.1830823817E-01    0.1637213178E-02    0.3957980409E-02
    0.1100000000E+02    0.3262931524E-01    0.1612583094E-01    0.2215372390E-01    0.1968670526E-02    0.4774728360E-02
    0.1300000000E+02    0.3806907532E-01    0.1875498273E-01    0.2592362827E-01    0.2289463803E-02    0.5570801136E-02
    0.1500000000E+02    0.4337350484E-01    0.2130096701E-01    0.2962029586E-01    0.2600049683E-02    0.6347086454E-02
    0.1700000000E+02    0.4854832346E-01    0.2376731378E-01    0.3324597391E-01    0.2900859537E-02    0.7104420450E-02
    0.1900000000E+02    0.5359892321E-01    0.2615735944E-01    0.3680281735E-01    0.3192301157E-02    0.7843591366E-02
    0.2100000000E+02    0.5853039154E-01    0.2847425996E-01    0.4029289349E-01    0.3474760351E-02    0.8565342927E-02
    0.2300000000E+02    0.6334753254E-01    0.3072100288E-01    0.4371818650E-01    0.3748602405E-02    0.9270377438E-02
    0.2500000000E+02    0.6805488643E-01    0.3290041838E-01    0.4708060152E-01    0.4014173431E-02    0.9959358631E-02
    0.2700000000E+02    0.7265674736E-01    0.3501518951E-01    0.5038196861E-01    0.4271801612E-02    0.1063291427E-01
    0.2900000000E+02    0.7715717995E-01    0.3706786161E-01    0.5362404640E-01    0.4521798342E-02    0.1129163858E-01
    0.3100000000E+02    0.8156003441E-01    0.3906085102E-01    0.5680852557E-01    0.4764459295E-02    0.1193609441E-01
    0.3300000000E+02    0.8586896053E-01    0.4099645313E-01    0.5993703214E-01    0.5000065394E-02    0.1256681536E-01
    0.3500000000E+02    0.9008742057E-01    0.4287684985E-01    0.6301113052E-01    0.5228883729E-02    0.1318430757E-01
    0.3700000000E+02    0.9421870122E-01    0.4470411650E-01    0.6603232642E-01    0.5451168389E-02    0.1378905156E-01
    0.3900000000E+02    0.9826592461E-01    0.4648022824E-01    0.6900206960E-01    0.5667161249E-02    0.1438150376E-01
    0.4100000000E+02    0.1022320585E+00    0.4820706600E-01    0.7192175646E-01    0.5877092687E-02    0.1496209806E-01
    0.4300000000E+02    0.1061199259E+00    0.4988642203E-01    0.7479273249E-01    0.6081182265E-02    0.1553124716E-01
    0.4500000000E+02    0.1099322136E+00    0.5152000505E-01    0.7761629456E-01    0.6279639351E-02    0.1608934387E-01
    0.4700000000E+02    0.1136714805E+00    0.5310944502E-01    0.8039369313E-01    0.6472663701E-02    0.1663676230E-01
    0.4900000000E+02    0.1173401650E+00    0.5465629762E-01    0.8312613432E-01    0.6660446007E-02    0.1717385896E-01
    0.1000000000E+02    0.2985680308E-01    0.1477890773E-01    0.2024057919E-01    0.1804304443E-02    0.4368996386E-02
    0.3000000000E+02    0.7937057180E-01    0.3807167044E-01    0.5522338271E-01    0.4644027898E-02    0.1161561604E-01
    0.5000000000E+02    0.1191487698E+00    0.5541422052E-01    0.8447586116E-01    0.6752428630E-02    0.1743864348E-01
    0.7000000000E+02    0.1521268158E+00    0.6866458103E-01    0.1093726787E+00    0.8357072625E-02    0.2226722692E-01
    0.9000000000E+02    0.1801283807E+00    0.7899402901E-01    0.1308760883E+00    0.9601697787E-02    0.2636799557E-01
    0.1100000000E+03    0.2043493701E+00    0.8717629571E-01    0.1496804325E+00    0.1058144034E-01    0.2991580510E-01
    0.1300000000E+03    0.2256095275E+00    0.9374195545E-01    0.1662997614E+00    0.1136166084E-01    0.3303051718E-01
    0.1500000000E+03    0.2444919300E+00    0.9906611397E-01    0.1811231057E+00    0.1198864979E-01    0.3579739213E-01
    0.1700000000E+03    0.2614245345E+00    0.1034207828E+00    0.1944505416E+00    0.1249603019E-01    0.3827901039E-01
    0.1900000000E+03    0.2767300136E+00    0.1070074922E+00    0.2065174176E+00    0.1290874982E-01    0.4052255856E-01
    0.2100000000E+03    0.2906573885E+00    0.1099783234E+00    0.2175110487E+00    0.1324565952E-01    0.4256445413E-01
    0.2300000000E+03    0.3034027765E+00    0.1124498839E+00    0.2275824784E+00    0.1352122900E-01    0.4443337901E-01
    0.2500000000E+03    0.3151233957E+00    0.1145128374E+00    0.2368549338E+00    0.1374671845E-01    0.4615232715E-01
    0.2700000000E+03    0.3259472615E+00    0.1162385485E+00    0.2454300102E+00    0.1393099689E-01    0.4774002225E-01
    0.2900000000E+03    0.3359800537E+00    0.1176838102E+00    0.2533922690E+00    0.1408112513E-01    0.4921192190E-01
    0.3100000000E+03    0.3453100806E+00    0.1188942648E+00    0.2608127042E+00    0.1420277839E-01    0.5058094344E-01
    0.3300000000E+03    0.3540119346E+00    0.1199069195E+00    0.2677513919E+00    0.1430055751E-01    0.5185799838E-01
    0.3500000000E+03    0.3621492288E+00    0.1207520227E+00    0.2742595377E+00    0.1437822135E-01    0.5305239268E-01
    0.3700000000E+03    0.3697766788E+00    0.1214544796E+00    0.2803810781E+00    0.1443886255E-01    0.5417213109E-01
    0.3900000000E+03    0.3769417080E+00    0.1220349344E+00    0.2861539448E+00    0.1448504191E-01    0.5522415189E-01
    0.4100000000E+03    0.3836857018E+00    0.1225106054E+00    0.2916110712E+00    0.1451889236E-01    0.5621451029E-01
    0.4300000000E+03    0.3900449996E+00    0.1228959351E+00    0.2967812030E+00    0.1454219999E-01    0.5714852352E-01
    0.4500000000E+03    0.3960516877E+00    0.1232031023E+00    0.3016895538E+00    0.1455646787E-01    0.5803088672E-01
    0.4700000000E+03    0.4017342397E+00    0.1234424272E+00    0.3063583408E+00    0.1456296669E-01    0.5886576667E-01
    0.4900000000E+03    0.4071180393E+00    0.1236226951E+00    0.3108072248E+00    0.1456277523E-01    0.5965687816E-01
    0.1000000000E+03    0.1926534050E+00    0.8331595316E-01    0.1405800553E+00    0.1012004940E-01    0.2820253348E-01
    0.3000000000E+03    0.3407279651E+00    0.1183158976E+00    0.2571662304E+00    0.1414520144E-01    0.4990856869E-01
    0.5000000000E+03    0.4097051017E+00    0.1236930736E+00    0.3129547391E+00    0.1456046344E-01    0.6003707370E-01
    0.7000000000E+03    0.4502019884E+00    0.1233447844E+00    0.3477237191E+00    0.1432640411E-01    0.6599304879E-01
    0.9000000000E+03    0.4766852678E+00    0.1214440626E+00    0.3723298357E+00    0.1394686810E-01    0.6989419271E-01
    0.1100000000E+04    0.4952363060E+00    0.1191036385E+00    0.3910848689E+00    0.1354710305E-01    0.7263126528E-01
    0.1300000000E+04    0.5088870467E+00    0.1166885911E+00    0.4060879411E+00    0.1316298003E-01    0.7464862492E-01
    0.1500000000E+04    0.5193149077E+00    0.1143311518E+00    0.4185026264E+00    0.1280430248E-01    0.7619225126E-01
    0.1700000000E+04    0.5275190705E+00    0.1120792510E+00    0.4290349125E+00    0.1247240183E-01    0.7740874763E-01
    0.1900000000E+04    0.5341293364E+00    0.1099473022E+00    0.4381426509E+00    0.1216579885E-01    0.7839057161E-01
    0.2100000000E+04    0.5395610210E+00    0.1079357394E+00    0.4461383411E+00    0.1188219364E-01    0.7919872694E-01
    0.2300000000E+04    0.5440983492E+00    0.1060391826E+00    0.4532440775E+00    0.1161919217E-01    0.7987498505E-01
    0.2500000000E+04    0.5479419714E+00    0.1042500438E+00    0.4596229625E+00    0.1137456423E-01    0.8044885107E-01
    0.2700000000E+04    0.5512373318E+00    0.1025601661E+00    0.4653980649E+00    0.1114632008E-01    0.8094172406E-01
    0.2900000000E+04    0.5540922853E+00    0.1009615680E+00    0.4706643822E+00    0.1093271664E-01    0.8136948145E-01
    0.3100000000E+04    0.5565884125E+00    0.9944676470E-01    0.4754966780E+00    0.1073223772E-01    0.8174413955E-01
    0.3300000000E+04    0.5587885031E+00    0.9800888553E-01    0.4799547808E+00    0.1054356668E-01    0.8207495210E-01
    0.3500000000E+04    0.5607416342E+00    0.9664169317E-01    0.4840872678E+00    0.1036555880E-01    0.8236915599E-01
    0.3700000000E+04    0.5624866946E+00    0.9533955663E-01    0.4879340860E+00    0.1019721612E-01    0.8263248904E-01
    0.3900000000E+04    0.5640548810E+00    0.9409740467E-01    0.4915284578E+00    0.1003766569E-01    0.8286955678E-01
    0.4100000000E+04    0.5654714991E+00    0.9291067261E-01    0.4948982918E+00    0.9886140956E-02    0.8308409717E-01
    0.4300000000E+04    0.5667572825E+00    0.9177524940E-01    0.4980672444E+00    0.9741966130E-02    0.8327917462E-01
    0.4500000000E+04    0.5679293752E+00    0.9068742771E-01    0.5010555308E+00    0.9604543121E-02    0.8345732443E-01
    0.4700000000E+04    0.5690020718E+00    0.8964385859E-01    0.5038805532E+00    0.9473340551E-02    0.8362066179E-01
    0.4900000000E+04    0.5699873827E+00    0.8864151087E-01    0.5065573924E+00    0.9347884556E-02    0.8377096490E-01
    0.1000000000E+04    0.4867189038E+00    0.1202975167E+00    0.3822768199E+00    0.1374629677E-01    0.7137403471E-01
    0.3000000000E+04    0.5553809062E+00    0.1001941364E+00    0.4731307429E+00    0.1083092325E-01    0.8156281490E-01
    0.5000000000E+04    0.5704505067E+00    0.8815492576E-01    0.5078444190E+00    0.9287177240E-02    0.8384170830E-01
    0.7000000000E+04    0.5769283374E+00    0.8003918624E-01    0.5282642853E+00    0.8292003838E-02    0.8483968347E-01
    0.9000000000E+04    0.5805120917E+00    0.7404949044E-01    0.5422877326E+00    0.7576520439E-02    0.8540204544E-01
    0.1100000000E+05    0.5827810347E+00    0.6937066044E-01    0.5527495808E+00    0.7027711805E-02    0.8576462972E-01
    0.1300000000E+05    0.5843440019E+00    0.6557179608E-01    0.5609719788E+00    0.6588252377E-02    0.8601893759E-01
    0.1500000000E+05    0.5854847881E+00    0.6239977322E-01    0.5676713331E+00    0.6225372284E-02    0.8620789051E-01
    0.1700000000E+05    0.5863533030E+00    0.5969425342E-01    0.5732761188E+00    0.5918723249E-02    0.8635430373E-01
    0.1900000000E+05    0.5870361165E+00    0.5734777650E-01    0.5780613116E+00    0.5654877603E-02    0.8647143512E-01
    0.2100000000E+05    0.5875866821E+00    0.5528509552E-01    0.5822129849E+00    0.5424550673E-02    0.8656752197E-01
    0.2300000000E+05    0.5880397742E+00    0.5345164147E-01    0.5858623790E+00    0.5221079989E-02    0.8664795634E-01
    0.2500000000E+05    0.5884189830E+00    0.5180669012E-01    0.5891051956E+00    0.5039538285E-02    0.8671641873E-01
    0.2700000000E+05    0.5887408716E+00    0.5031911420E-01    0.5920131600E+00    0.4876189133E-02    0.8677550920E-01
    0.2900000000E+05    0.5890174083E+00    0.4896463534E-01    0.5946412760E+00    0.4728138595E-02    0.8682711807E-01
    0.3100000000E+05    0.5892574546E+00    0.4772398532E-01    0.5970325561E+00    0.4593104329E-02    0.8687265352E-01
    0.3300000000E+05    0.5894677107E+00    0.4658163997E-01    0.5992212051E+00    0.4469257914E-02    0.8691318678E-01
    0.3500000000E+05    0.5896533359E+00    0.4552492544E-01    0.6012348250E+00    0.4355114376E-02    0.8694954767E-01
    0.3700000000E+05    0.5898183666E+00    0.4454337346E-01    0.6030959774E+00    0.4249453003E-02    0.8698238941E-01
    0.3900000000E+05    0.5899660060E+00    0.4362824729E-01    0.6048233149E+00    0.4151259492E-02    0.8701223342E-01
    0.4100000000E+05    0.5900988277E+00    0.4277218717E-01    0.6064324161E+00    0.4059682899E-02    0.8703950123E-01
    0.4300000000E+05    0.5902189236E+00    0.4196894115E-01    0.6079364110E+00    0.3974003133E-02    0.8706453742E-01
    0.4500000000E+05    0.5903280106E+00    0.4121315782E-01    0.6093464572E+00    0.3893606039E-02    0.8708762659E-01
    0.4700000000E+05    0.5904275116E+00    0.4050022488E-01    0.6106721074E+00    0.3817964074E-02    0.8710900592E-01
    0.4900000000E+05    0.5905186152E+00    0.3982614186E-01    0.6119215963E+00    0.3746621130E-02    0.8712887477E-01
    0.1000000000E+05    0.5817614408E+00    0.7157882739E-01    0.5478610647E+00    0.7285659993E-02    0.8560088667E-01
    0.3000000000E+05    0.5891415318E+00    0.4833112781E-01    0.5958642059E+00    0.4659117865E-02    0.8685057143E-01
    0.5000000000E+05    0.5905613372E+00    0.3950256084E-01    0.6125200497E+00    0.3712435778E-02    0.8713829655E-01
    0.7000000000E+05    0.5911512217E+00    0.3441793030E-01    0.6218136933E+00    0.3180627701E-02    0.8727748953E-01
    0.9000000000E+05    0.5914693473E+00    0.3098535131E-01    0.6279761320E+00    0.2827559264E-02    0.8736361312E-01
    0.1100000000E+06    0.5916658857E+00    0.2845885794E-01    0.6324576482E+00    0.2570948355E-02    0.8742401067E-01
    0.1300000000E+06    0.5917979326E+00    0.2649454526E-01    0.6359113679E+00    0.2373452237E-02    0.8746969486E-01
    0.1500000000E+06    0.5918918508E+00    0.2490822412E-01    0.6386814801E+00    0.2215309256E-02    0.8750603513E-01
    0.1700000000E+06    0.5919614553E+00    0.2359090264E-01    0.6409692040E+00    0.2084938944E-02    0.8753599568E-01
    0.1900000000E+06    0.5920146652E+00    0.2247330137E-01    0.6429012287E+00    0.1975040430E-02    0.8756136293E-01
    0.2100000000E+06    0.5920563352E+00    0.2150893830E-01    0.6445618962E+00    0.1880749921E-02    0.8758328622E-01
    0.2300000000E+06    0.5920896006E+00    0.2066527848E-01    0.6460098587E+00    0.1798684224E-02    0.8760254348E-01
    0.2500000000E+06    0.5921165728E+00    0.1991875930E-01    0.6472873582E+00    0.1726406794E-02    0.8761968298E-01
    0.2700000000E+06    0.5921387235E+00    0.1925183020E-01    0.6484257073E+00    0.1662111922E-02    0.8763510407E-01
    0.2900000000E+06    0.5921571078E+00    0.1865110746E-01    0.6494486836E+00    0.1604428935E-02    0.8764910580E-01
    0.3100000000E+06    0.5921725013E+00    0.1810617852E-01    0.6503747167E+00    0.1552295963E-02    0.8766191730E-01
    0.3300000000E+06    0.5921854856E+00    0.1760880152E-01    0.6512183449E+00    0.1504875792E-02    0.8767371768E-01
    0.3500000000E+06    0.5921965051E+00    0.1715235416E-01    0.6519912144E+00    0.1461498175E-02    0.8768464938E-01
    0.3700000000E+06    0.5922059045E+00    0.1673144480E-01    0.6527027808E+00    0.1421619287E-02    0.8769482737E-01
    0.3900000000E+06    0.5922139553E+00    0.1634163226E-01    0.6533608130E+00    0.1384792598E-02    0.8770434569E-01
    0.4100000000E+06    0.5922208737E+00    0.1597921993E-01    0.6539717627E+00    0.1350647567E-02    0.8771328217E-01
    0.4300000000E+06    0.5922268340E+00    0.1564110210E-01    0.6545410383E+00    0.1318873771E-02    0.8772170189E-01
    0.4500000000E+06    0.5922319779E+00    0.1532464735E-01    0.6550732133E+00    0.1289208905E-02    0.8772965982E-01
    0.4700000000E+06    0.5922364219E+00    0.1502760906E-01    0.6555721852E+00    0.1261429601E-02    0.8773720272E-01
    0.4900000000E+06    0.5922402625E+00    0.1474805566E-01    0.6560412989E+00    0.1235344283E-02    0.8774437073E-01
    0.1000000000E+06    0.5915781628E+00    0.2963567082E-01    0.6303757966E+00    0.2690120299E-02    0.8739614331E-01
    0.3000000000E+06    0.5921651383E+00    0.1837222734E-01    0.6499228317E+00    0.1577725511E-02    0.8765564814E-01
    0.5000000000E+06    0.5922419822E+00    0.1461430460E-01    0.6562655775E+00    0.1222884296E-02    0.8774782517E-01
    0.7000000000E+06    0.5922586323E+00    0.1254892574E-01    0.6597152228E+00    0.1032235218E-02    0.8780362596E-01
    0.9000000000E+06    0.5922589715E+00    0.1119116577E-01    0.6619690436E+00    0.9088384616E-03    0.8784356029E-01
    0.1100000000E+07    0.5922535496E+00    0.1020939308E-01    0.6635918482E+00    0.8206671719E-03    0.8787462968E-01
    0.1300000000E+07    0.5922459039E+00    0.9455901661E-02    0.6648333793E+00    0.7536467748E-03    0.8790004618E-01
    0.1500000000E+07    0.5922374474E+00    0.8853454268E-02    0.6658235597E+00    0.7004942565E-03    0.8792154650E-01
    0.1700000000E+07    0.5922288034E+00    0.8357159838E-02    0.6666376052E+00    0.6570130950E-03    0.8794017466E-01
    0.1900000000E+07    0.5922202613E+00    0.7938884439E-02    0.6673225065E+00    0.6205925846E-03    0.8795660678E-01
    0.2100000000E+07    0.5922119562E+00    0.7579968251E-02    0.6679093490E+00    0.5895122810E-03    0.8797130566E-01
    0.2300000000E+07    0.5922039474E+00    0.7267475548E-02    0.6684196348E+00    0.5625862966E-03    0.8798460184E-01
    0.2500000000E+07    0.5921962557E+00    0.6992114520E-02    0.6688687795E+00    0.5389671655E-03    0.8799673964E-01
    0.2700000000E+07    0.5921888823E+00    0.6747013194E-02    0.6692681653E+00    0.5180310442E-03    0.8800790467E-01
    0.2900000000E+07    0.5921818180E+00    0.6526963680E-02    0.6696264052E+00    0.4993071745E-03    0.8801824130E-01
    0.3100000000E+07    0.5921750486E+00    0.6327936549E-02    0.6699501545E+00    0.4824327593E-03    0.8802786397E-01
    0.3300000000E+07    0.5921685580E+00    0.6146758105E-02    0.6702446487E+00    0.4671230955E-03    0.8803686495E-01
    0.3500000000E+07    0.5921623293E+00    0.5980889623E-02    0.6705140715E+00    0.4531512197E-03    0.8804531972E-01
    0.3700000000E+07    0.5921563459E+00    0.5828272507E-02    0.6707618118E+00    0.4403336828E-03    0.8805329081E-01
    0.3900000000E+07    0.5921505921E+00    0.5687217294E-02    0.6709906484E+00    0.4285203849E-03    0.8806083058E-01
    0.4100000000E+07    0.5921450530E+00    0.5556322526E-02    0.6712028843E+00    0.4175871687E-03    0.8806798335E-01
    0.4300000000E+07    0.5921397148E+00    0.5434414425E-02    0.6714004471E+00    0.4074303286E-03    0.8807478691E-01
    0.4500000000E+07    0.5921345647E+00    0.5320501353E-02    0.6715849638E+00    0.3979624766E-03    0.8808127380E-01
    0.4700000000E+07    0.5921295907E+00    0.5213738938E-02    0.6717578190E+00    0.3891093843E-03    0.8808747221E-01
    0.4900000000E+07    0.5921247822E+00    0.5113403045E-02    0.6719201993E+00    0.3808075421E-03    0.8809340672E-01
    0.1000000000E+07    0.5922566824E+00    0.1066489011E-01    0.6628396629E+00    0.8614593154E-03    0.8785995294E-01
    0.3000000000E+07    0.5921783974E+00    0.6425037751E-02    0.6697922356E+00    0.4906581344E-03    0.8802313567E-01
    0.5000000000E+07    0.5921224367E+00    0.5065446317E-02    0.6719977869E+00    0.3768459451E-03    0.8809628186E-01
    0.7000000000E+07    0.5920821689E+00    0.4328833312E-02    0.6731875411E+00    0.3165411907E-03    0.8814401038E-01
    0.9000000000E+07    0.5920508745E+00    0.3848537970E-02    0.6739612306E+00    0.2778181439E-03    0.8817950606E-01
    0.1100000000E+08    0.5920253114E+00    0.3503148747E-02    0.6745165518E+00    0.2502965381E-03    0.8820778040E-01
    0.1300000000E+08    0.5920037135E+00    0.3239134981E-02    0.6749404197E+00    0.2294586623E-03    0.8823128264E-01
    0.1500000000E+08    0.5919850186E+00    0.3028702541E-02    0.6752778686E+00    0.2129825978E-03    0.8825139466E-01
    0.1700000000E+08    0.5919685401E+00    0.2855783372E-02    0.6755548908E+00    0.1995372772E-03    0.8826897320E-01
    0.1900000000E+08    0.5919538087E+00    0.2710349932E-02    0.6757876856E+00    0.1882979821E-03    0.8828458634E-01
    0.2100000000E+08    0.5919404896E+00    0.2585774477E-02    0.6759869485E+00    0.1787230297E-03    0.8829863014E-01
    0.2300000000E+08    0.5919283360E+00    0.2477475741E-02    0.6761600649E+00    0.1704400833E-03    0.8831139181E-01
    0.2500000000E+08    0.5919171602E+00    0.2382171153E-02    0.6763123227E+00    0.1631836956E-03    0.8832308626E-01
    0.2700000000E+08    0.5919068167E+00    0.2297438253E-02    0.6764476211E+00    0.1567588685E-03    0.8833387849E-01
