  Pressure (Pa) 22mC5-400 (mol/kg) 2mC6-400 (mol/kg) 3mC6-400 (mol/kg) 33mC5-400 (mol/kg) 23mC5-400 (mol/kg)
    0.1000000000E+01    0.3171640461E-02    0.2390424517E-02    0.1060403104E-02    0.3243626155E-03    0.3712708974E-03
    0.3000000000E+01    0.9368831418E-02    0.7050063782E-02    0.3150759658E-02    0.9565487732E-03    0.1096724408E-02
    0.5000000000E+01    0.1537986692E-01    0.1155479871E-01    0.5201568232E-02    0.1567594768E-02    0.1800402966E-02
    0.7000000000E+01    0.2121445677E-01    0.1591220508E-01    0.7214044522E-02    0.2158530586E-02    0.2483442155E-02
    0.9000000000E+01    0.2688162908E-01    0.2012935766E-01    0.9189353929E-02    0.2730318292E-02    0.3146897837E-02
    0.1100000000E+02    0.3238978897E-01    0.2421287195E-01    0.1112861415E-01    0.3283857683E-02    0.3791753024E-02
    0.1300000000E+02    0.3774677137E-01    0.2816894183E-01    0.1303289760E-01    0.3819991377E-02    0.4418924051E-02
    0.1500000000E+02    0.4295988858E-01    0.3200337337E-01    0.1490323372E-01    0.4339509402E-02    0.5029266129E-02
    0.1700000000E+02    0.4803597311E-01    0.3572161557E-01    0.1674061112E-01    0.4843153343E-02    0.5623578369E-02
    0.1900000000E+02    0.5298141648E-01    0.3932878800E-01    0.1854597959E-01    0.5331620096E-02    0.6202608302E-02
    0.2100000000E+02    0.5780220422E-01    0.4282970603E-01    0.2032025198E-01    0.5805565276E-02    0.6767055987E-02
    0.2300000000E+02    0.6250394770E-01    0.4622890358E-01    0.2206430604E-01    0.6265606305E-02    0.7317577724E-02
    0.2500000000E+02    0.6709191298E-01    0.4953065397E-01    0.2377898608E-01    0.6712325232E-02    0.7854789428E-02
    0.2700000000E+02    0.7157104699E-01    0.5273898884E-01    0.2546510456E-01    0.7146271292E-02    0.8379269698E-02
    0.2900000000E+02    0.7594600150E-01    0.5585771537E-01    0.2712344357E-01    0.7567963251E-02    0.8891562608E-02
    0.3100000000E+02    0.8022115482E-01    0.5889043217E-01    0.2875475628E-01    0.7977891541E-02    0.9392180255E-02
    0.3300000000E+02    0.8440063173E-01    0.6184054363E-01    0.3035976827E-01    0.8376520224E-02    0.9881605085E-02
    0.3500000000E+02    0.8848832164E-01    0.6471127324E-01    0.3193917878E-01    0.8764288781E-02    0.1036029202E-01
    0.3700000000E+02    0.9248789522E-01    0.6750567571E-01    0.3349366190E-01    0.9141613765E-02    0.1082867039E-01
    0.3900000000E+02    0.9640281968E-01    0.7022664815E-01    0.3502386771E-01    0.9508890310E-02    0.1128714574E-01
    0.4100000000E+02    0.1002363727E+00    0.7287694035E-01    0.3653042336E-01    0.9866493528E-02    0.1173610145E-01
    0.4300000000E+02    0.1039916555E+00    0.7545916424E-01    0.3801393405E-01    0.1021477979E-01    0.1217590024E-01
    0.4500000000E+02    0.1076716043E+00    0.7797580265E-01    0.3947498403E-01    0.1055408793E-01    0.1260688558E-01
    0.4700000000E+02    0.1112790015E+00    0.8042921736E-01    0.4091413747E-01    0.1088474029E-01    0.1302938290E-01
    0.4900000000E+02    0.1148164856E+00    0.8282165654E-01    0.4233193934E-01    0.1120704379E-01    0.1344370083E-01
    0.1000000000E+02    0.2965508311E-01    0.2218742300E-01    0.1016342213E-01    0.3009315079E-02    0.3471591727E-02
    0.3000000000E+02    0.7809578979E-01    0.5738460782E-01    0.2794243223E-01    0.7774368254E-02    0.9143300017E-02
    0.5000000000E+02    0.1165597978E+00    0.8399568352E-01    0.4303299869E-01    0.1136515663E-01    0.1364788463E-01
    0.7000000000E+02    0.1483010066E+00    0.1047451951E+00    0.5605241104E-01    0.1415332252E-01    0.1736593853E-01
    0.9000000000E+02    0.1752442364E+00    0.1213066594E+00    0.6743914096E-01    0.1636755765E-01    0.2052261104E-01
    0.1100000000E+03    0.1986054664E+00    0.1347706210E+00    0.7751362236E-01    0.1815713371E-01    0.2326014393E-01
    0.1300000000E+03    0.2191942926E+00    0.1458806336E+00    0.8651574756E-01    0.1962397715E-01    0.2567324529E-01
    0.1500000000E+03    0.2375734594E+00    0.1551621007E+00    0.9462887710E-01    0.2084020493E-01    0.2782774842E-01
    0.1700000000E+03    0.2541484756E+00    0.1629971646E+00    0.1019957123E+00    0.2185833055E-01    0.2977109385E-01
    0.1900000000E+03    0.2692206311E+00    0.1696704870E+00    0.1087290825E+00    0.2271751079E-01    0.3153853063E-01
    0.2100000000E+03    0.2830197528E+00    0.1753984162E+00    0.1149194551E+00    0.2344753050E-01    0.3315694791E-01
    0.2300000000E+03    0.2957252036E+00    0.1803482243E+00    0.1206402775E+00    0.2407143354E-01    0.3464733136E-01
    0.2500000000E+03    0.3074797824E+00    0.1846511698E+00    0.1259518493E+00    0.2460731151E-01    0.3602638913E-01
    0.2700000000E+03    0.3183991843E+00    0.1884115948E+00    0.1309041771E+00    0.2506955064E-01    0.3730765857E-01
    0.2900000000E+03    0.3285786006E+00    0.1917133985E+00    0.1355391116E+00    0.2546972014E-01    0.3850227828E-01
    0.3100000000E+03    0.3380974254E+00    0.1946247327E+00    0.1398919705E+00    0.2581721717E-01    0.3961953873E-01
    0.3300000000E+03    0.3470226794E+00    0.1972014654E+00    0.1439927854E+00    0.2611974318E-01    0.4066728282E-01
    0.3500000000E+03    0.3554115460E+00    0.1994897744E+00    0.1478672715E+00    0.2638366082E-01    0.4165220249E-01
    0.3700000000E+03    0.3633132798E+00    0.2015281153E+00    0.1515375902E+00    0.2661426518E-01    0.4258006211E-01
    0.3900000000E+03    0.3707706662E+00    0.2033487332E+00    0.1550229537E+00    0.2681599220E-01    0.4345586914E-01
    0.4100000000E+03    0.3778211514E+00    0.2049788359E+00    0.1583401091E+00    0.2699258076E-01    0.4428400637E-01
    0.4300000000E+03    0.3844977304E+00    0.2064415150E+00    0.1615037297E+00    0.2714719979E-01    0.4506833577E-01
    0.4500000000E+03    0.3908296512E+00    0.2077564741E+00    0.1645267333E+00    0.2728254910E-01    0.4581228095E-01
    0.4700000000E+03    0.3968429815E+00    0.2089406101E+00    0.1674205421E+00    0.2740093978E-01    0.4651889336E-01
    0.4900000000E+03    0.4025610673E+00    0.2100084809E+00    0.1701952990E+00    0.2750435900E-01    0.4719090601E-01
    0.1000000000E+03    0.1873148052E+00    0.1283730831E+00    0.7262386268E-01    0.1730820102E-01    0.2193700891E-01
    0.3000000000E+03    0.3334161415E+00    0.1932141286E+00    0.1377488122E+00    0.2564953630E-01    0.3907005820E-01
    0.5000000000E+03    0.4053160390E+00    0.2105028214E+00    0.1715408972E+00    0.2755099986E-01    0.4751471542E-01
    0.7000000000E+03    0.4490616625E+00    0.2165938898E+00    0.1939541427E+00    0.2801052267E-01    0.5265990824E-01
    0.9000000000E+03    0.4782855264E+00    0.2187343612E+00    0.2106624897E+00    0.2800504963E-01    0.5610193656E-01
    0.1100000000E+04    0.4990172064E+00    0.2191570532E+00    0.2239831475E+00    0.2782250589E-01    0.5854723008E-01
    0.1300000000E+04    0.5143868294E+00    0.2187331573E+00    0.2350701201E+00    0.2756800040E-01    0.6036271472E-01
    0.1500000000E+04    0.5261778800E+00    0.2178592633E+00    0.2445760027E+00    0.2728539334E-01    0.6175756632E-01
    0.1700000000E+04    0.5354753975E+00    0.2167365023E+00    0.2529040740E+00    0.2699464165E-01    0.6285910817E-01
    0.1900000000E+04    0.5429737635E+00    0.2154751614E+00    0.2603204024E+00    0.2670530539E-01    0.6374886287E-01
    0.2100000000E+04    0.5491359320E+00    0.2141392693E+00    0.2670095779E+00    0.2642204786E-01    0.6448120972E-01
    0.2300000000E+04    0.5542812607E+00    0.2127675759E+00    0.2731048559E+00    0.2614708750E-01    0.6509367966E-01
    0.2500000000E+04    0.5586365081E+00    0.2113842282E+00    0.2787055810E+00    0.2588137103E-01    0.6561293462E-01
    0.2700000000E+04    0.5623667300E+00    0.2100045585E+00    0.2838878108E+00    0.2562516689E-01    0.6605839139E-01
    0.2900000000E+04    0.5655946894E+00    0.2086383870E+00    0.2887110870E+00    0.2537837897E-01    0.6644449875E-01
    0.3100000000E+04    0.5684134366E+00    0.2072919903E+00    0.2932229128E+00    0.2514071804E-01    0.6678221397E-01
    0.3300000000E+04    0.5708946892E+00    0.2059693149E+00    0.2974618092E+00    0.2491179782E-01    0.6707998660E-01
    0.3500000000E+04    0.5730945515E+00    0.2046727495E+00    0.3014594581E+00    0.2469118960E-01    0.6734443003E-01
    0.3700000000E+04    0.5750575018E+00    0.2034036278E+00    0.3052422414E+00    0.2447845345E-01    0.6758078995E-01
    0.3900000000E+04    0.5768192268E+00    0.2021625636E+00    0.3088323690E+00    0.2427315585E-01    0.6779327737E-01
    0.4100000000E+04    0.5784086714E+00    0.2009496773E+00    0.3122487211E+00    0.2407487949E-01    0.6798530955E-01
    0.4300000000E+04    0.5798495451E+00    0.1997647522E+00    0.3155074876E+00    0.2388322820E-01    0.6815968715E-01
    0.4500000000E+04    0.5811614441E+00    0.1986073425E+00    0.3186226605E+00    0.2369782921E-01    0.6831872617E-01
    0.4700000000E+04    0.5823606991E+00    0.1974768498E+00    0.3216064176E+00    0.2351833362E-01    0.6846435770E-01
    0.4900000000E+04    0.5834610230E+00    0.1963725768E+00    0.3244694266E+00    0.2334441600E-01    0.6859820413E-01
    0.1000000000E+04    0.4894742451E+00    0.2190893668E+00    0.2176577944E+00    0.2792716360E-01    0.5742120463E-01
    0.3000000000E+04    0.5670503095E+00    0.2079624262E+00    0.2910033418E+00    0.2525843028E-01    0.6661882758E-01
    0.5000000000E+04    0.5839777806E+00    0.1958300375E+00    0.3258586318E+00    0.2325945341E-01    0.6866114529E-01
    0.7000000000E+04    0.5911733869E+00    0.1861643206E+00    0.3490954709E+00    0.2179009680E-01    0.6954467821E-01
    0.9000000000E+04    0.5951236631E+00    0.1782830819E+00    0.3665283768E+00    0.2064025443E-01    0.7003831143E-01
    0.1100000000E+05    0.5976112165E+00    0.1716726155E+00    0.3804493065E+00    0.1970112493E-01    0.7035463633E-01
    0.1300000000E+05    0.5993180942E+00    0.1660005486E+00    0.3920091416E+00    0.1891074741E-01    0.7057548282E-01
    0.1500000000E+05    0.6005602900E+00    0.1610462507E+00    0.4018709213E+00    0.1823071467E-01    0.7073899027E-01
    0.1700000000E+05    0.6015039072E+00    0.1566572939E+00    0.4104525533E+00    0.1763563829E-01    0.7086532687E-01
    0.1900000000E+05    0.6022444848E+00    0.1527244307E+00    0.4180347897E+00    0.1710788679E-01    0.7096616227E-01
    0.2100000000E+05    0.6028408194E+00    0.1491668693E+00    0.4248154726E+00    0.1663473086E-01    0.7104872108E-01
    0.2300000000E+05    0.6033310549E+00    0.1459232605E+00    0.4309393055E+00    0.1620668816E-01    0.7111771816E-01
    0.2500000000E+05    0.6037410062E+00    0.1429459649E+00    0.4365153335E+00    0.1581651088E-01    0.7117636336E-01
    0.2700000000E+05    0.6040887616E+00    0.1401972752E+00    0.4416277689E+00    0.1545853854E-01    0.7122691913E-01
    0.2900000000E+05    0.6043873682E+00    0.1376468501E+00    0.4463429930E+00    0.1512826867E-01    0.7127102707E-01
    0.3100000000E+05    0.6046464717E+00    0.1352699237E+00    0.4507142502E+00    0.1482206316E-01    0.7130990791E-01
    0.3300000000E+05    0.6048733552E+00    0.1330460260E+00    0.4547848921E+00    0.1453694178E-01    0.7134448883E-01
    0.3500000000E+05    0.6050736202E+00    0.1309580488E+00    0.4585906779E+00    0.1427043382E-01    0.7137548708E-01
    0.3700000000E+05    0.6052516443E+00    0.1289915524E+00    0.4621614431E+00    0.1402046905E-01    0.7140346650E-01
    0.3900000000E+05    0.6054108981E+00    0.1271342416E+00    0.4655223344E+00    0.1378529639E-01    0.7142887670E-01
    0.4100000000E+05    0.6055541679E+00    0.1253755631E+00    0.4686947383E+00    0.1356342207E-01    0.7145208073E-01
    0.4300000000E+05    0.6056837166E+00    0.1237063942E+00    0.4716969912E+00    0.1335356203E-01    0.7147337511E-01
    0.4500000000E+05    0.6058014002E+00    0.1221187966E+00    0.4745449300E+00    0.1315460480E-01    0.7149300451E-01
    0.4700000000E+05    0.6059087559E+00    0.1206058219E+00    0.4772523237E+00    0.1296558225E-01    0.7151117267E-01
    0.4900000000E+05    0.6060070672E+00    0.1191613542E+00    0.4798312157E+00    0.1278564616E-01    0.7152805071E-01
    0.1000000000E+05    0.5964947617E+00    0.1748430802E+00    0.3738400232E+00    0.2014895670E-01    0.7021198683E-01
    0.3000000000E+05    0.6045213566E+00    0.1364380673E+00    0.4485687068E+00    0.1497235759E-01    0.7129105719E-01
    0.5000000000E+05    0.6060531755E+00    0.1184630953E+00    0.4810758342E+00    0.1269884857E-01    0.7153605208E-01
    0.7000000000E+05    0.6066906329E+00    0.1070582265E+00    0.5012321802E+00    0.1129788584E-01    0.7165410262E-01
    0.9000000000E+05    0.6070357476E+00    0.9886885937E-01    0.5155265314E+00    0.1031107652E-01    0.7172700607E-01
    0.1100000000E+06    0.6072500186E+00    0.9256758843E-01    0.5264361377E+00    0.9562592778E-02    0.7177807679E-01
    0.1300000000E+06    0.6073947988E+00    0.8749816100E-01    0.5351616433E+00    0.8967272412E-02    0.7181667957E-01
    0.1500000000E+06    0.6074984200E+00    0.8329023278E-01    0.5423717815E+00    0.8477787756E-02    0.7184737247E-01
    0.1700000000E+06    0.6075757387E+00    0.7971537707E-01    0.5484751213E+00    0.8065303204E-02    0.7187266874E-01
    0.1900000000E+06    0.6076352789E+00    0.7662335391E-01    0.5537384292E+00    0.7711045751E-02    0.7189408164E-01
    0.2100000000E+06    0.6076822724E+00    0.7391041103E-01    0.5583448546E+00    0.7402163965E-02    0.7191258410E-01
    0.2300000000E+06    0.6077201026E+00    0.7150209849E-01    0.5624251892E+00    0.7129506108E-02    0.7192883429E-01
    0.2500000000E+06    0.6077510516E+00    0.6934331123E-01    0.5660758479E+00    0.6886344111E-02    0.7194329587E-01
    0.2700000000E+06    0.6077767122E+00    0.6739220512E-01    0.5693697889E+00    0.6667599980E-02    0.7195630645E-01
    0.2900000000E+06    0.6077982287E+00    0.6561631492E-01    0.5723634460E+00    0.6469355573E-02    0.7196811875E-01
    0.3100000000E+06    0.6078164433E+00    0.6398998593E-01    0.5751012952E+00    0.6288530285E-02    0.7197892636E-01
    0.3300000000E+06    0.6078319890E+00    0.6249262191E-01    0.5776189582E+00    0.6122662397E-02    0.7198888059E-01
    0.3500000000E+06    0.6078453504E+00    0.6110745785E-01    0.5799453682E+00    0.5969756726E-02    0.7199810172E-01
    0.3700000000E+06    0.6078569041E+00    0.5982068054E-01    0.5821043183E+00    0.5828175967E-02    0.7200668685E-01
    0.3900000000E+06    0.6078669471E+00    0.5862078559E-01    0.5841155896E+00    0.5696561590E-02    0.7201471538E-01
    0.4100000000E+06    0.6078757168E+00    0.5749809884E-01    0.5859957893E+00    0.5573775223E-02    0.7202225300E-01
    0.4300000000E+06    0.6078834046E+00    0.5644441458E-01    0.5877589831E+00    0.5458854489E-02    0.7202935467E-01
    0.4500000000E+06    0.6078901668E+00    0.5545271800E-01    0.5894171786E+00    0.5350979267E-02    0.7203606675E-01
    0.4700000000E+06    0.6078961320E+00    0.5451696964E-01    0.5909807006E+00    0.5249445573E-02    0.7204242872E-01
    0.4900000000E+06    0.6079014068E+00    0.5363193601E-01    0.5924584855E+00    0.5153645094E-02    0.7204847446E-01
    0.1000000000E+06    0.6071542393E+00    0.9553257106E-01    0.5213118942E+00    0.9913610892E-02    0.7175451811E-01
    0.3000000000E+06    0.6078077051E+00    0.6478584467E-01    0.5737619417E+00    0.6376931859E-02    0.7197363784E-01
    0.5000000000E+06    0.6079038139E+00    0.5320698844E-01    0.5931676979E+00    0.5107726817E-02    0.7205138805E-01
    0.7000000000E+06    0.6079312452E+00    0.4651833651E-01    0.6043016195E+00    0.4392027133E-02    0.7209845202E-01
    0.9000000000E+06    0.6079389698E+00    0.4198747154E-01    0.6118130671E+00    0.3915106521E-02    0.7213213482E-01
    0.1100000000E+07    0.6079391347E+00    0.3864245510E-01    0.6173428538E+00    0.3567376124E-02    0.7215834178E-01
    0.1300000000E+07    0.6079359704E+00    0.3603491101E-01    0.6216442446E+00    0.3299028070E-02    0.7217978170E-01
    0.1500000000E+07    0.6079312499E+00    0.3392433758E-01    0.6251198809E+00    0.3083653263E-02    0.7219791907E-01
    0.1700000000E+07    0.6079258069E+00    0.3216817563E-01    0.6280077978E+00    0.2905745079E-02    0.7221363430E-01
    0.1900000000E+07    0.6079200634E+00    0.3067565172E-01    0.6304592387E+00    0.2755508804E-02    0.7222749752E-01
    0.2100000000E+07    0.6079142437E+00    0.2938576091E-01    0.6325756678E+00    0.2626407613E-02    0.7223989898E-01
    0.2300000000E+07    0.6079084696E+00    0.2825573543E-01    0.6344281097E+00    0.2513887033E-02    0.7225111743E-01
    0.2500000000E+07    0.6079028077E+00    0.2725455575E-01    0.6360680111E+00    0.2414661926E-02    0.7226135889E-01
    0.2700000000E+07    0.6078972933E+00    0.2635908498E-01    0.6375337012E+00    0.2326294221E-02    0.7227077989E-01
    0.2900000000E+07    0.6078919436E+00    0.2555165639E-01    0.6388544174E+00    0.2246930783E-02    0.7227950218E-01
    0.3100000000E+07    0.6078867652E+00    0.2481850848E-01    0.6400529129E+00    0.2175134197E-02    0.7228762227E-01
    0.3300000000E+07    0.6078817585E+00    0.2414873620E-01    0.6411472033E+00    0.2109769855E-02    0.7229521797E-01
    0.3500000000E+07    0.6078769201E+00    0.2353356795E-01    0.6421517685E+00    0.2049928444E-02    0.7230235294E-01
    0.3700000000E+07    0.6078722445E+00    0.2296585502E-01    0.6430784013E+00    0.1994871415E-02    0.7230907992E-01
    0.3900000000E+07    0.6078677253E+00    0.2243970328E-01    0.6439368183E+00    0.1943991780E-02    0.7231544306E-01
    0.4100000000E+07    0.6078633552E+00    0.2195020235E-01    0.6447351098E+00    0.1896785389E-02    0.7232147974E-01
    0.4300000000E+07    0.6078591270E+00    0.2149322323E-01    0.6454800749E+00    0.1852829529E-02    0.7232722185E-01
    0.4500000000E+07    0.6078550336E+00    0.2106526470E-01    0.6461774758E+00    0.1811766729E-02    0.7233269682E-01
    0.4700000000E+07    0.6078510680E+00    0.2066333519E-01    0.6468322336E+00    0.1773292342E-02    0.7233792843E-01
    0.4900000000E+07    0.6078472236E+00    0.2028486081E-01    0.6474485803E+00    0.1737144898E-02    0.7234293740E-01
    0.1000000000E+07    0.6079396443E+00    0.4020169564E-01    0.6147668662E+00    0.3728990146E-02    0.7214596181E-01
    0.3000000000E+07    0.6078893328E+00    0.2517653613E-01    0.6394677219E+00    0.2210163600E-02    0.7228363226E-01
    0.5000000000E+07    0.6078453448E+00    0.2010371101E-01    0.6477435137E+00    0.1719871980E-02    0.7234536418E-01
    0.7000000000E+07    0.6078127882E+00    0.1730048603E-01    0.6523016127E+00    0.1455031564E-02    0.7238565350E-01
    0.9000000000E+07    0.6077871923E+00    0.1545143189E-01    0.6553019248E+00    0.1283043191E-02    0.7241562152E-01
    0.1100000000E+08    0.6077661512E+00    0.1411121508E-01    0.6574732848E+00    0.1159862653E-02    0.7243949595E-01
    0.1300000000E+08    0.6077483025E+00    0.1308075956E-01    0.6591408038E+00    0.1066064515E-02    0.7245934316E-01
    0.1500000000E+08    0.6077328101E+00    0.1225568169E-01    0.6604746803E+00    0.9915700598E-03    0.7247632908E-01
    0.1700000000E+08    0.6077191269E+00    0.1157518202E-01    0.6615739237E+00    0.9305596668E-03    0.7249117665E-01
    0.1900000000E+08    0.6077068755E+00    0.1100108949E-01    0.6625006295E+00    0.8794066707E-03    0.7250436524E-01
    0.2100000000E+08    0.6076957853E+00    0.1050804972E-01    0.6632960073E+00    0.8357176751E-03    0.7251622909E-01
    0.2300000000E+08    0.6076856556E+00    0.1007846377E-01    0.6639886394E+00    0.7978408994E-03    0.7252701058E-01
    0.2500000000E+08    0.6076763334E+00    0.9699676267E-02    0.6645990655E+00    0.7645946733E-03    0.7253689108E-01
    0.2700000000E+08    0.6076676996E+00    0.9362318552E-02    0.6651424820E+00    0.7351083144E-03    0.7254600988E-01
