  Pressure (Pa) 22mC5-400 (mol/kg) 2mC6-400 (mol/kg) 3mC6-400 (mol/kg) 33mC5-400 (mol/kg) 23mC5-400 (mol/kg)
    0.1000000000E+01    0.3173843835E-02    0.1594428244E-02    0.1591021270E-02    0.2596241488E-03    0.4644109070E-03
    0.3000000000E+01    0.9387875329E-02    0.4707040861E-02    0.4729799285E-02    0.7663947267E-03    0.1373691079E-02
    0.5000000000E+01    0.1543070008E-01    0.7721829596E-02    0.7812277361E-02    0.1257152906E-02    0.2257939211E-02
    0.7000000000E+01    0.2131025463E-01    0.1064315394E-01    0.1084006254E-01    0.1732608866E-02    0.3118315476E-02
    0.9000000000E+01    0.2703398090E-01    0.1347511546E-01    0.1381470036E-01    0.2193430912E-02    0.3955907753E-02
    0.1100000000E+02    0.3260886405E-01    0.1622157686E-01    0.1673767774E-01    0.2640248565E-02    0.4771737157E-02
    0.1300000000E+02    0.3804146687E-01    0.1888617936E-01    0.1961042582E-01    0.3073655376E-02    0.5566763068E-02
    0.1500000000E+02    0.4333796119E-01    0.2147235857E-01    0.2243432249E-01    0.3494211504E-02    0.6341887718E-02
    0.1700000000E+02    0.4850415649E-01    0.2398335902E-01    0.2521069491E-01    0.3902446068E-02    0.7097960374E-02
    0.1900000000E+02    0.5354552606E-01    0.2642224743E-01    0.2794082181E-01    0.4298859299E-02    0.7835781165E-02
    0.2100000000E+02    0.5846723100E-01    0.2879192490E-01    0.3062593569E-01    0.4683924518E-02    0.8556104583E-02
    0.2300000000E+02    0.6327414210E-01    0.3109513809E-01    0.3326722493E-01    0.5058089951E-02    0.9259642690E-02
    0.2500000000E+02    0.6797086002E-01    0.3333448954E-01    0.3586583572E-01    0.5421780394E-02    0.9947068055E-02
    0.2700000000E+02    0.7256173374E-01    0.3551244708E-01    0.3842287396E-01    0.5775398747E-02    0.1061901647E-01
    0.2900000000E+02    0.7705087758E-01    0.3763135256E-01    0.4093940700E-01    0.6119327432E-02    0.1127608940E-01
    0.3100000000E+02    0.8144218683E-01    0.3969342994E-01    0.4341646532E-01    0.6453929694E-02    0.1191885633E-01
    0.3300000000E+02    0.8573935216E-01    0.4170079265E-01    0.4585504414E-01    0.6779550809E-02    0.1254785680E-01
    0.3500000000E+02    0.8994587295E-01    0.4365545052E-01    0.4825610489E-01    0.7096519194E-02    0.1316360241E-01
    0.3700000000E+02    0.9406506951E-01    0.4555931608E-01    0.5062057667E-01    0.7405147442E-02    0.1376657857E-01
    0.3900000000E+02    0.9810009451E-01    0.4741421050E-01    0.5294935758E-01    0.7705733275E-02    0.1435724620E-01
    0.4100000000E+02    0.1020539434E+00    0.4922186898E-01    0.5524331605E-01    0.7998560434E-02    0.1493604322E-01
    0.4300000000E+02    0.1059294642E+00    0.5098394592E-01    0.5750329201E-01    0.8283899495E-02    0.1550338601E-01
    0.4500000000E+02    0.1097293664E+00    0.5270201954E-01    0.5973009810E-01    0.8562008641E-02    0.1605967069E-01
    0.4700000000E+02    0.1134562296E+00    0.5437759630E-01    0.6192452075E-01    0.8833134367E-02    0.1660527440E-01
    0.4900000000E+02    0.1171125109E+00    0.5601211498E-01    0.6408732126E-01    0.9097512146E-02    0.1714055637E-01
    0.1000000000E+02    0.2983960817E-01    0.1485880110E-01    0.1528255588E-01    0.2418552379E-02    0.4366481462E-02
    0.3000000000E+02    0.7925852623E-01    0.3866936017E-01    0.4218280749E-01    0.6287772378E-02    0.1159922671E-01
    0.5000000000E+02    0.1189149195E+00    0.5681440959E-01    0.6515709449E-01    0.9227241280E-02    0.1740443434E-01
    0.7000000000E+02    0.1517723498E+00    0.7100860187E-01    0.8506000099E-01    0.1151732064E-01    0.2221536915E-01
    0.9000000000E+02    0.1796646500E+00    0.8234042953E-01    0.1025114249E+00    0.1333638455E-01    0.2630014745E-01
    0.1100000000E+03    0.2037906992E+00    0.9153562430E-01    0.1179723485E+00    0.1480361196E-01    0.2983406056E-01
    0.1300000000E+03    0.2249702952E+00    0.9909712918E-01    0.1317929733E+00    0.1600175779E-01    0.3293697865E-01
    0.1500000000E+03    0.2437854309E+00    0.1053845460E+00    0.1442443167E+00    0.1699009689E-01    0.3569400390E-01
    0.1700000000E+03    0.2606626071E+00    0.1106616909E+00    0.1555395482E+00    0.1781218420E-01    0.3816750410E-01
    0.1900000000E+03    0.2759229987E+00    0.1151263311E+00    0.1658487590E+00    0.1850071497E-01    0.4040444696E-01
    0.2100000000E+03    0.2898142236E+00    0.1189294704E+00    0.1753094105E+00    0.1908068192E-01    0.4244104488E-01
    0.2300000000E+03    0.3025311398E+00    0.1221882486E+00    0.1840338714E+00    0.1957149045E-01    0.4430579570E-01
    0.2500000000E+03    0.3142298598E+00    0.1249948011E+00    0.1921149486E+00    0.1998841374E-01    0.4602153168E-01
    0.2700000000E+03    0.3250374392E+00    0.1274224848E+00    0.1996300117E+00    0.2034361702E-01    0.4760683618E-01
    0.2900000000E+03    0.3350587302E+00    0.1295303413E+00    0.2066441098E+00    0.2064689296E-01    0.4907704575E-01
    0.3100000000E+03    0.3443813294E+00    0.1313663546E+00    0.2132123596E+00    0.2090619921E-01    0.5044497361E-01
    0.3300000000E+03    0.3530792183E+00    0.1329698647E+00    0.2193817949E+00    0.2112805741E-01    0.5172144193E-01
    0.3500000000E+03    0.3612154857E+00    0.1343733827E+00    0.2251928161E+00    0.2131785357E-01    0.5291567998E-01
    0.3700000000E+03    0.3688443977E+00    0.1356039718E+00    0.2306803359E+00    0.2148006704E-01    0.5403562668E-01
    0.3900000000E+03    0.3760129914E+00    0.1366843110E+00    0.2358746942E+00    0.2161844702E-01    0.5508816380E-01
    0.4100000000E+03    0.3827623204E+00    0.1376335228E+00    0.2408023948E+00    0.2173615010E-01    0.5607929803E-01
    0.4300000000E+03    0.3891284392E+00    0.1384678226E+00    0.2454867025E+00    0.2183584834E-01    0.5701430484E-01
    0.4500000000E+03    0.3951431887E+00    0.1392010337E+00    0.2499481319E+00    0.2191981505E-01    0.5789784351E-01
    0.4700000000E+03    0.4008348317E+00    0.1398449982E+00    0.2542048492E+00    0.2198999333E-01    0.5873404992E-01
    0.4900000000E+03    0.4062285704E+00    0.1404099082E+00    0.2582730046E+00    0.2204805124E-01    0.5952661229E-01
    0.1000000000E+03    0.1921403698E+00    0.8716958531E-01    0.1104666473E+00    0.1410813675E-01    0.2812746896E-01
    0.3000000000E+03    0.3398024589E+00    0.1304796907E+00    0.2099808553E+00    0.2078160496E-01    0.4977307706E-01
    0.5000000000E+03    0.4088208707E+00    0.1406655185E+00    0.2602409367E+00    0.2207299231E-01    0.5990757265E-01
    0.7000000000E+03    0.4494391784E+00    0.1432378015E+00    0.2924960225E+00    0.2219664634E-01    0.6588129544E-01
    0.9000000000E+03    0.4760411365E+00    0.1432449692E+00    0.3158011657E+00    0.2196660251E-01    0.6979980164E-01
    0.1100000000E+04    0.4946920835E+00    0.1422179656E+00    0.3338601845E+00    0.2161716964E-01    0.7255149737E-01
    0.1300000000E+04    0.5084237978E+00    0.1407404714E+00    0.3485095364E+00    0.2123103335E-01    0.7458071264E-01
    0.1500000000E+04    0.5189168611E+00    0.1390690600E+00    0.3607805041E+00    0.2084090142E-01    0.7613388796E-01
    0.1700000000E+04    0.5271737679E+00    0.1373273524E+00    0.3713051522E+00    0.2046038389E-01    0.7735811045E-01
    0.1900000000E+04    0.5338270700E+00    0.1355783885E+00    0.3804968301E+00    0.2009503424E-01    0.7834623973E-01
    0.2100000000E+04    0.5392942201E+00    0.1338552238E+00    0.3886397159E+00    0.1974678239E-01    0.7915959204E-01
    0.2300000000E+04    0.5438610694E+00    0.1321751507E+00    0.3959370938E+00    0.1941587217E-01    0.7984017672E-01
    0.2500000000E+04    0.5477295023E+00    0.1305468069E+00    0.4025391471E+00    0.1910176256E-01    0.8041767948E-01
    0.2700000000E+04    0.5510459037E+00    0.1289739371E+00    0.4085598301E+00    0.1880356534E-01    0.8091363705E-01
    0.2900000000E+04    0.5539188511E+00    0.1274574743E+00    0.4140875704E+00    0.1852026352E-01    0.8134403265E-01
    0.3100000000E+04    0.5564304855E+00    0.1259967318E+00    0.4191923113E+00    0.1825082092E-01    0.8172096463E-01
    0.3300000000E+04    0.5586440354E+00    0.1245901044E+00    0.4239302950E+00    0.1799423641E-01    0.8205375099E-01
    0.3500000000E+04    0.5606089249E+00    0.1232354894E+00    0.4283473988E+00    0.1774956890E-01    0.8234967943E-01
    0.3700000000E+04    0.5623643194E+00    0.1219305409E+00    0.4324815195E+00    0.1751594713E-01    0.8261452829E-01
    0.3900000000E+04    0.5639416389E+00    0.1206728262E+00    0.4363643116E+00    0.1729257134E-01    0.8285293579E-01
    0.4100000000E+04    0.5653663696E+00    0.1194599197E+00    0.4400224792E+00    0.1707871083E-01    0.8306866638E-01
    0.4300000000E+04    0.5666593936E+00    0.1182894589E+00    0.4434787503E+00    0.1687369953E-01    0.8326480617E-01
    0.4500000000E+04    0.5678379768E+00    0.1171591770E+00    0.4467526249E+00    0.1667693079E-01    0.8344390838E-01
    0.4700000000E+04    0.5689165154E+00    0.1160669198E+00    0.4498609546E+00    0.1648785202E-01    0.8360810304E-01
    0.4900000000E+04    0.5699071046E+00    0.1150106530E+00    0.4528183985E+00    0.1630595948E-01    0.8375918078E-01
    0.1000000000E+04    0.4861272323E+00    0.1428127667E+00    0.3253453734E+00    0.2179985342E-01    0.7128732124E-01
    0.3000000000E+04    0.5552155065E+00    0.1267202227E+00    0.4166890242E+00    0.1838387360E-01    0.8153854420E-01
    0.5000000000E+04    0.5703726790E+00    0.1144954135E+00    0.4542446105E+00    0.1621756280E-01    0.8383028382E-01
    0.7000000000E+04    0.5768824030E+00    0.1056771810E+00    0.4772626501E+00    0.1473437279E-01    0.8483294163E-01
    0.9000000000E+04    0.5804814580E+00    0.9891721266E-01    0.4935262603E+00    0.1362991736E-01    0.8539755178E-01
    0.1100000000E+05    0.5827589896E+00    0.9349861181E-01    0.5059224560E+00    0.1276192308E-01    0.8576139895E-01
    0.1300000000E+05    0.5843272928E+00    0.8901345626E-01    0.5158326083E+00    0.1205403452E-01    0.8601649203E-01
    0.1500000000E+05    0.5854716382E+00    0.8521090305E-01    0.5240210557E+00    0.1146093988E-01    0.8620596914E-01
    0.1700000000E+05    0.5863426553E+00    0.8192681958E-01    0.5309530879E+00    0.1095371694E-01    0.8635275120E-01
    0.1900000000E+05    0.5870273006E+00    0.7904843948E-01    0.5369318804E+00    0.1051286339E-01    0.8647015287E-01
    0.2100000000E+05    0.5875792510E+00    0.7649521206E-01    0.5421653345E+00    0.1012465429E-01    0.8656644425E-01
    0.2300000000E+05    0.5880334177E+00    0.7420774853E-01    0.5468018216E+00    0.9779093907E-02    0.8664703750E-01
    0.2500000000E+05    0.5884134786E+00    0.7214110019E-01    0.5509506795E+00    0.9468695188E-02    0.8671562604E-01
    0.2700000000E+05    0.5887360555E+00    0.7026048971E-01    0.5546946351E+00    0.9187717181E-02    0.8677481853E-01
    0.2900000000E+05    0.5890131567E+00    0.6853849956E-01    0.5580976784E+00    0.8931669514E-02    0.8682651121E-01
    0.3100000000E+05    0.5892536723E+00    0.6695316172E-01    0.5612102446E+00    0.8696979565E-02    0.8687211644E-01
    0.3300000000E+05    0.5894643234E+00    0.6548662447E-01    0.5640727334E+00    0.8480762492E-02    0.8691270849E-01
    0.3500000000E+05    0.5896502843E+00    0.6412420020E-01    0.5667179646E+00    0.8280658394E-02    0.8694911946E-01
    0.3700000000E+05    0.5898156031E+00    0.6285367103E-01    0.5691729320E+00    0.8094714522E-02    0.8698200423E-01
    0.3900000000E+05    0.5899634916E+00    0.6166477349E-01    0.5714600820E+00    0.7921298439E-02    0.8701188553E-01
    0.4100000000E+05    0.5900965305E+00    0.6054880969E-01    0.5735982631E+00    0.7759032934E-02    0.8703918590E-01
    0.4300000000E+05    0.5902168169E+00    0.5949834972E-01    0.5756034422E+00    0.7606746486E-02    0.8706425073E-01
    0.4500000000E+05    0.5903260721E+00    0.5850700087E-01    0.5774892525E+00    0.7463435066E-02    0.8708736522E-01
    0.4700000000E+05    0.5904257223E+00    0.5756922665E-01    0.5792674187E+00    0.7328232311E-02    0.8710876709E-01
    0.4900000000E+05    0.5905169591E+00    0.5668020312E-01    0.5809480904E+00    0.7200385979E-02    0.8712865608E-01
    0.1000000000E+05    0.5817356526E+00    0.9607062442E-01    0.5001010708E+00    0.1317212139E-01    0.8559710540E-01
    0.3000000000E+05    0.5891375253E+00    0.6772994865E-01    0.5596875438E+00    0.8811849076E-02    0.8685000100E-01
    0.5000000000E+05    0.5905597423E+00    0.5625263145E-01    0.5817546733E+00    0.7139012902E-02    0.8713808714E-01
    0.7000000000E+05    0.5911503933E+00    0.4946454203E-01    0.5944164663E+00    0.6174727321E-02    0.8727739773E-01
    0.9000000000E+05    0.5914688671E+00    0.4480787366E-01    0.6029563142E+00    0.5524486607E-02    0.8736357657E-01
    0.1100000000E+06    0.5916655960E+00    0.4134200535E-01    0.6092408150E+00    0.5046748143E-02    0.8742400565E-01
    0.1300000000E+06    0.5917977603E+00    0.3862472564E-01    0.6141273252E+00    0.4676067623E-02    0.8746971020E-01
    0.1500000000E+06    0.5918917567E+00    0.3641583040E-01    0.6180742216E+00    0.4377343570E-02    0.8750606479E-01
    0.1700000000E+06    0.5919614165E+00    0.3457162700E-01    0.6213525017E+00    0.4129791734E-02    0.8753603606E-01
    0.1900000000E+06    0.5920146675E+00    0.3299997536E-01    0.6241343437E+00    0.3920198731E-02    0.8756141172E-01
    0.2100000000E+06    0.5920563689E+00    0.3163860458E-01    0.6265352439E+00    0.3739700566E-02    0.8758334186E-01
    0.2300000000E+06    0.5920896590E+00    0.3044365865E-01    0.6286360383E+00    0.3582095105E-02    0.8760260487E-01
    0.2500000000E+06    0.5921166513E+00    0.2938320630E-01    0.6304952711E+00    0.3442892820E-02    0.8761974929E-01
    0.2700000000E+06    0.5921388185E+00    0.2843335243E-01    0.6321565518E+00    0.3318751666E-02    0.8763517470E-01
    0.2900000000E+06    0.5921572168E+00    0.2757579962E-01    0.6336531397E+00    0.3207124731E-02    0.8764918026E-01
    0.3100000000E+06    0.5921726221E+00    0.2679625972E-01    0.6350109137E+00    0.3106031903E-02    0.8766199522E-01
    0.3300000000E+06    0.5921856166E+00    0.2608338550E-01    0.6362503601E+00    0.3013907015E-02    0.8767379874E-01
    0.3500000000E+06    0.5921966450E+00    0.2542803186E-01    0.6373879422E+00    0.2929492602E-02    0.8768473333E-01
    0.3700000000E+06    0.5922060523E+00    0.2482273259E-01    0.6384370653E+00    0.2851765673E-02    0.8769491400E-01
    0.3900000000E+06    0.5922141101E+00    0.2426132198E-01    0.6394087735E+00    0.2779884222E-02    0.8770443482E-01
    0.4100000000E+06    0.5922210348E+00    0.2373865600E-01    0.6403122601E+00    0.2713147956E-02    0.8771337364E-01
    0.4300000000E+06    0.5922270007E+00    0.2325040347E-01    0.6411552502E+00    0.2650968976E-02    0.8772179558E-01
    0.4500000000E+06    0.5922321498E+00    0.2279288727E-01    0.6419442900E+00    0.2592849558E-02    0.8772975560E-01
    0.4700000000E+06    0.5922365986E+00    0.2236296199E-01    0.6426849690E+00    0.2538365082E-02    0.8773730049E-01
    0.4900000000E+06    0.5922404435E+00    0.2195791859E-01    0.6433820935E+00    0.2487150758E-02    0.8774447040E-01
    0.1000000000E+06    0.5915777904E+00    0.4296043248E-01    0.6063135611E+00    0.5269157005E-02    0.8739612442E-01
    0.3000000000E+06    0.5921652534E+00    0.2717704625E-01    0.6343479901E+00    0.3155367725E-02    0.8765572437E-01
    0.5000000000E+06    0.5922421652E+00    0.2176398149E-01    0.6437156448E+00    0.2462669651E-02    0.8774792576E-01
    0.7000000000E+06    0.5922588448E+00    0.1875720261E-01    0.6488674803E+00    0.2086628964E-02    0.8780374185E-01
    0.9000000000E+06    0.5922592021E+00    0.1676825835E-01    0.6522552253E+00    0.1841760925E-02    0.8784368789E-01
    0.1100000000E+07    0.5922537933E+00    0.1532398388E-01    0.6547051556E+00    0.1666070932E-02    0.8787476701E-01
    0.1300000000E+07    0.5922461580E+00    0.1421205086E-01    0.6565855074E+00    0.1532117756E-02    0.8790019195E-01
    0.1500000000E+07    0.5922377100E+00    0.1332083749E-01    0.6580889145E+00    0.1425628798E-02    0.8792169978E-01
    0.1700000000E+07    0.5922290734E+00    0.1258520381E-01    0.6593273707E+00    0.1338347889E-02    0.8794033473E-01
    0.1900000000E+07    0.5922205378E+00    0.1196419281E-01    0.6603710791E+00    0.1265122709E-02    0.8795677310E-01
    0.2100000000E+07    0.5922122385E+00    0.1143056702E-01    0.6612666096E+00    0.1202549156E-02    0.8797147776E-01
    0.2300000000E+07    0.5922042349E+00    0.1096540162E-01    0.6620462498E+00    0.1148275706E-02    0.8798477935E-01
    0.2500000000E+07    0.5921965481E+00    0.1055507638E-01    0.6627331945E+00    0.1100618761E-02    0.8799692222E-01
    0.2700000000E+07    0.5921891791E+00    0.1018950111E-01    0.6633445989E+00    0.1058336957E-02    0.8800809206E-01
    0.2900000000E+07    0.5921821190E+00    0.9861017527E-02    0.6638934647E+00    0.1020492202E-02    0.8801843324E-01
    0.3100000000E+07    0.5921753535E+00    0.9563692434E-02    0.6643898519E+00    0.9863606130E-03    0.8802806025E-01
    0.3300000000E+07    0.5921688665E+00    0.9292847054E-02    0.6648416843E+00    0.9553734728E-03    0.8803706538E-01
    0.3500000000E+07    0.5921626412E+00    0.9044734644E-02    0.6652553001E+00    0.9270769302E-03    0.8804552413E-01
    0.3700000000E+07    0.5921566612E+00    0.8816314054E-02    0.6656358393E+00    0.9011037988E-03    0.8805349903E-01
    0.3900000000E+07    0.5921509105E+00    0.8605087184E-02    0.6659875200E+00    0.8771533807E-03    0.8806104249E-01
    0.4100000000E+07    0.5921453744E+00    0.8408980059E-02    0.6663138412E+00    0.8549767499E-03    0.8806819880E-01
    0.4300000000E+07    0.5921400391E+00    0.8226254302E-02    0.6666177335E+00    0.8343658303E-03    0.8807500579E-01
    0.4500000000E+07    0.5921348916E+00    0.8055440229E-02    0.6669016726E+00    0.8151451635E-03    0.8808149601E-01
    0.4700000000E+07    0.5921299204E+00    0.7895285584E-02    0.6671677667E+00    0.7971656183E-03    0.8808769764E-01
    0.4900000000E+07    0.5921251143E+00    0.7744715753E-02    0.6674178237E+00    0.7802995210E-03    0.8809363528E-01
    0.1000000000E+07    0.5922569201E+00    0.1599469798E-01    0.6535684792E+00    0.1747428807E-02    0.8786008560E-01
    0.3000000000E+07    0.5921787004E+00    0.9708777647E-02    0.6641476803E+00    0.1003000899E-02    0.8802332980E-01
    0.5000000000E+07    0.5921227701E+00    0.7672730079E-02    0.6675373344E+00    0.7722490293E-03    0.8809651195E-01
    0.7000000000E+07    0.5920825233E+00    0.6565486284E-02    0.6693723609E+00    0.6495350547E-03    0.8814426743E-01
    0.9000000000E+07    0.5920512451E+00    0.5841962901E-02    0.6705680610E+00    0.5705710064E-03    0.8817978517E-01
    0.1100000000E+08    0.5920256955E+00    0.5320900515E-02    0.6714274218E+00    0.5143686237E-03    0.8820807841E-01
    0.1300000000E+08    0.5920041090E+00    0.4922172508E-02    0.6720839867E+00    0.4717703466E-03    0.8823159732E-01
    0.1500000000E+08    0.5919854242E+00    0.4604098843E-02    0.6726070720E+00    0.4380611896E-03    0.8825172431E-01
    0.1700000000E+08    0.5919689546E+00    0.4342550094E-02    0.6730367378E+00    0.4105345777E-03    0.8826931653E-01
    0.1900000000E+08    0.5919542313E+00    0.4122451071E-02    0.6733979775E+00    0.3875117349E-03    0.8828494227E-01
    0.2100000000E+08    0.5919409196E+00    0.3933828624E-02    0.6737073060E+00    0.3678890503E-03    0.8829899780E-01
    0.2300000000E+08    0.5919287728E+00    0.3769783724E-02    0.6739761363E+00    0.3509073690E-03    0.8831177046E-01
    0.2500000000E+08    0.5919176033E+00    0.3625369799E-02    0.6742126439E+00    0.3360251268E-03    0.8832347525E-01
    0.2700000000E+08    0.5919072658E+00    0.3496934287E-02    0.6744228609E+00    0.3228442677E-03    0.8833427728E-01
