  Pressure (Pa) 22mC5-400 (mol/kg) 2mC6-400 (mol/kg) 3mC6-400 (mol/kg) 33mC5-400 (mol/kg) 23mC5-400 (mol/kg)
    0.1000000000E+01    0.3176773714E-02    0.7980450955E-03    0.1592062371E-02    0.5197922778E-03    0.1859357356E-03
    0.3000000000E+01    0.9413407675E-02    0.2360778830E-02    0.4738996621E-02    0.1537541378E-02    0.5509698661E-03
    0.5000000000E+01    0.1549940587E-01    0.3880491626E-02    0.7837359281E-02    0.2527123278E-02    0.9071944426E-03
    0.7000000000E+01    0.2144076809E-01    0.5358849536E-02    0.1088833410E-01    0.3489622729E-02    0.1254960274E-02
    0.9000000000E+01    0.2724317303E-01    0.6797433405E-02    0.1389306614E-01    0.4426069219E-02    0.1594599399E-02
    0.1100000000E+02    0.3291199947E-01    0.8197744305E-02    0.1685266339E-01    0.5337440489E-02    0.1926426319E-02
    0.1300000000E+02    0.3845234568E-01    0.9561208546E-02    0.1976819822E-01    0.6224665781E-02    0.2250739138E-02
    0.1500000000E+02    0.4386904749E-01    0.1088918232E-01    0.2264070884E-01    0.7088628843E-02    0.2567820615E-02
    0.1700000000E+02    0.4916669487E-01    0.1218295601E-01    0.2547120063E-01    0.7930170714E-02    0.2877939136E-02
    0.1900000000E+02    0.5434964735E-01    0.1344375814E-01    0.2826064745E-01    0.8750092301E-02    0.3181349613E-02
    0.2100000000E+02    0.5942204827E-01    0.1467275911E-01    0.3100999287E-01    0.9549156776E-02    0.3478294320E-02
    0.2300000000E+02    0.6438783801E-01    0.1587107459E-01    0.3372015132E-01    0.1032809179E-01    0.3769003664E-02
    0.2500000000E+02    0.6925076626E-01    0.1703976875E-01    0.3639200926E-01    0.1108759156E-01    0.4053696902E-02
    0.2700000000E+02    0.7401440338E-01    0.1817985716E-01    0.3902642618E-01    0.1182831875E-01    0.4332582807E-02
    0.2900000000E+02    0.7868215107E-01    0.1929230965E-01    0.4162423571E-01    0.1255090631E-01    0.4605860291E-02
    0.3100000000E+02    0.8325725211E-01    0.2037805279E-01    0.4418624649E-01    0.1325595910E-01    0.4873718976E-02
    0.3300000000E+02    0.8774279967E-01    0.2143797236E-01    0.4671324318E-01    0.1394405548E-01    0.5136339733E-02
    0.3500000000E+02    0.9214174572E-01    0.2247291554E-01    0.4920598733E-01    0.1461574875E-01    0.5393895181E-02
    0.3700000000E+02    0.9645690914E-01    0.2348369304E-01    0.5166521821E-01    0.1527156849E-01    0.5646550153E-02
    0.3900000000E+02    0.1006909830E+00    0.2447108106E-01    0.5409165361E-01    0.1591202187E-01    0.5894462135E-02
    0.4100000000E+02    0.1048465418E+00    0.2543582309E-01    0.5648599069E-01    0.1653759478E-01    0.6137781665E-02
    0.4300000000E+02    0.1089260476E+00    0.2637863166E-01    0.5884890663E-01    0.1714875301E-01    0.6376652720E-02
    0.4500000000E+02    0.1129318563E+00    0.2730018992E-01    0.6118105941E-01    0.1774594322E-01    0.6611213066E-02
    0.4700000000E+02    0.1168662233E+00    0.2820115318E-01    0.6348308845E-01    0.1832959399E-01    0.6841594596E-02
    0.4900000000E+02    0.1207313089E+00    0.2908215030E-01    0.6575561528E-01    0.1890011667E-01    0.7067923635E-02
    0.1000000000E+02    0.3009395856E-01    0.7502282136E-02    0.1537843877E-01    0.4884830079E-02    0.1761470382E-02
    0.3000000000E+02    0.8098108569E-01    0.1983846360E-01    0.4290966635E-01    0.1290558780E-01    0.4740455480E-02
    0.5000000000E+02    0.1226385214E+00    0.2951535118E-01    0.6688100487E-01    0.1918057905E-01    0.7179606499E-02
    0.7000000000E+02    0.1576056699E+00    0.3726589813E-01    0.8797855891E-01    0.2418881586E-01    0.9227418140E-02
    0.9000000000E+02    0.1875414557E+00    0.4357800452E-01    0.1067205779E+00    0.2824989845E-01    0.1098090317E-01
    0.1100000000E+03    0.2135774167E+00    0.4878935802E-01    0.1235060422E+00    0.3158553133E-01    0.1250623637E-01
    0.1300000000E+03    0.2365137245E+00    0.5314119393E-01    0.1386472677E+00    0.3435443483E-01    0.1385021563E-01
    0.1500000000E+03    0.2569338271E+00    0.5681041239E-01    0.1523923490E+00    0.3667323154E-01    0.1504696532E-01
    0.1700000000E+03    0.2752744981E+00    0.5992961907E-01    0.1649409547E+00    0.3862949968E-01    0.1612203226E-01
    0.1900000000E+03    0.2918702655E+00    0.6260009566E-01    0.1764556696E+00    0.4029023572E-01    0.1709498377E-01
    0.2100000000E+03    0.3069825154E+00    0.6490045954E-01    0.1870702811E+00    0.4170751439E-01    0.1798110956E-01
    0.2300000000E+03    0.3208191035E+00    0.6689260188E-01    0.1968959334E+00    0.4292237696E-01    0.1879256862E-01
    0.2500000000E+03    0.3335479045E+00    0.6862585499E-01    0.2060257620E+00    0.4396756503E-01    0.1953918158E-01
    0.2700000000E+03    0.3453063834E+00    0.7013997703E-01    0.2145384309E+00    0.4486948209E-01    0.2022899048E-01
    0.2900000000E+03    0.3562084947E+00    0.7146732818E-01    0.2225008644E+00    0.4564962638E-01    0.2086866219E-01
    0.3100000000E+03    0.3663497439E+00    0.7263448291E-01    0.2299703799E+00    0.4632565427E-01    0.2146378453E-01
    0.3300000000E+03    0.3758109652E+00    0.7366344147E-01    0.2369963701E+00    0.4691218080E-01    0.2201908714E-01
    0.3500000000E+03    0.3846611814E+00    0.7457255202E-01    0.2436216416E+00    0.4742138993E-01    0.2253860876E-01
    0.3700000000E+03    0.3929597998E+00    0.7537722064E-01    0.2498834902E+00    0.4786350530E-01    0.2302582568E-01
    0.3900000000E+03    0.4007583207E+00    0.7609046392E-01    0.2558145708E+00    0.4824715702E-01    0.2348375164E-01
    0.4100000000E+03    0.4081016805E+00    0.7672334303E-01    0.2614436066E+00    0.4857967035E-01    0.2391501640E-01
    0.4300000000E+03    0.4150293205E+00    0.7728530785E-01    0.2667959713E+00    0.4886729476E-01    0.2432192827E-01
    0.4500000000E+03    0.4215760455E+00    0.7778447193E-01    0.2718941706E+00    0.4911538731E-01    0.2470652430E-01
    0.4700000000E+03    0.4277727196E+00    0.7822783397E-01    0.2767582416E+00    0.4932856033E-01    0.2507061101E-01
    0.4900000000E+03    0.4336468359E+00    0.7862145727E-01    0.2814060876E+00    0.4951080145E-01    0.2541579767E-01
    0.1000000000E+03    0.2009907621E+00    0.4630438961E-01    0.1153366307E+00    0.2999729371E-01    0.1176880474E-01
    0.3000000000E+03    0.3613688683E+00    0.7206945987E-01    0.2262939813E+00    0.4599967809E-01    0.2117147850E-01
    0.5000000000E+03    0.4364707217E+00    0.7880129255E-01    0.2836540077E+00    0.4959142232E-01    0.2558175931E-01
    0.7000000000E+03    0.4808116118E+00    0.8076173969E-01    0.3203987662E+00    0.5021625860E-01    0.2818960069E-01
    0.9000000000E+03    0.5100083914E+00    0.8101916014E-01    0.3467235833E+00    0.4986674350E-01    0.2990935054E-01
    0.1100000000E+04    0.5305970447E+00    0.8055519987E-01    0.3669134770E+00    0.4915400058E-01    0.3112390078E-01
    0.1300000000E+04    0.5458381768E+00    0.7975972376E-01    0.3831200656E+00    0.4830656680E-01    0.3202436985E-01
    0.1500000000E+04    0.5575420438E+00    0.7881004217E-01    0.3965583054E+00    0.4742057644E-01    0.3271692175E-01
    0.1700000000E+04    0.5667919978E+00    0.7779428569E-01    0.4079740434E+00    0.4653920664E-01    0.3326512404E-01
    0.1900000000E+04    0.5742742865E+00    0.7675884742E-01    0.4178547151E+00    0.4568223702E-01    0.3370926450E-01
    0.2100000000E+04    0.5804436457E+00    0.7572896877E-01    0.4265347421E+00    0.4485837402E-01    0.3407605333E-01
    0.2300000000E+04    0.5856127005E+00    0.7471852204E-01    0.4342526488E+00    0.4407084364E-01    0.3438386295E-01
    0.2500000000E+04    0.5900030837E+00    0.7373499745E-01    0.4411840412E+00    0.4332009686E-01    0.3464572509E-01
    0.2700000000E+04    0.5937760724E+00    0.7278218945E-01    0.4474616569E+00    0.4260518248E-01    0.3487112756E-01
    0.2900000000E+04    0.5970516861E+00    0.7186170846E-01    0.4531880868E+00    0.4192446805E-01    0.3506713471E-01
    0.3100000000E+04    0.5999210006E+00    0.7097386169E-01    0.4584441441E+00    0.4127602685E-01    0.3523911005E-01
    0.3300000000E+04    0.6024543209E+00    0.7011818041E-01    0.4632945421E+00    0.4065784732E-01    0.3539119609E-01
    0.3500000000E+04    0.6047067471E+00    0.6929374240E-01    0.4677918500E+00    0.4006794558E-01    0.3552664109E-01
    0.3700000000E+04    0.6067220487E+00    0.6849937202E-01    0.4719793138E+00    0.3950442381E-01    0.3564802677E-01
    0.3900000000E+04    0.6085354183E+00    0.6773376546E-01    0.4758929097E+00    0.3896549812E-01    0.3575743001E-01
    0.4100000000E+04    0.6101754621E+00    0.6699556952E-01    0.4795628664E+00    0.3844950920E-01    0.3585653992E-01
    0.4300000000E+04    0.6116656641E+00    0.6628343073E-01    0.4830148116E+00    0.3795492324E-01    0.3594674388E-01
    0.4500000000E+04    0.6130254771E+00    0.6559602564E-01    0.4862706484E+00    0.3748032765E-01    0.3602919174E-01
    0.4700000000E+04    0.6142711477E+00    0.6493207884E-01    0.4893492344E+00    0.3702442401E-01    0.3610484435E-01
    0.4900000000E+04    0.6154163477E+00    0.6429037305E-01    0.4922669136E+00    0.3658601990E-01    0.3617451072E-01
    0.1000000000E+04    0.5211279130E+00    0.8084560575E-01    0.3574204841E+00    0.4953682647E-01    0.3056507618E-01
    0.3000000000E+04    0.5985323251E+00    0.7141372143E-01    0.4558705432E+00    0.4159633869E-01    0.3515584325E-01
    0.5000000000E+04    0.6159549621E+00    0.6397749731E-01    0.4936699389E+00    0.3637303440E-01    0.3620731756E-01
    0.7000000000E+04    0.6235126990E+00    0.5864181337E-01    0.5159485748E+00    0.3280970234E-01    0.3667127078E-01
    0.9000000000E+04    0.6277152459E+00    0.5458275684E-01    0.5312689307E+00    0.3017398447E-01    0.3693363698E-01
    0.1100000000E+05    0.6303853937E+00    0.5135272141E-01    0.5427084788E+00    0.2811629153E-01    0.3710313393E-01
    0.1300000000E+05    0.6322298694E+00    0.4869652733E-01    0.5517044867E+00    0.2644832700E-01    0.3722216125E-01
    0.1500000000E+05    0.6335793280E+00    0.4645764789E-01    0.5590367699E+00    0.2505847387E-01    0.3731067169E-01
    0.1700000000E+05    0.6346089022E+00    0.4453405534E-01    0.5651722911E+00    0.2387568538E-01    0.3737929430E-01
    0.1900000000E+05    0.6354199370E+00    0.4285594679E-01    0.5704110446E+00    0.2285221703E-01    0.3743421514E-01
    0.2100000000E+05    0.6360751138E+00    0.4137367188E-01    0.5749562214E+00    0.2195458826E-01    0.3747928214E-01
    0.2300000000E+05    0.6366152670E+00    0.4005077459E-01    0.5789512496E+00    0.2115850269E-01    0.3751701632E-01
    0.2500000000E+05    0.6370681317E+00    0.3885977155E-01    0.5825007899E+00    0.2044582507E-01    0.3754913968E-01
    0.2700000000E+05    0.6374532019E+00    0.3777947807E-01    0.5856833281E+00    0.1980269619E-01    0.3757686939E-01
    0.2900000000E+05    0.6377845772E+00    0.3679325184E-01    0.5885590829E+00    0.1921831063E-01    0.3760109074E-01
    0.3100000000E+05    0.6380727068E+00    0.3588780308E-01    0.5911751649E+00    0.1868409765E-01    0.3762246349E-01
    0.3300000000E+05    0.6383254977E+00    0.3505236650E-01    0.5935690517E+00    0.1819315664E-01    0.3764148966E-01
    0.3500000000E+05    0.6385490431E+00    0.3427811149E-01    0.5957709956E+00    0.1773985832E-01    0.3765855826E-01
    0.3700000000E+05    0.6387481136E+00    0.3355771332E-01    0.5978057313E+00    0.1731955688E-01    0.3767397557E-01
    0.3900000000E+05    0.6389264977E+00    0.3288503559E-01    0.5996937125E+00    0.1692837836E-01    0.3768798611E-01
    0.4100000000E+05    0.6390872415E+00    0.3225489134E-01    0.6014520251E+00    0.1656306230E-01    0.3770078759E-01
    0.4300000000E+05    0.6392328222E+00    0.3166286063E-01    0.6030950717E+00    0.1622084154E-01    0.3771254166E-01
    0.4500000000E+05    0.6393652747E+00    0.3110514947E-01    0.6046350934E+00    0.1589934976E-01    0.3772338185E-01
    0.4700000000E+05    0.6394862861E+00    0.3057847935E-01    0.6060825712E+00    0.1559654932E-01    0.3773341943E-01
    0.4900000000E+05    0.6395972668E+00    0.3007999981E-01    0.6074465407E+00    0.1531067458E-01    0.3774274795E-01
    0.1000000000E+05    0.6291845050E+00    0.5288312672E-01    0.5373621066E+00    0.2908708640E-01    0.3702655777E-01
    0.3000000000E+05    0.6379335039E+00    0.3633115443E-01    0.5898970472E+00    0.1894539767E-01    0.3761209873E-01
    0.5000000000E+05    0.6396493745E+00    0.2984054032E-01    0.6080997002E+00    0.1517359562E-01    0.3774717155E-01
    0.7000000000E+05    0.6403744549E+00    0.2606361930E-01    0.6182306196E+00    0.1303335434E-01    0.3781252533E-01
    0.9000000000E+05    0.6407722675E+00    0.2349979885E-01    0.6249323825E+00    0.1160483285E-01    0.3785296225E-01
    0.1100000000E+06    0.6410224319E+00    0.2160611207E-01    0.6297959072E+00    0.1056304218E-01    0.3788131995E-01
    0.1300000000E+06    0.6411936275E+00    0.2013016592E-01    0.6335370650E+00    0.9759329194E-02    0.3790276933E-01
    0.1500000000E+06    0.6413177410E+00    0.1893603908E-01    0.6365327417E+00    0.9114615708E-02    0.3791983160E-01
    0.1700000000E+06    0.6414115745E+00    0.1794298092E-01    0.6390030476E+00    0.8582385836E-02    0.3793389856E-01
    0.1900000000E+06    0.6414848125E+00    0.1709950666E-01    0.6410864277E+00    0.8133228813E-02    0.3794580899E-01
    0.2100000000E+06    0.6415434251E+00    0.1637098963E-01    0.6428749607E+00    0.7747506271E-02    0.3795610254E-01
    0.2300000000E+06    0.6415912896E+00    0.1573314500E-01    0.6444326194E+00    0.7411532317E-02    0.3796514443E-01
    0.2500000000E+06    0.6416310320E+00    0.1516835598E-01    0.6458054373E+00    0.7115434995E-02    0.3797319207E-01
    0.2700000000E+06    0.6416644930E+00    0.1466348230E-01    0.6470275083E+00    0.6851888482E-02    0.3798043298E-01
    0.2900000000E+06    0.6416930005E+00    0.1420849126E-01    0.6481247012E+00    0.6615325517E-02    0.3798700752E-01
    0.3100000000E+06    0.6417175357E+00    0.1379556916E-01    0.6491170511E+00    0.6401428751E-02    0.3799302329E-01
    0.3300000000E+06    0.6417388391E+00    0.1341852542E-01    0.6500203512E+00    0.6206791240E-02    0.3799856437E-01
    0.3500000000E+06    0.6417574799E+00    0.1307238183E-01    0.6508472439E+00    0.6028683338E-02    0.3800369761E-01
    0.3700000000E+06    0.6417739025E+00    0.1275308229E-01    0.6516079868E+00    0.5864888695E-02    0.3800847701E-01
    0.3900000000E+06    0.6417884588E+00    0.1245728347E-01    0.6523110025E+00    0.5713586340E-02    0.3801294672E-01
    0.4100000000E+06    0.6418014309E+00    0.1218220089E-01    0.6529632806E+00    0.5573264307E-02    0.3801714325E-01
    0.4300000000E+06    0.6418130477E+00    0.1192549383E-01    0.6535706777E+00    0.5442655266E-02    0.3802109718E-01
    0.4500000000E+06    0.6418234965E+00    0.1168517806E-01    0.6541381429E+00    0.5320687835E-02    0.3802483431E-01
    0.4700000000E+06    0.6418329324E+00    0.1145955870E-01    0.6546698917E+00    0.5206449240E-02    0.3802837658E-01
    0.4900000000E+06    0.6418414844E+00    0.1124717793E-01    0.6551695400E+00    0.5099156324E-02    0.3803174284E-01
    0.1000000000E+06    0.6409102178E+00    0.2248884239E-01    0.6275377814E+00    0.1104721532E-01    0.3786823577E-01
    0.3000000000E+06    0.6417057136E+00    0.1399719102E-01    0.6486329098E+00    0.6505774990E-02    0.3799007953E-01
    0.5000000000E+06    0.6418454636E+00    0.1114555096E-01    0.6554083190E+00    0.5047899500E-02    0.3803336514E-01
    0.7000000000E+06    0.6418976731E+00    0.9575096455E-02    0.6590724929E+00    0.4263078507E-02    0.3805957233E-01
    0.9000000000E+06    0.6419224847E+00    0.8541600942E-02    0.6614569924E+00    0.3754587437E-02    0.3807832970E-01
    0.1100000000E+07    0.6419356235E+00    0.7793799932E-02    0.6631686387E+00    0.3391019385E-02    0.3809292438E-01
    0.1300000000E+07    0.6419428910E+00    0.7219611161E-02    0.6644748786E+00    0.3114542211E-02    0.3810486446E-01
    0.1500000000E+07    0.6419468820E+00    0.6760366020E-02    0.6655144819E+00    0.2895201355E-02    0.3811496538E-01
    0.1700000000E+07    0.6419489116E+00    0.6381940700E-02    0.6663676105E+00    0.2715724796E-02    0.3812371739E-01
    0.1900000000E+07    0.6419497074E+00    0.6062937301E-02    0.6670842510E+00    0.2565361706E-02    0.3813143797E-01
    0.2100000000E+07    0.6419496990E+00    0.5789157376E-02    0.6676974159E+00    0.2437024357E-02    0.3813834446E-01
    0.2300000000E+07    0.6419491532E+00    0.5550754436E-02    0.6682299066E+00    0.2325825566E-02    0.3814459208E-01
    0.2500000000E+07    0.6419482422E+00    0.5340653555E-02    0.6686980486E+00    0.2228271826E-02    0.3815029558E-01
    0.2700000000E+07    0.6419470806E+00    0.5153620969E-02    0.6691138811E+00    0.2141790849E-02    0.3815554213E-01
    0.2900000000E+07    0.6419457470E+00    0.4985689422E-02    0.6694865043E+00    0.2064441156E-02    0.3816039953E-01
    0.3100000000E+07    0.6419442962E+00    0.4833788799E-02    0.6698229427E+00    0.1994726247E-02    0.3816492154E-01
    0.3300000000E+07    0.6419427669E+00    0.4695500577E-02    0.6701287169E+00    0.1931471563E-02    0.3816915149E-01
    0.3500000000E+07    0.6419411872E+00    0.4568889826E-02    0.6704082344E+00    0.1873740621E-02    0.3817312483E-01
    0.3700000000E+07    0.6419395775E+00    0.4452387344E-02    0.6706650627E+00    0.1820776390E-02    0.3817687094E-01
    0.3900000000E+07    0.6419379526E+00    0.4344705153E-02    0.6709021244E+00    0.1771959388E-02    0.3818041442E-01
    0.4100000000E+07    0.6419363235E+00    0.4244774721E-02    0.6711218402E+00    0.1726777149E-02    0.3818377607E-01
    0.4300000000E+07    0.6419346985E+00    0.4151701021E-02    0.6713262344E+00    0.1684801584E-02    0.3818697366E-01
    0.4500000000E+07    0.6419330835E+00    0.4064727843E-02    0.6715170148E+00    0.1645671928E-02    0.3819002246E-01
    0.4700000000E+07    0.6419314830E+00    0.3983211225E-02    0.6716956337E+00    0.1609081721E-02    0.3819293572E-01
    0.4900000000E+07    0.6419299002E+00    0.3906598863E-02    0.6718633349E+00    0.1574768737E-02    0.3819572499E-01
    0.1000000000E+07    0.6419300367E+00    0.8140795009E-02    0.6623758521E+00    0.3559246314E-02    0.3808602992E-01
    0.3000000000E+07    0.6419450335E+00    0.4907899409E-02    0.6696588716E+00    0.2028709177E-02    0.3816269954E-01
    0.5000000000E+07    0.6419291162E+00    0.3869980198E-02    0.6719434325E+00    0.1558394379E-02    0.3819707634E-01
    0.7000000000E+07    0.6419146534E+00    0.3307451033E-02    0.6731689033E+00    0.1309109579E-02    0.3821951072E-01
    0.9000000000E+07    0.6419024317E+00    0.2940599902E-02    0.6739627859E+00    0.1149011447E-02    0.3823619677E-01
    0.1100000000E+08    0.6418920042E+00    0.2676762423E-02    0.6745309557E+00    0.1035213453E-02    0.3824948915E-01
    0.1300000000E+08    0.6418829552E+00    0.2475071896E-02    0.6749636227E+00    0.9490458500E-03    0.3826053873E-01
    0.1500000000E+08    0.6418749793E+00    0.2314305924E-02    0.6753074071E+00    0.8809116046E-03    0.3826999486E-01
    0.1700000000E+08    0.6418678563E+00    0.2182194140E-02    0.6755891591E+00    0.8253084736E-03    0.3827826018E-01
    0.1900000000E+08    0.6418614249E+00    0.2071078307E-02    0.6758255825E+00    0.7788270180E-03    0.3828560166E-01
    0.2100000000E+08    0.6418555648E+00    0.1975896321E-02    0.6760276882E+00    0.7392277368E-03    0.3829220545E-01
    0.2300000000E+08    0.6418501839E+00    0.1893148926E-02    0.6762030692E+00    0.7049711787E-03    0.3829820652E-01
    0.2500000000E+08    0.6418452105E+00    0.1820328712E-02    0.6763571549E+00    0.6749597865E-03    0.3830370590E-01
    0.2700000000E+08    0.6418405877E+00    0.1755585197E-02    0.6764939444E+00    0.6483872610E-03    0.3830878114E-01
