  Pressure (Pa) 22mC5-400 (mol/kg) 2mC6-400 (mol/kg) 3mC6-400 (mol/kg) 33mC5-400 (mol/kg) 23mC5-400 (mol/kg)
    0.1000000000E+01    0.3173310978E-02    0.2382588810E-02    0.4223176090E-02    0.6466315304E-04    0.1857331546E-03
    0.3000000000E+01    0.9383335956E-02    0.6981571021E-02    0.1244178982E-01    0.1894800674E-03    0.5492105582E-03
    0.5000000000E+01    0.1541876236E-01    0.1136992994E-01    0.2037078114E-01    0.3085816199E-03    0.9024764490E-03
    0.7000000000E+01    0.2128809938E-01    0.1555997049E-01    0.2802590427E-01    0.4223011216E-03    0.1246028408E-02
    0.9000000000E+01    0.2699929759E-01    0.1956309462E-01    0.3542177908E-01    0.5309474326E-03    0.1580331352E-02
    0.1100000000E+02    0.3255979397E-01    0.2338988125E-01    0.4257199166E-01    0.6348071270E-03    0.1905820173E-02
    0.1300000000E+02    0.3797655269E-01    0.2705015790E-01    0.4948918448E-01    0.7341464338E-03    0.2222902112E-02
    0.1500000000E+02    0.4325610208E-01    0.3055306509E-01    0.5618513717E-01    0.8292129803E-03    0.2531958928E-02
    0.1700000000E+02    0.4840456813E-01    0.3390711430E-01    0.6267083920E-01    0.9202373613E-03    0.2833348857E-02
    0.1900000000E+02    0.5342770511E-01    0.3712024013E-01    0.6895655525E-01    0.1007434553E-02    0.3127408397E-02
    0.2100000000E+02    0.5833092330E-01    0.4019984751E-01    0.7505188425E-01    0.1091005189E-02    0.3414453932E-02
    0.2300000000E+02    0.6311931436E-01    0.4315285433E-01    0.8096581272E-01    0.1171136717E-02    0.3694783219E-02
    0.2500000000E+02    0.6779767449E-01    0.4598573009E-01    0.8670676303E-01    0.1248004445E-02    0.3968676734E-02
    0.2700000000E+02    0.7237052556E-01    0.4870453092E-01    0.9228263718E-01    0.1321772487E-02    0.4236398917E-02
    0.2900000000E+02    0.7684213457E-01    0.5131493147E-01    0.9770085655E-01    0.1392594631E-02    0.4498199300E-02
    0.3100000000E+02    0.8121653134E-01    0.5382225387E-01    0.1029683981E+00    0.1460615117E-02    0.4754313548E-02
    0.3300000000E+02    0.8549752482E-01    0.5623149415E-01    0.1080918272E+00    0.1525969358E-02    0.5004964414E-02
    0.3500000000E+02    0.8968871815E-01    0.5854734632E-01    0.1130773278E+00    0.1588784589E-02    0.5250362610E-02
    0.3700000000E+02    0.9379352236E-01    0.6077422438E-01    0.1179307298E+00    0.1649180464E-02    0.5490707619E-02
    0.3900000000E+02    0.9781516908E-01    0.6291628248E-01    0.1226575342E+00    0.1707269600E-02    0.5726188433E-02
    0.4100000000E+02    0.1017567223E+00    0.6497743333E-01    0.1272629361E+00    0.1763158076E-02    0.5956984240E-02
    0.4300000000E+02    0.1056210891E+00    0.6696136515E-01    0.1317518455E+00    0.1816945896E-02    0.6183265052E-02
    0.4500000000E+02    0.1094110296E+00    0.6887155714E-01    0.1361289074E+00    0.1868727401E-02    0.6405192293E-02
    0.4700000000E+02    0.1131291664E+00    0.7071129383E-01    0.1403985186E+00    0.1918591660E-02    0.6622919334E-02
    0.4900000000E+02    0.1167779929E+00    0.7248367813E-01    0.1445648451E+00    0.1966622828E-02    0.6836591997E-02
    0.1000000000E+02    0.2979793761E-01    0.2149789908E-01    0.3902678186E-01    0.5834585121E-03    0.1744151454E-02
    0.3000000000E+02    0.7904124143E-01    0.5258115784E-01    0.1003530424E+00    0.1426946419E-02    0.4626952977E-02
    0.5000000000E+02    0.1185771606E+00    0.7334553614E-01    0.1466105188E+00    0.1989976036E-02    0.6941951556E-02
    0.7000000000E+02    0.1514411248E+00    0.8768019091E-01    0.1829600898E+00    0.2377988639E-02    0.8866664836E-02
    0.9000000000E+02    0.1794759108E+00    0.9779791387E-01    0.2124247855E+00    0.2651029924E-02    0.1050886753E-01
    0.1100000000E+03    0.2038686426E+00    0.1050391828E+00    0.2368966232E+00    0.2845515630E-02    0.1193799168E-01
    0.1300000000E+03    0.2254216426E+00    0.1102569200E+00    0.2576225900E+00    0.2984647309E-02    0.1320096505E-01
    0.1500000000E+03    0.2446991183E+00    0.1140156627E+00    0.2754593946E+00    0.3083804962E-02    0.1433078926E-01
    0.1700000000E+03    0.2621113310E+00    0.1167013378E+00    0.2910160362E+00    0.3153520161E-02    0.1535146210E-01
    0.1900000000E+03    0.2779652599E+00    0.1185849535E+00    0.3047379520E+00    0.3201201766E-02    0.1628094052E-01
    0.2100000000E+03    0.2924963580E+00    0.1198611694E+00    0.3169589299E+00    0.3232181541E-02    0.1713299791E-01
    0.2300000000E+03    0.3058891581E+00    0.1206725173E+00    0.3279343524E+00    0.3250371190E-02    0.1791842930E-01
    0.2500000000E+03    0.3182910506E+00    0.1211250907E+00    0.3378631781E+00    0.3258688319E-02    0.1864585716E-01
    0.2700000000E+03    0.3298217433E+00    0.1212989878E+00    0.3469028843E+00    0.3259340181E-02    0.1932228475E-01
    0.2900000000E+03    0.3405799094E+00    0.1212554268E+00    0.3551798738E+00    0.3254017220E-02    0.1995348489E-01
    0.3100000000E+03    0.3506479580E+00    0.1210416965E+00    0.3627968798E+00    0.3244027889E-02    0.2054427909E-01
    0.3300000000E+03    0.3600955235E+00    0.1206946655E+00    0.3698383366E+00    0.3230394316E-02    0.2109874158E-01
    0.3500000000E+03    0.3689820613E+00    0.1202433096E+00    0.3763743406E+00    0.3213921327E-02    0.2162035115E-01
    0.3700000000E+03    0.3773588092E+00    0.1197105604E+00    0.3824636177E+00    0.3195246989E-02    0.2211210591E-01
    0.3900000000E+03    0.3852702915E+00    0.1191146753E+00    0.3881557772E+00    0.3174880120E-02    0.2257661123E-01
    0.4100000000E+03    0.3927554871E+00    0.1184702642E+00    0.3934930458E+00    0.3153228475E-02    0.2301614810E-01
    0.4300000000E+03    0.3998487489E+00    0.1177890683E+00    0.3985116162E+00    0.3130620141E-02    0.2343272687E-01
    0.4500000000E+03    0.4065805345E+00    0.1170805567E+00    0.4032427084E+00    0.3107319964E-02    0.2382813005E-01
    0.4700000000E+03    0.4129779939E+00    0.1163523868E+00    0.4077134119E+00    0.3083542255E-02    0.2420394663E-01
    0.4900000000E+03    0.4190654476E+00    0.1156107632E+00    0.4119473609E+00    0.3059460713E-02    0.2456160006E-01
    0.1000000000E+03    0.1920704947E+00    0.1017162941E+00    0.2251954799E+00    0.2756411575E-02    0.1124672827E-01
    0.3000000000E+03    0.3456955808E+00    0.1211673178E+00    0.3590652208E+00    0.3249536172E-02    0.2025366257E-01
    0.5000000000E+03    0.4219998462E+00    0.1152365187E+00    0.4139821298E+00    0.3047351138E-02    0.2473402087E-01
    0.7000000000E+03    0.4687352685E+00    0.1078538343E+00    0.4461523531E+00    0.2811776035E-02    0.2748191746E-01
    0.9000000000E+03    0.5001246146E+00    0.1013926242E+00    0.4680896652E+00    0.2608559891E-02    0.2933000122E-01
    0.1100000000E+04    0.5224869385E+00    0.9597431988E-01    0.4843671830E+00    0.2439875273E-02    0.3064840931E-01
    0.1300000000E+04    0.5391208824E+00    0.9141718794E-01    0.4971118269E+00    0.2299411468E-02    0.3163045919E-01
    0.1500000000E+04    0.5519159654E+00    0.8753546068E-01    0.5074683859E+00    0.2180972912E-02    0.3238694184E-01
    0.1700000000E+04    0.5620270921E+00    0.8418253572E-01    0.5161169132E+00    0.2079699578E-02    0.3298560756E-01
    0.1900000000E+04    0.5701962735E+00    0.8124853891E-01    0.5234912368E+00    0.1991953664E-02    0.3347000595E-01
    0.2100000000E+04    0.5769198622E+00    0.7865152186E-01    0.5298834563E+00    0.1915024605E-02    0.3386928253E-01
    0.2300000000E+04    0.5825412150E+00    0.7632976672E-01    0.5354987434E+00    0.1846874400E-02    0.3420360861E-01
    0.2500000000E+04    0.5873047105E+00    0.7423611635E-01    0.5404862045E+00    0.1785949791E-02    0.3448734766E-01
    0.2700000000E+04    0.5913885926E+00    0.7233397650E-01    0.5449572806E+00    0.1731049416E-02    0.3473098107E-01
    0.2900000000E+04    0.5949256662E+00    0.7059451717E-01    0.5489972385E+00    0.1681230538E-02    0.3494232203E-01
    0.3100000000E+04    0.5980167470E+00    0.6899470077E-01    0.5526726312E+00    0.1635743166E-02    0.3512730459E-01
    0.3300000000E+04    0.6007396422E+00    0.6751587615E-01    0.5560363035E+00    0.1593983024E-02    0.3529051078E-01
    0.3500000000E+04    0.6031552924E+00    0.6614276191E-01    0.5591308449E+00    0.1555457512E-02    0.3543553110E-01
    0.3700000000E+04    0.6053120610E+00    0.6486270077E-01    0.5619910319E+00    0.1519760750E-02    0.3556521645E-01
    0.3900000000E+04    0.6072487887E+00    0.6366510463E-01    0.5646455914E+00    0.1486555012E-02    0.3568185750E-01
    0.4100000000E+04    0.6089970057E+00    0.6254103623E-01    0.5671184987E+00    0.1455556756E-02    0.3578731475E-01
    0.4300000000E+04    0.6105825589E+00    0.6148288954E-01    0.5694299495E+00    0.1426525964E-02    0.3588311409E-01
    0.4500000000E+04    0.6120268268E+00    0.6048414269E-01    0.5715970977E+00    0.1399257920E-02    0.3597051825E-01
    0.4700000000E+04    0.6133476365E+00    0.5953916487E-01    0.5736346241E+00    0.1373576807E-02    0.3605058074E-01
    0.4900000000E+04    0.6145599665E+00    0.5864306382E-01    0.5755551798E+00    0.1349330655E-02    0.3612418717E-01
    0.1000000000E+04    0.5121830696E+00    0.9856313804E-01    0.4767702487E+00    0.2520262713E-02    0.3004070204E-01
    0.3000000000E+04    0.5965216364E+00    0.6977840863E-01    0.5508769279E+00    0.1657986145E-02    0.3503779491E-01
    0.5000000000E+04    0.6151294894E+00    0.5821198476E-01    0.5764750796E+00    0.1337703715E-02    0.3615880822E-01
    0.7000000000E+04    0.6230718883E+00    0.5135417121E-01    0.5907637146E+00    0.1155933447E-02    0.3664534466E-01
    0.9000000000E+04    0.6274437670E+00    0.4662752070E-01    0.6002411922E+00    0.1034085988E-02    0.3691765616E-01
    0.1100000000E+05    0.6302025778E+00    0.4309436535E-01    0.6071341897E+00    0.9447857358E-03    0.3709236186E-01
    0.1300000000E+05    0.6320989871E+00    0.4031430738E-01    0.6124460972E+00    0.8755703936E-03    0.3721444063E-01
    0.1500000000E+05    0.6334813511E+00    0.3804762078E-01    0.6167060353E+00    0.8198135052E-03    0.3730488460E-01
    0.1700000000E+05    0.6345330223E+00    0.3615046611E-01    0.6202235034E+00    0.7736115184E-03    0.3737480560E-01
    0.1900000000E+05    0.6353595757E+00    0.3453031825E-01    0.6231934440E+00    0.7344906203E-03    0.3743063822E-01
    0.2100000000E+05    0.6360260458E+00    0.3312445750E-01    0.6257456761E+00    0.7007945967E-03    0.3747636863E-01
    0.2300000000E+05    0.6365746589E+00    0.3188858875E-01    0.6279704956E+00    0.6713660668E-03    0.3751459967E-01
    0.2500000000E+05    0.6370340152E+00    0.3079037915E-01    0.6299329432E+00    0.6453679141E-03    0.3754710416E-01
    0.2700000000E+05    0.6374241684E+00    0.2980557745E-01    0.6316812354E+00    0.6221772932E-03    0.3757513218E-01
    0.2900000000E+05    0.6377595934E+00    0.2891557485E-01    0.6332519871E+00    0.6013196830E-03    0.3759959109E-01
    0.3100000000E+05    0.6380509981E+00    0.2810581265E-01    0.6346735779E+00    0.5824262201E-03    0.3762115586E-01
    0.3300000000E+05    0.6383064724E+00    0.2736470892E-01    0.6359683948E+00    0.5652051671E-03    0.3764033926E-01
    0.3500000000E+05    0.6385322419E+00    0.2668291487E-01    0.6371543705E+00    0.5494222865E-03    0.3765753809E-01
    0.3700000000E+05    0.6387331749E+00    0.2605278710E-01    0.6382460634E+00    0.5348870051E-03    0.3767306437E-01
    0.3900000000E+05    0.6389131327E+00    0.2546800535E-01    0.6392554348E+00    0.5214424498E-03    0.3768716691E-01
    0.4100000000E+05    0.6390752174E+00    0.2492329032E-01    0.6401924161E+00    0.5089581340E-03    0.3770004670E-01
    0.4300000000E+05    0.6392219490E+00    0.2441419202E-01    0.6410653330E+00    0.4973244987E-03    0.3771186792E-01
    0.4500000000E+05    0.6393553961E+00    0.2393692860E-01    0.6418812244E+00    0.4864487755E-03    0.3772276606E-01
    0.4700000000E+05    0.6394772722E+00    0.2348826202E-01    0.6426460887E+00    0.4762518092E-03    0.3773285397E-01
    0.4900000000E+05    0.6395890091E+00    0.2306540101E-01    0.6433650730E+00    0.4666655873E-03    0.3774222644E-01
    0.1000000000E+05    0.6289637307E+00    0.4474594420E-01    0.6039320945E+00    0.9863419869E-03    0.3701355561E-01
    0.3000000000E+05    0.6379102416E+00    0.2850144735E-01    0.6339799087E+00    0.5916472101E-03    0.3761070002E-01
    0.5000000000E+05    0.6396414595E+00    0.2286287827E-01    0.6437087737E+00    0.4620828114E-03    0.3774666995E-01
    0.7000000000E+05    0.6403704940E+00    0.1971872953E-01    0.6489919129E+00    0.3916537662E-03    0.3781225152E-01
    0.9000000000E+05    0.6407698242E+00    0.1763491749E-01    0.6524399983E+00    0.3457570938E-03    0.3785277355E-01
    0.1100000000E+06    0.6410207037E+00    0.1612001976E-01    0.6549207929E+00    0.3128107395E-03    0.3788116963E-01
    0.1300000000E+06    0.6411922811E+00    0.1495283143E-01    0.6568176225E+00    0.2876827484E-03    0.3790263815E-01
    0.1500000000E+06    0.6413166160E+00    0.1401683094E-01    0.6583297408E+00    0.2677019285E-03    0.3791971042E-01
    0.1700000000E+06    0.6414105854E+00    0.1324392308E-01    0.6595724225E+00    0.2513222342E-03    0.3793378260E-01
    0.1900000000E+06    0.6414839104E+00    0.1259124802E-01    0.6606176429E+00    0.2375784307E-03    0.3794569555E-01
    0.2100000000E+06    0.6415425800E+00    0.1203027986E-01    0.6615129915E+00    0.2258325758E-03    0.3795599002E-01
    0.2300000000E+06    0.6415904826E+00    0.1154118595E-01    0.6622913721E+00    0.2156438638E-03    0.3796503187E-01
    0.2500000000E+06    0.6416302506E+00    0.1110968529E-01    0.6629763658E+00    0.2066966228E-03    0.3797307887E-01
    0.2700000000E+06    0.6416637289E+00    0.1072519361E-01    0.6635853775E+00    0.1987580549E-03    0.3798031873E-01
    0.2900000000E+06    0.6416922476E+00    0.1037967478E-01    0.6641315739E+00    0.1916522074E-03    0.3798689199E-01
    0.3100000000E+06    0.6417167900E+00    0.1006690093E-01    0.6646251262E+00    0.1852432872E-03    0.3799290630E-01
    0.3300000000E+06    0.6417380976E+00    0.9781959640E-02    0.6650740340E+00    0.1794245955E-03    0.3799844583E-01
    0.3500000000E+06    0.6417567404E+00    0.9520916160E-02    0.6654846878E+00    0.1741109752E-03    0.3800357747E-01
    0.3700000000E+06    0.6417731634E+00    0.9280576102E-02    0.6658622636E+00    0.1692335242E-03    0.3800835523E-01
    0.3900000000E+06    0.6417877189E+00    0.9058315031E-02    0.6662110045E+00    0.1647358121E-03    0.3801282328E-01
    0.4100000000E+06    0.6418006893E+00    0.8851953745E-02    0.6665344266E+00    0.1605711209E-03    0.3801701816E-01
    0.4300000000E+06    0.6418123037E+00    0.8659665410E-02    0.6668354722E+00    0.1567003969E-03    0.3802097045E-01
    0.4500000000E+06    0.6418227497E+00    0.8479905369E-02    0.6671166247E+00    0.1530907064E-03    0.3802470595E-01
    0.4700000000E+06    0.6418321824E+00    0.8311357331E-02    0.6673799970E+00    0.1497140558E-03    0.3802824661E-01
    0.4900000000E+06    0.6418407310E+00    0.8152891619E-02    0.6676273997E+00    0.1465464785E-03    0.3803161129E-01
    0.1000000000E+06    0.6409081918E+00    0.1682370028E-01    0.6537711238E+00    0.3280690139E-03    0.3786806972E-01
    0.3000000000E+06    0.6417049648E+00    0.1021952804E-01    0.6643843873E+00    0.1883678800E-03    0.3798996329E-01
    0.5000000000E+06    0.6418447084E+00    0.8077129427E-02    0.6677456091E+00    0.1450345246E-03    0.3803323282E-01
    0.7000000000E+06    0.6418968787E+00    0.6911683677E-02    0.6695580708E+00    0.1219869332E-03    0.3805942571E-01
    0.9000000000E+06    0.6419216540E+00    0.6150036170E-02    0.6707365847E+00    0.1071557022E-03    0.3807817105E-01
    0.1100000000E+07    0.6419347616E+00    0.5601486293E-02    0.6715824778E+00    0.9659951450E-04    0.3809275536E-01
    0.1300000000E+07    0.6419420020E+00    0.5181711751E-02    0.6722281713E+00    0.8859851127E-04    0.3810468628E-01
    0.1500000000E+07    0.6419459693E+00    0.4846843469E-02    0.6727422609E+00    0.8226713125E-04    0.3811477897E-01
    0.1700000000E+07    0.6419479777E+00    0.4571482368E-02    0.6731643318E+00    0.7709701325E-04    0.3812352348E-01
    0.1900000000E+07    0.6419487544E+00    0.4339759035E-02    0.6735190530E+00    0.7277283592E-04    0.3813123715E-01
    0.2100000000E+07    0.6419487286E+00    0.4141174437E-02    0.6738227104E+00    0.6908730794E-04    0.3813813722E-01
    0.2300000000E+07    0.6419481668E+00    0.3968465541E-02    0.6740865500E+00    0.6589783632E-04    0.3814437884E-01
    0.2500000000E+07    0.6419472409E+00    0.3816424663E-02    0.6743186231E+00    0.6310269819E-04    0.3815007669E-01
    0.2700000000E+07    0.6419460656E+00    0.3681206375E-02    0.6745248669E+00    0.6062712597E-04    0.3815531789E-01
    0.2900000000E+07    0.6419447190E+00    0.3559900453E-02    0.6747097694E+00    0.5841477463E-04    0.3816017022E-01
    0.3100000000E+07    0.6419432560E+00    0.3450257974E-02    0.6748767950E+00    0.5642227250E-04    0.3816468738E-01
    0.3300000000E+07    0.6419417152E+00    0.3350509567E-02    0.6750286671E+00    0.5461562008E-04    0.3816891270E-01
    0.3500000000E+07    0.6419401246E+00    0.3259241271E-02    0.6751675600E+00    0.5296773929E-04    0.3817288162E-01
    0.3700000000E+07    0.6419385045E+00    0.3175307576E-02    0.6752952338E+00    0.5145676269E-04    0.3817662346E-01
    0.3900000000E+07    0.6419368696E+00    0.3097769151E-02    0.6754131310E+00    0.5006481242E-04    0.3818016283E-01
    0.4100000000E+07    0.6419352311E+00    0.3025847391E-02    0.6755224462E+00    0.4877711146E-04    0.3818352052E-01
    0.4300000000E+07    0.6419335970E+00    0.2958890641E-02    0.6756241789E+00    0.4758132532E-04    0.3818671427E-01
    0.4500000000E+07    0.6419319733E+00    0.2896348721E-02    0.6757191723E+00    0.4646706679E-04    0.3818975937E-01
    0.4700000000E+07    0.6419303644E+00    0.2837753448E-02    0.6758081437E+00    0.4542551808E-04    0.3819266903E-01
    0.4900000000E+07    0.6419287735E+00    0.2782703530E-02    0.6758917075E+00    0.4444913882E-04    0.3819545481E-01
    0.1000000000E+07    0.6419291898E+00    0.5855761913E-02    0.6711906707E+00    0.1014790344E-03    0.3808586591E-01
    0.3000000000E+07    0.6419439994E+00    0.3503741433E-02    0.6747953318E+00    0.5739335393E-04    0.3816246778E-01
    0.5000000000E+07    0.6419279856E+00    0.2756398003E-02    0.6759316300E+00    0.4398332345E-04    0.3819680445E-01
    0.7000000000E+07    0.6419134553E+00    0.2352850941E-02    0.6765433974E+00    0.3690115125E-04    0.3821920872E-01
    0.9000000000E+07    0.6419011811E+00    0.2090232571E-02    0.6769408380E+00    0.3236209826E-04    0.3823587015E-01
    0.1100000000E+08    0.6418907102E+00    0.1901624566E-02    0.6772259394E+00    0.2914016033E-04    0.3824914144E-01
    0.1300000000E+08    0.6418816241E+00    0.1757591456E-02    0.6774434720E+00    0.2670296130E-04    0.3826017241E-01
    0.1500000000E+08    0.6418736156E+00    0.1642874942E-02    0.6776166100E+00    0.2477731675E-04    0.3826961182E-01
    0.1700000000E+08    0.6418664634E+00    0.1548665058E-02    0.6777587194E+00    0.2320680915E-04    0.3827786189E-01
    0.1900000000E+08    0.6418600056E+00    0.1469469247E-02    0.6778781258E+00    0.2189461622E-04    0.3828518931E-01
    0.2100000000E+08    0.6418541214E+00    0.1401660134E-02    0.6779803237E+00    0.2077719415E-04    0.3829178001E-01
    0.2300000000E+08    0.6418487182E+00    0.1342732100E-02    0.6780691062E+00    0.1981089364E-04    0.3829776883E-01
    0.2500000000E+08    0.6418437241E+00    0.1290890872E-02    0.6781471880E+00    0.1896461373E-04    0.3830325667E-01
    0.2700000000E+08    0.6418390819E+00    0.1244812995E-02    0.6782165706E+00    0.1821551885E-04    0.3830832098E-01
