  Pressure (Pa) 22mC5-400 (mol/kg) 2mC6-400 (mol/kg) 3mC6-400 (mol/kg) 33mC5-400 (mol/kg) 23mC5-400 (mol/kg)
    0.1000000000E+01    0.3169182553E-02    0.3183893888E-02    0.1059546456E-02    0.1944132612E-03    0.4637291632E-03
    0.3000000000E+01    0.9347617149E-02    0.9371069932E-02    0.3143226410E-02    0.5721538701E-03    0.1367802985E-02
    0.5000000000E+01    0.1532330928E-01    0.1532852156E-01    0.5181116144E-02    0.9357919825E-03    0.2242232239E-02
    0.7000000000E+01    0.2110798222E-01    0.2106869179E-01    0.7174855073E-02    0.1286089167E-02    0.3088730804E-02
    0.9000000000E+01    0.2671244717E-01    0.2660311677E-01    0.9126003676E-02    0.1623751618E-02    0.3908879234E-02
    0.1100000000E+02    0.3214669031E-01    0.3194250887E-01    0.1103604823E-01    0.1949435226E-02    0.4704137480E-02
    0.1300000000E+02    0.3741995010E-01    0.3709683073E-01    0.1290640519E-01    0.2263750087E-02    0.5475856189E-02
    0.1500000000E+02    0.4254078606E-01    0.4207536123E-01    0.1473842528E-01    0.2567264529E-02    0.6225286756E-02
    0.1700000000E+02    0.4751714011E-01    0.4688675464E-01    0.1653339732E-01    0.2860508720E-02    0.6953590296E-02
    0.1900000000E+02    0.5235639141E-01    0.5153909349E-01    0.1829255169E-01    0.3143977888E-02    0.7661845655E-02
    0.2100000000E+02    0.5706540550E-01    0.5603993618E-01    0.2001706371E-01    0.3418135231E-02    0.8351056593E-02
    0.2300000000E+02    0.6165057833E-01    0.6039635977E-01    0.2170805667E-01    0.3683414524E-02    0.9022158221E-02
    0.2500000000E+02    0.6611787588E-01    0.6461499858E-01    0.2336660470E-01    0.3940222476E-02    0.9676022798E-02
    0.2700000000E+02    0.7047286989E-01    0.6870207912E-01    0.2499373546E-01    0.4188940861E-02    0.1031346494E-01
    0.2900000000E+02    0.7472076997E-01    0.7266345162E-01    0.2659043265E-01    0.4429928441E-02    0.1093524633E-01
    0.3100000000E+02    0.7886645278E-01    0.7650461871E-01    0.2815763836E-01    0.4663522721E-02    0.1154207998E-01
    0.3300000000E+02    0.8291448831E-01    0.8023076142E-01    0.2969625526E-01    0.4890041529E-02    0.1213463406E-01
    0.3500000000E+02    0.8686916376E-01    0.8384676285E-01    0.3120714865E-01    0.5109784469E-02    0.1271353539E-01
    0.3700000000E+02    0.9073450527E-01    0.8735722976E-01    0.3269114840E-01    0.5323034236E-02    0.1327937265E-01
    0.3900000000E+02    0.9451429760E-01    0.9076651227E-01    0.3414905078E-01    0.5530057815E-02    0.1383269920E-01
    0.4100000000E+02    0.9821210211E-01    0.9407872182E-01    0.3558162011E-01    0.5731107586E-02    0.1437403577E-01
    0.4300000000E+02    0.1018312731E+00    0.9729774772E-01    0.3698959042E-01    0.5926422328E-02    0.1490387281E-01
    0.4500000000E+02    0.1053749729E+00    0.1004272722E+00    0.3837366692E-01    0.6116228144E-02    0.1542267267E-01
    0.4700000000E+02    0.1088461854E+00    0.1034707843E+00    0.3973452739E-01    0.6300739306E-02    0.1593087166E-01
    0.4900000000E+02    0.1122477287E+00    0.1064315927E+00    0.4107282357E-01    0.6480159036E-02    0.1642888182E-01
    0.1000000000E+02    0.2945025238E-01    0.2929655250E-01    0.1008607384E-01    0.1788051623E-02    0.4309532777E-02
    0.3000000000E+02    0.7680609602E-01    0.7459872978E-01    0.2737766463E-01    0.4547629436E-02    0.1124048886E-01
    0.5000000000E+02    0.1139232124E+00    0.1078819704E+00    0.4173370690E-01    0.6568020277E-02    0.1667418863E-01
    0.7000000000E+02    0.1443507533E+00    0.1332316451E+00    0.5390725621E-01    0.8099981454E-02    0.2112956015E-01
    0.9000000000E+02    0.1701035853E+00    0.1530628671E+00    0.6440950785E-01    0.9291976299E-02    0.2490121757E-01
    0.1100000000E+03    0.1924164552E+00    0.1689025662E+00    0.7360030311E-01    0.1023799596E-01    0.2816971431E-01
    0.1300000000E+03    0.2120927106E+00    0.1817662108E+00    0.8174070127E-01    0.1100062385E-01    0.3105252617E-01
    0.1500000000E+03    0.2296809073E+00    0.1923563254E+00    0.8902498596E-01    0.1162320362E-01    0.3362987281E-01
    0.1700000000E+03    0.2455708983E+00    0.2011745926E+00    0.9560093488E-01    0.1213671764E-01    0.3595876725E-01
    0.1900000000E+03    0.2600492374E+00    0.2085887305E+00    0.1015830958E+00    0.1256389446E-01    0.3808111697E-01
    0.2100000000E+03    0.2733326965E+00    0.2148742100E+00    0.1070617379E+00    0.1292177339E-01    0.4002862494E-01
    0.2300000000E+03    0.2855893801E+00    0.2202412604E+00    0.1121090411E+00    0.1322336612E-01    0.4182587718E-01
    0.2500000000E+03    0.2969524952E+00    0.2248529051E+00    0.1167834735E+00    0.1347876737E-01    0.4349235634E-01
    0.2700000000E+03    0.3075296057E+00    0.2288373335E+00    0.1211329473E+00    0.1369591741E-01    0.4504379502E-01
    0.2900000000E+03    0.3174090185E+00    0.2322965860E+00    0.1251971357E+00    0.1388113776E-01    0.4649310962E-01
    0.3100000000E+03    0.3266642942E+00    0.2353127744E+00    0.1290092003E+00    0.1403951525E-01    0.4785106000E-01
    0.3300000000E+03    0.3353575011E+00    0.2379526193E+00    0.1325970988E+00    0.1417518238E-01    0.4912672539E-01
    0.3500000000E+03    0.3435416081E+00    0.2402708100E+00    0.1359845859E+00    0.1429152505E-01    0.5032785422E-01
    0.3700000000E+03    0.3512622735E+00    0.2423125305E+00    0.1391919904E+00    0.1439133897E-01    0.5146112581E-01
    0.3900000000E+03    0.3585592053E+00    0.2441153812E+00    0.1422368242E+00    0.1447694867E-01    0.5253234924E-01
    0.4100000000E+03    0.3654672093E+00    0.2457108586E+00    0.1451342644E+00    0.1455029922E-01    0.5354661667E-01
    0.4300000000E+03    0.3720170086E+00    0.2471255064E+00    0.1478975391E+00    0.1461302772E-01    0.5450842314E-01
    0.4500000000E+03    0.3782358917E+00    0.2483818201E+00    0.1505382376E+00    0.1466651941E-01    0.5542176142E-01
    0.4700000000E+03    0.3841482319E+00    0.2494989633E+00    0.1530665629E+00    0.1471195224E-01    0.5629019787E-01
    0.4900000000E+03    0.3897759070E+00    0.2504933402E+00    0.1554915387E+00    0.1475033244E-01    0.5711693386E-01
    0.1000000000E+03    0.1816323007E+00    0.1614090968E+00    0.6915065415E-01    0.9791262760E-02    0.2658992133E-01
    0.3000000000E+03    0.3221105564E+00    0.2338555766E+00    0.1271328271E+00    0.1396340394E-01    0.4718290310E-01
    0.5000000000E+03    0.3924892354E+00    0.2509489783E+00    0.1566678103E+00    0.1476715247E-01    0.5751557736E-01
    0.7000000000E+03    0.4357241925E+00    0.2561714693E+00    0.1763106132E+00    0.1488877174E-01    0.6387190143E-01
    0.9000000000E+03    0.4647299587E+00    0.2575085178E+00    0.1910509325E+00    0.1481161562E-01    0.6814215023E-01
    0.1100000000E+04    0.4853370757E+00    0.2572722708E+00    0.2028856586E+00    0.1466857740E-01    0.7118020894E-01
    0.1300000000E+04    0.5006145206E+00    0.2563149188E+00    0.2128012081E+00    0.1450457724E-01    0.7343577283E-01
    0.1500000000E+04    0.5123260289E+00    0.2550041396E+00    0.2213538705E+00    0.1433668225E-01    0.7516741468E-01
    0.1700000000E+04    0.5215502211E+00    0.2535171583E+00    0.2288873902E+00    0.1417175477E-01    0.7653334550E-01
    0.1900000000E+04    0.5289794798E+00    0.2519465009E+00    0.2356288661E+00    0.1401253188E-01    0.7763517366E-01
    0.2100000000E+04    0.5350761974E+00    0.2503433106E+00    0.2417361859E+00    0.1385997102E-01    0.7854078956E-01
    0.2300000000E+04    0.5401595907E+00    0.2487369767E+00    0.2473236159E+00    0.1371423406E-01    0.7929708508E-01
    0.2500000000E+04    0.5444563583E+00    0.2471447756E+00    0.2524765742E+00    0.1357512645E-01    0.7993737792E-01
    0.2700000000E+04    0.5481314771E+00    0.2455769262E+00    0.2572606368E+00    0.1344230199E-01    0.8048592665E-01
    0.2900000000E+04    0.5513075920E+00    0.2440393887E+00    0.2617272816E+00    0.1331536079E-01    0.8096077432E-01
    0.3100000000E+04    0.5540776032E+00    0.2425354826E+00    0.2659176889E+00    0.1319389648E-01    0.8137559487E-01
    0.3300000000E+04    0.5565130573E+00    0.2410668583E+00    0.2698653401E+00    0.1307751839E-01    0.8174092464E-01
    0.3500000000E+04    0.5586698778E+00    0.2396340981E+00    0.2735978422E+00    0.1296586119E-01    0.8206500340E-01
    0.3700000000E+04    0.5605923603E+00    0.2382370979E+00    0.2771382394E+00    0.1285858826E-01    0.8235436103E-01
    0.3900000000E+04    0.5623160126E+00    0.2368753132E+00    0.2805059774E+00    0.1275539180E-01    0.8261423468E-01
    0.4100000000E+04    0.5638696080E+00    0.2355479222E+00    0.2837176237E+00    0.1265599142E-01    0.8284887046E-01
    0.4300000000E+04    0.5652766941E+00    0.2342539341E+00    0.2867874153E+00    0.1256013212E-01    0.8306174509E-01
    0.4500000000E+04    0.5665567156E+00    0.2329922612E+00    0.2897276820E+00    0.1246758196E-01    0.8325573108E-01
    0.4700000000E+04    0.5677258624E+00    0.2317617685E+00    0.2925491760E+00    0.1237812989E-01    0.8343322139E-01
    0.4900000000E+04    0.5687977172E+00    0.2305613063E+00    0.2952613341E+00    0.1229158355E-01    0.8359622470E-01
    0.1000000000E+04    0.4758500760E+00    0.2575165608E+00    0.1972557657E+00    0.1474451395E-01    0.6978102735E-01
    0.3000000000E+04    0.5527384658E+00    0.2432830978E+00    0.2638547662E+00    0.1325396897E-01    0.8117496728E-01
    0.5000000000E+04    0.5693008173E+00    0.2299719791E+00    0.2965790536E+00    0.1224934455E-01    0.8367283482E-01
    0.7000000000E+04    0.5762851543E+00    0.2195019290E+00    0.3187866235E+00    0.1152168972E-01    0.8474516268E-01
    0.9000000000E+04    0.5801001112E+00    0.2109722310E+00    0.3356558029E+00    0.1095385144E-01    0.8534148152E-01
    0.1100000000E+05    0.5824939374E+00    0.2038035946E+00    0.3492576168E+00    0.1048979213E-01    0.8572241525E-01
    0.1300000000E+05    0.5841320946E+00    0.1976350465E+00    0.3606429048E+00    0.1009852459E-01    0.8598777510E-01
    0.1500000000E+05    0.5853217209E+00    0.1922304804E+00    0.3704220821E+00    0.9761110770E-02    0.8618390938E-01
    0.1700000000E+05    0.5862237901E+00    0.1874278766E+00    0.3789825488E+00    0.9465126525E-02    0.8633525801E-01
    0.1900000000E+05    0.5869306726E+00    0.1831114809E+00    0.3865861186E+00    0.9201980180E-02    0.8645593083E-01
    0.2100000000E+05    0.5874991049E+00    0.1791958023E+00    0.3934182656E+00    0.8965483369E-02    0.8655464736E-01
    0.2300000000E+05    0.5879658337E+00    0.1756159412E+00    0.3996152949E+00    0.8751031771E-02    0.8663708951E-01
    0.2500000000E+05    0.5883556938E+00    0.1723214824E+00    0.4052803698E+00    0.8555107714E-02    0.8670712067E-01
    0.2700000000E+05    0.5886860652E+00    0.1692724922E+00    0.4104934803E+00    0.8374963847E-02    0.8676746098E-01
    0.2900000000E+05    0.5889694707E+00    0.1664368054E+00    0.4153179138E+00    0.8208414099E-02    0.8682008227E-01
    0.3100000000E+05    0.5892151593E+00    0.1637881371E+00    0.4198046100E+00    0.8053691023E-02    0.8686644970E-01
    0.3300000000E+05    0.5894301087E+00    0.1613047342E+00    0.4239951792E+00    0.7909345718E-02    0.8690767527E-01
    0.3500000000E+05    0.5896196810E+00    0.1589683923E+00    0.4279240501E+00    0.7774175944E-02    0.8694461868E-01
    0.3700000000E+05    0.5897880640E+00    0.1567637256E+00    0.4316200320E+00    0.7647173411E-02    0.8697795536E-01
    0.3900000000E+05    0.5899385754E+00    0.1546776150E+00    0.4351074736E+00    0.7527484405E-02    0.8700822362E-01
    0.4100000000E+05    0.5900738771E+00    0.1526987849E+00    0.4384071373E+00    0.7414379911E-02    0.8703585795E-01
    0.4300000000E+05    0.5901961297E+00    0.1508174743E+00    0.4415368696E+00    0.7307232606E-02    0.8706121306E-01
    0.4500000000E+05    0.5903071044E+00    0.1490251783E+00    0.4445121210E+00    0.7205498908E-02    0.8708458152E-01
    0.4700000000E+05    0.5904082674E+00    0.1473144420E+00    0.4473463555E+00    0.7108704816E-02    0.8710620690E-01
    0.4900000000E+05    0.5905008422E+00    0.1456786954E+00    0.4500513763E+00    0.7016434604E-02    0.8712629368E-01
    0.1000000000E+05    0.5814204380E+00    0.2072440954E+00    0.3427851566E+00    0.1071116563E-01    0.8555075084E-01
    0.3000000000E+05    0.5890965492E+00    0.1650905468E+00    0.4176006883E+00    0.8129671296E-02    0.8684397132E-01
    0.5000000000E+05    0.5905442372E+00    0.1448870986E+00    0.4513587312E+00    0.6971879697E-02    0.8713581521E-01
    0.7000000000E+05    0.5911422901E+00    0.1318745697E+00    0.4727040478E+00    0.6248444560E-02    0.8727622282E-01
    0.9000000000E+05    0.5914639142E+00    0.1224297578E+00    0.4880460758E+00    0.5733697818E-02    0.8736287171E-01
    0.1100000000E+06    0.5916622792E+00    0.1151018318E+00    0.4998747107E+00    0.5340188016E-02    0.8742354714E-01
    0.1300000000E+06    0.5917954047E+00    0.1091666585E+00    0.5094122686E+00    0.5025197474E-02    0.8746939814E-01
    0.1500000000E+06    0.5918900156E+00    0.1042123483E+00    0.5173465214E+00    0.4764816407E-02    0.8750584772E-01
    0.1700000000E+06    0.5919600934E+00    0.9998313721E-01    0.5241012391E+00    0.4544387530E-02    0.8753588471E-01
    0.1900000000E+06    0.5920136423E+00    0.9630982075E-01    0.5299551184E+00    0.4354317143E-02    0.8756130814E-01
    0.2100000000E+06    0.5920555642E+00    0.9307494781E-01    0.5351007067E+00    0.4188006439E-02    0.8758327442E-01
    0.2300000000E+06    0.5920890226E+00    0.9019385092E-01    0.5396762741E+00    0.4040736263E-02    0.8760256566E-01
    0.2500000000E+06    0.5921161464E+00    0.8760360270E-01    0.5437842565E+00    0.3909023887E-02    0.8761973274E-01
    0.2700000000E+06    0.5921384186E+00    0.8525623930E-01    0.5475025174E+00    0.3790231516E-02    0.8763517677E-01
    0.2900000000E+06    0.5921569023E+00    0.8311441928E-01    0.5508915320E+00    0.3682317308E-02    0.8764919793E-01
    0.3100000000E+06    0.5921723782E+00    0.8114854122E-01    0.5539991404E+00    0.3583671124E-02    0.8766202617E-01
    0.3300000000E+06    0.5921854318E+00    0.7933477064E-01    0.5568637914E+00    0.3493002772E-02    0.8767384118E-01
    0.3500000000E+06    0.5921965103E+00    0.7765365387E-01    0.5595168148E+00    0.3409263900E-02    0.8768478584E-01
    0.3700000000E+06    0.5922059605E+00    0.7608912168E-01    0.5619840515E+00    0.3331592147E-02    0.8769497542E-01
    0.3900000000E+06    0.5922140554E+00    0.7462775889E-01    0.5642870449E+00    0.3259270385E-02    0.8770450422E-01
    0.4100000000E+06    0.5922210125E+00    0.7325825934E-01    0.5664439295E+00    0.3191696435E-02    0.8771345026E-01
    0.4300000000E+06    0.5922270069E+00    0.7197101283E-01    0.5684701019E+00    0.3128360208E-02    0.8772187876E-01
    0.4500000000E+06    0.5922321812E+00    0.7075778755E-01    0.5703787365E+00    0.3068826200E-02    0.8772984480E-01
    0.4700000000E+06    0.5922366525E+00    0.6961148292E-01    0.5721811865E+00    0.3012719915E-02    0.8773739524E-01
    0.4900000000E+06    0.5922405176E+00    0.6852593491E-01    0.5738872987E+00    0.2959717205E-02    0.8774457031E-01
    0.1000000000E+06    0.5915737733E+00    0.1185566169E+00    0.4943056611E+00    0.5525075142E-02    0.8739556015E-01
    0.3000000000E+06    0.5921649758E+00    0.8211109379E-01    0.5524779193E+00    0.3631922802E-02    0.8765574894E-01
    0.5000000000E+06    0.5922422487E+00    0.6800423569E-01    0.5747069560E+00    0.2934290045E-02    0.8774802812E-01
    0.7000000000E+06    0.5922590495E+00    0.5975155507E-01    0.5876496720E+00    0.2536059622E-02    0.8780388121E-01
    0.9000000000E+06    0.5922594687E+00    0.5411635291E-01    0.5964629477E+00    0.2268629676E-02    0.8784385237E-01
    0.1100000000E+07    0.5922540991E+00    0.4993218983E-01    0.6029944373E+00    0.2072559736E-02    0.8787495115E-01
    0.1300000000E+07    0.5922464918E+00    0.4665620099E-01    0.6081010236E+00    0.1920606789E-02    0.8790039258E-01
    0.1500000000E+07    0.5922380655E+00    0.4399527608E-01    0.6122442249E+00    0.1798235006E-02    0.8792191480E-01
    0.1700000000E+07    0.5922294466E+00    0.4177476169E-01    0.6156985293E+00    0.1696866748E-02    0.8794056264E-01
    0.1900000000E+07    0.5922209260E+00    0.3988296993E-01    0.6186392061E+00    0.1611061712E-02    0.8795701274E-01
    0.2100000000E+07    0.5922126398E+00    0.3824456766E-01    0.6211843296E+00    0.1537176541E-02    0.8797172821E-01
    0.2300000000E+07    0.5922046478E+00    0.3680657726E-01    0.6234168490E+00    0.1472665181E-02    0.8798503985E-01
    0.2500000000E+07    0.5921969714E+00    0.3553046917E-01    0.6253970381E+00    0.1415686373E-02    0.8799719215E-01
    0.2700000000E+07    0.5921896119E+00    0.3438743548E-01    0.6271699276E+00    0.1364870466E-02    0.8800837087E-01
    0.2900000000E+07    0.5921825605E+00    0.3335543175E-01    0.6287699522E+00    0.1319174265E-02    0.8801872047E-01
    0.3100000000E+07    0.5921758031E+00    0.3241725312E-01    0.6302239707E+00    0.1277787090E-02    0.8802835548E-01
    0.3300000000E+07    0.5921693236E+00    0.3155924176E-01    0.6315532924E+00    0.1240067956E-02    0.8803736825E-01
    0.3500000000E+07    0.5921631054E+00    0.3077039413E-01    0.6327750770E+00    0.1205502364E-02    0.8804583431E-01
    0.3700000000E+07    0.5921571320E+00    0.3004172924E-01    0.6339033235E+00    0.1173671840E-02    0.8805381624E-01
    0.3900000000E+07    0.5921513877E+00    0.2936583206E-01    0.6349495850E+00    0.1144232003E-02    0.8806136645E-01
    0.4100000000E+07    0.5921458575E+00    0.2873651732E-01    0.6359234950E+00    0.1116896470E-02    0.8806852928E-01
    0.4300000000E+07    0.5921405279E+00    0.2814857787E-01    0.6368331605E+00    0.1091424846E-02    0.8807534257E-01
    0.4500000000E+07    0.5921353859E+00    0.2759759333E-01    0.6376854613E+00    0.1067613622E-02    0.8808183888E-01
    0.4700000000E+07    0.5921304198E+00    0.2707978290E-01    0.6384862799E+00    0.1045289192E-02    0.8808804641E-01
    0.4900000000E+07    0.5921256188E+00    0.2659189044E-01    0.6392406810E+00    0.1024302414E-02    0.8809398978E-01
    0.1000000000E+07    0.5922572081E+00    0.5188513644E-01    0.5999471823E+00    0.2163802424E-02    0.8786026040E-01
    0.3000000000E+07    0.5921791460E+00    0.3287553904E-01    0.6295137692E+00    0.1297985506E-02    0.8802362108E-01
    0.5000000000E+07    0.5921232770E+00    0.2635826671E-01    0.6396018695E+00    0.1014269658E-02    0.8809686925E-01
    0.7000000000E+07    0.5920830709E+00    0.2273447662E-01    0.6452000574E+00    0.8600873371E-03    0.8814467400E-01
    0.9000000000E+07    0.5920518238E+00    0.2033529343E-01    0.6489018791E+00    0.7595986883E-03    0.8818023193E-01
    0.1100000000E+08    0.5920262994E+00    0.1859187972E-01    0.6515895242E+00    0.6874475417E-03    0.8820855955E-01
    0.1300000000E+08    0.5920047343E+00    0.1724884990E-01    0.6536585383E+00    0.6324041465E-03    0.8823210873E-01
    0.1500000000E+08    0.5919860682E+00    0.1617187736E-01    0.6553167681E+00    0.5886245601E-03    0.8825226292E-01
    0.1700000000E+08    0.5919696152E+00    0.1528253382E-01    0.6566854759E+00    0.5527265790E-03    0.8826987992E-01
    0.1900000000E+08    0.5919549068E+00    0.1453148511E-01    0.6578408932E+00    0.5225985555E-03    0.8828552851E-01
    0.2100000000E+08    0.5919416087E+00    0.1388590930E-01    0.6588337102E+00    0.4968447638E-03    0.8829960527E-01
    0.2300000000E+08    0.5919294744E+00    0.1332299301E-01    0.6596991442E+00    0.4745006906E-03    0.8831239780E-01
    0.2500000000E+08    0.5919183166E+00    0.1282631182E-01    0.6604625398E+00    0.4548755483E-03    0.8832412130E-01
    0.2700000000E+08    0.5919079898E+00    0.1238369431E-01    0.6611426724E+00    0.4374598423E-03    0.8833494104E-01
