  Pressure (Pa) 22mC5-400 (mol/kg) 2mC6-400 (mol/kg) 3mC6-400 (mol/kg) 33mC5-400 (mol/kg) 23mC5-400 (mol/kg)
    0.1000000000E+01    0.3170245834E-02    0.3178653976E-02    0.2642898343E-02    0.1293990097E-03    0.2783307709E-03
    0.3000000000E+01    0.9356825505E-02    0.9325196716E-02    0.7805840585E-02    0.3795993446E-03    0.8214895691E-03
    0.5000000000E+01    0.1534794323E-01    0.1520452550E-01    0.1281166789E-01    0.6188981563E-03    0.1347500301E-02
    0.7000000000E+01    0.2115451866E-01    0.2083211604E-01    0.1766795072E-01    0.8479255130E-03    0.1857320808E-02
    0.9000000000E+01    0.2678665007E-01    0.2622229909E-01    0.2238177339E-01    0.1067264922E-02    0.2351836889E-02
    0.1100000000E+02    0.3225369015E-01    0.3138836354E-01    0.2695977266E-01    0.1277457518E-02    0.2831868949E-02
    0.1300000000E+02    0.3756431367E-01    0.3634264851E-01    0.3140817271E-01    0.1479005810E-02    0.3298177933E-02
    0.1500000000E+02    0.4272657789E-01    0.4109662604E-01    0.3573281692E-01    0.1672377038E-02    0.3751470625E-02
    0.1700000000E+02    0.4774797665E-01    0.4566097519E-01    0.3993919666E-01    0.1858006186E-02    0.4192404386E-02
    0.1900000000E+02    0.5263548888E-01    0.5004564878E-01    0.4403247762E-01    0.2036298698E-02    0.4621591418E-02
    0.2100000000E+02    0.5739562218E-01    0.5425993352E-01    0.4801752369E-01    0.2207632917E-02    0.5039602581E-02
    0.2300000000E+02    0.6203445212E-01    0.5831250424E-01    0.5189891886E-01    0.2372362292E-02    0.5446970838E-02
    0.2500000000E+02    0.6655765759E-01    0.6221147303E-01    0.5568098716E-01    0.2530817376E-02    0.5844194359E-02
    0.2700000000E+02    0.7097055284E-01    0.6596443362E-01    0.5936781094E-01    0.2683307633E-02    0.6231739329E-02
    0.2900000000E+02    0.7527811635E-01    0.6957850178E-01    0.6296324767E-01    0.2830123074E-02    0.6610042482E-02
    0.3100000000E+02    0.7948501714E-01    0.7306035189E-01    0.6647094528E-01    0.2971535747E-02    0.6979513408E-02
    0.3300000000E+02    0.8359563854E-01    0.7641625030E-01    0.6989435632E-01    0.3107801098E-02    0.7340536635E-02
    0.3500000000E+02    0.8761409984E-01    0.7965208570E-01    0.7323675092E-01    0.3239159198E-02    0.7693473533E-02
    0.3700000000E+02    0.9154427605E-01    0.8277339684E-01    0.7650122880E-01    0.3365835877E-02    0.8038664041E-02
    0.3900000000E+02    0.9538981582E-01    0.8578539785E-01    0.7969073029E-01    0.3488043748E-02    0.8376428246E-02
    0.4100000000E+02    0.9915415788E-01    0.8869300140E-01    0.8280804653E-01    0.3605983154E-02    0.8707067819E-02
    0.4300000000E+02    0.1028405461E+00    0.9150083991E-01    0.8585582887E-01    0.3719843029E-02    0.9030867333E-02
    0.4500000000E+02    0.1064520430E+00    0.9421328505E-01    0.8883659758E-01    0.3829801688E-02    0.9348095470E-02
    0.4700000000E+02    0.1099915427E+00    0.9683446557E-01    0.9175274992E-01    0.3936027556E-02    0.9659006121E-02
    0.4900000000E+02    0.1134617822E+00    0.9936828376E-01    0.9460656762E-01    0.4038679838E-02    0.9963839403E-02
    0.1000000000E+02    0.2954024920E-01    0.2883255370E-01    0.2468735266E-01    0.1173472300E-02    0.2593614534E-02
    0.3000000000E+02    0.7739386920E-01    0.7133555325E-01    0.6472784366E-01    0.2901488417E-02    0.6795857376E-02
    0.5000000000E+02    0.1151717444E+00    0.1006035933E+00    0.9601078414E-01    0.4088713266E-02    0.1011404853E-01
    0.7000000000E+02    0.1462960846E+00    0.1215213296E+00    0.1212994172E+00    0.4934338588E-02    0.1284840881E-01
    0.9000000000E+02    0.1727371514E+00    0.1368812580E+00    0.1422893239E+00    0.5552360129E-02    0.1517179326E-01
    0.1100000000E+03    0.1957147875E+00    0.1483874864E+00    0.1600811260E+00    0.6012419911E-02    0.1719122605E-01
    0.1300000000E+03    0.2160286695E+00    0.1571341021E+00    0.1754219359E+00    0.6359281323E-02    0.1897687038E-01
    0.1500000000E+03    0.2342279004E+00    0.1638526512E+00    0.1888377380E+00    0.6622910137E-02    0.2057690585E-01
    0.1700000000E+03    0.2507043068E+00    0.1690487730E+00    0.2007102349E+00    0.6824043528E-02    0.2202571324E-01
    0.1900000000E+03    0.2657467196E+00    0.1730817356E+00    0.2113236098E+00    0.6977433721E-02    0.2334863670E-01
    0.2100000000E+03    0.2795740573E+00    0.1762128107E+00    0.2208941294E+00    0.7093822123E-02    0.2456488622E-01
    0.2300000000E+03    0.2923562962E+00    0.1786358082E+00    0.2295895278E+00    0.7181186200E-02    0.2568937747E-01
    0.2500000000E+03    0.3042282179E+00    0.1804969708E+00    0.2375420741E+00    0.7245552435E-02    0.2673393807E-01
    0.2700000000E+03    0.3152986884E+00    0.1819082961E+00    0.2448576071E+00    0.7291541145E-02    0.2770812167E-01
    0.2900000000E+03    0.3256570849E+00    0.1829566741E+00    0.2516219243E+00    0.7322740466E-02    0.2861977188E-01
    0.3100000000E+03    0.3353778480E+00    0.1837102891E+00    0.2579053886E+00    0.7341968574E-02    0.2947542171E-01
    0.3300000000E+03    0.3445237745E+00    0.1842231886E+00    0.2637663116E+00    0.7351461028E-02    0.3028058241E-01
    0.3500000000E+03    0.3531484411E+00    0.1845385994E+00    0.2692534753E+00    0.7353006873E-02    0.3103995626E-01
    0.3700000000E+03    0.3612980209E+00    0.1846913714E+00    0.2744080417E+00    0.7348049028E-02    0.3175759588E-01
    0.3900000000E+03    0.3690126642E+00    0.1847098020E+00    0.2792650151E+00    0.7337759328E-02    0.3243702538E-01
    0.4100000000E+03    0.3763275635E+00    0.1846170156E+00    0.2838543782E+00    0.7323095333E-02    0.3308133384E-01
    0.4300000000E+03    0.3832737861E+00    0.1844320182E+00    0.2882019815E+00    0.7304843797E-02    0.3369324838E-01
    0.4500000000E+03    0.3898789325E+00    0.1841705117E+00    0.2923302489E+00    0.7283654285E-02    0.3427519189E-01
    0.4700000000E+03    0.3961676631E+00    0.1838455288E+00    0.2962587415E+00    0.7260065405E-02    0.3482932925E-01
    0.4900000000E+03    0.4021621242E+00    0.1834679315E+00    0.3000046122E+00    0.7234525456E-02    0.3535760475E-01
    0.1000000000E+03    0.1846015635E+00    0.1430370387E+00    0.1515319188E+00    0.5798902349E-02    0.1621447314E-01
    0.3000000000E+03    0.3305930048E+00    0.1833666616E+00    0.2548198692E+00    0.7333699344E-02    0.2905423124E-01
    0.5000000000E+03    0.4050553237E+00    0.1832623024E+00    0.3018138585E+00    0.7221143334E-02    0.3561259917E-01
    0.7000000000E+03    0.4514409114E+00    0.1779466714E+00    0.3312833668E+00    0.6914965928E-02    0.3970339274E-01
    0.9000000000E+03    0.4828864676E+00    0.1721617418E+00    0.3524714718E+00    0.6608194591E-02    0.4248019307E-01
    0.1100000000E+04    0.5053983922E+00    0.1667976516E+00    0.3688942169E+00    0.6333591244E-02    0.4447072404E-01
    0.1300000000E+04    0.5221821526E+00    0.1619839507E+00    0.3822389034E+00    0.6093005405E-02    0.4595676349E-01
    0.1500000000E+04    0.5351023598E+00    0.1576801494E+00    0.3934386046E+00    0.5882061203E-02    0.4710230151E-01
    0.1700000000E+04    0.5453107320E+00    0.1538145377E+00    0.4030612973E+00    0.5695786248E-02    0.4800867863E-01
    0.1900000000E+04    0.5535525384E+00    0.1503187360E+00    0.4114775462E+00    0.5529871779E-02    0.4874150243E-01
    0.2100000000E+04    0.5603287242E+00    0.1471350286E+00    0.4189421326E+00    0.5380832454E-02    0.4934489267E-01
    0.2300000000E+04    0.5659869397E+00    0.1442163928E+00    0.4256375626E+00    0.5245900607E-02    0.4984948220E-01
    0.2500000000E+04    0.5707751338E+00    0.1415248131E+00    0.4316989454E+00    0.5122880074E-02    0.5027712892E-01
    0.2700000000E+04    0.5748743830E+00    0.1390294642E+00    0.4372290403E+00    0.5010017108E-02    0.5064380308E-01
    0.2900000000E+04    0.5784196930E+00    0.1367051678E+00    0.4423077839E+00    0.4905898411E-02    0.5096141726E-01
    0.3100000000E+04    0.5815135754E+00    0.1345311733E+00    0.4469985577E+00    0.4809373536E-02    0.5123902108E-01
    0.3300000000E+04    0.5842351401E+00    0.1324902185E+00    0.4513524464E+00    0.4719496498E-02    0.5148360165E-01
    0.3500000000E+04    0.5866463286E+00    0.1305678117E+00    0.4554112124E+00    0.4635481833E-02    0.5170063234E-01
    0.3700000000E+04    0.5887962751E+00    0.1287516804E+00    0.4592094241E+00    0.4556671344E-02    0.5189445694E-01
    0.3900000000E+04    0.5907244154E+00    0.1270313466E+00    0.4627760104E+00    0.4482508730E-02    0.5206856351E-01
    0.4100000000E+04    0.5924627400E+00    0.1253977968E+00    0.4661354179E+00    0.4412520060E-02    0.5222578300E-01
    0.4300000000E+04    0.5940374535E+00    0.1238432234E+00    0.4693084866E+00    0.4346298596E-02    0.5236843546E-01
    0.4500000000E+04    0.5954702119E+00    0.1223608192E+00    0.4723131217E+00    0.4283492883E-02    0.5249843921E-01
    0.4700000000E+04    0.5967790590E+00    0.1209446144E+00    0.4751648167E+00    0.4223797321E-02    0.5261739336E-01
    0.4900000000E+04    0.5979791417E+00    0.1195893447E+00    0.4778770651E+00    0.4166944634E-02    0.5272664100E-01
    0.1000000000E+04    0.4950164173E+00    0.1694119212E+00    0.3611481515E+00    0.6466482795E-02    0.4355240928E-01
    0.3000000000E+04    0.5800176539E+00    0.1356005341E+00    0.4446982259E+00    0.4856750087E-02    0.5110474283E-01
    0.5000000000E+04    0.5985424766E+00    0.1189330817E+00    0.4791846486E+00    0.4139509806E-02    0.5277798683E-01
    0.7000000000E+04    0.6063658290E+00    0.1081096782E+00    0.5002444074E+00    0.3695496995E-02    0.5349659735E-01
    0.9000000000E+04    0.6106412057E+00    0.1002172420E+00    0.5150608047E+00    0.3380984820E-02    0.5389600059E-01
    0.1100000000E+05    0.6133250694E+00    0.9407841093E-01    0.5263102029E+00    0.3141249023E-02    0.5415098867E-01
    0.1300000000E+05    0.6151625972E+00    0.8910015200E-01    0.5352733340E+00    0.2949785782E-02    0.5432851891E-01
    0.1500000000E+05    0.6164977598E+00    0.8494260637E-01    0.5426578153E+00    0.2791825764E-02    0.5445967627E-01
    0.1700000000E+05    0.6175108315E+00    0.8139350037E-01    0.5488935227E+00    0.2658338098E-02    0.5456084607E-01
    0.1900000000E+05    0.6183052525E+00    0.7831176845E-01    0.5542599290E+00    0.2543421630E-02    0.5464148426E-01
    0.2100000000E+05    0.6189445562E+00    0.7559915287E-01    0.5589482509E+00    0.2443022353E-02    0.5470743217E-01
    0.2300000000E+05    0.6194698912E+00    0.7318463370E-01    0.5630946554E+00    0.2354243917E-02    0.5476249483E-01
    0.2500000000E+05    0.6199090677E+00    0.7101531886E-01    0.5667992795E+00    0.2274950674E-02    0.5480925861E-01
    0.2700000000E+05    0.6202815486E+00    0.6905083017E-01    0.5701377403E+00    0.2203526390E-02    0.5484954402E-01
    0.2900000000E+05    0.6206013589E+00    0.6725969420E-01    0.5731684216E+00    0.2138720932E-02    0.5488467038E-01
    0.3100000000E+05    0.6208788578E+00    0.6561693865E-01    0.5759372608E+00    0.2079549204E-02    0.5491561775E-01
    0.3300000000E+05    0.6211218617E+00    0.6410244285E-01    0.5784809957E+00    0.2025222420E-02    0.5494312984E-01
    0.3500000000E+05    0.6213363780E+00    0.6269977636E-01    0.5808294263E+00    0.1975100103E-02    0.5496778145E-01
    0.3700000000E+05    0.6215270990E+00    0.6139536271E-01    0.5830070279E+00    0.1928655769E-02    0.5499002414E-01
    0.3900000000E+05    0.6216977429E+00    0.6017786542E-01    0.5850341256E+00    0.1885451899E-02    0.5501021771E-01
    0.4100000000E+05    0.6218512935E+00    0.5903772920E-01    0.5869277657E+00    0.1845121358E-02    0.5502865253E-01
    0.4300000000E+05    0.6219901729E+00    0.5796683189E-01    0.5887023709E+00    0.1807353359E-02    0.5504556563E-01
    0.4500000000E+05    0.6221163676E+00    0.5695821659E-01    0.5903702425E+00    0.1771882737E-02    0.5506115247E-01
    0.4700000000E+05    0.6222315218E+00    0.5600588303E-01    0.5919419486E+00    0.1738481620E-02    0.5507557577E-01
    0.4900000000E+05    0.6223370082E+00    0.5510462315E-01    0.5934266287E+00    0.1706952896E-02    0.5508897211E-01
    0.1000000000E+05    0.6121213565E+00    0.9697391471E-01    0.5210324090E+00    0.3253812390E-02    0.5403609865E-01
    0.3000000000E+05    0.6207448592E+00    0.6642112461E-01    0.5745830900E+00    0.2108484109E-02    0.5490061534E-01
    0.5000000000E+05    0.6223864942E+00    0.5467170216E-01    0.5941388597E+00    0.1691836200E-02    0.5509532198E-01
    0.7000000000E+05    0.6230718860E+00    0.4784319749E-01    0.6052953184E+00    0.1455859951E-02    0.5518894087E-01
    0.9000000000E+05    0.6234446527E+00    0.4320416766E-01    0.6127953451E+00    0.1298274423E-02    0.5524669937E-01
    0.1100000000E+06    0.6236773014E+00    0.3977354704E-01    0.6183028958E+00    0.1183231826E-02    0.5528713816E-01
    0.1300000000E+06    0.6238353901E+00    0.3709638480E-01    0.6225788557E+00    0.1094379838E-02    0.5531769382E-01
    0.1500000000E+06    0.6239492189E+00    0.3492785064E-01    0.6260287446E+00    0.1023027746E-02    0.5534198266E-01
    0.1700000000E+06    0.6240346948E+00    0.3312249155E-01    0.6288917419E+00    0.9640642692E-03    0.5536199739E-01
    0.1900000000E+06    0.6241009573E+00    0.3158753905E-01    0.6313195280E+00    0.9142569948E-03    0.5537893734E-01
    0.2100000000E+06    0.6241536237E+00    0.3026056960E-01    0.6334136962E+00    0.8714466869E-03    0.5539357333E-01
    0.2300000000E+06    0.6241963328E+00    0.2909777817E-01    0.6352452633E+00    0.8341278335E-03    0.5540642667E-01
    0.2500000000E+06    0.6242315428E+00    0.2806736812E-01    0.6368656087E+00    0.8012138824E-03    0.5541786451E-01
    0.2700000000E+06    0.6242609725E+00    0.2714560775E-01    0.6383129704E+00    0.7718980655E-03    0.5542815418E-01
    0.2900000000E+06    0.6242858588E+00    0.2631436657E-01    0.6396164886E+00    0.7455669325E-03    0.5543749571E-01
    0.3100000000E+06    0.6243071137E+00    0.2555951559E-01    0.6407988217E+00    0.7217444935E-03    0.5544604237E-01
    0.3300000000E+06    0.6243254241E+00    0.2486985427E-01    0.6418778964E+00    0.7000549257E-03    0.5545391389E-01
    0.3500000000E+06    0.6243413164E+00    0.2423637044E-01    0.6428681110E+00    0.6801969605E-03    0.5546120548E-01
    0.3700000000E+06    0.6243552010E+00    0.2365171726E-01    0.6437811840E+00    0.6619258548E-03    0.5546799395E-01
    0.3900000000E+06    0.6243674020E+00    0.2310983576E-01    0.6446267657E+00    0.6450404264E-03    0.5547434215E-01
    0.4100000000E+06    0.6243781789E+00    0.2260567716E-01    0.6454128864E+00    0.6293735521E-03    0.5548030205E-01
    0.4300000000E+06    0.6243877414E+00    0.2213499526E-01    0.6461462913E+00    0.6147850847E-03    0.5548591712E-01
    0.4500000000E+06    0.6243962611E+00    0.2169418888E-01    0.6468326944E+00    0.6011564931E-03    0.5549122406E-01
    0.4700000000E+06    0.6244038795E+00    0.2128018055E-01    0.6474769734E+00    0.5883867506E-03    0.5549625410E-01
    0.4900000000E+06    0.6244107143E+00    0.2089032214E-01    0.6480833214E+00    0.5763891409E-03    0.5550103403E-01
    0.1000000000E+06    0.6235731510E+00    0.4137324415E-01    0.6157387293E+00    0.1236713900E-02    0.5526848606E-01
    0.3000000000E+06    0.6242968929E+00    0.2592815102E-01    0.6402215882E+00    0.7333676178E-03    0.5544186025E-01
    0.5000000000E+06    0.6244138693E+00    0.2070372036E-01    0.6483734242E+00    0.5706560716E-03    0.5550333756E-01
    0.7000000000E+06    0.6244530590E+00    0.1781593019E-01    0.6528531878E+00    0.4827496904E-03    0.5554054483E-01
    0.9000000000E+06    0.6244688647E+00    0.1591098992E-01    0.6557983372E+00    0.4256623977E-03    0.5556717070E-01
    0.1100000000E+07    0.6244751534E+00    0.1453027207E-01    0.6579281268E+00    0.3847768455E-03    0.5558788547E-01
    0.1300000000E+07    0.6244769067E+00    0.1346870224E-01    0.6595628511E+00    0.3536450015E-03    0.5560483119E-01
    0.1500000000E+07    0.6244762891E+00    0.1261873785E-01    0.6608699902E+00    0.3289211181E-03    0.5561916588E-01
    0.1700000000E+07    0.6244743631E+00    0.1191773550E-01    0.6619468874E+00    0.3086732521E-03    0.5563158566E-01
    0.1900000000E+07    0.6244716957E+00    0.1132636533E-01    0.6628545518E+00    0.2916974527E-03    0.5564254133E-01
    0.2100000000E+07    0.6244686084E+00    0.1081850297E-01    0.6636334501E+00    0.2771991861E-03    0.5565234143E-01
    0.2300000000E+07    0.6244652917E+00    0.1037601505E-01    0.6643116369E+00    0.2646301201E-03    0.5566120634E-01
    0.2500000000E+07    0.6244618620E+00    0.9985861981E-02    0.6649092650E+00    0.2535979899E-03    0.5566929895E-01
    0.2700000000E+07    0.6244583924E+00    0.9638390772E-02    0.6654412399E+00    0.2438137714E-03    0.5567674301E-01
    0.2900000000E+07    0.6244549288E+00    0.9326279717E-02    0.6659188582E+00    0.2350591855E-03    0.5568363476E-01
    0.3100000000E+07    0.6244515006E+00    0.9043859574E-02    0.6663508607E+00    0.2271658887E-03    0.5569005050E-01
    0.3300000000E+07    0.6244481263E+00    0.8786662004E-02    0.6667441323E+00    0.2200016866E-03    0.5569605175E-01
    0.3500000000E+07    0.6244448175E+00    0.8551110425E-02    0.6671041805E+00    0.2134611313E-03    0.5570168884E-01
    0.3700000000E+07    0.6244415807E+00    0.8334303007E-02    0.6674354716E+00    0.2074589448E-03    0.5570700345E-01
    0.3900000000E+07    0.6244384195E+00    0.8133857004E-02    0.6677416710E+00    0.2019253165E-03    0.5571203048E-01
    0.4100000000E+07    0.6244353354E+00    0.7947794894E-02    0.6680258195E+00    0.1968024744E-03    0.5571679949E-01
    0.4300000000E+07    0.6244323284E+00    0.7774459683E-02    0.6682904640E+00    0.1920421423E-03    0.5572133568E-01
    0.4500000000E+07    0.6244293975E+00    0.7612450906E-02    0.6685377561E+00    0.1876036232E-03    0.5572566073E-01
    0.4700000000E+07    0.6244265412E+00    0.7460575615E-02    0.6687695281E+00    0.1834523359E-03    0.5572979345E-01
    0.4900000000E+07    0.6244237574E+00    0.7317810358E-02    0.6689873513E+00    0.1795586821E-03    0.5573375021E-01
    0.1000000000E+07    0.6244727866E+00    0.1517120702E-01    0.6569399776E+00    0.4037023599E-03    0.5557810014E-01
    0.3000000000E+07    0.6244532089E+00    0.9181661530E-02    0.6661400941E+00    0.2310138584E-03    0.5568689798E-01
    0.5000000000E+07    0.6244223920E+00    0.7249563035E-02    0.6690914634E+00    0.1777003587E-03    0.5573566717E-01
    0.7000000000E+07    0.6243983168E+00    0.6200392142E-02    0.6706906826E+00    0.1493888397E-03    0.5576748959E-01
    0.9000000000E+07    0.6243789864E+00    0.5515388720E-02    0.6717334706E+00    0.1311857561E-03    0.5579115580E-01
    0.1100000000E+08    0.6243629154E+00    0.5022343042E-02    0.6724833664E+00    0.1182368282E-03    0.5581000716E-01
    0.1300000000E+08    0.6243491861E+00    0.4645208000E-02    0.6730565794E+00    0.1084261634E-03    0.5582567667E-01
    0.1500000000E+08    0.6243372115E+00    0.4344454303E-02    0.6735134522E+00    0.1006651044E-03    0.5583908570E-01
    0.1700000000E+08    0.6243265978E+00    0.4097210129E-02    0.6738888717E+00    0.9432905015E-04    0.5585080551E-01
    0.1900000000E+08    0.6243170690E+00    0.3889192164E-02    0.6742046102E+00    0.8903074748E-04    0.5586121486E-01
    0.2100000000E+08    0.6243084251E+00    0.3710954459E-02    0.6744750587E+00    0.8451570628E-04    0.5587057782E-01
    0.2300000000E+08    0.6243005162E+00    0.3555964619E-02    0.6747101647E+00    0.8060891690E-04    0.5587908591E-01
    0.2500000000E+08    0.6242932274E+00    0.3419540124E-02    0.6749170562E+00    0.7718556169E-04    0.5588688241E-01
    0.2700000000E+08    0.6242864688E+00    0.3298224149E-02    0.6751009930E+00    0.7415391750E-04    0.5589407736E-01
