  Pressure (Pa) 22mC5-400 (mol/kg) 2mC6-400 (mol/kg) 3mC6-400 (mol/kg) 33mC5-400 (mol/kg) 23mC5-400 (mol/kg)
    0.1000000000E+01    0.3167819514E-02    0.3971314190E-02    0.2113931092E-02    0.1293326478E-03    0.2781178518E-03
    0.3000000000E+01    0.9335953087E-02    0.1163942496E-01    0.6241332317E-02    0.3790335774E-03    0.8196579115E-03
    0.5000000000E+01    0.1529247411E-01    0.1896071813E-01    0.1024044475E-01    0.6174080948E-03    0.1342632558E-02
    0.7000000000E+01    0.2105041386E-01    0.2595660026E-01    0.1411765735E-01    0.8451540735E-03    0.1848184897E-02
    0.9000000000E+01    0.2662172364E-01    0.3264677109E-01    0.1787893416E-01    0.1062913808E-02    0.2337363307E-02
    0.1100000000E+02    0.3201738460E-01    0.3904939031E-01    0.2152984938E-01    0.1271279438E-02    0.2811131073E-02
    0.1300000000E+02    0.3724750457E-01    0.4518122502E-01    0.2507561879E-01    0.1470797748E-02    0.3270374876E-02
    0.1500000000E+02    0.4232140337E-01    0.5105778057E-01    0.2852112839E-01    0.1661974427E-02    0.3715912280E-02
    0.1700000000E+02    0.4724768850E-01    0.5669341690E-01    0.3187096020E-01    0.1845277850E-02    0.4148498368E-02
    0.1900000000E+02    0.5203432212E-01    0.6210145221E-01    0.3512941568E-01    0.2021142459E-02    0.4568831615E-02
    0.2100000000E+02    0.5668868076E-01    0.6729425558E-01    0.3830053705E-01    0.2189971772E-02    0.4977559127E-02
    0.2300000000E+02    0.6121760841E-01    0.7228332982E-01    0.4138812669E-01    0.2352141082E-02    0.5375281300E-02
    0.2500000000E+02    0.6562746400E-01    0.7707938584E-01    0.4439576474E-01    0.2507999881E-02    0.5762555980E-02
    0.2700000000E+02    0.6992416390E-01    0.8169240947E-01    0.4732682531E-01    0.2657874028E-02    0.6139902191E-02
    0.2900000000E+02    0.7411321999E-01    0.8613172157E-01    0.5018449112E-01    0.2802067717E-02    0.6507803477E-02
    0.3100000000E+02    0.7819977389E-01    0.9040603232E-01    0.5297176703E-01    0.2940865233E-02    0.6866710904E-02
    0.3300000000E+02    0.8218862775E-01    0.9452349025E-01    0.5569149239E-01    0.3074532558E-02    0.7217045758E-02
    0.3500000000E+02    0.8608427205E-01    0.9849172660E-01    0.5834635236E-01    0.3203318811E-02    0.7559201988E-02
    0.3700000000E+02    0.8989091071E-01    0.1023178956E+00    0.6093888835E-01    0.3327457560E-02    0.7893548402E-02
    0.3900000000E+02    0.9361248374E-01    0.1060087109E+00    0.6347150753E-01    0.3447168011E-02    0.8220430659E-02
    0.4100000000E+02    0.9725268787E-01    0.1095704790E+00    0.6594649175E-01    0.3562656091E-02    0.8540173078E-02
    0.4300000000E+02    0.1008149952E+00    0.1130091293E+00    0.6836600556E-01    0.3674115437E-02    0.8853080271E-02
    0.4500000000E+02    0.1043026702E+00    0.1163302418E+00    0.7073210380E-01    0.3781728290E-02    0.9159438636E-02
    0.4700000000E+02    0.1077187852E+00    0.1195390725E+00    0.7304673847E-01    0.3885666320E-02    0.9459517716E-02
    0.4900000000E+02    0.1110662344E+00    0.1226405760E+00    0.7531176518E-01    0.3986091377E-02    0.9753571427E-02
    0.1000000000E+02    0.2934085907E-01    0.3588294568E-01    0.1971785293E-01    0.1168235701E-02    0.2576116400E-02
    0.3000000000E+02    0.7616900196E-01    0.8828898020E-01    0.5158674661E-01    0.2872123961E-02    0.6688354424E-02
    0.5000000000E+02    0.1127150682E+00    0.1241525514E+00    0.7642623053E-01    0.4035034605E-02    0.9898414128E-02
    0.7000000000E+02    0.1426734986E+00    0.1497631911E+00    0.9649749022E-01    0.4862332792E-02    0.1253041097E-01
    0.9000000000E+02    0.1680887156E+00    0.1686242319E+00    0.1131708208E+00    0.5468515514E-02    0.1476371359E-01
    0.1100000000E+03    0.1901906124E+00    0.1828361473E+00    0.1273274657E+00    0.5922294434E-02    0.1670623244E-01
    0.1300000000E+03    0.2097682160E+00    0.1937310129E+00    0.1395614006E+00    0.6267285570E-02    0.1842719913E-01
    0.1500000000E+03    0.2273543547E+00    0.2021918259E+00    0.1502885133E+00    0.6532428136E-02    0.1997336712E-01
    0.1700000000E+03    0.2433242882E+00    0.2088252281E+00    0.1598093204E+00    0.6737623185E-02    0.2137766473E-01
    0.1900000000E+03    0.2579517637E+00    0.2140604850E+00    0.1683468082E+00    0.6896966515E-02    0.2266411332E-01
    0.2100000000E+03    0.2714425423E+00    0.2182089578E+00    0.1760702219E+00    0.7020692176E-02    0.2385076882E-01
    0.2300000000E+03    0.2839553236E+00    0.2215012826E+00    0.1831105523E+00    0.7116388074E-02    0.2495155770E-01
    0.2500000000E+03    0.2956152870E+00    0.2241114075E+00    0.1895709257E+00    0.7189782344E-02    0.2597746511E-01
    0.2700000000E+03    0.3065231316E+00    0.2261725920E+00    0.1955337576E+00    0.7245267021E-02    0.2693732811E-01
    0.2900000000E+03    0.3167612784E+00    0.2277883254E+00    0.2010657939E+00    0.7286255681E-02    0.2783837988E-01
    0.3100000000E+03    0.3263982276E+00    0.2290399470E+00    0.2062217356E+00    0.7315433161E-02    0.2868663206E-01
    0.3300000000E+03    0.3354916868E+00    0.2299920678E+00    0.2110468929E+00    0.7334933382E-02    0.2948714927E-01
    0.3500000000E+03    0.3440908594E+00    0.2306964963E+00    0.2155791602E+00    0.7346468202E-02    0.3024424984E-01
    0.3700000000E+03    0.3522381481E+00    0.2311951260E+00    0.2198505080E+00    0.7351422259E-02    0.3096165540E-01
    0.3900000000E+03    0.3599704435E+00    0.2315220886E+00    0.2238881242E+00    0.7350923773E-02    0.3164260388E-01
    0.4100000000E+03    0.3673201128E+00    0.2317053811E+00    0.2277152986E+00    0.7345898076E-02    0.3228993627E-01
    0.4300000000E+03    0.3743157689E+00    0.2317681091E+00    0.2313521160E+00    0.7337108562E-02    0.3290616415E-01
    0.4500000000E+03    0.3809828758E+00    0.2317294465E+00    0.2348160036E+00    0.7325188336E-02    0.3349352279E-01
    0.4700000000E+03    0.3873442316E+00    0.2316053839E+00    0.2381221695E+00    0.7310664923E-02    0.3405401347E-01
    0.4900000000E+03    0.3934203561E+00    0.2314093181E+00    0.2412839556E+00    0.7293979716E-02    0.3458943763E-01
    0.1000000000E+03    0.1794969235E+00    0.1762147854E+00    0.1205214542E+00    0.5711295221E-02    0.1576632797E-01
    0.3000000000E+03    0.3216510731E+00    0.2284552719E+00    0.2036877505E+00    0.7302176243E-02    0.2826876983E-01
    0.5000000000E+03    0.3963573253E+00    0.2312878780E+00    0.2428144367E+00    0.7284944694E-02    0.3484826498E-01
    0.7000000000E+03    0.4438314208E+00    0.2270347676E+00    0.2680819582E+00    0.7054788214E-02    0.3903450270E-01
    0.9000000000E+03    0.4764164546E+00    0.2216815778E+00    0.2867007975E+00    0.6806517884E-02    0.4191131777E-01
    0.1100000000E+04    0.4999236118E+00    0.2164841553E+00    0.3014362190E+00    0.6577881483E-02    0.4398924689E-01
    0.1300000000E+04    0.5175314483E+00    0.2117073085E+00    0.3136276739E+00    0.6374344303E-02    0.4554767899E-01
    0.1500000000E+04    0.5311233907E+00    0.2073687409E+00    0.3240229278E+00    0.6193921614E-02    0.4675224266E-01
    0.1700000000E+04    0.5418786244E+00    0.2034249705E+00    0.3330814039E+00    0.6033239333E-02    0.4770668326E-01
    0.1900000000E+04    0.5505677724E+00    0.1998227843E+00    0.3411055458E+00    0.5889090667E-02    0.4847883117E-01
    0.2100000000E+04    0.5577125883E+00    0.1965133648E+00    0.3483050988E+00    0.5758775495E-02    0.4911463165E-01
    0.2300000000E+04    0.5636770956E+00    0.1934553135E+00    0.3548315553E+00    0.5640102746E-02    0.4964615457E-01
    0.2500000000E+04    0.5687219386E+00    0.1906143926E+00    0.3607979564E+00    0.5531310859E-02    0.5009637245E-01
    0.2700000000E+04    0.5730380114E+00    0.1879624402E+00    0.3662909311E+00    0.5430981086E-02    0.5048211766E-01
    0.2900000000E+04    0.5767679352E+00    0.1854762279E+00    0.3713783602E+00    0.5337963334E-02    0.5081597167E-01
    0.3100000000E+04    0.5800201637E+00    0.1831364744E+00    0.3761144424E+00    0.5251317372E-02    0.5110750615E-01
    0.3300000000E+04    0.5828784782E+00    0.1809270493E+00    0.3805431547E+00    0.5170267512E-02    0.5136411861E-01
    0.3500000000E+04    0.5854085210E+00    0.1788343470E+00    0.3847006812E+00    0.5094167956E-02    0.5159160765E-01
    0.3700000000E+04    0.5876623820E+00    0.1768467974E+00    0.3886171588E+00    0.5022476301E-02    0.5179457681E-01
    0.3900000000E+04    0.5896818764E+00    0.1749544848E+00    0.3923179591E+00    0.4954733173E-02    0.5197672330E-01
    0.4100000000E+04    0.5915009250E+00    0.1731488490E+00    0.3958246463E+00    0.4890546466E-02    0.5214104774E-01
    0.4300000000E+04    0.5931473098E+00    0.1714224487E+00    0.3991557055E+00    0.4829579051E-02    0.5229000885E-01
    0.4500000000E+04    0.5946439849E+00    0.1697687744E+00    0.4023271044E+00    0.4771539100E-02    0.5242563908E-01
    0.4700000000E+04    0.5960100694E+00    0.1681820984E+00    0.4053527319E+00    0.4716172405E-02    0.5254963212E-01
    0.4900000000E+04    0.5972616071E+00    0.1666573529E+00    0.4082447449E+00    0.4663256244E-02    0.5266340989E-01
    0.1000000000E+04    0.4890655746E+00    0.2190370267E+00    0.2944507276E+00    0.6689096003E-02    0.4302912150E-01
    0.3000000000E+04    0.5784480348E+00    0.1842891177E+00    0.3737873640E+00    0.5293895765E-02    0.5096652330E-01
    0.5000000000E+04    0.5978487409E+00    0.1659167764E+00    0.4096440408E+00    0.4637654881E-02    0.5271685109E-01
    0.7000000000E+04    0.6059753787E+00    0.1534844278E+00    0.4326512670E+00    0.4216940469E-02    0.5346217143E-01
    0.9000000000E+04    0.6103903315E+00    0.1441474856E+00    0.4494001822E+00    0.3911013971E-02    0.5387387301E-01
    0.1100000000E+05    0.6131499120E+00    0.1367185910E+00    0.4624505362E+00    0.3672954672E-02    0.5413553529E-01
    0.1300000000E+05    0.6150331469E+00    0.1305831484E+00    0.4730663293E+00    0.3479592821E-02    0.5431709584E-01
    0.1500000000E+05    0.6163980505E+00    0.1253807524E+00    0.4819638843E+00    0.3317787836E-02    0.5445087646E-01
    0.1700000000E+05    0.6174315802E+00    0.1208818401E+00    0.4895877274E+00    0.3179377419E-02    0.5455385121E-01
    0.1900000000E+05    0.6182406895E+00    0.1169312470E+00    0.4962321928E+00    0.3058952510E-02    0.5463578565E-01
    0.2100000000E+05    0.6188909038E+00    0.1134192753E+00    0.5021019165E+00    0.2952750001E-02    0.5470269667E-01
    0.2300000000E+05    0.6194245710E+00    0.1102655826E+00    0.5073447071E+00    0.2858050577E-02    0.5475849500E-01
    0.2500000000E+05    0.6198702581E+00    0.1074096214E+00    0.5120706572E+00    0.2772828277E-02    0.5480583378E-01
    0.2700000000E+05    0.6202479259E+00    0.1048046724E+00    0.5163638666E+00    0.2695535307E-02    0.5484657738E-01
    0.2900000000E+05    0.6205719374E+00    0.1024139624E+00    0.5202899553E+00    0.2624964030E-02    0.5488207494E-01
    0.3100000000E+05    0.6208528882E+00    0.1002080523E+00    0.5239010557E+00    0.2560155172E-02    0.5491332738E-01
    0.3300000000E+05    0.6210987638E+00    0.9816302623E-01    0.5272392330E+00    0.2500334889E-02    0.5494109333E-01
    0.3500000000E+05    0.6213156955E+00    0.9625920481E-01    0.5303388918E+00    0.2444870470E-02    0.5496595852E-01
    0.3700000000E+05    0.6215084682E+00    0.9448021121E-01    0.5332285077E+00    0.2393238441E-02    0.5498838267E-01
    0.3900000000E+05    0.6216808699E+00    0.9281227955E-01    0.5359318987E+00    0.2345001136E-02    0.5500873176E-01
    0.4100000000E+05    0.6218359385E+00    0.9124373450E-01    0.5384691756E+00    0.2299789194E-02    0.5502730091E-01
    0.4300000000E+05    0.6219761382E+00    0.8976459360E-01    0.5408574625E+00    0.2257288263E-02    0.5504433087E-01
    0.4500000000E+05    0.6221034884E+00    0.8836625931E-01    0.5431114526E+00    0.2217228766E-02    0.5506002002E-01
    0.4700000000E+05    0.6222196599E+00    0.8704127759E-01    0.5452438405E+00    0.2179377920E-02    0.5507453343E-01
    0.4900000000E+05    0.6223260469E+00    0.8578314649E-01    0.5472656639E+00    0.2143533446E-02    0.5508800955E-01
    0.1000000000E+05    0.6119134867E+00    0.1402411328E+00    0.4562907649E+00    0.3785277111E-02    0.5401776148E-01
    0.3000000000E+05    0.6207172455E+00    0.1012895145E+00    0.5221320462E+00    0.2591891418E-02    0.5489817966E-01
    0.5000000000E+05    0.6223759449E+00    0.8517734007E-01    0.5482381781E+00    0.2126307472E-02    0.5509439594E-01
    0.7000000000E+05    0.6230663349E+00    0.7549417379E-01    0.5636971264E+00    0.1853950274E-02    0.5518845847E-01
    0.9000000000E+05    0.6234412394E+00    0.6877518557E-01    0.5743355768E+00    0.1668312366E-02    0.5524640755E-01
    0.1100000000E+06    0.6236750018E+00    0.6373081464E-01    0.5822789776E+00    0.1530795376E-02    0.5528694621E-01
    0.1300000000E+06    0.6238337462E+00    0.5974859616E-01    0.5885249711E+00    0.1423390487E-02    0.5531756110E-01
    0.1500000000E+06    0.6239479947E+00    0.5649301107E-01    0.5936157114E+00    0.1336363716E-02    0.5534188817E-01
    0.1700000000E+06    0.6240337562E+00    0.5376190340E-01    0.5978759192E+00    0.1263913188E-02    0.5536192919E-01
    0.1900000000E+06    0.6241002222E+00    0.5142484300E-01    0.6015141345E+00    0.1202329256E-02    0.5537888809E-01
    0.2100000000E+06    0.6241530391E+00    0.4939320635E-01    0.6046715241E+00    0.1149110848E-02    0.5539353828E-01
    0.2300000000E+06    0.6241958628E+00    0.4760428106E-01    0.6074476711E+00    0.1102500170E-02    0.5540640259E-01
    0.2500000000E+06    0.6242311623E+00    0.4601221303E-01    0.6099151970E+00    0.1061219741E-02    0.5541784914E-01
    0.2700000000E+06    0.6242606633E+00    0.4458255739E-01    0.6121285299E+00    0.1024315178E-02    0.5542814586E-01
    0.2900000000E+06    0.6242856074E+00    0.4328884711E-01    0.6141294087E+00    0.9910567862E-03    0.5543749323E-01
    0.3100000000E+06    0.6243069099E+00    0.4211034934E-01    0.6159504721E+00    0.9608755707E-03    0.5544604478E-01
    0.3300000000E+06    0.6243252600E+00    0.4103055098E-01    0.6176176753E+00    0.9333202506E-03    0.5545392047E-01
    0.3500000000E+06    0.6243411858E+00    0.4003610798E-01    0.6191519627E+00    0.9080275789E-03    0.5546121565E-01
    0.3700000000E+06    0.6243550991E+00    0.3911609912E-01    0.6205704540E+00    0.8847013473E-03    0.5546800726E-01
    0.3900000000E+06    0.6243673247E+00    0.3826148471E-01    0.6218873032E+00    0.8630972188E-03    0.5547435822E-01
    0.4100000000E+06    0.6243781230E+00    0.3746470676E-01    0.6231143317E+00    0.8430115642E-03    0.5548032058E-01
    0.4300000000E+06    0.6243877042E+00    0.3671938872E-01    0.6242615030E+00    0.8242731086E-03    0.5548593786E-01
    0.4500000000E+06    0.6243962404E+00    0.3602010675E-01    0.6253372847E+00    0.8067365866E-03    0.5549124679E-01
    0.4700000000E+06    0.6244038735E+00    0.3536221306E-01    0.6263489262E+00    0.7902778588E-03    0.5549627864E-01
    0.4900000000E+06    0.6244107213E+00    0.3474169787E-01    0.6273026774E+00    0.7747901062E-03    0.5550106023E-01
    0.1000000000E+06    0.6235703743E+00    0.6609111594E-01    0.5785666787E+00    0.1594939588E-02    0.5526825126E-01
    0.3000000000E+06    0.6242966663E+00    0.4268631352E-01    0.6150606610E+00    0.9756120963E-03    0.5544186032E-01
    0.5000000000E+06    0.6244138823E+00    0.3444435131E-01    0.6277595666E+00    0.7673809499E-03    0.5550336454E-01
    0.7000000000E+06    0.6244531479E+00    0.2981414459E-01    0.6348624467E+00    0.6530908376E-03    0.5554058288E-01
    0.9000000000E+06    0.6244689898E+00    0.2673008747E-01    0.6395815237E+00    0.5781663406E-03    0.5556721556E-01
    0.1100000000E+07    0.6244753001E+00    0.2447974485E-01    0.6430189776E+00    0.5241555053E-03    0.5558793535E-01
    0.1300000000E+07    0.6244770679E+00    0.2274090404E-01    0.6456717241E+00    0.4828291769E-03    0.5560488510E-01
    0.1500000000E+07    0.6244764612E+00    0.2134320261E-01    0.6478019164E+00    0.4498836259E-03    0.5561922323E-01
    0.1700000000E+07    0.6244745436E+00    0.2018677555E-01    0.6495629698E+00    0.4228185953E-03    0.5563164604E-01
    0.1900000000E+07    0.6244718831E+00    0.1920860416E-01    0.6510515671E+00    0.4000683354E-03    0.5564260443E-01
    0.2100000000E+07    0.6244688017E+00    0.1836665218E-01    0.6523321296E+00    0.3805953493E-03    0.5565240700E-01
    0.2300000000E+07    0.6244654901E+00    0.1763163695E-01    0.6534494924E+00    0.3636811611E-03    0.5566127421E-01
    0.2500000000E+07    0.6244620650E+00    0.1698243637E-01    0.6544359704E+00    0.3488102606E-03    0.5566936895E-01
    0.2700000000E+07    0.6244585994E+00    0.1640337179E-01    0.6553155341E+00    0.3356018265E-03    0.5567681502E-01
    0.2900000000E+07    0.6244551395E+00    0.1588252259E-01    0.6561063975E+00    0.3237675889E-03    0.5568370866E-01
    0.3100000000E+07    0.6244517147E+00    0.1541063879E-01    0.6568226862E+00    0.3130847670E-03    0.5569012620E-01
    0.3300000000E+07    0.6244483436E+00    0.1498041572E-01    0.6574755499E+00    0.3033780938E-03    0.5569612917E-01
    0.3500000000E+07    0.6244450377E+00    0.1458599628E-01    0.6580739248E+00    0.2945075278E-03    0.5570176789E-01
    0.3700000000E+07    0.6244418036E+00    0.1422262076E-01    0.6586250700E+00    0.2863596397E-03    0.5570708406E-01
    0.3900000000E+07    0.6244386450E+00    0.1388637511E-01    0.6591349524E+00    0.2788414423E-03    0.5571211261E-01
    0.4100000000E+07    0.6244355634E+00    0.1357400653E-01    0.6596085293E+00    0.2718758832E-03    0.5571688307E-01
    0.4300000000E+07    0.6244325587E+00    0.1328278602E-01    0.6600499586E+00    0.2653984971E-03    0.5572142066E-01
    0.4500000000E+07    0.6244296300E+00    0.1301040438E-01    0.6604627572E+00    0.2593548782E-03    0.5572574707E-01
    0.4700000000E+07    0.6244267758E+00    0.1275489243E-01    0.6608499237E+00    0.2536987480E-03    0.5572988109E-01
    0.4900000000E+07    0.6244239940E+00    0.1251455905E-01    0.6612140324E+00    0.2483904577E-03    0.5573383913E-01
    0.1000000000E+07    0.6244729237E+00    0.2552593995E-01    0.6414215045E+00    0.5491934100E-03    0.5557814766E-01
    0.3000000000E+07    0.6244534213E+00    0.1564095544E-01    0.6564731073E+00    0.3182941530E-03    0.5568697280E-01
    0.5000000000E+07    0.6244226296E+00    0.1239961968E-01    0.6613881473E+00    0.2458558809E-03    0.5573575671E-01
    0.7000000000E+07    0.6243985708E+00    0.1062850830E-01    0.6640694457E+00    0.2071536907E-03    0.5576759004E-01
    0.9000000000E+07    0.6243792529E+00    0.9467936379E-02    0.6658247338E+00    0.1821813712E-03    0.5579126514E-01
    0.1100000000E+08    0.6243631921E+00    0.8630518731E-02    0.6670904101E+00    0.1643741088E-03    0.5581012410E-01
    0.1300000000E+08    0.6243494714E+00    0.7988795651E-02    0.6680598120E+00    0.1508584211E-03    0.5582580030E-01
    0.1500000000E+08    0.6243375043E+00    0.7476309119E-02    0.6688336673E+00    0.1401514603E-03    0.5583921534E-01
    0.1700000000E+08    0.6243268973E+00    0.7054515702E-02    0.6694703589E+00    0.1314005334E-03    0.5585094062E-01
    0.1900000000E+08    0.6243173746E+00    0.6699300001E-02    0.6700063975E+00    0.1240760113E-03    0.5586135501E-01
    0.2100000000E+08    0.6243087362E+00    0.6394689130E-02    0.6704659560E+00    0.1178293195E-03    0.5587072267E-01
    0.2300000000E+08    0.6243008323E+00    0.6129622500E-02    0.6708657673E+00    0.1124204453E-03    0.5587923515E-01
    0.2500000000E+08    0.6242935483E+00    0.5896162805E-02    0.6712178357E+00    0.1076780250E-03    0.5588703579E-01
    0.2700000000E+08    0.6242867941E+00    0.5688444655E-02    0.6715310296E+00    0.1034760119E-03    0.5589423464E-01
