  Pressure (Pa) 22mC5-400 (mol/kg) 2mC6-400 (mol/kg) 3mC6-400 (mol/kg) 33mC5-400 (mol/kg) 23mC5-400 (mol/kg)
    0.1000000000E+01    0.3171108494E-02    0.3175169510E-02    0.3694318684E-02    0.1292596089E-03    0.9280214631E-04
    0.3000000000E+01    0.9364314022E-02    0.9294975258E-02    0.1087832778E-01    0.3783907476E-03    0.2740488085E-03
    0.5000000000E+01    0.1536802225E-01    0.1512357039E-01    0.1780260545E-01    0.6156618617E-03    0.4497538475E-03
    0.7000000000E+01    0.2119253505E-01    0.2067900180E-01    0.2448182774E-01    0.8418068296E-03    0.6202184829E-03
    0.9000000000E+01    0.2684739965E-01    0.2597790337E-01    0.3092957074E-01    0.1057502097E-02    0.7857218708E-03
    0.1100000000E+02    0.3234147650E-01    0.3103562949E-01    0.3715841228E-01    0.1263372105E-02    0.9465230887E-03
    0.1300000000E+02    0.3768300007E-01    0.3586637395E-01    0.4318002235E-01    0.1459994117E-02    0.1102862912E-02
    0.1500000000E+02    0.4287963321E-01    0.4048327579E-01    0.4900524398E-01    0.1647902529E-02    0.1254965404E-02
    0.1700000000E+02    0.4793851608E-01    0.4489851403E-01    0.5464416557E-01    0.1827592711E-02    0.1403039346E-02
    0.1900000000E+02    0.5286631004E-01    0.4912339237E-01    0.6010618571E-01    0.1999524455E-02    0.1547279519E-02
    0.2100000000E+02    0.5766923724E-01    0.5316841518E-01    0.6540007146E-01    0.2164125062E-02    0.1687867866E-02
    0.2300000000E+02    0.6235311639E-01    0.5704335582E-01    0.7053401082E-01    0.2321792118E-02    0.1824974529E-02
    0.2500000000E+02    0.6692339502E-01    0.6075731810E-01    0.7551565998E-01    0.2472895991E-02    0.1958758803E-02
    0.2700000000E+02    0.7138517879E-01    0.6431879173E-01    0.8035218605E-01    0.2617782087E-02    0.2089369982E-02
    0.2900000000E+02    0.7574325797E-01    0.6773570235E-01    0.8505030574E-01    0.2756772880E-02    0.2216948143E-02
    0.3100000000E+02    0.8000213159E-01    0.7101545687E-01    0.8961632041E-01    0.2890169760E-02    0.2341624844E-02
    0.3300000000E+02    0.8416602935E-01    0.7416498449E-01    0.9405614781E-01    0.3018254693E-02    0.2463523771E-02
    0.3500000000E+02    0.8823893160E-01    0.7719077396E-01    0.9837535111E-01    0.3141291740E-02    0.2582761318E-02
    0.3700000000E+02    0.9222458756E-01    0.8009890739E-01    0.1025791651E+00    0.3259528432E-02    0.2699447119E-02
    0.3900000000E+02    0.9612653202E-01    0.8289509113E-01    0.1066725205E+00    0.3373197020E-02    0.2813684541E-02
    0.4100000000E+02    0.9994810049E-01    0.8558468376E-01    0.1106600653E+00    0.3482515619E-02    0.2925571124E-02
    0.4300000000E+02    0.1036924432E+00    0.8817272176E-01    0.1145461857E+00    0.3587689246E-02    0.3035198990E-02
    0.4500000000E+02    0.1073625381E+00    0.9066394294E-01    0.1183350236E+00    0.3688910774E-02    0.3142655218E-02
    0.4700000000E+02    0.1109612020E+00    0.9306280778E-01    0.1220304940E+00    0.3786361800E-02    0.3248022187E-02
    0.4900000000E+02    0.1144911022E+00    0.9537351914E-01    0.1256363002E+00    0.3880213446E-02    0.3351377894E-02
    0.1000000000E+02    0.2961400789E-01    0.2853600035E-01    0.3407060454E-01    0.1161628126E-02    0.8666947931E-03
    0.3000000000E+02    0.7788482505E-01    0.6939228030E-01    0.8734944771E-01    0.2824152500E-02    0.2279641268E-02
    0.5000000000E+02    0.1162310609E+00    0.9649706466E-01    0.1274066822E+00    0.3925840293E-02    0.3402324771E-02
    0.7000000000E+02    0.1479688462E+00    0.1151914057E+00    0.1588667761E+00    0.4684087460E-02    0.4331717327E-02
    0.9000000000E+02    0.1750285386E+00    0.1284351236E+00    0.1843972570E+00    0.5219462077E-02    0.5124270494E-02
    0.1100000000E+03    0.1986150385E+00    0.1379876495E+00    0.2056491534E+00    0.5603701871E-02    0.5815222074E-02
    0.1300000000E+03    0.2195230145E+00    0.1449532795E+00    0.2237016562E+00    0.5881881318E-02    0.6427813350E-02
    0.1500000000E+03    0.2383005648E+00    0.1500557908E+00    0.2392915834E+00    0.6083578964E-02    0.6978074806E-02
    0.1700000000E+03    0.2553400534E+00    0.1537865778E+00    0.2529402311E+00    0.6228903383E-02    0.7477482413E-02
    0.1900000000E+03    0.2709313463E+00    0.1564891396E+00    0.2650275154E+00    0.6331931312E-02    0.7934514466E-02
    0.2100000000E+03    0.2852944564E+00    0.1584095419E+00    0.2758373505E+00    0.6402762100E-02    0.8355606279E-02
    0.2300000000E+03    0.2986003437E+00    0.1597277524E+00    0.2855865193E+00    0.6448794098E-02    0.8745758493E-02
    0.2500000000E+03    0.3109846108E+00    0.1605777558E+00    0.2944436598E+00    0.6475544508E-02    0.9108937612E-02
    0.2700000000E+03    0.3225567808E+00    0.1610608426E+00    0.3025421140E+00    0.6487191360E-02    0.9448347376E-02
    0.2900000000E+03    0.3334067438E+00    0.1612546109E+00    0.3099888430E+00    0.6486940913E-02    0.9766617275E-02
    0.3100000000E+03    0.3436093344E+00    0.1612191992E+00    0.3168707496E+00    0.6477282277E-02    0.1006593645E-01
    0.3300000000E+03    0.3532276490E+00    0.1610016879E+00    0.3232592523E+00    0.6460167373E-02    0.1034815072E-01
    0.3500000000E+03    0.3623154927E+00    0.1606392616E+00    0.3292136505E+00    0.6437140364E-02    0.1061483413E-01
    0.3700000000E+03    0.3709192143E+00    0.1601615169E+00    0.3347836412E+00    0.6409432213E-02    0.1086734264E-01
    0.3900000000E+03    0.3790791016E+00    0.1595921705E+00    0.3400112277E+00    0.6378030754E-02    0.1110685495E-01
    0.4100000000E+03    0.3868304596E+00    0.1589503392E+00    0.3449321849E+00    0.6343733278E-02    0.1133440398E-01
    0.4300000000E+03    0.3942044514E+00    0.1582515105E+00    0.3495771991E+00    0.6307186455E-02    0.1155090152E-01
    0.4500000000E+03    0.4012287643E+00    0.1575082864E+00    0.3539727629E+00    0.6268916975E-02    0.1175715771E-01
    0.4700000000E+03    0.4079281415E+00    0.1567309587E+00    0.3581418862E+00    0.6229355280E-02    0.1195389654E-01
    0.4900000000E+03    0.4143248116E+00    0.1559279576E+00    0.3621046643E+00    0.6188854115E-02    0.1214176848E-01
    0.1000000000E+03    0.1871990544E+00    0.1335924729E+00    0.1954805439E+00    0.5427196862E-02    0.5480782863E-02
    0.3000000000E+03    0.3385847742E+00    0.1612623460E+00    0.3134956168E+00    0.6483154751E-02    0.9918523235E-02
    0.5000000000E+03    0.4174159780E+00    0.1555190435E+00    0.3640142718E+00    0.6168343882E-02    0.1223256508E-01
    0.7000000000E+03    0.4673418333E+00    0.1471341497E+00    0.3947047142E+00    0.5756494741E-02    0.1369989312E-01
    0.9000000000E+03    0.5016151629E+00    0.1395012075E+00    0.4162657055E+00    0.5388568999E-02    0.1470840046E-01
    0.1100000000E+04    0.5263813482E+00    0.1329695575E+00    0.4326654494E+00    0.5077168290E-02    0.1543804377E-01
    0.1300000000E+04    0.5449739355E+00    0.1274043794E+00    0.4457786522E+00    0.4814493207E-02    0.1598648754E-01
    0.1500000000E+04    0.5593607891E+00    0.1226192001E+00    0.4566298646E+00    0.4590899672E-02    0.1641141210E-01
    0.1700000000E+04    0.5707724594E+00    0.1184550124E+00    0.4658365976E+00    0.4398284689E-02    0.1674890257E-01
    0.1900000000E+04    0.5800132716E+00    0.1147882159E+00    0.4737981885E+00    0.4230368043E-02    0.1702255568E-01
    0.2100000000E+04    0.5876282991E+00    0.1115246587E+00    0.4807869727E+00    0.4082369279E-02    0.1724836941E-01
    0.2300000000E+04    0.5939983388E+00    0.1085924656E+00    0.4869965437E+00    0.3950641928E-02    0.1743752503E-01
    0.2500000000E+04    0.5993964626E+00    0.1059362063E+00    0.4925691820E+00    0.3832377975E-02    0.1759804421E-01
    0.2700000000E+04    0.6040229898E+00    0.1035125772E+00    0.4976123534E+00    0.3725388701E-02    0.1773581400E-01
    0.2900000000E+04    0.6080278296E+00    0.1012872886E+00    0.5022091020E+00    0.3627946197E-02    0.1785524191E-01
    0.3100000000E+04    0.6115251629E+00    0.9923282955E-01    0.5064248544E+00    0.3538669195E-02    0.1795968647E-01
    0.3300000000E+04    0.6146033353E+00    0.9732685319E-01    0.5103120207E+00    0.3456440341E-02    0.1805174743E-01
    0.3500000000E+04    0.6173316716E+00    0.9555099760E-01    0.5139131939E+00    0.3380345701E-02    0.1813346575E-01
    0.3700000000E+04    0.6197652652E+00    0.9389001513E-01    0.5172634292E+00    0.3309630010E-02    0.1820646411E-01
    0.3900000000E+04    0.6219484049E+00    0.9233112095E-01    0.5203919015E+00    0.3243663185E-02    0.1827204755E-01
    0.4100000000E+04    0.6239170670E+00    0.9086349984E-01    0.5233231346E+00    0.3181914972E-02    0.1833127667E-01
    0.4300000000E+04    0.6257007551E+00    0.8947792815E-01    0.5260779267E+00    0.3123935527E-02    0.1838502164E-01
    0.4500000000E+04    0.6273238761E+00    0.8816648089E-01    0.5286740586E+00    0.3069340387E-02    0.1843400263E-01
    0.4700000000E+04    0.6288067832E+00    0.8692230222E-01    0.5311268420E+00    0.3017798717E-02    0.1847882050E-01
    0.4900000000E+04    0.6301665749E+00    0.8573942385E-01    0.5334495499E+00    0.2969024024E-02    0.1851998024E-01
    0.1000000000E+04    0.5149354033E+00    0.1361029404E+00    0.4249653631E+00    0.5226161120E-02    0.1510072030E-01
    0.3000000000E+04    0.6098338992E+00    0.1002402075E+00    0.5043610649E+00    0.3582362229E-02    0.1790915953E-01
    0.5000000000E+04    0.6308049110E+00    0.8516931358E-01    0.5345658014E+00    0.2945595038E-02    0.1853932449E-01
    0.7000000000E+04    0.6396707552E+00    0.7600115286E-01    0.5522268363E+00    0.2575735468E-02    0.1880994811E-01
    0.9000000000E+04    0.6445154863E+00    0.6956696467E-01    0.5642945358E+00    0.2323663998E-02    0.1896018758E-01
    0.1100000000E+05    0.6475564847E+00    0.6469166431E-01    0.5732608912E+00    0.2136575006E-02    0.1905599405E-01
    0.1300000000E+05    0.6496386347E+00    0.6081429433E-01    0.5802847942E+00    0.1990099567E-02    0.1912263139E-01
    0.1500000000E+05    0.6511518438E+00    0.5762527009E-01    0.5859921815E+00    0.1871127765E-02    0.1917182137E-01
    0.1700000000E+05    0.6523003847E+00    0.5493664708E-01    0.5907562647E+00    0.1771858161E-02    0.1920973811E-01
    0.1900000000E+05    0.6532014232E+00    0.5262630580E-01    0.5948158705E+00    0.1687302859E-02    0.1923994203E-01
    0.2100000000E+05    0.6539268983E+00    0.5061073752E-01    0.5983321915E+00    0.1614096410E-02    0.1926463104E-01
    0.2300000000E+05    0.6545233895E+00    0.4883050953E-01    0.6014186515E+00    0.1549870712E-02    0.1928523591E-01
    0.2500000000E+05    0.6550223699E+00    0.4724194225E-01    0.6041577838E+00    0.1492902350E-02    0.1930272864E-01
    0.2700000000E+05    0.6554458625E+00    0.4581207303E-01    0.6066113250E+00    0.1441901882E-02    0.1931779302E-01
    0.2900000000E+05    0.6558097345E+00    0.4451546879E-01    0.6088265354E+00    0.1395881969E-02    0.1933092436E-01
    0.3100000000E+05    0.6561257050E+00    0.4333213213E-01    0.6108403123E+00    0.1354071575E-02    0.1934249044E-01
    0.3300000000E+05    0.6564026158E+00    0.4224608164E-01    0.6126819548E+00    0.1315858301E-02    0.1935277024E-01
    0.3500000000E+05    0.6566472625E+00    0.4124436314E-01    0.6143750736E+00    0.1280748535E-02    0.1936197932E-01
    0.3700000000E+05    0.6568649530E+00    0.4031634456E-01    0.6159389439E+00    0.1248339233E-02    0.1937028693E-01
    0.3900000000E+05    0.6570598935E+00    0.3945320280E-01    0.6173894828E+00    0.1218297515E-02    0.1937782790E-01
    0.4100000000E+05    0.6572354596E+00    0.3864754338E-01    0.6187399700E+00    0.1190345627E-02    0.1938471104E-01
    0.4300000000E+05    0.6573943917E+00    0.3789311402E-01    0.6200015865E+00    0.1164249684E-02    0.1939102510E-01
    0.4500000000E+05    0.6575389374E+00    0.3718458573E-01    0.6211838250E+00    0.1139811105E-02    0.1939684328E-01
    0.4700000000E+05    0.6576709575E+00    0.3651738337E-01    0.6222948058E+00    0.1116860014E-02    0.1940222650E-01
    0.4900000000E+05    0.6577920055E+00    0.3588755286E-01    0.6233415227E+00    0.1095250093E-02    0.1940722589E-01
    0.1000000000E+05    0.6461926053E+00    0.6697781969E-01    0.5690752012E+00    0.2223895697E-02    0.1901283912E-01
    0.3000000000E+05    0.6559730987E+00    0.4391072172E-01    0.6098566194E+00    0.1374492040E-02    0.1933688388E-01
    0.5000000000E+05    0.6578488318E+00    0.3558555992E-01    0.6238427085E+00    0.1084907774E-02    0.1940959541E-01
    0.7000000000E+05    0.6586394415E+00    0.3086826230E-01    0.6316139865E+00    0.9250144353E-03    0.1944451716E-01
    0.9000000000E+05    0.6590738378E+00    0.2771165411E-01    0.6367554912E+00    0.8198351718E-03    0.1946605082E-01
    0.1100000000E+06    0.6593478434E+00    0.2540158173E-01    0.6404893762E+00    0.7438432212E-03    0.1948112287E-01
    0.1300000000E+06    0.6595360859E+00    0.2361289827E-01    0.6433642266E+00    0.6856037585E-03    0.1949250931E-01
    0.1500000000E+06    0.6596731617E+00    0.2217291719E-01    0.6456684952E+00    0.6391178566E-03    0.1950155940E-01
    0.1700000000E+06    0.6597772910E+00    0.2098007972E-01    0.6475705421E+00    0.6008922557E-03    0.1950901638E-01
    0.1900000000E+06    0.6598589764E+00    0.1997013745E-01    0.6491762362E+00    0.5687353288E-03    0.1951532743E-01
    0.2100000000E+06    0.6599246947E+00    0.1910014828E-01    0.6505559895E+00    0.5411926976E-03    0.1952077994E-01
    0.2300000000E+06    0.6599786556E+00    0.1834014969E-01    0.6517587278E+00    0.5172559495E-03    0.1952556821E-01
    0.2500000000E+06    0.6600237128E+00    0.1766849978E-01    0.6528196651E+00    0.4962007880E-03    0.1952982909E-01
    0.2700000000E+06    0.6600618688E+00    0.1706911540E-01    0.6537648899E+00    0.4774916771E-03    0.1953366220E-01
    0.2900000000E+06    0.6600945695E+00    0.1652975621E-01    0.6546142034E+00    0.4607229175E-03    0.1953714209E-01
    0.3100000000E+06    0.6601228850E+00    0.1604091588E-01    0.6553829471E+00    0.4455807618E-03    0.1954032585E-01
    0.3300000000E+06    0.6601476240E+00    0.1559508152E-01    0.6560832191E+00    0.4318182280E-03    0.1954325810E-01
    0.3500000000E+06    0.6601694088E+00    0.1518622500E-01    0.6567247075E+00    0.4192378659E-03    0.1954597431E-01
    0.3700000000E+06    0.6601887261E+00    0.1480944461E-01    0.6573152762E+00    0.4076796690E-03    0.1954850312E-01
    0.3900000000E+06    0.6602059617E+00    0.1446070733E-01    0.6578613849E+00    0.3970124088E-03    0.1955086791E-01
    0.4100000000E+06    0.6602214257E+00    0.1413665980E-01    0.6583683966E+00    0.3871273015E-03    0.1955308806E-01
    0.4300000000E+06    0.6602353697E+00    0.1383448740E-01    0.6588408066E+00    0.3779332997E-03    0.1955517976E-01
    0.4500000000E+06    0.6602480003E+00    0.1355180748E-01    0.6592824152E+00    0.3693535380E-03    0.1955715668E-01
    0.4700000000E+06    0.6602594886E+00    0.1328658742E-01    0.6596964608E+00    0.3613226129E-03    0.1955903046E-01
    0.4900000000E+06    0.6602699772E+00    0.1303708105E-01    0.6600857221E+00    0.3537844738E-03    0.1956081107E-01
    0.1000000000E+06    0.6592248144E+00    0.2647623259E-01    0.6387553436E+00    0.7790885238E-03    0.1947417141E-01
    0.3000000000E+06    0.6601092198E+00    0.1627953061E-01    0.6550078256E+00    0.4529652829E-03    0.1953876795E-01
    0.5000000000E+06    0.6602748850E+00    0.1291774057E-01    0.6602718217E+00    0.3501848266E-03    0.1956166918E-01
    0.7000000000E+06    0.6603417041E+00    0.1107769430E-01    0.6631341401E+00    0.2951899846E-03    0.1957552987E-01
    0.9000000000E+06    0.6603765730E+00    0.9870866714E-02    0.6650043057E+00    0.2596765552E-03    0.1958544905E-01
    0.1100000000E+07    0.6603973456E+00    0.8999573067E-02    0.6663510224E+00    0.2343395590E-03    0.1959316634E-01
    0.1300000000E+07    0.6604107516E+00    0.8331619911E-02    0.6673814730E+00    0.2151017511E-03    0.1959947961E-01
    0.1500000000E+07    0.6604198698E+00    0.7798023365E-02    0.6682034242E+00    0.1998575663E-03    0.1960482023E-01
    0.1700000000E+07    0.6604262987E+00    0.7358750743E-02    0.6688792611E+00    0.1873955837E-03    0.1960944748E-01
    0.1900000000E+07    0.6604309452E+00    0.6988743165E-02    0.6694479582E+00    0.1769630512E-03    0.1961352931E-01
    0.2100000000E+07    0.6604343597E+00    0.6671396639E-02    0.6699352980E+00    0.1680643829E-03    0.1961718063E-01
    0.2300000000E+07    0.6604368941E+00    0.6395210044E-02    0.6703591153E+00    0.1603582483E-03    0.1962048355E-01
    0.2500000000E+07    0.6604387824E+00    0.6151927816E-02    0.6707321971E+00    0.1536008894E-03    0.1962349875E-01
    0.2700000000E+07    0.6604401863E+00    0.5935448048E-02    0.6710639850E+00    0.1476129744E-03    0.1962627233E-01
    0.2900000000E+07    0.6604412200E+00    0.5741148883E-02    0.6713616239E+00    0.1422592474E-03    0.1962884014E-01
    0.3100000000E+07    0.6604419666E+00    0.5565455995E-02    0.6716306350E+00    0.1374355190E-03    0.1963123060E-01
    0.3300000000E+07    0.6604424877E+00    0.5405555317E-02    0.6718753622E+00    0.1330600600E-03    0.1963346664E-01
    0.3500000000E+07    0.6604428296E+00    0.5259196649E-02    0.6720992765E+00    0.1290677407E-03    0.1963556700E-01
    0.3700000000E+07    0.6604430279E+00    0.5124555983E-02    0.6723051899E+00    0.1254059356E-03    0.1963754721E-01
    0.3900000000E+07    0.6604431101E+00    0.5000136844E-02    0.6724954082E+00    0.1220315991E-03    0.1963942028E-01
    0.4100000000E+07    0.6604430979E+00    0.4884698219E-02    0.6726718426E+00    0.1189091353E-03    0.1964119722E-01
    0.4300000000E+07    0.6604430085E+00    0.4777200985E-02    0.6728360926E+00    0.1160088194E-03    0.1964288740E-01
    0.4500000000E+07    0.6604428557E+00    0.4676767480E-02    0.6729895087E+00    0.1133056097E-03    0.1964449893E-01
    0.4700000000E+07    0.6604426506E+00    0.4582650548E-02    0.6731332400E+00    0.1107782400E-03    0.1964603879E-01
    0.4900000000E+07    0.6604424022E+00    0.4494209566E-02    0.6732682715E+00    0.1084085190E-03    0.1964751309E-01
    0.1000000000E+07    0.6603881717E+00    0.9403674677E-02    0.6657267846E+00    0.2460576664E-03    0.1958952079E-01
    0.3000000000E+07    0.6604416249E+00    0.5651167703E-02    0.6714994129E+00    0.1397866887E-03    0.1963005599E-01
    0.5000000000E+07    0.6604422642E+00    0.4451941778E-02    0.6733327949E+00    0.1072777951E-03    0.1964822736E-01
    0.7000000000E+07    0.6604384801E+00    0.3803003207E-02    0.6743225339E+00    0.9007310493E-04    0.1966008458E-01
    0.9000000000E+07    0.6604341543E+00    0.3380167260E-02    0.6749665163E+00    0.7903306691E-04    0.1966890279E-01
    0.1100000000E+08    0.6604299939E+00    0.3076239160E-02    0.6754289473E+00    0.7119014565E-04    0.1967592693E-01
    0.1300000000E+08    0.6604261415E+00    0.2843996863E-02    0.6757820466E+00    0.6525387683E-04    0.1968176547E-01
    0.1500000000E+08    0.6604226046E+00    0.2658936444E-02    0.6760632464E+00    0.6056139777E-04    0.1968676172E-01
    0.1700000000E+08    0.6604193558E+00    0.2506898323E-02    0.6762941579E+00    0.5673288004E-04    0.1969112853E-01
    0.1900000000E+08    0.6604163618E+00    0.2379049124E-02    0.6764882532E+00    0.5353306597E-04    0.1969500703E-01
    0.2100000000E+08    0.6604135906E+00    0.2269552094E-02    0.6766544292E+00    0.5080747970E-04    0.1969849562E-01
    0.2300000000E+08    0.6604110144E+00    0.2174373703E-02    0.6767988307E+00    0.4844996404E-04    0.1970166567E-01
    0.2500000000E+08    0.6604086094E+00    0.2090624450E-02    0.6769258582E+00    0.4638485250E-04    0.1970457057E-01
    0.2700000000E+08    0.6604063554E+00    0.2016172338E-02    0.6770387568E+00    0.4455656992E-04    0.1970725130E-01
