  Pressure (Pa) 22mC5-400 (mol/kg) 2mC6-400 (mol/kg) 3mC6-400 (mol/kg) 33mC5-400 (mol/kg) 23mC5-400 (mol/kg)
    0.1000000000E+01    0.3168049020E-02    0.3971299041E-02    0.2113767955E-02    0.1939985257E-03    0.1854253169E-03
    0.3000000000E+01    0.9337946831E-02    0.1163928784E-01    0.6239915760E-02    0.5685463052E-03    0.5465551519E-03
    0.5000000000E+01    0.1529782448E-01    0.1896033670E-01    0.1023664595E-01    0.9261008051E-03    0.8954011282E-03
    0.7000000000E+01    0.2106055353E-01    0.2595585413E-01    0.1411046474E-01    0.1267708899E-02    0.1232715981E-02
    0.9000000000E+01    0.2663794356E-01    0.3264554377E-01    0.1786744162E-01    0.1594334180E-02    0.1559190344E-02
    0.1100000000E+02    0.3204084973E-01    0.3904757049E-01    0.2151324559E-01    0.1906865069E-02    0.1875459043E-02
    0.1300000000E+02    0.3727926764E-01    0.4517870751E-01    0.2505317790E-01    0.2206122000E-02    0.2182106641E-02
    0.1500000000E+02    0.4236241702E-01    0.5105446690E-01    0.2849220158E-01    0.2492863784E-02    0.2479672327E-02
    0.1700000000E+02    0.4729881589E-01    0.5668921565E-01    0.3183496815E-01    0.2767793285E-02    0.2768654261E-02
    0.1900000000E+02    0.5209634636E-01    0.6209627917E-01    0.3508584190E-01    0.3031562465E-02    0.3049513413E-02
    0.2100000000E+02    0.5676231319E-01    0.6728803371E-01    0.3824892184E-01    0.3284776904E-02    0.3322676994E-02
    0.2300000000E+02    0.6130349597E-01    0.7227598920E-01    0.4132806171E-01    0.3527999838E-02    0.3588541501E-02
    0.2500000000E+02    0.6572619574E-01    0.7707086342E-01    0.4432688821E-01    0.3761755788E-02    0.3847475449E-02
    0.2700000000E+02    0.7003627678E-01    0.8168264882E-01    0.4724881758E-01    0.3986533821E-02    0.4099821808E-02
    0.2900000000E+02    0.7423920403E-01    0.8612067260E-01    0.5009707077E-01    0.4202790482E-02    0.4345900200E-02
    0.3100000000E+02    0.7834007676E-01    0.9039365095E-01    0.5287468732E-01    0.4410952445E-02    0.4586008857E-02
    0.3300000000E+02    0.8234365890E-01    0.9450973805E-01    0.5558453803E-01    0.4611418908E-02    0.4820426406E-02
    0.3500000000E+02    0.8625440637E-01    0.9847657046E-01    0.5822933665E-01    0.4804563761E-02    0.5049413455E-02
    0.3700000000E+02    0.9007649180E-01    0.1023013073E+00    0.6081165051E-01    0.4990737549E-02    0.5273214050E-02
    0.3900000000E+02    0.9381382687E-01    0.1059906670E+00    0.6333391038E-01    0.5170269259E-02    0.5492056975E-02
    0.4100000000E+02    0.9747008263E-01    0.1095509601E+00    0.6579841952E-01    0.5343467946E-02    0.5706156940E-02
    0.4300000000E+02    0.1010487079E+00    0.1129881201E+00    0.6820736196E-01    0.5510624208E-02    0.5915715657E-02
    0.4500000000E+02    0.1045529459E+00    0.1163077305E+00    0.7056281024E-01    0.5672011540E-02    0.6120922822E-02
    0.4700000000E+02    0.1079858497E+00    0.1195150507E+00    0.7286673245E-01    0.5827887566E-02    0.6321957005E-02
    0.4900000000E+02    0.1113502961E+00    0.1226150384E+00    0.7512099883E-01    0.5978495166E-02    0.6518986460E-02
    0.1000000000E+02    0.2936056329E-01    0.3588143565E-01    0.1970390063E-01    0.1752308631E-02    0.1718562749E-02
    0.3000000000E+02    0.7630209193E-01    0.8827727019E-01    0.5149452539E-01    0.4307857733E-02    0.4466682891E-02
    0.5000000000E+02    0.1130077016E+00    0.1241262546E+00    0.7623007027E-01    0.6051895432E-02    0.6616049359E-02
    0.7000000000E+02    0.1431453277E+00    0.1497219655E+00    0.9619356711E-01    0.7292621875E-02    0.8381189930E-02
    0.9000000000E+02    0.1687491479E+00    0.1685693306E+00    0.1127636105E+00    0.8201823938E-02    0.9881085030E-02
    0.1100000000E+03    0.1910448245E+00    0.1827691248E+00    0.1268243588E+00    0.8882555537E-02    0.1118742777E-01
    0.1300000000E+03    0.2108195355E+00    0.1936531862E+00    0.1389704723E+00    0.9400207340E-02    0.1234626461E-01
    0.1500000000E+03    0.2286052329E+00    0.2021041073E+00    0.1496175996E+00    0.9798151672E-02    0.1338871337E-01
    0.1700000000E+03    0.2447766920E+00    0.2087281213E+00    0.1590656616E+00    0.1010620729E-01    0.1433669801E-01
    0.1900000000E+03    0.2596073229E+00    0.2139541449E+00    0.1675369433E+00    0.1034549095E-01    0.1520621311E-01
    0.2100000000E+03    0.2733025944E+00    0.2180932674E+00    0.1751999932E+00    0.1053133284E-01    0.1600927886E-01
    0.2300000000E+03    0.2860209183E+00    0.2213759269E+00    0.1821851559E+00    0.1067509938E-01    0.1675516277E-01
    0.2500000000E+03    0.2978871784E+00    0.2239759385E+00    0.1885949772E+00    0.1078537188E-01    0.1745117096E-01
    0.2700000000E+03    0.3090017702E+00    0.2260264803E+00    0.1945113599E+00    0.1086873124E-01    0.1810317705E-01
    0.2900000000E+03    0.3194468075E+00    0.2276310020E+00    0.2000006006E+00    0.1093029354E-01    0.1871598513E-01
    0.3100000000E+03    0.3292904846E+00    0.2288708343E+00    0.2051170083E+00    0.1097408407E-01    0.1929358506E-01
    0.3300000000E+03    0.3385902101E+00    0.2298106028E+00    0.2099055510E+00    0.1100330343E-01    0.1983933570E-01
    0.3500000000E+03    0.3473948995E+00    0.2305021472E+00    0.2144038248E+00    0.1102052041E-01    0.2035609910E-01
    0.3700000000E+03    0.3557466826E+00    0.2309874033E+00    0.2186435391E+00    0.1102781389E-01    0.2084634029E-01
    0.3900000000E+03    0.3636821939E+00    0.2313005528E+00    0.2226516532E+00    0.1102687881E-01    0.2131220289E-01
    0.4100000000E+03    0.3712335635E+00    0.2314696467E+00    0.2264512562E+00    0.1101910618E-01    0.2175556697E-01
    0.4300000000E+03    0.3784291869E+00    0.2315178461E+00    0.2300622557E+00    0.1100564439E-01    0.2217809416E-01
    0.4500000000E+03    0.3852943310E+00    0.2314643809E+00    0.2335019227E+00    0.1098744655E-01    0.2258126304E-01
    0.4700000000E+03    0.3918516163E+00    0.2313252964E+00    0.2367853267E+00    0.1096530743E-01    0.2296639739E-01
    0.4900000000E+03    0.3981214052E+00    0.2311140416E+00    0.2399256862E+00    0.1093989257E-01    0.2333468889E-01
    0.1000000000E+03    0.1802537475E+00    0.1761536371E+00    0.1200652972E+00    0.8566010084E-02    0.1055513047E-01
    0.3000000000E+03    0.3244400054E+00    0.2282921256E+00    0.2026024050E+00    0.1095419347E-01    0.1900896317E-01
    0.5000000000E+03    0.4011543131E+00    0.2309849601E+00    0.2414459200E+00    0.1092613518E-01    0.2351285946E-01
    0.7000000000E+03    0.4504039673E+00    0.2265804730E+00    0.2665573972E+00    0.1057580693E-01    0.2640771254E-01
    0.9000000000E+03    0.4844731357E+00    0.2210948451E+00    0.2850791795E+00    0.1019780441E-01    0.2841259662E-01
    0.1100000000E+04    0.5091949610E+00    0.2157920969E+00    0.2997497038E+00    0.9849799532E-02    0.2986913336E-01
    0.1300000000E+04    0.5277932551E+00    0.2109353377E+00    0.3118957397E+00    0.9540288542E-02    0.3096621899E-01
    0.1500000000E+04    0.5421964126E+00    0.2065378186E+00    0.3222582641E+00    0.9266286129E-02    0.3181689837E-01
    0.1700000000E+04    0.5536214021E+00    0.2025515303E+00    0.3312927290E+00    0.9022622023E-02    0.3249254356E-01
    0.1900000000E+04    0.5628687249E+00    0.1989194410E+00    0.3392990957E+00    0.8804358361E-02    0.3304012235E-01
    0.2100000000E+04    0.5704832343E+00    0.1955897251E+00    0.3464854761E+00    0.8607328053E-02    0.3349161659E-01
    0.2300000000E+04    0.5768467083E+00    0.1925186795E+00    0.3530022431E+00    0.8428146342E-02    0.3386944550E-01
    0.2500000000E+04    0.5822334664E+00    0.1896703190E+00    0.3589616446E+00    0.8264091528E-02    0.3418972486E-01
    0.2700000000E+04    0.5868450000E+00    0.1870151596E+00    0.3644497325E+00    0.8112972404E-02    0.3446429696E-01
    0.2900000000E+04    0.5908322081E+00    0.1845289705E+00    0.3695339570E+00    0.7973014010E-02    0.3470203443E-01
    0.3100000000E+04    0.5943100677E+00    0.1821917071E+00    0.3742681899E+00    0.7842766718E-02    0.3490970066E-01
    0.3300000000E+04    0.5973675472E+00    0.1799866546E+00    0.3786961556E+00    0.7721035969E-02    0.3509253138E-01
    0.3500000000E+04    0.6000744503E+00    0.1778997579E+00    0.3828538399E+00    0.7606828492E-02    0.3525463631E-01
    0.3700000000E+04    0.6024862347E+00    0.1759190990E+00    0.3867712224E+00    0.7499311137E-02    0.3539928195E-01
    0.3900000000E+04    0.6046474632E+00    0.1740344919E+00    0.3904735482E+00    0.7397779235E-02    0.3552909428E-01
    0.4100000000E+04    0.6065943163E+00    0.1722371648E+00    0.3939822788E+00    0.7301632108E-02    0.3564620628E-01
    0.4300000000E+04    0.6083564478E+00    0.1705195109E+00    0.3973158154E+00    0.7210353978E-02    0.3575236694E-01
    0.4500000000E+04    0.6099583735E+00    0.1688748906E+00    0.4004900565E+00    0.7123498946E-02    0.3584902289E-01
    0.4700000000E+04    0.6114205241E+00    0.1672974731E+00    0.4035188331E+00    0.7040679084E-02    0.3593738022E-01
    0.4900000000E+04    0.6127600513E+00    0.1657821096E+00    0.4064142542E+00    0.6961554915E-02    0.3601845196E-01
    0.1000000000E+04    0.4977605948E+00    0.2183942303E+00    0.2927936286E+00    0.1001904855E-01    0.2919523818E-01
    0.3000000000E+04    0.5926287285E+00    0.1833428371E+00    0.3719418840E+00    0.7906756414E-02    0.3480926882E-01
    0.5000000000E+04    0.6133884511E+00    0.1650462498E+00    0.4078153384E+00    0.6923283957E-02    0.3605652871E-01
    0.7000000000E+04    0.6220842076E+00    0.1527048714E+00    0.4308648445E+00    0.6295155025E-02    0.3658729421E-01
    0.9000000000E+04    0.6268053546E+00    0.1434449989E+00    0.4476595823E+00    0.5839080944E-02    0.3688012126E-01
    0.1100000000E+05    0.6297546943E+00    0.1360792661E+00    0.4607542749E+00    0.5484407816E-02    0.3706602285E-01
    0.1300000000E+05    0.6317666378E+00    0.1299959430E+00    0.4714116470E+00    0.5196404047E-02    0.3719489299E-01
    0.1500000000E+05    0.6332244646E+00    0.1248371613E+00    0.4803478251E+00    0.4955424354E-02    0.3728977421E-01
    0.1700000000E+05    0.6343282158E+00    0.1203752722E+00    0.4880074793E+00    0.4749286250E-02    0.3736275840E-01
    0.1900000000E+05    0.6351922703E+00    0.1164565192E+00    0.4946851870E+00    0.4569925181E-02    0.3742079732E-01
    0.2100000000E+05    0.6358866699E+00    0.1129722456E+00    0.5005858414E+00    0.4411734591E-02    0.3746817132E-01
    0.2300000000E+05    0.6364566626E+00    0.1098428906E+00    0.5058574932E+00    0.4270664989E-02    0.3750766082E-01
    0.2500000000E+05    0.6369327615E+00    0.1070085025E+00    0.5106104520E+00    0.4143700381E-02    0.3754115107E-01
    0.2700000000E+05    0.6373362801E+00    0.1044228234E+00    0.5149290089E+00    0.4028537119E-02    0.3756996621E-01
    0.2900000000E+05    0.6376825510E+00    0.1020494434E+00    0.5188789510E+00    0.3923378086E-02    0.3759506402E-01
    0.3100000000E+05    0.6379828826E+00    0.9985921291E-01    0.5225125564E+00    0.3826795896E-02    0.3761715477E-01
    0.3300000000E+05    0.6382457959E+00    0.9782844961E-01    0.5258720176E+00    0.3737639144E-02    0.3763677661E-01
    0.3500000000E+05    0.6384778324E+00    0.9593766510E-01    0.5289918505E+00    0.3654966441E-02    0.3765434490E-01
    0.3700000000E+05    0.6386840964E+00    0.9417063992E-01    0.5319006282E+00    0.3577998930E-02    0.3767018553E-01
    0.3900000000E+05    0.6388686284E+00    0.9251373929E-01    0.5346222550E+00    0.3506085422E-02    0.3768455787E-01
    0.4100000000E+05    0.6390346683E+00    0.9095539794E-01    0.5371769176E+00    0.3438676343E-02    0.3769767103E-01
    0.4300000000E+05    0.6391848442E+00    0.8948572659E-01    0.5395818076E+00    0.3375303950E-02    0.3770969553E-01
    0.4500000000E+05    0.6393213096E+00    0.8809620711E-01    0.5418516783E+00    0.3315567108E-02    0.3772077186E-01
    0.4700000000E+05    0.6394458464E+00    0.8677945357E-01    0.5439992782E+00    0.3259119418E-02    0.3773101690E-01
    0.4900000000E+05    0.6395599410E+00    0.8552902284E-01    0.5460356930E+00    0.3205659860E-02    0.3774052865E-01
    0.1000000000E+05    0.6284334176E+00    0.1395717894E+00    0.4545726401E+00    0.5651734256E-02    0.3698237236E-01
    0.3000000000E+05    0.6378378724E+00    0.1009330258E+00    0.5207324546E+00    0.3874092435E-02    0.3760644829E-01
    0.5000000000E+05    0.6396134711E+00    0.8492688489E-01    0.5470152840E+00    0.3179967102E-02    0.3774503595E-01
    0.7000000000E+05    0.6403556610E+00    0.7529882702E-01    0.5625917325E+00    0.2773615907E-02    0.3781139613E-01
    0.9000000000E+05    0.6407606655E+00    0.6861410278E-01    0.5733164047E+00    0.2496503336E-02    0.3785225552E-01
    0.1100000000E+06    0.6410145208E+00    0.6359328054E-01    0.5813269445E+00    0.2291143555E-02    0.3788082956E-01
    0.1300000000E+06    0.6411878601E+00    0.5962832468E-01    0.5876273394E+00    0.2130702342E-02    0.3790240421E-01
    0.1500000000E+06    0.6413133283E+00    0.5638597895E-01    0.5927634382E+00    0.2000669627E-02    0.3791954533E-01
    0.1700000000E+06    0.6414080721E+00    0.5366537077E-01    0.5970622901E+00    0.1892393861E-02    0.3793366503E-01
    0.1900000000E+06    0.6414819511E+00    0.5133685503E-01    0.6007339896E+00    0.1800341767E-02    0.3794561237E-01
    0.2100000000E+06    0.6415410318E+00    0.4931231671E-01    0.6039207897E+00    0.1720781842E-02    0.3795593269E-01
    0.2300000000E+06    0.6415892484E+00    0.4752938803E-01    0.6067230598E+00    0.1651090959E-02    0.3796499457E-01
    0.2500000000E+06    0.6416292624E+00    0.4594245707E-01    0.6092140072E+00    0.1589362390E-02    0.3797305748E-01
    0.2700000000E+06    0.6416629371E+00    0.4451725434E-01    0.6114485076E+00    0.1534171406E-02    0.3798031028E-01
    0.2900000000E+06    0.6416916157E+00    0.4322744311E-01    0.6134686485E+00    0.1484428536E-02    0.3798689424E-01
    0.3100000000E+06    0.6417162899E+00    0.4205238942E-01    0.6153073452E+00    0.1439284120E-02    0.3799291756E-01
    0.3300000000E+06    0.6417377079E+00    0.4097565660E-01    0.6169907754E+00    0.1398064191E-02    0.3799846477E-01
    0.3500000000E+06    0.6417564441E+00    0.3998396072E-01    0.6185400654E+00    0.1360226195E-02    0.3800360304E-01
    0.3700000000E+06    0.6417729469E+00    0.3906642843E-01    0.6199724850E+00    0.1325327658E-02    0.3800838660E-01
    0.3900000000E+06    0.6417875713E+00    0.3821405873E-01    0.6213023133E+00    0.1293003556E-02    0.3801285975E-01
    0.4100000000E+06    0.6418006016E+00    0.3741932518E-01    0.6225414771E+00    0.1262949653E-02    0.3801705919E-01
    0.4300000000E+06    0.6418122686E+00    0.3667587729E-01    0.6237000294E+00    0.1234910029E-02    0.3802101556E-01
    0.4500000000E+06    0.6418227610E+00    0.3597831290E-01    0.6247865144E+00    0.1208667609E-02    0.3802475474E-01
    0.4700000000E+06    0.6418322349E+00    0.3532200240E-01    0.6258082476E+00    0.1184036876E-02    0.3802829875E-01
    0.4900000000E+06    0.6418408203E+00    0.3470295142E-01    0.6267715361E+00    0.1160858183E-02    0.3803166650E-01
    0.1000000000E+06    0.6409007321E+00    0.6594279664E-01    0.5775829798E+00    0.2386941416E-02    0.3786765315E-01
    0.3000000000E+06    0.6417044019E+00    0.4262668322E-01    0.6144089060E+00    0.1461327167E-02    0.3798997023E-01
    0.5000000000E+06    0.6418448146E+00    0.3440629651E-01    0.6272330019E+00    0.1149769416E-02    0.3803328946E-01
    0.7000000000E+06    0.6418972009E+00    0.2978602843E-01    0.6344076431E+00    0.9786899965E-03    0.3805950287E-01
    0.9000000000E+06    0.6419220806E+00    0.2670772899E-01    0.6391749664E+00    0.8665063037E-03    0.3807826078E-01
    0.1100000000E+07    0.6419352508E+00    0.2446115618E-01    0.6426478008E+00    0.7856214840E-03    0.3809285430E-01
    0.1300000000E+07    0.6419425339E+00    0.2272498078E-01    0.6453279634E+00    0.7237240564E-03    0.3810479263E-01
    0.1500000000E+07    0.6419465328E+00    0.2132926638E-01    0.6474802284E+00    0.6743738233E-03    0.3811489161E-01
    0.1700000000E+07    0.6419485663E+00    0.2017437913E-01    0.6492595597E+00    0.6338286865E-03    0.3812364163E-01
    0.1900000000E+07    0.6419493636E+00    0.1919743690E-01    0.6507636230E+00    0.5997448811E-03    0.3813136026E-01
    0.2100000000E+07    0.6419493554E+00    0.1835648935E-01    0.6520574982E+00    0.5705692002E-03    0.3813826484E-01
    0.2300000000E+07    0.6419488088E+00    0.1762231062E-01    0.6531864805E+00    0.5452259289E-03    0.3814451062E-01
    0.2500000000E+07    0.6419478965E+00    0.1697381770E-01    0.6541832178E+00    0.5229431696E-03    0.3815021235E-01
    0.2700000000E+07    0.6419467333E+00    0.1639535975E-01    0.6550719280E+00    0.5031506587E-03    0.3815545720E-01
    0.2900000000E+07    0.6419453979E+00    0.1587503645E-01    0.6558710139E+00    0.4854166962E-03    0.3816031296E-01
    0.3100000000E+07    0.6419439450E+00    0.1540361301E-01    0.6565947475E+00    0.4694076361E-03    0.3816483338E-01
    0.3300000000E+07    0.6419424137E+00    0.1497379636E-01    0.6572543944E+00    0.4548609769E-03    0.3816906180E-01
    0.3500000000E+07    0.6419408319E+00    0.1457973840E-01    0.6578589837E+00    0.4415669655E-03    0.3817303368E-01
    0.3700000000E+07    0.6419392200E+00    0.1421668653E-01    0.6584158500E+00    0.4293557009E-03    0.3817677836E-01
    0.3900000000E+07    0.6419375930E+00    0.1388073236E-01    0.6589310226E+00    0.4180878956E-03    0.3818032046E-01
    0.4100000000E+07    0.6419359618E+00    0.1356862768E-01    0.6594095105E+00    0.4076481277E-03    0.3818368078E-01
    0.4300000000E+07    0.6419343347E+00    0.1327764726E-01    0.6598555148E+00    0.3979398260E-03    0.3818687707E-01
    0.4500000000E+07    0.6419327177E+00    0.1300548499E-01    0.6602725894E+00    0.3888814870E-03    0.3818992461E-01
    0.4700000000E+07    0.6419311152E+00    0.1275017428E-01    0.6606637641E+00    0.3804037803E-03    0.3819283665E-01
    0.4900000000E+07    0.6419295304E+00    0.1251002616E-01    0.6610316401E+00    0.3724473056E-03    0.3819562473E-01
    0.1000000000E+07    0.6419296511E+00    0.2550564377E-01    0.6410338632E+00    0.8231189741E-03    0.3808596054E-01
    0.3000000000E+07    0.6419446834E+00    0.1563370688E-01    0.6562415355E+00    0.4772143789E-03    0.3816261217E-01
    0.5000000000E+07    0.6419287454E+00    0.1239517403E-01    0.6612075556E+00    0.3686482426E-03    0.3819697550E-01
    0.7000000000E+07    0.6419142648E+00    0.1062529521E-01    0.6639165059E+00    0.3106342072E-03    0.3821939950E-01
    0.9000000000E+07    0.6419020285E+00    0.9465418238E-02    0.6656897936E+00    0.2731975225E-03    0.3823607699E-01
    0.1100000000E+08    0.6418915886E+00    0.8628447280E-02    0.6669683823E+00    0.2465004744E-03    0.3824936200E-01
    0.1300000000E+08    0.6418825288E+00    0.7987035732E-02    0.6679476285E+00    0.2262365077E-03    0.3826040506E-01
    0.1500000000E+08    0.6418745434E+00    0.7474778967E-02    0.6687293095E+00    0.2101830647E-03    0.3826985532E-01
    0.1700000000E+08    0.6418674117E+00    0.7053162068E-02    0.6693724154E+00    0.1970620134E-03    0.3827811528E-01
    0.1900000000E+08    0.6418609725E+00    0.6698086258E-02    0.6699138354E+00    0.1860794359E-03    0.3828545180E-01
    0.2100000000E+08    0.6418551052E+00    0.6393588999E-02    0.6703779928E+00    0.1767127952E-03    0.3829205097E-01
    0.2300000000E+08    0.6418497176E+00    0.6128616486E-02    0.6707817933E+00    0.1686022841E-03    0.3829804772E-01
    0.2500000000E+08    0.6418447380E+00    0.5895236042E-02    0.6711373649E+00    0.1614910011E-03    0.3830354302E-01
    0.2700000000E+08    0.6418401094E+00    0.5687585548E-02    0.6714536670E+00    0.1551899770E-03    0.3830861440E-01
