  Pressure (Pa) 22mC5-400 (mol/kg) 2mC6-400 (mol/kg) 3mC6-400 (mol/kg) 33mC5-400 (mol/kg) 23mC5-400 (mol/kg)
    0.1000000000E+01    0.3174478421E-02    0.1592677990E-02    0.2647779232E-02    0.1945077483E-03    0.3716029523E-03
    0.3000000000E+01    0.9393406568E-02    0.4691621519E-02    0.7848452179E-02    0.5729431297E-03    0.1099599850E-02
    0.5000000000E+01    0.1544558823E-01    0.7679894882E-02    0.1292653900E-01    0.9378263710E-03    0.1808092841E-02
    0.7000000000E+01    0.2133854519E-01    0.1056266669E-01    0.1788654846E-01    0.1289788132E-02    0.2497961557E-02
    0.9000000000E+01    0.2707934294E-01    0.1334479905E-01    0.2273276828E-01    0.1629421749E-02    0.3170032280E-02
    0.1100000000E+02    0.3267462467E-01    0.1603086964E-01    0.2746927862E-01    0.1957285932E-02    0.3825081908E-02
    0.1300000000E+02    0.3813064228E-01    0.1862519201E-01    0.3209996448E-01    0.2273907218E-02    0.4463841585E-02
    0.1500000000E+02    0.4345328467E-01    0.2113183408E-01    0.3662852732E-01    0.2579782233E-02    0.5087000007E-02
    0.1700000000E+02    0.4864810367E-01    0.2355463518E-01    0.4105849579E-01    0.2875379764E-02    0.5695206456E-02
    0.1900000000E+02    0.5372033782E-01    0.2589722166E-01    0.4539323575E-01    0.3161142653E-02    0.6289073577E-02
    0.2100000000E+02    0.5867493406E-01    0.2816302128E-01    0.4963595960E-01    0.3437489552E-02    0.6869179918E-02
    0.2300000000E+02    0.6351656780E-01    0.3035527640E-01    0.5378973491E-01    0.3704816529E-02    0.7436072275E-02
    0.2500000000E+02    0.6824966126E-01    0.3247705623E-01    0.5785749261E-01    0.3963498555E-02    0.7990267836E-02
    0.2700000000E+02    0.7287840041E-01    0.3453126803E-01    0.6184203449E-01    0.4213890868E-02    0.8532256160E-02
    0.2900000000E+02    0.7740675052E-01    0.3652066753E-01    0.6574604027E-01    0.4456330242E-02    0.9062501002E-02
    0.3100000000E+02    0.8183847058E-01    0.3844786851E-01    0.6957207423E-01    0.4691136152E-02    0.9581441990E-02
    0.3300000000E+02    0.8617712653E-01    0.4031535171E-01    0.7332259136E-01    0.4918611858E-02    0.1008949618E-01
    0.3500000000E+02    0.9042610356E-01    0.4212547303E-01    0.7699994320E-01    0.5139045406E-02    0.1058705949E-01
    0.3700000000E+02    0.9458861740E-01    0.4388047122E-01    0.8060638318E-01    0.5352710557E-02    0.1107450801E-01
    0.3900000000E+02    0.9866772491E-01    0.4558247490E-01    0.8414407178E-01    0.5559867650E-02    0.1155219928E-01
    0.4100000000E+02    0.1026663337E+00    0.4723350917E-01    0.8761508126E-01    0.5760764401E-02    0.1202047335E-01
    0.4300000000E+02    0.1065872114E+00    0.4883550174E-01    0.9102140016E-01    0.5955636650E-02    0.1247965392E-01
    0.4500000000E+02    0.1104329936E+00    0.5039028860E-01    0.9436493749E-01    0.6144709051E-02    0.1293004926E-01
    0.4700000000E+02    0.1142061922E+00    0.5189961932E-01    0.9764752669E-01    0.6328195720E-02    0.1337195314E-01
    0.4900000000E+02    0.1179092023E+00    0.5336516199E-01    0.1008709294E+00    0.6506300836E-02    0.1380564570E-01
    0.1000000000E+02    0.2989477373E-01    0.1469956650E-01    0.2511448989E-01    0.1794791385E-02    0.3499638002E-02
    0.3000000000E+02    0.7963446206E-01    0.3749188477E-01    0.6766864780E-01    0.4574668058E-02    0.9323357900E-02
    0.5000000000E+02    0.1197351048E+00    0.5408201295E-01    0.1024609675E+00    0.6593396538E-02    0.1401949674E-01
    0.7000000000E+02    0.1530715673E+00    0.6647036253E-01    0.1315333226E+00    0.8095667214E-02    0.1792429136E-01
    0.9000000000E+02    0.1814405387E+00    0.7590471724E-01    0.1562614694E+00    0.9234360902E-02    0.2124788928E-01
    0.1100000000E+03    0.2060256296E+00    0.8319996734E-01    0.1776071868E+00    0.1010949005E-01    0.2412873678E-01
    0.1300000000E+03    0.2276410417E+00    0.8890838950E-01    0.1962637745E+00    0.1078895322E-01    0.2666207475E-01
    0.1500000000E+03    0.2468675155E+00    0.9341588121E-01    0.2127441025E+00    0.1132027481E-01    0.2891583793E-01
    0.1700000000E+03    0.2641322171E+00    0.9699906359E-01    0.2274360646E+00    0.1173757800E-01    0.3093999792E-01
    0.1900000000E+03    0.2797577700E+00    0.9986057285E-01    0.2406387124E+00    0.1206589879E-01    0.3277229803E-01
    0.2100000000E+03    0.2939934913E+00    0.1021516378E+00    0.2525865009E+00    0.1232394912E-01    0.3444190667E-01
    0.2300000000E+03    0.3070359415E+00    0.1039869588E+00    0.2634659781E+00    0.1252594003E-01    0.3597182102E-01
    0.2500000000E+03    0.3190428319E+00    0.1054547685E+00    0.2734275358E+00    0.1268281606E-01    0.3738049371E-01
    0.2700000000E+03    0.3301426730E+00    0.1066237900E+00    0.2825938489E+00    0.1280311008E-01    0.3868296145E-01
    0.2900000000E+03    0.3404416211E+00    0.1075481459E+00    0.2910660459E+00    0.1289354730E-01    0.3989164589E-01
    0.3100000000E+03    0.3500284340E+00    0.1082708833E+00    0.2989282931E+00    0.1295947957E-01    0.4101693330E-01
    0.3300000000E+03    0.3589781245E+00    0.1088265449E+00    0.3062512504E+00    0.1300520268E-01    0.4206760192E-01
    0.3500000000E+03    0.3673546985E+00    0.1092430726E+00    0.3130947097E+00    0.1303419150E-01    0.4305114233E-01
    0.3700000000E+03    0.3752132393E+00    0.1095432324E+00    0.3195096356E+00    0.1304927653E-01    0.4397400119E-01
    0.3900000000E+03    0.3826015148E+00    0.1097456971E+00    0.3255397587E+00    0.1305277790E-01    0.4484176933E-01
    0.4100000000E+03    0.3895612353E+00    0.1098658740E+00    0.3312228343E+00    0.1304660825E-01    0.4565932877E-01
    0.4300000000E+03    0.3961290466E+00    0.1099165466E+00    0.3365916451E+00    0.1303235249E-01    0.4643096906E-01
    0.4500000000E+03    0.4023373256E+00    0.1099083753E+00    0.3416748067E+00    0.1301133011E-01    0.4716048022E-01
    0.4700000000E+03    0.4082148225E+00    0.1098502914E+00    0.3464974207E+00    0.1298464433E-01    0.4785122790E-01
    0.4900000000E+03    0.4137871841E+00    0.1097498099E+00    0.3510816071E+00    0.1295322113E-01    0.4850621463E-01
    0.1000000000E+03    0.1941484769E+00    0.7978043592E-01    0.1673087429E+00    0.9700042750E-02    0.2273692009E-01
    0.3000000000E+03    0.3453190699E+00    0.1079323837E+00    0.2950687147E+00    0.1292928641E-01    0.4046413209E-01
    0.5000000000E+03    0.4164662128E+00    0.1096856936E+00    0.3532904966E+00    0.1293598171E-01    0.4882114922E-01
    0.7000000000E+03    0.4585228543E+00    0.1072876773E+00    0.3886951657E+00    0.1247787423E-01    0.5376879915E-01
    0.9000000000E+03    0.4861546583E+00    0.1041441367E+00    0.4133354311E+00    0.1196733854E-01    0.5702447348E-01
    0.1100000000E+04    0.5055728631E+00    0.1010175456E+00    0.4318735809E+00    0.1148848865E-01    0.5931595468E-01
    0.1300000000E+04    0.5198944292E+00    0.9809472664E-01    0.4465433285E+00    0.1105647654E-01    0.6100867000E-01
    0.1500000000E+04    0.5308528673E+00    0.9540884144E-01    0.4585690051E+00    0.1066969058E-01    0.6230596519E-01
    0.1700000000E+04    0.5394850241E+00    0.9294891147E-01    0.4686870291E+00    0.1032273225E-01    0.6332953111E-01
    0.1900000000E+04    0.5464465513E+00    0.9069242469E-01    0.4773715651E+00    0.1000994153E-01    0.6415636040E-01
    0.2100000000E+04    0.5521709131E+00    0.8861567409E-01    0.4849442384E+00    0.9726311672E-02    0.6483738162E-01
    0.2300000000E+04    0.5569553578E+00    0.8669694706E-01    0.4916323598E+00    0.9467636596E-02    0.6540753768E-01
    0.2500000000E+04    0.5610100730E+00    0.8491728854E-01    0.4976020148E+00    0.9230439510E-02    0.6589155039E-01
    0.2700000000E+04    0.5644876196E+00    0.8326044118E-01    0.5029779312E+00    0.9011853500E-02    0.6630737326E-01
    0.2900000000E+04    0.5675012538E+00    0.8171253434E-01    0.5078559606E+00    0.8809506509E-02    0.6666834157E-01
    0.3100000000E+04    0.5701367193E+00    0.8026172845E-01    0.5123112214E+00    0.8621424222E-02    0.6698455667E-01
    0.3300000000E+04    0.5724600603E+00    0.7889788555E-01    0.5164035857E+00    0.8445951906E-02    0.6726380338E-01
    0.3500000000E+04    0.5745229302E+00    0.7761228627E-01    0.5201814801E+00    0.8281692633E-02    0.6751217357E-01
    0.3700000000E+04    0.5763662816E+00    0.7639739393E-01    0.5236845813E+00    0.8127458686E-02    0.6773449975E-01
    0.3900000000E+04    0.5780229819E+00    0.7524666076E-01    0.5269457706E+00    0.7982233309E-02    0.6793466251E-01
    0.4100000000E+04    0.5795197023E+00    0.7415436929E-01    0.5299925755E+00    0.7845140444E-02    0.6811581259E-01
    0.4300000000E+04    0.5808783026E+00    0.7311550254E-01    0.5328482529E+00    0.7715420663E-02    0.6828053385E-01
    0.4500000000E+04    0.5821168634E+00    0.7212563760E-01    0.5355326134E+00    0.7592411887E-02    0.6843096457E-01
    0.4700000000E+04    0.5832504638E+00    0.7118085790E-01    0.5380626584E+00    0.7475533832E-02    0.6856888914E-01
    0.4900000000E+04    0.5842917764E+00    0.7027768071E-01    0.5404530774E+00    0.7364275380E-02    0.6869580795E-01
    0.1000000000E+04    0.4966508992E+00    0.1025611163E+00    0.4231943504E+00    0.1172233084E-01    0.5826265693E-01
    0.3000000000E+04    0.5688617400E+00    0.8097566373E-01    0.5101323888E+00    0.8713792392E-02    0.6683151086E-01
    0.5000000000E+04    0.5847812421E+00    0.6984070826E-01    0.5415999841E+00    0.7310610112E-02    0.6875554500E-01
    0.7000000000E+04    0.5916287971E+00    0.6268108925E-01    0.5595835770E+00    0.6445740562E-02    0.6959820482E-01
    0.9000000000E+04    0.5954182850E+00    0.5753360395E-01    0.5716962594E+00    0.5839608181E-02    0.7007294552E-01
    0.1100000000E+05    0.5978181848E+00    0.5358224142E-01    0.5806036605E+00    0.5382595291E-02    0.7037896624E-01
    0.1300000000E+05    0.5994718881E+00    0.5041482470E-01    0.5875260645E+00    0.5021239857E-02    0.7059355900E-01
    0.1500000000E+05    0.6006793217E+00    0.4779623114E-01    0.5931149340E+00    0.4725776294E-02    0.7075297636E-01
    0.1700000000E+05    0.6015989222E+00    0.4558063575E-01    0.5977551512E+00    0.4478077220E-02    0.7087648593E-01
    0.1900000000E+05    0.6023221859E+00    0.4367187570E-01    0.6016911630E+00    0.4266360008E-02    0.7097528239E-01
    0.2100000000E+05    0.6029056104E+00    0.4200348336E-01    0.6050869089E+00    0.4082576534E-02    0.7105632014E-01
    0.2300000000E+05    0.6033859515E+00    0.4052777115E-01    0.6080571145E+00    0.3921010175E-02    0.7112415089E-01
    0.2500000000E+05    0.6037881453E+00    0.3920947218E-01    0.6106848596E+00    0.3777469626E-02    0.7118188116E-01
    0.2700000000E+05    0.6041297006E+00    0.3802184075E-01    0.6130320244E+00    0.3648800273E-02    0.7123170531E-01
    0.2900000000E+05    0.6044232703E+00    0.3694415829E-01    0.6151457980E+00    0.3532574798E-02    0.7127521850E-01
    0.3100000000E+05    0.6046782234E+00    0.3596008110E-01    0.6170628943E+00    0.3426889984E-02    0.7131360897E-01
    0.3300000000E+05    0.6049016445E+00    0.3505651236E-01    0.6188123742E+00    0.3330229063E-02    0.7134778054E-01
    0.3500000000E+05    0.6050989894E+00    0.3422281198E-01    0.6204175887E+00    0.3241365949E-02    0.7137843332E-01
    0.3700000000E+05    0.6052745269E+00    0.3345023034E-01    0.6218975495E+00    0.3159297054E-02    0.7140611834E-01
    0.3900000000E+05    0.6054316450E+00    0.3273149456E-01    0.6232679173E+00    0.3083191731E-02    0.7143127548E-01
    0.4100000000E+05    0.6055730663E+00    0.3206050079E-01    0.6245417271E+00    0.3012355616E-02    0.7145426028E-01
    0.4300000000E+05    0.6057010035E+00    0.3143208166E-01    0.6257299306E+00    0.2946203065E-02    0.7147536339E-01
    0.4500000000E+05    0.6058172736E+00    0.3084182821E-01    0.6268418066E+00    0.2884236122E-02    0.7149482485E-01
    0.4700000000E+05    0.6059233821E+00    0.3028595160E-01    0.6278852770E+00    0.2826028282E-02    0.7151284470E-01
    0.4900000000E+05    0.6060205871E+00    0.2976117467E-01    0.6288671526E+00    0.2771211775E-02    0.7152959104E-01
    0.1000000000E+05    0.5967396531E+00    0.5543991135E-01    0.5764553185E+00    0.5596580558E-02    0.7024077539E-01
    0.3000000000E+05    0.6045550865E+00    0.3644130311E-01    0.6161269613E+00    0.3478517379E-02    0.7129499203E-01
    0.5000000000E+05    0.6060661885E+00    0.2950954283E-01    0.6293368654E+00    0.2744973891E-02    0.7153753202E-01
    0.7000000000E+05    0.6066974433E+00    0.2557869669E-01    0.6365844268E+00    0.2339151375E-02    0.7165483959E-01
    0.9000000000E+05    0.6070398583E+00    0.2294904809E-01    0.6413419039E+00    0.2072124868E-02    0.7172741453E-01
    0.1100000000E+06    0.6072527004E+00    0.2102551944E-01    0.6447777100E+00    0.1879229309E-02    0.7177830778E-01
    0.1300000000E+06    0.6073966268E+00    0.1953686966E-01    0.6474118517E+00    0.1731439271E-02    0.7181680179E-01
    0.1500000000E+06    0.6074996935E+00    0.1833899219E-01    0.6495160384E+00    0.1613514010E-02    0.7184742191E-01
    0.1700000000E+06    0.6075766294E+00    0.1734713487E-01    0.6512480747E+00    0.1516575220E-02    0.7187266622E-01
    0.1900000000E+06    0.6076358928E+00    0.1650768864E-01    0.6527067915E+00    0.1435052018E-02    0.7189404013E-01
    0.2100000000E+06    0.6076826785E+00    0.1578482980E-01    0.6539576964E+00    0.1365247538E-02    0.7191251214E-01
    0.2300000000E+06    0.6077203481E+00    0.1515356858E-01    0.6550461748E+00    0.1304598709E-02    0.7192873778E-01
    0.2500000000E+06    0.6077511698E+00    0.1459585940E-01    0.6560048094E+00    0.1251264822E-02    0.7194317903E-01
    0.2700000000E+06    0.6077767273E+00    0.1409829517E-01    0.6568576850E+00    0.1203885079E-02    0.7195617240E-01
    0.2900000000E+06    0.6077981589E+00    0.1365067473E-01    0.6576230452E+00    0.1161428766E-02    0.7196796985E-01
    0.3100000000E+06    0.6078163024E+00    0.1324507742E-01    0.6583149992E+00    0.1123098916E-02    0.7197876446E-01
    0.3300000000E+06    0.6078317879E+00    0.1287524502E-01    0.6589446549E+00    0.1088268261E-02    0.7198870714E-01
    0.3500000000E+06    0.6078450975E+00    0.1253615721E-01    0.6595208944E+00    0.1056435420E-02    0.7199791789E-01
    0.3700000000E+06    0.6078566062E+00    0.1222373270E-01    0.6600509170E+00    0.1027194158E-02    0.7200649360E-01
    0.3900000000E+06    0.6078666100E+00    0.1193461419E-01    0.6605406292E+00    0.1000211360E-02    0.7201451350E-01
    0.4100000000E+06    0.6078753449E+00    0.1166601075E-01    0.6609949288E+00    0.9752109304E-03    0.7202204316E-01
    0.4300000000E+06    0.6078830017E+00    0.1141558024E-01    0.6614179166E+00    0.9519618238E-03    0.7202913743E-01
    0.4500000000E+06    0.6078897361E+00    0.1118134039E-01    0.6618130561E+00    0.9302690149E-03    0.7203584261E-01
    0.4700000000E+06    0.6078956763E+00    0.1096160042E-01    0.6621832954E+00    0.9099665833E-03    0.7204219810E-01
    0.4900000000E+06    0.6079009284E+00    0.1075490808E-01    0.6625311622E+00    0.8909123570E-03    0.7204823773E-01
    0.1000000000E+06    0.6071575358E+00    0.2192023094E-01    0.6431841367E+00    0.1968688751E-02    0.7175482594E-01
    0.3000000000E+06    0.6078075982E+00    0.1344304757E-01    0.6579774439E+00    0.1141790624E-02    0.7197348224E-01
    0.5000000000E+06    0.6079033249E+00    0.1065605568E-01    0.6626973994E+00    0.8818143333E-03    0.7205114838E-01
    0.7000000000E+06    0.6079306112E+00    0.9132734501E-02    0.6652482568E+00    0.7428864602E-03    0.7209816532E-01
    0.9000000000E+06    0.6079382543E+00    0.8134516787E-02    0.6669087501E+00    0.6532467383E-03    0.7213181367E-01
    0.1100000000E+07    0.6079383636E+00    0.7414286435E-02    0.6681013751E+00    0.5893315447E-03    0.7215799263E-01
    0.1300000000E+07    0.6079351572E+00    0.6862406880E-02    0.6690121254E+00    0.5408243863E-03    0.7217940855E-01
    0.1500000000E+07    0.6079304028E+00    0.6421705065E-02    0.6697374578E+00    0.5024010324E-03    0.7219752472E-01
    0.1700000000E+07    0.6079249312E+00    0.6059020689E-02    0.6703330816E+00    0.4709997963E-03    0.7221322082E-01
    0.1900000000E+07    0.6079191630E+00    0.5753606171E-02    0.6708337348E+00    0.4447190163E-03    0.7222706653E-01
    0.2100000000E+07    0.6079133212E+00    0.5491719468E-02    0.6712623619E+00    0.4223071552E-03    0.7223945180E-01
    0.2300000000E+07    0.6079075274E+00    0.5263845001E-02    0.6716348128E+00    0.4029024953E-03    0.7225065515E-01
    0.2500000000E+07    0.6079018475E+00    0.5063154416E-02    0.6719624383E+00    0.3858898170E-03    0.7226088243E-01
    0.2700000000E+07    0.6078963166E+00    0.4884601988E-02    0.6722536110E+00    0.3708166146E-03    0.7227029005E-01
    0.2900000000E+07    0.6078909515E+00    0.4724366731E-02    0.6725146610E+00    0.3573416725E-03    0.7227899964E-01
    0.3100000000E+07    0.6078857589E+00    0.4579494282E-02    0.6727504760E+00    0.3452021988E-03    0.7228710763E-01
    0.3300000000E+07    0.6078807387E+00    0.4447659109E-02    0.6729648982E+00    0.3341920890E-03    0.7229469178E-01
    0.3500000000E+07    0.6078758877E+00    0.4327001973E-02    0.6731609961E+00    0.3241471252E-03    0.7230181569E-01
    0.3700000000E+07    0.6078712002E+00    0.4216016014E-02    0.6733412536E+00    0.3149346376E-03    0.7230853204E-01
    0.3900000000E+07    0.6078666695E+00    0.4113465136E-02    0.6735077067E+00    0.3064461224E-03    0.7231488495E-01
    0.4100000000E+07    0.6078622886E+00    0.4018324391E-02    0.6736620418E+00    0.2985918655E-03    0.7232091176E-01
    0.4300000000E+07    0.6078580500E+00    0.3929735681E-02    0.6738056698E+00    0.2912969591E-03    0.7232664433E-01
    0.4500000000E+07    0.6078539467E+00    0.3846974324E-02    0.6739397810E+00    0.2844983035E-03    0.7233211006E-01
    0.4700000000E+07    0.6078499716E+00    0.3769423464E-02    0.6740653882E+00    0.2781423188E-03    0.7233733271E-01
    0.4900000000E+07    0.6078461181E+00    0.3696554254E-02    0.6741833588E+00    0.2721831758E-03    0.7234233300E-01
    0.1000000000E+07    0.6079388988E+00    0.7748277524E-02    0.6675488903E+00    0.6188876243E-03    0.7214562605E-01
    0.3000000000E+07    0.6078883335E+00    0.4650168047E-02    0.6726354619E+00    0.3511190123E-03    0.7228312360E-01
    0.5000000000E+07    0.6078442349E+00    0.3661730170E-02    0.6742397183E+00    0.2693398711E-03    0.7234475552E-01
    0.7000000000E+07    0.6078116030E+00    0.3127208427E-02    0.6751032684E+00    0.2260876173E-03    0.7238497001E-01
    0.9000000000E+07    0.6077859491E+00    0.2779060521E-02    0.6756641409E+00    0.1983437381E-03    0.7241487688E-01
    0.1100000000E+08    0.6077648604E+00    0.2528884335E-02    0.6760663784E+00    0.1786394477E-03    0.7243869895E-01
    0.1300000000E+08    0.6077469710E+00    0.2337754075E-02    0.6763732137E+00    0.1637282752E-03    0.7245850001E-01
    0.1500000000E+08    0.6077314432E+00    0.2185477364E-02    0.6766173759E+00    0.1519431516E-03    0.7247544445E-01
    0.1700000000E+08    0.6077177284E+00    0.2060388965E-02    0.6768177402E+00    0.1423290553E-03    0.7249025420E-01
    0.1900000000E+08    0.6077054485E+00    0.1955213044E-02    0.6769860631E+00    0.1342945806E-03    0.7250340791E-01
    0.2100000000E+08    0.6076943322E+00    0.1865142808E-02    0.6771301024E+00    0.1274514583E-03    0.7251523933E-01
    0.2300000000E+08    0.6076841784E+00    0.1786856961E-02    0.6772552131E+00    0.1215329026E-03    0.7252599044E-01
    0.2500000000E+08    0.6076748339E+00    0.1717976513E-02    0.6773652274E+00    0.1163487767E-03    0.7253584234E-01
    0.2700000000E+08    0.6076661793E+00    0.1656746330E-02    0.6774629704E+00    0.1117594443E-03    0.7254493407E-01
