  Pressure (Pa) 22mC5-400 (mol/kg) 2mC6-400 (mol/kg) 3mC6-400 (mol/kg) 33mC5-400 (mol/kg) 23mC5-400 (mol/kg)
    0.1000000000E+01    0.3172748271E-02    0.1596198525E-02    0.5312098072E-03    0.1949303257E-03    0.7428012118E-03
    0.3000000000E+01    0.9378306178E-02    0.4722777202E-02    0.1584302126E-02    0.5766822187E-03    0.2195667605E-02
    0.5000000000E+01    0.1540488938E-01    0.7765001735E-02    0.2625157018E-02    0.9480386911E-03    0.3606665856E-02
    0.7000000000E+01    0.2126110577E-01    0.1072672367E-01    0.3654007817E-02    0.1309470912E-02    0.4977809244E-02
    0.9000000000E+01    0.2695500746E-01    0.1361154797E-01    0.4671081839E-02    0.1661420037E-02    0.6310981062E-02
    0.1100000000E+02    0.3249413470E-01    0.1642285280E-01    0.5676600575E-02    0.2004299613E-02    0.7607944909E-02
    0.1300000000E+02    0.3788555586E-01    0.1916380746E-01    0.6670779879E-02    0.2338497757E-02    0.8870354021E-02
    0.1500000000E+02    0.4313590365E-01    0.2183738866E-01    0.7653830144E-02    0.2664379132E-02    0.1009975975E-01
    0.1700000000E+02    0.4825140811E-01    0.2444639524E-01    0.8625956480E-02    0.2982286734E-02    0.1129761927E-01
    0.1900000000E+02    0.5323792666E-01    0.2699346163E-01    0.9587358878E-02    0.3292543531E-02    0.1246530263E-01
    0.2100000000E+02    0.5810097155E-01    0.2948107001E-01    0.1053823237E-01    0.3595453939E-02    0.1360409913E-01
    0.2300000000E+02    0.6284573486E-01    0.3191156151E-01    0.1147876717E-01    0.3891305183E-02    0.1471522321E-01
    0.2500000000E+02    0.6747711146E-01    0.3428714636E-01    0.1240914887E-01    0.4180368526E-02    0.1579981979E-01
    0.2700000000E+02    0.7199971994E-01    0.3660991317E-01    0.1332955850E-01    0.4462900405E-02    0.1685896917E-01
    0.2900000000E+02    0.7641792190E-01    0.3888183748E-01    0.1424017276E-01    0.4739143464E-02    0.1789369155E-01
    0.3100000000E+02    0.8073583958E-01    0.4110478953E-01    0.1514116407E-01    0.5009327501E-02    0.1890495117E-01
    0.3300000000E+02    0.8495737211E-01    0.4328054142E-01    0.1603270075E-01    0.5273670339E-02    0.1989366005E-01
    0.3500000000E+02    0.8908621044E-01    0.4541077372E-01    0.1691494713E-01    0.5532378630E-02    0.2086068155E-01
    0.3700000000E+02    0.9312585111E-01    0.4749708151E-01    0.1778806365E-01    0.5785648584E-02    0.2180683355E-01
    0.3900000000E+02    0.9707960891E-01    0.4954097994E-01    0.1865220701E-01    0.6033666650E-02    0.2273289142E-01
    0.4100000000E+02    0.1009506286E+00    0.5154390935E-01    0.1950753025E-01    0.6276610145E-02    0.2363959077E-01
    0.4300000000E+02    0.1047418959E+00    0.5350724008E-01    0.2035418287E-01    0.6514647823E-02    0.2452762999E-01
    0.4500000000E+02    0.1084562470E+00    0.5543227676E-01    0.2119231092E-01    0.6747940414E-02    0.2539767254E-01
    0.4700000000E+02    0.1120963784E+00    0.5732026245E-01    0.2202205713E-01    0.6976641114E-02    0.2625034919E-01
    0.4900000000E+02    0.1156648554E+00    0.5917238232E-01    0.2284356095E-01    0.7200896044E-02    0.2708625997E-01
    0.1000000000E+02    0.2974346549E-01    0.1502618754E-01    0.5175271997E-02    0.1833968689E-02    0.6963883171E-02
    0.3000000000E+02    0.7858916753E-01    0.3999932206E-01    0.1469186067E-01    0.4874978975E-02    0.1840219602E-01
    0.5000000000E+02    0.1174229911E+00    0.6008534799E-01    0.2325126470E-01    0.7311400177E-02    0.2749810773E-01
    0.7000000000E+02    0.1493590945E+00    0.7671093128E-01    0.3100426473E-01    0.9318843216E-02    0.3498006292E-01
    0.9000000000E+02    0.1762987468E+00    0.9076751646E-01    0.3807094806E-01    0.1100744744E-01    0.4129282086E-01
    0.1100000000E+03    0.1994722555E+00    0.1028474964E+00    0.4454819460E-01    0.1245065337E-01    0.4672419944E-01
    0.1300000000E+03    0.2197143421E+00    0.1133639625E+00    0.5051506674E-01    0.1369982392E-01    0.5146948281E-01
    0.1500000000E+03    0.2376140418E+00    0.1226162106E+00    0.5603675842E-01    0.1479226290E-01    0.5566648284E-01
    0.1700000000E+03    0.2536010230E+00    0.1308278814E+00    0.6116753448E-01    0.1575589688E-01    0.5941573015E-01
    0.1900000000E+03    0.2679976871E+00    0.1381703529E+00    0.6595294984E-01    0.1661215516E-01    0.6279266122E-01
    0.2100000000E+03    0.2810518962E+00    0.1447777309E+00    0.7043154661E-01    0.1737782077E-01    0.6585527431E-01
    0.2300000000E+03    0.2929582552E+00    0.1507568176E+00    0.7463616757E-01    0.1806626493E-01    0.6864910791E-01
    0.2500000000E+03    0.3038723729E+00    0.1561939544E+00    0.7859498353E-01    0.1868829701E-01    0.7121057702E-01
    0.2700000000E+03    0.3139206780E+00    0.1611598500E+00    0.8233230511E-01    0.1925276550E-01    0.7356926956E-01
    0.2900000000E+03    0.3232073379E+00    0.1657130657E+00    0.8586923001E-01    0.1976699330E-01    0.7574956488E-01
    0.3100000000E+03    0.3318192397E+00    0.1699025862E+00    0.8922416353E-01    0.2023709921E-01    0.7777179920E-01
    0.3300000000E+03    0.3398296473E+00    0.1737697475E+00    0.9241324044E-01    0.2066823973E-01    0.7965312109E-01
    0.3500000000E+03    0.3473009327E+00    0.1773497082E+00    0.9545066944E-01    0.2106479373E-01    0.8140813061E-01
    0.3700000000E+03    0.3542866503E+00    0.1806725855E+00    0.9834901639E-01    0.2143050547E-01    0.8304936444E-01
    0.3900000000E+03    0.3608331334E+00    0.1837643457E+00    0.1011194386E+00    0.2176859672E-01    0.8458766953E-01
    0.4100000000E+03    0.3669807411E+00    0.1866475086E+00    0.1037718798E+00    0.2208185556E-01    0.8603249485E-01
    0.4300000000E+03    0.3727648442E+00    0.1893417113E+00    0.1063152337E+00    0.2237270754E-01    0.8739212189E-01
    0.4500000000E+03    0.3782166116E+00    0.1918641622E+00    0.1087574808E+00    0.2264327308E-01    0.8867384890E-01
    0.4700000000E+03    0.3833636471E+00    0.1942300117E+00    0.1111058052E+00    0.2289541423E-01    0.8988413970E-01
    0.4900000000E+03    0.3882305077E+00    0.1964526553E+00    0.1133666931E+00    0.2313077303E-01    0.9102874500E-01
    0.1000000000E+03    0.1882969964E+00    0.9702550665E-01    0.4137794400E-01    0.1175611316E-01    0.4410481585E-01
    0.3000000000E+03    0.3275927711E+00    0.1678505442E+00    0.8756838843E-01    0.2000721905E-01    0.7677930154E-01
    0.5000000000E+03    0.3905658197E+00    0.1975140439E+00    0.1144662055E+00    0.2324261993E-01    0.9157804259E-01
    0.7000000000E+03    0.4268304776E+00    0.2135086577E+00    0.1330347079E+00    0.2487626755E-01    0.1001150784E+00
    0.9000000000E+03    0.4502420711E+00    0.2231941508E+00    0.1471095389E+00    0.2579887295E-01    0.1056359686E+00
    0.1100000000E+04    0.4664979563E+00    0.2294466770E+00    0.1584186788E+00    0.2634801682E-01    0.1094761727E+00
    0.1300000000E+04    0.4783865821E+00    0.2336334591E+00    0.1678704344E+00    0.2667963034E-01    0.1122897137E+00
    0.1500000000E+04    0.4874284723E+00    0.2364896171E+00    0.1759950522E+00    0.2687542282E-01    0.1144334443E+00
    0.1700000000E+04    0.4945192859E+00    0.2384455214E+00    0.1831265837E+00    0.2698213185E-01    0.1161176942E+00
    0.1900000000E+04    0.5002187045E+00    0.2397693897E+00    0.1894880252E+00    0.2702826723E-01    0.1174739739E+00
    0.2100000000E+04    0.5048933110E+00    0.2406366003E+00    0.1952351683E+00    0.2703209529E-01    0.1185884722E+00
    0.2300000000E+04    0.5087926365E+00    0.2411662744E+00    0.2004809180E+00    0.2700578028E-01    0.1195198930E+00
    0.2500000000E+04    0.5120920831E+00    0.2414418628E+00    0.2053096051E+00    0.2695767850E-01    0.1203095254E+00
    0.2700000000E+04    0.5149183511E+00    0.2415233446E+00    0.2097858266E+00    0.2689367813E-01    0.1209872127E+00
    0.2900000000E+04    0.5173651283E+00    0.2414547674E+00    0.2139601333E+00    0.2681801655E-01    0.1215750356E+00
    0.3100000000E+04    0.5195031129E+00    0.2412690790E+00    0.2178728174E+00    0.2673379720E-01    0.1220896669E+00
    0.3300000000E+04    0.5213866125E+00    0.2409913161E+00    0.2215565092E+00    0.2664332690E-01    0.1225439217E+00
    0.3500000000E+04    0.5230580046E+00    0.2406407665E+00    0.2250380041E+00    0.2654834172E-01    0.1229478062E+00
    0.3700000000E+04    0.5245508229E+00    0.2402324674E+00    0.2283395781E+00    0.2645016181E-01    0.1233092434E+00
    0.3900000000E+04    0.5258919367E+00    0.2397782655E+00    0.2314799524E+00    0.2634979976E-01    0.1236345857E+00
    0.4100000000E+04    0.5271031194E+00    0.2392875805E+00    0.2344750145E+00    0.2624803764E-01    0.1239289837E+00
    0.4300000000E+04    0.5282021953E+00    0.2387679628E+00    0.2373383651E+00    0.2614548288E-01    0.1241966567E+00
    0.4500000000E+04    0.5292038918E+00    0.2382255083E+00    0.2400817397E+00    0.2604260908E-01    0.1244410932E+00
    0.4700000000E+04    0.5301204807E+00    0.2376651694E+00    0.2427153369E+00    0.2593978652E-01    0.1246652016E+00
    0.4900000000E+04    0.5309622671E+00    0.2370909917E+00    0.2452480774E+00    0.2583730493E-01    0.1248714261E+00
    0.1000000000E+04    0.4590488226E+00    0.2266432339E+00    0.1530409526E+00    0.2610791223E-01    0.1077155841E+00
    0.3000000000E+04    0.5184690018E+00    0.2413748412E+00    0.2159469836E+00    0.2677681682E-01    0.1218406231E+00
    0.5000000000E+04    0.5313578866E+00    0.2367997754E+00    0.2464791165E+00    0.2578626490E-01    0.1249684908E+00
    0.7000000000E+04    0.5368884695E+00    0.2308014393E+00    0.2672982319E+00    0.2481716238E-01    0.1263380359E+00
    0.9000000000E+04    0.5399451553E+00    0.2250632519E+00    0.2832473233E+00    0.2396700325E-01    0.1271102408E+00
    0.1100000000E+05    0.5418785500E+00    0.2198253544E+00    0.2962236602E+00    0.2322561828E-01    0.1276084288E+00
    0.1300000000E+05    0.5432089953E+00    0.2150778168E+00    0.3071803519E+00    0.2257338044E-01    0.1279580329E+00
    0.1500000000E+05    0.5441789783E+00    0.2107633736E+00    0.3166686124E+00    0.2199339067E-01    0.1282179087E+00
    0.1700000000E+05    0.5449165714E+00    0.2068220474E+00    0.3250378196E+00    0.2147246440E-01    0.1284193541E+00
    0.1900000000E+05    0.5454957247E+00    0.2032011569E+00    0.3325242181E+00    0.2100045714E-01    0.1285805634E+00
    0.2100000000E+05    0.5459620931E+00    0.1998565862E+00    0.3392954446E+00    0.2056950765E-01    0.1287128454E+00
    0.2300000000E+05    0.5463453722E+00    0.1967518555E+00    0.3454749836E+00    0.2017344446E-01    0.1288236050E+00
    0.2500000000E+05    0.5466657030E+00    0.1938567986E+00    0.3511565538E+00    0.1980735355E-01    0.1289178987E+00
    0.2700000000E+05    0.5469372233E+00    0.1911463452E+00    0.3564130421E+00    0.1946726815E-01    0.1289992992E+00
    0.2900000000E+05    0.5471701465E+00    0.1885995143E+00    0.3613022997E+00    0.1914994509E-01    0.1290704050E+00
    0.3100000000E+05    0.5473720324E+00    0.1861986144E+00    0.3658710425E+00    0.1885270183E-01    0.1291331520E+00
    0.3300000000E+05    0.5475485954E+00    0.1839286134E+00    0.3701575566E+00    0.1857329599E-01    0.1291890133E+00
    0.3500000000E+05    0.5477042343E+00    0.1817766462E+00    0.3741936243E+00    0.1830983516E-01    0.1292391303E+00
    0.3700000000E+05    0.5478423892E+00    0.1797316252E+00    0.3780059279E+00    0.1806070840E-01    0.1292844016E+00
    0.3900000000E+05    0.5479657893E+00    0.1777839333E+00    0.3816170909E+00    0.1782453351E-01    0.1293255447E+00
    0.4100000000E+05    0.5480766264E+00    0.1759251779E+00    0.3850464664E+00    0.1760011608E-01    0.1293631395E+00
    0.4300000000E+05    0.5481766814E+00    0.1741479944E+00    0.3883107413E+00    0.1738641717E-01    0.1293976604E+00
    0.4500000000E+05    0.5482674157E+00    0.1724458862E+00    0.3914244066E+00    0.1718252763E-01    0.1294294991E+00
    0.4700000000E+05    0.5483500394E+00    0.1708130945E+00    0.3944001280E+00    0.1698764753E-01    0.1294589820E+00
    0.4900000000E+05    0.5484255634E+00    0.1692444917E+00    0.3972490416E+00    0.1680106941E-01    0.1294863837E+00
    0.1000000000E+05    0.5410099777E+00    0.2223802634E+00    0.2900344205E+00    0.2358396415E-01    0.1273834117E+00
    0.3000000000E+05    0.5472745759E+00    0.1873818185E+00    0.3636241706E+00    0.1899896277E-01    0.1291027222E+00
    0.5000000000E+05    0.5484609343E+00    0.1684828093E+00    0.3986290665E+00    0.1671069440E-01    0.1294993782E+00
    0.7000000000E+05    0.5489453545E+00    0.1557244609E+00    0.4214575225E+00    0.1521771010E-01    0.1296913971E+00
    0.9000000000E+05    0.5492017459E+00    0.1461875968E+00    0.4382256684E+00    0.1412596236E-01    0.1298102478E+00
    0.1100000000E+06    0.5493569628E+00    0.1386292316E+00    0.4513702262E+00    0.1327459628E-01    0.1298936151E+00
    0.1300000000E+06    0.5494589800E+00    0.1324053713E+00    0.4621112354E+00    0.1258244974E-01    0.1299566835E+00
    0.1500000000E+06    0.5495298272E+00    0.1271397617E+00    0.4711463652E+00    0.1200300950E-01    0.1300068585E+00
    0.1700000000E+06    0.5495809842E+00    0.1225938412E+00    0.4789113899E+00    0.1150722745E-01    0.1300482291E+00
    0.1900000000E+06    0.5496189933E+00    0.1186070741E+00    0.4856962990E+00    0.1107579785E-01    0.1300832601E+00
    0.2100000000E+06    0.5496478411E+00    0.1150664131E+00    0.4917035260E+00    0.1069526851E-01    0.1301135372E+00
    0.2300000000E+06    0.5496700868E+00    0.1118893489E+00    0.4970797852E+00    0.1035591036E-01    0.1301401341E+00
    0.2500000000E+06    0.5496874432E+00    0.1090138868E+00    0.5019346715E+00    0.1005047195E-01    0.1301638075E+00
    0.2700000000E+06    0.5497010963E+00    0.1063923140E+00    0.5063521179E+00    0.9773412367E-02    0.1301851084E+00
    0.2900000000E+06    0.5497118909E+00    0.1039871601E+00    0.5103977621E+00    0.9520408248E-02    0.1302044498E+00
    0.3100000000E+06    0.5497204437E+00    0.1017684856E+00    0.5141238563E+00    0.9288025545E-02    0.1302221478E+00
    0.3300000000E+06    0.5497272140E+00    0.9971200947E-01    0.5175726405E+00    0.9073494267E-02    0.1302384496E+00
    0.3500000000E+06    0.5497325502E+00    0.9779778133E-01    0.5207787206E+00    0.8874549855E-02    0.1302535521E+00
    0.3700000000E+06    0.5497367208E+00    0.9600922040E-01    0.5237707834E+00    0.8689318943E-02    0.1302676137E+00
    0.3900000000E+06    0.5497399355E+00    0.9433240526E-01    0.5265728586E+00    0.8516235440E-02    0.1302807645E+00
    0.4100000000E+06    0.5497423598E+00    0.9275554052E-01    0.5292052627E+00    0.8353977802E-02    0.1302931117E+00
    0.4300000000E+06    0.5497441265E+00    0.9126855009E-01    0.5316853174E+00    0.8201421413E-02    0.1303047454E+00
    0.4500000000E+06    0.5497453424E+00    0.8986276260E-01    0.5340279028E+00    0.8057601929E-02    0.1303157413E+00
    0.4700000000E+06    0.5497460946E+00    0.8853066530E-01    0.5362458896E+00    0.7921686693E-02    0.1303261641E+00
    0.4900000000E+06    0.5497464547E+00    0.8726570912E-01    0.5383504805E+00    0.7792952201E-02    0.1303360691E+00
    0.1000000000E+06    0.5492880867E+00    0.1422099722E+00    0.4451576325E+00    0.1367642940E-01    0.1298551476E+00
    0.3000000000E+06    0.5497164158E+00    0.1028561454E+00    0.5122979100E+00    0.9401825789E-02    0.1302134874E+00
    0.5000000000E+06    0.5497465066E+00    0.8665658688E-01    0.5393633653E+00    0.7731076993E-02    0.1303408427E+00
    0.7000000000E+06    0.5497370254E+00    0.7691606422E-01    0.5555132855E+00    0.6751924964E-02    0.1304179615E+00
    0.9000000000E+06    0.5497195062E+00    0.7014969820E-01    0.5666819066E+00    0.6083430676E-02    0.1304731641E+00
    0.1100000000E+07    0.5497006051E+00    0.6506388957E-01    0.5750507779E+00    0.5587514892E-02    0.1305161200E+00
    0.1300000000E+07    0.5496821675E+00    0.6104465310E-01    0.5816493226E+00    0.5199712502E-02    0.1305512658E+00
    0.1500000000E+07    0.5496647278E+00    0.5775561516E-01    0.5870392236E+00    0.4885151805E-02    0.1305810003E+00
    0.1700000000E+07    0.5496483975E+00    0.5499403131E-01    0.5915579875E+00    0.4623030744E-02    0.1306067658E+00
    0.1900000000E+07    0.5496331429E+00    0.5262902710E-01    0.5954229470E+00    0.4400038087E-02    0.1306294965E+00
    0.2100000000E+07    0.5496188825E+00    0.5057162835E-01    0.5987815573E+00    0.4207192428E-02    0.1306498317E+00
    0.2300000000E+07    0.5496055235E+00    0.4875883900E-01    0.6017380429E+00    0.4038176923E-02    0.1306682281E+00
    0.2500000000E+07    0.5495929762E+00    0.4714457169E-01    0.6043685422E+00    0.3888397657E-02    0.1306850233E+00
    0.2700000000E+07    0.5495811585E+00    0.4569418735E-01    0.6067302073E+00    0.3754420396E-02    0.1307004739E+00
    0.2900000000E+07    0.5495699975E+00    0.4438105563E-01    0.6088669264E+00    0.3633617849E-02    0.1307147792E+00
    0.3100000000E+07    0.5495594290E+00    0.4318430516E-01    0.6108130620E+00    0.3523940160E-02    0.1307280975E+00
    0.3300000000E+07    0.5495493965E+00    0.4208730437E-01    0.6125959711E+00    0.3423760683E-02    0.1307405563E+00
    0.3500000000E+07    0.5495398509E+00    0.4107660723E-01    0.6142377523E+00    0.3331769432E-02    0.1307522599E+00
    0.3700000000E+07    0.5495307489E+00    0.4014120417E-01    0.6157564862E+00    0.3246897673E-02    0.1307632947E+00
    0.3900000000E+07    0.5495220524E+00    0.3927197846E-01    0.6171671344E+00    0.3168263429E-02    0.1307737332E+00
    0.4100000000E+07    0.5495137278E+00    0.3846130460E-01    0.6184822030E+00    0.3095131352E-02    0.1307836364E+00
    0.4300000000E+07    0.5495057454E+00    0.3770274662E-01    0.6197122409E+00    0.3026882679E-02    0.1307930568E+00
    0.4500000000E+07    0.5494980788E+00    0.3699082805E-01    0.6208662192E+00    0.2962992408E-02    0.1308020392E+00
    0.4700000000E+07    0.5494907044E+00    0.3632085434E-01    0.6219518241E+00    0.2903011723E-02    0.1308106227E+00
    0.4900000000E+07    0.5494836012E+00    0.3568877399E-01    0.6229756857E+00    0.2846554293E-02    0.1308188412E+00
    0.1000000000E+07    0.5497100635E+00    0.6744428657E-01    0.5711364631E+00    0.5818913876E-02    0.1304958274E+00
    0.3000000000E+07    0.5495646429E+00    0.4376925743E-01    0.6098619666E+00    0.3577498550E-02    0.1307215532E+00
    0.5000000000E+07    0.5494801453E+00    0.3538582609E-01    0.6234662912E+00    0.2819540451E-02    0.1308228230E+00
    0.7000000000E+07    0.5494215479E+00    0.3066331576E-01    0.6311040654E+00    0.2402393047E-02    0.1308889398E+00
    0.9000000000E+07    0.5493767304E+00    0.2751231140E-01    0.6361894562E+00    0.2128455219E-02    0.1309381327E+00
    0.1100000000E+08    0.5493404486E+00    0.2521026072E-01    0.6398990545E+00    0.1930739313E-02    0.1309773322E+00
    0.1300000000E+08    0.5493099714E+00    0.2342977441E-01    0.6427647821E+00    0.1779315671E-02    0.1310099262E+00
    0.1500000000E+08    0.5492836974E+00    0.2199751160E-01    0.6450678087E+00    0.1658509960E-02    0.1310378266E+00
    0.1700000000E+08    0.5492606075E+00    0.2081174827E-01    0.6469729230E+00    0.1559206201E-02    0.1310622189E+00
    0.1900000000E+08    0.5492400132E+00    0.1980823378E-01    0.6485840977E+00    0.1475690515E-02    0.1310838891E+00
    0.2100000000E+08    0.5492214275E+00    0.1894407683E-01    0.6499706784E+00    0.1404173900E-02    0.1311033856E+00
    0.2300000000E+08    0.5492044933E+00    0.1818937916E-01    0.6511809664E+00    0.1342030728E-02    0.1311211059E+00
    0.2500000000E+08    0.5491889410E+00    0.1752256207E-01    0.6522497986E+00    0.1287376027E-02    0.1311373475E+00
    0.2700000000E+08    0.5491745621E+00    0.1692759968E-01    0.6532030315E+00    0.1238816616E-02    0.1311523388E+00
