  Pressure (Pa) 22mC5-400 (mol/kg) 2mC6-400 (mol/kg) 3mC6-400 (mol/kg) 33mC5-400 (mol/kg) 23mC5-400 (mol/kg)
    0.1000000000E+01    0.3170719446E-02    0.2390464191E-02    0.1060731887E-02    0.6487320598E-04    0.7423264432E-03
    0.3000000000E+01    0.9360779891E-02    0.7050479348E-02    0.3153657672E-02    0.1913174702E-03    0.2191566202E-02
    0.5000000000E+01    0.1535812929E-01    0.1155610108E-01    0.5209453977E-02    0.3135443605E-03    0.3595723199E-02
    0.7000000000E+01    0.2117302226E-01    0.1591502188E-01    0.7229188393E-02    0.4317630149E-03    0.4957195967E-02
    0.9000000000E+01    0.2681498005E-01    0.2013441142E-01    0.9213887194E-02    0.5461684065E-03    0.6278211526E-02
    0.1100000000E+02    0.3229285485E-01    0.2422096130E-01    0.1116453733E-01    0.6569425562E-03    0.7560840413E-02
    0.1300000000E+02    0.3761488740E-01    0.2818092538E-01    0.1308208831E-01    0.7642556213E-03    0.8807010168E-02
    0.1500000000E+02    0.4278875883E-01    0.3202015594E-01    0.1496745396E-01    0.8682668740E-03    0.1001851745E-01
    0.1700000000E+02    0.4782163737E-01    0.3574413629E-01    0.1682151411E-01    0.9691255841E-03    0.1119703895E-01
    0.1900000000E+02    0.5272022039E-01    0.3935801021E-01    0.1864511617E-01    0.1066971815E-02    0.1234414125E-01
    0.2100000000E+02    0.5749077249E-01    0.4286660861E-01    0.2043907660E-01    0.1161937145E-02    0.1346128971E-01
    0.2300000000E+02    0.6213915994E-01    0.4627447360E-01    0.2220418236E-01    0.1254145318E-02    0.1454985651E-01
    0.2500000000E+02    0.6667088182E-01    0.4958588043E-01    0.2394119220E-01    0.1343712837E-02    0.1561112797E-01
    0.2700000000E+02    0.7109109844E-01    0.5280485733E-01    0.2565083794E-01    0.1430749505E-02    0.1664631116E-01
    0.2900000000E+02    0.7540465704E-01    0.5593520366E-01    0.2733382567E-01    0.1515358910E-02    0.1765653994E-01
    0.3100000000E+02    0.7961611530E-01    0.5898050641E-01    0.2899083687E-01    0.1597638876E-02    0.1864288043E-01
    0.3300000000E+02    0.8372976265E-01    0.6194415527E-01    0.3062252949E-01    0.1677681869E-02    0.1960633602E-01
    0.3500000000E+02    0.8774963988E-01    0.6482935644E-01    0.3222953893E-01    0.1755575372E-02    0.2054785193E-01
    0.3700000000E+02    0.9167955694E-01    0.6763914520E-01    0.3381247907E-01    0.1831402226E-02    0.2146831940E-01
    0.3900000000E+02    0.9552310929E-01    0.7037639757E-01    0.3537194313E-01    0.1905240943E-02    0.2236857950E-01
    0.4100000000E+02    0.9928369286E-01    0.7304384085E-01    0.3690850454E-01    0.1977165997E-02    0.2324942663E-01
    0.4300000000E+02    0.1029645179E+00    0.7564406347E-01    0.3842271781E-01    0.2047248084E-02    0.2411161173E-01
    0.4500000000E+02    0.1065686213E+00    0.7817952393E-01    0.3991511924E-01    0.2115554368E-02    0.2495584525E-01
    0.4700000000E+02    0.1100988787E+00    0.8065255913E-01    0.4138622774E-01    0.2182148709E-02    0.2578279987E-01
    0.4900000000E+02    0.1135580147E+00    0.8306539198E-01    0.4283654549E-01    0.2247091863E-02    0.2659311297E-01
    0.1000000000E+02    0.2957389908E-01    0.2219389063E-01    0.1019340814E-01    0.6019984857E-03    0.6924200629E-02
    0.3000000000E+02    0.7752287457E-01    0.5746826917E-01    0.2816553668E-01    0.1556784173E-02    0.1815263210E-01
    0.5000000000E+02    0.1152617248E+00    0.8424989778E-01    0.4355406036E-01    0.2278962432E-02    0.2699221905E-01
    0.7000000000E+02    0.1461639353E+00    0.1052433993E+00    0.5692331644E-01    0.2842378647E-02    0.3423210483E-01
    0.9000000000E+02    0.1722093977E+00    0.1220985977E+00    0.6868166061E-01    0.3292186834E-02    0.4033546286E-01
    0.1100000000E+03    0.1946417069E+00    0.1358869177E+00    0.7913220051E-01    0.3657773883E-02    0.4559323283E-01
    0.1300000000E+03    0.2142855069E+00    0.1473380167E+00    0.8850488241E-01    0.3959190392E-02    0.5019834916E-01
    0.1500000000E+03    0.2317124815E+00    0.1569676075E+00    0.9697747692E-01    0.4210630675E-02    0.5428456898E-01
    0.1700000000E+03    0.2473339392E+00    0.1651512123E+00    0.1046897077E+00    0.4422444316E-02    0.5794813003E-01
    0.1900000000E+03    0.2614552562E+00    0.1721690343E+00    0.1117530072E+00    0.4602362105E-02    0.6126048684E-01
    0.2100000000E+03    0.2743093426E+00    0.1782344646E+00    0.1182574037E+00    0.4756276205E-02    0.6427613981E-01
    0.2300000000E+03    0.2860780066E+00    0.1835128559E+00    0.1242764810E+00    0.4888754765E-02    0.6703763332E-01
    0.2500000000E+03    0.2969060481E+00    0.1881342662E+00    0.1298710128E+00    0.5003391793E-02    0.6957885298E-01
    0.2700000000E+03    0.3069108267E+00    0.1922023347E+00    0.1350916688E+00    0.5103051225E-02    0.7192726409E-01
    0.2900000000E+03    0.3161889251E+00    0.1958006034E+00    0.1399810588E+00    0.5190040994E-02    0.7410547067E-01
    0.3100000000E+03    0.3248208965E+00    0.1989971072E+00    0.1445752962E+00    0.5266239608E-02    0.7613232612E-01
    0.3300000000E+03    0.3328747178E+00    0.2018477641E+00    0.1489052096E+00    0.5333189755E-02    0.7802374114E-01
    0.3500000000E+03    0.3404083474E+00    0.2043989166E+00    0.1529972899E+00    0.5392168576E-02    0.7979328228E-01
    0.3700000000E+03    0.3474716541E+00    0.2066892634E+00    0.1568744406E+00    0.5444241127E-02    0.8145262312E-01
    0.3900000000E+03    0.3541078932E+00    0.2087513448E+00    0.1605565752E+00    0.5490301546E-02    0.8301188965E-01
    0.4100000000E+03    0.3603548524E+00    0.2106126981E+00    0.1640610989E+00    0.5531105094E-02    0.8447992844E-01
    0.4300000000E+03    0.3662457540E+00    0.2122967643E+00    0.1674032984E+00    0.5567293337E-02    0.8586451771E-01
    0.4500000000E+03    0.3718099733E+00    0.2138236073E+00    0.1705966617E+00    0.5599414127E-02    0.8717253539E-01
    0.4700000000E+03    0.3770736170E+00    0.2152104882E+00    0.1736531401E+00    0.5627937568E-02    0.8841009442E-01
    0.4900000000E+03    0.3820599937E+00    0.2164723276E+00    0.1765833657E+00    0.5653268889E-02    0.8958265293E-01
    0.1000000000E+03    0.1838182651E+00    0.1293243538E+00    0.7405460705E-01    0.3484086361E-02    0.4305625892E-01
    0.3000000000E+03    0.3205811670E+00    0.1974453303E+00    0.1423130332E+00    0.5229385826E-02    0.7513676175E-01
    0.5000000000E+03    0.3844558224E+00    0.2170604734E+00    0.1780041407E+00    0.5664849010E-02    0.9014610620E-01
    0.7000000000E+03    0.4219108001E+00    0.2246489414E+00    0.2016358404E+00    0.5793153042E-02    0.9896171984E-01
    0.9000000000E+03    0.4463091111E+00    0.2277495651E+00    0.2191891231E+00    0.5815948286E-02    0.1047136778E+00
    0.1100000000E+04    0.4633215851E+00    0.2287882242E+00    0.2331301497E+00    0.5795061536E-02    0.1087311261E+00
    0.1300000000E+04    0.4757841902E+00    0.2287561695E+00    0.2446919338E+00    0.5754257137E-02    0.1116791701E+00
    0.1500000000E+04    0.4852651195E+00    0.2281250327E+00    0.2545726662E+00    0.5704081306E-02    0.1139258066E+00
    0.1700000000E+04    0.4926964512E+00    0.2271437969E+00    0.2632037859E+00    0.5649688433E-02    0.1156898860E+00
    0.1900000000E+04    0.4986639898E+00    0.2259539904E+00    0.2708697228E+00    0.5593766584E-02    0.1171090334E+00
    0.2100000000E+04    0.5035528281E+00    0.2246405189E+00    0.2777675733E+00    0.5537776105E-02    0.1182737716E+00
    0.2300000000E+04    0.5076256808E+00    0.2232563878E+00    0.2840394237E+00    0.5482526067E-02    0.1192458922E+00
    0.2500000000E+04    0.5110674509E+00    0.2218356692E+00    0.2897910430E+00    0.5428463098E-02    0.1200689101E+00
    0.2700000000E+04    0.5140117816E+00    0.2204007250E+00    0.2951032825E+00    0.5375824816E-02    0.1207742951E+00
    0.2900000000E+04    0.5165575085E+00    0.2189664301E+00    0.3000393383E+00    0.5324725259E-02    0.1213853342E+00
    0.3100000000E+04    0.5187792003E+00    0.2175427427E+00    0.3046495525E+00    0.5275204271E-02    0.1219196073E+00
    0.3300000000E+04    0.5207341145E+00    0.2161363210E+00    0.3089746872E+00    0.5227256933E-02    0.1223906210E+00
    0.3500000000E+04    0.5224669048E+00    0.2147515699E+00    0.3130482191E+00    0.5180851523E-02    0.1228089152E+00
    0.3700000000E+04    0.5240128822E+00    0.2133913336E+00    0.3168979858E+00    0.5135940673E-02    0.1231828294E+00
    0.3900000000E+04    0.5254003186E+00    0.2120573641E+00    0.3205473909E+00    0.5092468393E-02    0.1235190448E+00
    0.4100000000E+04    0.5266521059E+00    0.2107506436E+00    0.3240163039E+00    0.5050374523E-02    0.1238229745E+00
    0.4300000000E+04    0.5277869681E+00    0.2094716091E+00    0.3273217417E+00    0.5009597560E-02    0.1240990488E+00
    0.4500000000E+04    0.5288203632E+00    0.2082203116E+00    0.3304783933E+00    0.4970076431E-02    0.1243509273E+00
    0.4700000000E+04    0.5297651607E+00    0.2069965290E+00    0.3334990287E+00    0.4931751600E-02    0.1245816588E+00
    0.4900000000E+04    0.5306321584E+00    0.2057998485E+00    0.3363948219E+00    0.4894565726E-02    0.1247938029E+00
    0.1000000000E+04    0.4555202836E+00    0.2284467442E+00    0.2265166815E+00    0.5809016124E-02    0.1068880289E+00
    0.3000000000E+04    0.5177049382E+00    0.2182527814E+00    0.3023824341E+00    0.5299766954E-02    0.1216611418E+00
    0.5000000000E+04    0.5310393901E+00    0.2052115052E+00    0.3377990225E+00    0.4876382671E-02    0.1248935944E+00
    0.7000000000E+04    0.5367149949E+00    0.1947047254E+00    0.3612003174E+00    0.4560709621E-02    0.1262971990E+00
    0.9000000000E+04    0.5398362075E+00    0.1861300944E+00    0.3786530580E+00    0.4312895337E-02    0.1270845629E+00
    0.1100000000E+05    0.5418038036E+00    0.1789473652E+00    0.3925284715E+00    0.4110453629E-02    0.1275907866E+00
    0.1300000000E+05    0.5431545288E+00    0.1727957012E+00    0.4040101429E+00    0.3940217469E-02    0.1279451551E+00
    0.1500000000E+05    0.5441375147E+00    0.1674329862E+00    0.4137768069E+00    0.3793923782E-02    0.1282080851E+00
    0.1700000000E+05    0.5448839396E+00    0.1626912426E+00    0.4222546546E+00    0.3666076401E-02    0.1284116042E+00
    0.1900000000E+05    0.5454693634E+00    0.1584498940E+00    0.4297290926E+00    0.3552845896E-02    0.1285742850E+00
    0.2100000000E+05    0.5459403428E+00    0.1546197471E+00    0.4364006895E+00    0.3451462831E-02    0.1287076483E+00
    0.2300000000E+05    0.5463271107E+00    0.1511330995E+00    0.4424157867E+00    0.3359862548E-02    0.1288192254E+00
    0.2500000000E+05    0.5466501443E+00    0.1479374166E+00    0.4478844241E+00    0.3276466535E-02    0.1289141517E+00
    0.2700000000E+05    0.5469238005E+00    0.1449911549E+00    0.4528914154E+00    0.3200042100E-02    0.1289960517E+00
    0.2900000000E+05    0.5471584405E+00    0.1422609204E+00    0.4575034960E+00    0.3129609051E-02    0.1290675583E+00
    0.3100000000E+05    0.5473617267E+00    0.1397194844E+00    0.4617741062E+00    0.3064375724E-02    0.1291306317E+00
    0.3300000000E+05    0.5475394466E+00    0.1373443653E+00    0.4657466906E+00    0.3003693981E-02    0.1291867623E+00
    0.3500000000E+05    0.5476960520E+00    0.1351167944E+00    0.4694570342E+00    0.2947026819E-02    0.1292371038E+00
    0.3700000000E+05    0.5478350225E+00    0.1330209470E+00    0.4729349549E+00    0.2893924581E-02    0.1292825642E+00
    0.3900000000E+05    0.5479591169E+00    0.1310433624E+00    0.4762055530E+00    0.2844007179E-02    0.1293238678E+00
    0.4100000000E+05    0.5480705500E+00    0.1291724990E+00    0.4792901504E+00    0.2796950602E-02    0.1293616001E+00
    0.4300000000E+05    0.5481711202E+00    0.1273983894E+00    0.4822070083E+00    0.2752476521E-02    0.1293962394E+00
    0.4500000000E+05    0.5482623026E+00    0.1257123687E+00    0.4849718819E+00    0.2710344187E-02    0.1294281808E+00
    0.4700000000E+05    0.5483453186E+00    0.1241068591E+00    0.4875984556E+00    0.2670344033E-02    0.1294577535E+00
    0.4900000000E+05    0.5484211878E+00    0.1225751974E+00    0.4900986876E+00    0.2632292581E-02    0.1294852338E+00
    0.1000000000E+05    0.5409205376E+00    0.1823907556E+00    0.3859474873E+00    0.4206976924E-02    0.1273623171E+00
    0.3000000000E+05    0.5472636045E+00    0.1409681053E+00    0.4596785665E+00    0.3096385865E-02    0.1291000468E+00
    0.5000000000E+05    0.5484567159E+00    0.1218351921E+00    0.4913047596E+00    0.2613946388E-02    0.1294982640E+00
    0.7000000000E+05    0.5489429970E+00    0.1097857552E+00    0.5107843719E+00    0.2318660673E-02    0.1296906967E+00
    0.9000000000E+05    0.5492001397E+00    0.1011769387E+00    0.5245396866E+00    0.2111631715E-02    0.1298097029E+00
    0.1100000000E+06    0.5493557247E+00    0.9457757884E-01    0.5350055167E+00    0.1955148286E-02    0.1298931376E+00
    0.1300000000E+06    0.5494579442E+00    0.8928385460E-01    0.5433562547E+00    0.1831028021E-02    0.1299562360E+00
    0.1500000000E+06    0.5495289112E+00    0.8490022145E-01    0.5502436124E+00    0.1729203254E-02    0.1300064229E+00
    0.1700000000E+06    0.5495801425E+00    0.8118353560E-01    0.5560645882E+00    0.1643558580E-02    0.1300477957E+00
    0.1900000000E+06    0.5496181989E+00    0.7797433339E-01    0.5610777612E+00    0.1570122900E-02    0.1300828234E+00
    0.2100000000E+06    0.5496470773E+00    0.7516276261E-01    0.5654602919E+00    0.1506183770E-02    0.1301130943E+00
    0.2300000000E+06    0.5496693428E+00    0.7267016490E-01    0.5693384686E+00    0.1449813382E-02    0.1301396830E+00
    0.2500000000E+06    0.5496867117E+00    0.7043843046E-01    0.5728052400E+00    0.1399596935E-02    0.1301633469E+00
    0.2700000000E+06    0.5497003721E+00    0.6842350819E-01    0.5759308436E+00    0.1354468271E-02    0.1301846379E+00
    0.2900000000E+06    0.5497111705E+00    0.6659127273E-01    0.5787695408E+00    0.1313605910E-02    0.1302039688E+00
    0.3100000000E+06    0.5497197246E+00    0.6491479489E-01    0.5813640475E+00    0.1276364796E-02    0.1302216563E+00
    0.3300000000E+06    0.5497264943E+00    0.6337248268E-01    0.5837485405E+00    0.1242230072E-02    0.1302379476E+00
    0.3500000000E+06    0.5497318286E+00    0.6194678104E-01    0.5859507537E+00    0.1210784905E-02    0.1302530394E+00
    0.3700000000E+06    0.5497359963E+00    0.6062324140E-01    0.5879934742E+00    0.1181687570E-02    0.1302670906E+00
    0.3900000000E+06    0.5497392072E+00    0.5938984226E-01    0.5898956317E+00    0.1154654793E-02    0.1302802310E+00
    0.4100000000E+06    0.5497416273E+00    0.5823648403E-01    0.5916731070E+00    0.1129449409E-02    0.1302925680E+00
    0.4300000000E+06    0.5497433893E+00    0.5715460759E-01    0.5933393414E+00    0.1105871086E-02    0.1303041917E+00
    0.4500000000E+06    0.5497446003E+00    0.5613690200E-01    0.5949058019E+00    0.1083749231E-02    0.1303151777E+00
    0.4700000000E+06    0.5497453473E+00    0.5517707771E-01    0.5963823429E+00    0.1062937515E-02    0.1303255908E+00
    0.4900000000E+06    0.5497457021E+00    0.5426968841E-01    0.5977774887E+00    0.1043309582E-02    0.1303354863E+00
    0.1000000000E+06    0.5492866938E+00    0.9768015641E-01    0.5300931726E+00    0.2028475456E-02    0.1298546431E+00
    0.3000000000E+06    0.5497156963E+00    0.6573502129E-01    0.5800950099E+00    0.1294567496E-02    0.1302130012E+00
    0.5000000000E+06    0.5497457513E+00    0.5383415013E-01    0.5984468947E+00    0.1033904659E-02    0.1303402552E+00
    0.7000000000E+06    0.5497362158E+00    0.4699099037E-01    0.6089437742E+00    0.8875657294E-03    0.1304172884E+00
    0.9000000000E+06    0.5497186476E+00    0.4236838452E-01    0.6160131626E+00    0.7903117382E-03    0.1304724184E+00
    0.1100000000E+07    0.5496997038E+00    0.3896226379E-01    0.6212116330E+00    0.7195350626E-03    0.1305153111E+00
    0.1300000000E+07    0.5496812288E+00    0.3631095705E-01    0.6252520822E+00    0.6649926196E-03    0.1305504006E+00
    0.1500000000E+07    0.5496637559E+00    0.3416742659E-01    0.6285149367E+00    0.6212656865E-03    0.1305800842E+00
    0.1700000000E+07    0.5496473958E+00    0.3238551224E-01    0.6312248159E+00    0.5851781819E-03    0.1306058032E+00
    0.1900000000E+07    0.5496321142E+00    0.3087228809E-01    0.6335242980E+00    0.5547268153E-03    0.1306284908E+00
    0.2100000000E+07    0.5496178290E+00    0.2956538109E-01    0.6355089574E+00    0.5285762201E-03    0.1306487858E+00
    0.2300000000E+07    0.5496044471E+00    0.2842111107E-01    0.6372456512E+00    0.5057969364E-03    0.1306671446E+00
    0.2500000000E+07    0.5495918786E+00    0.2740782602E-01    0.6387827807E+00    0.4857191343E-03    0.1306839043E+00
    0.2700000000E+07    0.5495800411E+00    0.2650193641E-01    0.6401563888E+00    0.4678460814E-03    0.1306993212E+00
    0.2900000000E+07    0.5495688615E+00    0.2568544281E-01    0.6413939572E+00    0.4518004785E-03    0.1307135946E+00
    0.3100000000E+07    0.5495582755E+00    0.2494433361E-01    0.6425168655E+00    0.4372898461E-03    0.1307268823E+00
    0.3300000000E+07    0.5495482265E+00    0.2426751199E-01    0.6435420359E+00    0.4240834461E-03    0.1307393119E+00
    0.3500000000E+07    0.5495386652E+00    0.2364605678E-01    0.6444830658E+00    0.4119964501E-03    0.1307509874E+00
    0.3700000000E+07    0.5495295483E+00    0.2307270091E-01    0.6453510263E+00    0.4008788083E-03    0.1307619952E+00
    0.3900000000E+07    0.5495208375E+00    0.2254145527E-01    0.6461550378E+00    0.3906072520E-03    0.1307724076E+00
    0.4100000000E+07    0.5495124993E+00    0.2204733242E-01    0.6469026919E+00    0.3810794368E-03    0.1307822858E+00
    0.4300000000E+07    0.5495045038E+00    0.2158614012E-01    0.6476003678E+00    0.3722095812E-03    0.1307916818E+00
    0.4500000000E+07    0.5494968247E+00    0.2115432482E-01    0.6482534710E+00    0.3639251677E-03    0.1308006407E+00
    0.4700000000E+07    0.5494894382E+00    0.2074885118E-01    0.6488666169E+00    0.3561644142E-03    0.1308092013E+00
    0.4900000000E+07    0.5494823234E+00    0.2036710848E-01    0.6494437745E+00    0.3488743107E-03    0.1308173976E+00
    0.1000000000E+07    0.5497091829E+00    0.4054929065E-01    0.6187905826E+00    0.7524158508E-03    0.1304950491E+00
    0.3000000000E+07    0.5495634980E+00    0.2530621708E-01    0.6419685970E+00    0.4443689458E-03    0.1307203531E+00
    0.5000000000E+07    0.5494788618E+00    0.2018441800E-01    0.6497199492E+00    0.3453911996E-03    0.1308213686E+00
    0.7000000000E+07    0.5494201682E+00    0.1735929099E-01    0.6539877949E+00    0.2920211310E-03    0.1308872940E+00
    0.9000000000E+07    0.5493752762E+00    0.1549776566E-01    0.6567969346E+00    0.2573980753E-03    0.1309363299E+00
    0.1100000000E+08    0.5493389332E+00    0.1414947897E-01    0.6588300535E+00    0.2326178417E-03    0.1309753949E+00
    0.1300000000E+08    0.5493084039E+00    0.1311336730E-01    0.6603915564E+00    0.2137581601E-03    0.1310078703E+00
    0.1500000000E+08    0.5492820843E+00    0.1228410157E-01    0.6616407672E+00    0.1987857835E-03    0.1310356640E+00
    0.1700000000E+08    0.5492589539E+00    0.1160037446E-01    0.6626703581E+00    0.1865274656E-03    0.1310599590E+00
    0.1900000000E+08    0.5492383230E+00    0.1102371746E-01    0.6635384466E+00    0.1762524529E-03    0.1310815395E+00
    0.2100000000E+08    0.5492197039E+00    0.1052859030E-01    0.6642836008E+00    0.1674787005E-03    0.1311009525E+00
    0.2300000000E+08    0.5492027391E+00    0.1009727182E-01    0.6649325711E+00    0.1598736517E-03    0.1311185946E+00
    0.2500000000E+08    0.5491871583E+00    0.9717022986E-02    0.6655045806E+00    0.1531994736E-03    0.1311347625E+00
    0.2700000000E+08    0.5491727528E+00    0.9378415877E-02    0.6660138521E+00    0.1472809734E-03    0.1311496842E+00
