  Pressure (Pa) 22mC5-400 (mol/kg) 2mC6-400 (mol/kg) 3mC6-400 (mol/kg) 33mC5-400 (mol/kg) 23mC5-400 (mol/kg)
    0.1000000000E+01    0.3168521919E-02    0.3185665037E-02    0.5302270461E-03    0.1296795189E-03    0.6490856353E-03
    0.3000000000E+01    0.9341884265E-02    0.9386723790E-02    0.1575608210E-02    0.3820604727E-03    0.1913750988E-02
    0.5000000000E+01    0.1530794165E-01    0.1537122346E-01    0.2601415488E-02    0.6255647438E-03    0.3135980254E-02
    0.7000000000E+01    0.2107889173E-01    0.2115088622E-01    0.3608253721E-02    0.8606710140E-03    0.4318269933E-02
    0.9000000000E+01    0.2666596716E-01    0.2673655691E-01    0.4596702519E-02    0.1087822249E-02    0.5462919042E-02
    0.1100000000E+02    0.3207952922E-01    0.3213828636E-01    0.5567317568E-02    0.1307429085E-02    0.6572048262E-02
    0.1300000000E+02    0.3732915068E-01    0.3736540520E-01    0.6520631867E-02    0.1519872827E-02    0.7647616909E-02
    0.1500000000E+02    0.4242368949E-01    0.4242658953E-01    0.7457156881E-02    0.1725508116E-02    0.8691438007E-02
    0.1700000000E+02    0.4737135439E-01    0.4732991929E-01    0.8377383632E-02    0.1924665310E-02    0.9705191711E-02
    0.1900000000E+02    0.5217976339E-01    0.5208293053E-01    0.9281783714E-02    0.2117652596E-02    0.1069043728E-01
    0.2100000000E+02    0.5685599610E-01    0.5669266200E-01    0.1017081026E-01    0.2304757898E-02    0.1164862379E-01
    0.2300000000E+02    0.6140664062E-01    0.6116569712E-01    0.1104489883E-01    0.2486250574E-02    0.1258109970E-01
    0.2500000000E+02    0.6583783559E-01    0.6550820153E-01    0.1190446829E-01    0.2662382947E-02    0.1348912152E-01
    0.2700000000E+02    0.7015530802E-01    0.6972595701E-01    0.1274992158E-01    0.2833391687E-02    0.1437386149E-01
    0.2900000000E+02    0.7436440740E-01    0.7382439200E-01    0.1358164649E-01    0.2999499049E-02    0.1523641457E-01
    0.3100000000E+02    0.7847013643E-01    0.7780860925E-01    0.1440001638E-01    0.3160914000E-02    0.1607780478E-01
    0.3300000000E+02    0.8247717883E-01    0.8168341084E-01    0.1520539083E-01    0.3317833236E-02    0.1689899083E-01
    0.3500000000E+02    0.8638992455E-01    0.8545332081E-01    0.1599811629E-01    0.3470442108E-02    0.1770087130E-01
    0.3700000000E+02    0.9021249254E-01    0.8912260585E-01    0.1677852666E-01    0.3618915457E-02    0.1848428932E-01
    0.3900000000E+02    0.9394875156E-01    0.9269529401E-01    0.1754694390E-01    0.3763418379E-02    0.1925003680E-01
    0.4100000000E+02    0.9760233898E-01    0.9617519179E-01    0.1830367853E-01    0.3904106927E-02    0.1999885830E-01
    0.4300000000E+02    0.1011766780E+00    0.9956589983E-01    0.1904903015E-01    0.4041128739E-02    0.2073145455E-01
    0.4500000000E+02    0.1046749934E+00    0.1028708271E+00    0.1978328790E-01    0.4174623624E-02    0.2144848564E-01
    0.4700000000E+02    0.1081003257E+00    0.1060932040E+00    0.2050673097E-01    0.4304724096E-02    0.2215057396E-01
    0.4900000000E+02    0.1114555442E+00    0.1092360945E+00    0.2121962897E-01    0.4431555858E-02    0.2283830690E-01
    0.1000000000E+02    0.2939382149E-01    0.2945981505E-01    0.5084205432E-02    0.1198544231E-02    0.6021797584E-02
    0.3000000000E+02    0.7642989331E-01    0.7583047094E-01    0.1399247803E-01    0.3080780506E-02    0.1565969365E-01
    0.5000000000E+02    0.1131077138E+00    0.1107786469E+00    0.2157220531E-01    0.4493783506E-02    0.2317696469E-01
    0.7000000000E+02    0.1430548905E+00    0.1380907995E+00    0.2812904644E-01    0.5592762620E-02    0.2931616456E-01
    0.9000000000E+02    0.1683158849E+00    0.1600095873E+00    0.3387971613E-01    0.6469825471E-02    0.3449580905E-01
    0.1100000000E+03    0.1901370342E+00    0.1779632002E+00    0.3898238060E-01    0.7183725410E-02    0.3897104458E-01
    0.1300000000E+03    0.2093262136E+00    0.1929111892E+00    0.4355534212E-01    0.7773991199E-02    0.4290726365E-01
    0.1500000000E+03    0.2264336651E+00    0.2055252435E+00    0.4768896921E-01    0.8268324830E-02    0.4641711871E-01
    0.1700000000E+03    0.2418498023E+00    0.2162910334E+00    0.5145356544E-01    0.8686775210E-02    0.4958054279E-01
    0.1900000000E+03    0.2558613298E+00    0.2255690680E+00    0.5490470724E-01    0.9044235508E-02    0.5245623731E-01
    0.2100000000E+03    0.2686850542E+00    0.2336328294E+00    0.5808695472E-01    0.9352009902E-02    0.5508859379E-01
    0.2300000000E+03    0.2804891120E+00    0.2406936160E+00    0.6103648781E-01    0.9618835430E-02    0.5751203948E-01
    0.2500000000E+03    0.2914067741E+00    0.2469172616E+00    0.6378301530E-01    0.9851570384E-02    0.5975386353E-01
    0.2700000000E+03    0.3015457031E+00    0.2524356998E+00    0.6635118122E-01    0.1005567096E-01    0.6183611213E-01
    0.2900000000E+03    0.3109943291E+00    0.2573551543E+00    0.6876161713E-01    0.1023552914E-01    0.6377689391E-01
    0.3100000000E+03    0.3198263489E+00    0.2617620578E+00    0.7103174049E-01    0.1039471710E-01    0.6559130098E-01
    0.3300000000E+03    0.3281039679E+00    0.2657274072E+00    0.7317636821E-01    0.1053616724E-01    0.6729207271E-01
    0.3500000000E+03    0.3358802833E+00    0.2693100196E+00    0.7520819354E-01    0.1066230687E-01    0.6889008364E-01
    0.3700000000E+03    0.3432010667E+00    0.2725589991E+00    0.7713816086E-01    0.1077516031E-01    0.7039470842E-01
    0.3900000000E+03    0.3501061192E+00    0.2755156316E+00    0.7897576302E-01    0.1087642742E-01    0.7181409923E-01
    0.4100000000E+03    0.3566303168E+00    0.2782148543E+00    0.8072927941E-01    0.1096754457E-01    0.7315539987E-01
    0.4300000000E+03    0.3628044288E+00    0.2806864097E+00    0.8240596819E-01    0.1104973246E-01    0.7442491325E-01
    0.4500000000E+03    0.3686557656E+00    0.2829557582E+00    0.8401222267E-01    0.1112403407E-01    0.7562823406E-01
    0.4700000000E+03    0.3742086985E+00    0.2850448067E+00    0.8555369955E-01    0.1119134490E-01    0.7677035519E-01
    0.4900000000E+03    0.3794850812E+00    0.2869724961E+00    0.8703542463E-01    0.1125243741E-01    0.7785575392E-01
    0.1000000000E+03    0.1795983444E+00    0.1694137238E+00    0.3650388539E-01    0.6844357616E-02    0.3680958440E-01
    0.3000000000E+03    0.3154832890E+00    0.2596179185E+00    0.6991323703E-01    0.1031751039E-01    0.6469904936E-01
    0.5000000000E+03    0.3820257931E+00    0.2878810579E+00    0.8775530024E-01    0.1128086449E-01    0.7837845821E-01
    0.7000000000E+03    0.4222139426E+00    0.3006174225E+00    0.9988532588E-01    0.1164576292E-01    0.8665230459E-01
    0.9000000000E+03    0.4488505465E+00    0.3074097013E+00    0.1091226883E+00    0.1179787120E-01    0.9214431593E-01
    0.1100000000E+04    0.4676133251E+00    0.3113575207E+00    0.1166262621E+00    0.1185668852E-01    0.9601874249E-01
    0.1300000000E+04    0.4814391768E+00    0.3137408758E+00    0.1229767313E+00    0.1186888143E-01    0.9887815510E-01
    0.1500000000E+04    0.4919916867E+00    0.3151798275E+00    0.1285043646E+00    0.1185568109E-01    0.1010640622E+00
    0.1700000000E+04    0.5002766021E+00    0.3160103631E+00    0.1334143565E+00    0.1182785848E-01    0.1027830387E+00
    0.1900000000E+04    0.5069337130E+00    0.3164300886E+00    0.1378427761E+00    0.1179133706E-01    0.1041665632E+00
    0.2100000000E+04    0.5123872483E+00    0.3165626301E+00    0.1418844792E+00    0.1174957927E-01    0.1053018619E+00
    0.2300000000E+04    0.5169284201E+00    0.3164891154E+00    0.1456082576E+00    0.1170470545E-01    0.1062488428E+00
    0.2500000000E+04    0.5207630993E+00    0.3162648329E+00    0.1490656234E+00    0.1165806099E-01    0.1070498801E+00
    0.2700000000E+04    0.5240405555E+00    0.3159286246E+00    0.1522961813E+00    0.1161052271E-01    0.1077357140E+00
    0.2900000000E+04    0.5268714248E+00    0.3155084665E+00    0.1553310628E+00    0.1156267320E-01    0.1083291410E+00
    0.3100000000E+04    0.5293393054E+00    0.3150249275E+00    0.1581952038E+00    0.1151490450E-01    0.1088473959E+00
    0.3300000000E+04    0.5315084497E+00    0.3144933945E+00    0.1609089029E+00    0.1146748207E-01    0.1093037321E+00
    0.3500000000E+04    0.5334289957E+00    0.3139255464E+00    0.1634889176E+00    0.1142058549E-01    0.1097084974E+00
    0.3700000000E+04    0.5351406007E+00    0.3133303578E+00    0.1659492529E+00    0.1137433509E-01    0.1100698812E+00
    0.3900000000E+04    0.5366750174E+00    0.3127147983E+00    0.1683017412E+00    0.1132880972E-01    0.1103944441E+00
    0.4100000000E+04    0.5380579513E+00    0.3120843283E+00    0.1705564760E+00    0.1128405894E-01    0.1106875002E+00
    0.4300000000E+04    0.5393104217E+00    0.3114432581E+00    0.1727221423E+00    0.1124011139E-01    0.1109533974E+00
    0.4500000000E+04    0.5404497737E+00    0.3107950116E+00    0.1748062707E+00    0.1119698078E-01    0.1111957255E+00
    0.4700000000E+04    0.5414904410E+00    0.3101423225E+00    0.1768154374E+00    0.1115467006E-01    0.1114174736E+00
    0.4900000000E+04    0.5424445266E+00    0.3094873819E+00    0.1787554212E+00    0.1111317451E-01    0.1116211495E+00
    0.1000000000E+04    0.4589918978E+00    0.3096364016E+00    0.1130467493E+00    0.1183513410E-01    0.9423772146E-01
    0.3000000000E+04    0.5281463402E+00    0.3152735566E+00    0.1567831132E+00    0.1153875975E-01    0.1085967579E+00
    0.5000000000E+04    0.5428923589E+00    0.3091596322E+00    0.1797010891E+00    0.1109272941E-01    0.1117168857E+00
    0.7000000000E+04    0.5491108516E+00    0.3027665376E+00    0.1959620661E+00    0.1072272450E-01    0.1130579383E+00
    0.9000000000E+04    0.5525092523E+00    0.2969280034E+00    0.2087568715E+00    0.1041367791E-01    0.1138049180E+00
    0.1100000000E+05    0.5546423664E+00    0.2916780023E+00    0.2193813186E+00    0.1014956115E-01    0.1142827686E+00
    0.1300000000E+05    0.5561022169E+00    0.2869412985E+00    0.2285028216E+00    0.9919295217E-02    0.1146160257E+00
    0.1500000000E+05    0.5571622208E+00    0.2826372829E+00    0.2365146712E+00    0.9715304887E-02    0.1148625776E+00
    0.1700000000E+05    0.5579657697E+00    0.2786974910E+00    0.2436698948E+00    0.9532261520E-02    0.1150529806E+00
    0.1900000000E+05    0.5585951907E+00    0.2750665669E+00    0.2501417190E+00    0.9366296232E-02    0.1152048922E+00
    0.2100000000E+05    0.5591010748E+00    0.2717001039E+00    0.2560543756E+00    0.9214518246E-02    0.1153292332E+00
    0.2300000000E+05    0.5595162015E+00    0.2685623016E+00    0.2615002335E+00    0.9074713204E-02    0.1154331255E+00
    0.2500000000E+05    0.5598627306E+00    0.2656240286E+00    0.2665499827E+00    0.8945148241E-02    0.1155214146E+00
    0.2700000000E+05    0.5601561739E+00    0.2628613320E+00    0.2712590180E+00    0.8824442080E-02    0.1155975142E+00
    0.2900000000E+05    0.5604077101E+00    0.2602543110E+00    0.2756716134E+00    0.8711475992E-02    0.1156639004E+00
    0.3100000000E+05    0.5606255966E+00    0.2577862672E+00    0.2798237519E+00    0.8605331189E-02    0.1157224137E+00
    0.3300000000E+05    0.5608160633E+00    0.2554430603E+00    0.2837451015E+00    0.8505243802E-02    0.1157744516E+00
    0.3500000000E+05    0.5609838980E+00    0.2532126145E+00    0.2874604300E+00    0.8410571852E-02    0.1158210952E+00
    0.3700000000E+05    0.5611328400E+00    0.2510845365E+00    0.2909906423E+00    0.8320770570E-02    0.1158631939E+00
    0.3900000000E+05    0.5612658514E+00    0.2490498180E+00    0.2943535535E+00    0.8235373675E-02    0.1159014250E+00
    0.4100000000E+05    0.5613853092E+00    0.2471005991E+00    0.2975644775E+00    0.8153978946E-02    0.1159363354E+00
    0.4300000000E+05    0.5614931419E+00    0.2452299814E+00    0.3006366795E+00    0.8076236979E-02    0.1159683716E+00
    0.4500000000E+05    0.5615909310E+00    0.2434318768E+00    0.3035817305E+00    0.8001842297E-02    0.1159979020E+00
    0.4700000000E+05    0.5616799851E+00    0.2417008846E+00    0.3064097874E+00    0.7930526266E-02    0.1160252334E+00
    0.4900000000E+05    0.5617613961E+00    0.2400321918E+00    0.3091298170E+00    0.7862051388E-02    0.1160506234E+00
    0.1000000000E+05    0.5536857345E+00    0.2942335559E+00    0.2142898128E+00    0.1027679637E-01    0.1140673548E+00
    0.3000000000E+05    0.5605204307E+00    0.2590038543E+00    0.2777782563E+00    0.8657601867E-02    0.1156940451E+00
    0.5000000000E+05    0.5617995283E+00    0.2392198435E+00    0.3104518436E+00    0.7828812513E-02    0.1160626599E+00
    0.7000000000E+05    0.5623224070E+00    0.2254007436E+00    0.3327563106E+00    0.7272437803E-02    0.1162402325E+00
    0.9000000000E+05    0.5626003071E+00    0.2147881576E+00    0.3496932559E+00    0.6855864121E-02    0.1163498882E+00
    0.1100000000E+06    0.5627695136E+00    0.2061884958E+00    0.3633234587E+00    0.6524509113E-02    0.1164267044E+00
    0.1300000000E+06    0.5628814981E+00    0.1989729207E+00    0.3747059943E+00    0.6250506977E-02    0.1164847678E+00
    0.1500000000E+06    0.5629598928E+00    0.1927682421E+00    0.3844597960E+00    0.6017694935E-02    0.1165309346E+00
    0.1700000000E+06    0.5630170182E+00    0.1873344148E+00    0.3929787883E+00    0.5815861736E-02    0.1165689847E+00
    0.1900000000E+06    0.5630599025E+00    0.1825077567E+00    0.4005294982E+00    0.5638146353E-02    0.1166011941E+00
    0.2100000000E+06    0.5630928337E+00    0.1781715931E+00    0.4073007720E+00    0.5479718742E-02    0.1166290262E+00
    0.2300000000E+06    0.5631185686E+00    0.1742398017E+00    0.4134313389E+00    0.5337051872E-02    0.1166534708E+00
    0.2500000000E+06    0.5631389548E+00    0.1706469914E+00    0.4190261203E+00    0.5207493021E-02    0.1166752253E+00
    0.2700000000E+06    0.5631552743E+00    0.1673423406E+00    0.4241663929E+00    0.5088997871E-02    0.1166947974E+00
    0.2900000000E+06    0.5631684421E+00    0.1642855694E+00    0.4289163946E+00    0.4979958445E-02    0.1167125672E+00
    0.3100000000E+06    0.5631791272E+00    0.1614442148E+00    0.4333277717E+00    0.4879087777E-02    0.1167288259E+00
    0.3300000000E+06    0.5631878294E+00    0.1587917340E+00    0.4374426632E+00    0.4785340259E-02    0.1167438010E+00
    0.3500000000E+06    0.5631949283E+00    0.1563061499E+00    0.4412958943E+00    0.4697855194E-02    0.1167576735E+00
    0.3700000000E+06    0.5632007172E+00    0.1539690632E+00    0.4449165725E+00    0.4615915913E-02    0.1167705894E+00
    0.3900000000E+06    0.5632054259E+00    0.1517649181E+00    0.4483292699E+00    0.4538919556E-02    0.1167826681E+00
    0.4100000000E+06    0.5632092362E+00    0.1496804469E+00    0.4515549165E+00    0.4466354370E-02    0.1167940084E+00
    0.4300000000E+06    0.5632122943E+00    0.1477042442E+00    0.4546114822E+00    0.4397782377E-02    0.1168046930E+00
    0.4500000000E+06    0.5632147181E+00    0.1458264350E+00    0.4575145082E+00    0.4332825963E-02    0.1168147916E+00
    0.4700000000E+06    0.5632166042E+00    0.1440384143E+00    0.4602775234E+00    0.4271157369E-02    0.1168243636E+00
    0.4900000000E+06    0.5632180321E+00    0.1423326389E+00    0.4629123756E+00    0.4212490364E-02    0.1168334599E+00
    0.1000000000E+06    0.5626942967E+00    0.2102842052E+00    0.3568412857E+00    0.6681654719E-02    0.1163912694E+00
    0.3000000000E+06    0.5631740605E+00    0.1628397447E+00    0.4311615839E+00    0.4928572271E-02    0.1167208699E+00
    0.5000000000E+06    0.5632185952E+00    0.1415084847E+00    0.4641850498E+00    0.4184202700E-02    0.1168378437E+00
    0.7000000000E+06    0.5632170933E+00    0.1280772392E+00    0.4848938883E+00    0.3728460671E-02    0.1169086606E+00
    0.9000000000E+06    0.5632049988E+00    0.1184535954E+00    0.4996978535E+00    0.3407991542E-02    0.1169593488E+00
    0.1100000000E+07    0.5631901803E+00    0.1110515806E+00    0.5110666638E+00    0.3164960551E-02    0.1169987909E+00
    0.1300000000E+07    0.5631750055E+00    0.1050946493E+00    0.5202055095E+00    0.2971576069E-02    0.1170310614E+00
    0.1500000000E+07    0.5631602784E+00    0.1001468735E+00    0.5277893911E+00    0.2812459387E-02    0.1170583632E+00
    0.1700000000E+07    0.5631462670E+00    0.9594020360E-01    0.5342326533E+00    0.2678263812E-02    0.1170820207E+00
    0.1900000000E+07    0.5631330363E+00    0.9229866722E-01    0.5398069456E+00    0.2562913178E-02    0.1171028918E+00
    0.2100000000E+07    0.5631205705E+00    0.8910087822E-01    0.5446994487E+00    0.2462251402E-02    0.1171215633E+00
    0.2300000000E+07    0.5631088232E+00    0.8625978929E-01    0.5490442697E+00    0.2373320162E-02    0.1171384547E+00
    0.2500000000E+07    0.5630977381E+00    0.8371099246E-01    0.5529405600E+00    0.2293944972E-02    0.1171538759E+00
    0.2700000000E+07    0.5630872585E+00    0.8140558487E-01    0.5564635518E+00    0.2222484636E-02    0.1171680625E+00
    0.2900000000E+07    0.5630773306E+00    0.7930562317E-01    0.5596715823E+00    0.2157672655E-02    0.1171811976E+00
    0.3100000000E+07    0.5630679054E+00    0.7738111928E-01    0.5626107336E+00    0.2098513037E-02    0.1171934265E+00
    0.3300000000E+07    0.5630589387E+00    0.7560799260E-01    0.5653179925E+00    0.2044209661E-02    0.1172048661E+00
    0.3500000000E+07    0.5630503911E+00    0.7396663638E-01    0.5678234614E+00    0.1994117072E-02    0.1172156124E+00
    0.3700000000E+07    0.5630422273E+00    0.7244089083E-01    0.5701519409E+00    0.1947705405E-02    0.1172257445E+00
    0.3900000000E+07    0.5630344160E+00    0.7101729251E-01    0.5723240860E+00    0.1904534847E-02    0.1172353291E+00
    0.4100000000E+07    0.5630269292E+00    0.6968451569E-01    0.5743572668E+00    0.1864236713E-02    0.1172444223E+00
    0.4300000000E+07    0.5630197421E+00    0.6843295011E-01    0.5762662176E+00    0.1826499196E-02    0.1172530721E+00
    0.4500000000E+07    0.5630128323E+00    0.6725437702E-01    0.5780635360E+00    0.1791056472E-02    0.1172613198E+00
    0.4700000000E+07    0.5630061799E+00    0.6614171764E-01    0.5797600692E+00    0.1757680265E-02    0.1172692012E+00
    0.4900000000E+07    0.5629997667E+00    0.6508883540E-01    0.5813652185E+00    0.1726173245E-02    0.1172767475E+00
    0.1000000000E+07    0.5631977240E+00    0.1145345858E+00    0.5057189275E+00    0.3278942561E-02    0.1169801583E+00
    0.3000000000E+07    0.5630725580E+00    0.7832306330E-01    0.5611722726E+00    0.2127440083E-02    0.1171874175E+00
    0.5000000000E+07    0.5629966447E+00    0.6458311133E-01    0.5821361271E+00    0.1711066165E-02    0.1172804036E+00
    0.7000000000E+07    0.5629435585E+00    0.5660649418E-01    0.5942883607E+00    0.1475123152E-02    0.1173411126E+00
    0.9000000000E+07    0.5629028065E+00    0.5118426209E-01    0.6025414564E+00    0.1317358892E-02    0.1173862817E+00
    0.1100000000E+08    0.5628697471E+00    0.4717059330E-01    0.6086466149E+00    0.1202033006E-02    0.1174222748E+00
    0.1300000000E+08    0.5628419394E+00    0.4403525358E-01    0.6134133638E+00    0.1112852065E-02    0.1174522026E+00
    0.1500000000E+08    0.5628179440E+00    0.4149310781E-01    0.6172766995E+00    0.1041155451E-02    0.1174778204E+00
    0.1700000000E+08    0.5627968419E+00    0.3937477722E-01    0.6204948706E+00    0.9818472889E-03    0.1175002170E+00
    0.1900000000E+08    0.5627780104E+00    0.3757221272E-01    0.6232325390E+00    0.9317030273E-03    0.1175201142E+00
    0.2100000000E+08    0.5627610084E+00    0.3601268280E-01    0.6256004996E+00    0.8885673111E-03    0.1175380153E+00
    0.2300000000E+08    0.5627455118E+00    0.3464512662E-01    0.6276765088E+00    0.8509363575E-03    0.1175542854E+00
    0.2500000000E+08    0.5627312756E+00    0.3343246301E-01    0.6295170178E+00    0.8177241639E-03    0.1175691978E+00
    0.2700000000E+08    0.5627181103E+00    0.3234700242E-01    0.6311641689E+00    0.7881238662E-03    0.1175829621E+00
