  Pressure (Pa) 22mC5-400 (mol/kg) 2mC6-400 (mol/kg) 3mC6-400 (mol/kg) 33mC5-400 (mol/kg) 23mC5-400 (mol/kg)
    0.1000000000E+01    0.3691111352E-02    0.4758569298E-02    0.2111904366E-02    0.1291416068E-03    0.9258867973E-04
    0.3000000000E+01    0.1085180021E-01    0.1390719959E-01    0.6223763887E-02    0.3773947191E-03    0.2722129332E-03
    0.5000000000E+01    0.1773476706E-01    0.2259355448E-01    0.1019340828E-01    0.6130642988E-03    0.4448755696E-03
    0.7000000000E+01    0.2435941740E-01    0.3084971237E-01    0.1402873879E-01    0.8370221442E-03    0.6110629542E-03
    0.9000000000E+01    0.3074333562E-01    0.3870487129E-01    0.1773707108E-01    0.1050061860E-02    0.7712158127E-03
    0.1100000000E+02    0.3690249433E-01    0.4618566578E-01    0.2132518884E-01    0.1252907452E-02    0.9257344790E-03
    0.1300000000E+02    0.4285143563E-01    0.5331644271E-01    0.2479939166E-01    0.1446220812E-02    0.1074983435E-02
    0.1500000000E+02    0.4860342835E-01    0.6011950209E-01    0.2816553770E-01    0.1630608249E-02    0.1219295254E-02
    0.1700000000E+02    0.5417060507E-01    0.6661530796E-01    0.3142908201E-01    0.1806626211E-02    0.1358974033E-02
    0.1900000000E+02    0.5956408185E-01    0.7282267370E-01    0.3459511084E-01    0.1974786317E-02    0.1494298389E-02
    0.2100000000E+02    0.6479406304E-01    0.7875892522E-01    0.3766837256E-01    0.2135559780E-02    0.1625524095E-02
    0.2300000000E+02    0.6986993348E-01    0.8444004513E-01    0.4065330543E-01    0.2289381326E-02    0.1752886381E-02
    0.2500000000E+02    0.7480033969E-01    0.8988080047E-01    0.4355406274E-01    0.2436652655E-02    0.1876601975E-02
    0.2700000000E+02    0.7959326158E-01    0.9509485596E-01    0.4637453551E-01    0.2577745520E-02    0.1996870896E-02
    0.2900000000E+02    0.8425607597E-01    0.1000948750E+00    0.4911837301E-01    0.2713004463E-02    0.2113878050E-02
    0.3100000000E+02    0.8879561296E-01    0.1048926094E+00    0.5178900143E-01    0.2842749262E-02    0.2227794637E-02
    0.3300000000E+02    0.9321820614E-01    0.1094989802E+00    0.5438964080E-01    0.2967277108E-02    0.2338779417E-02
    0.3500000000E+02    0.9752973727E-01    0.1139241493E+00    0.5692332043E-01    0.3086864566E-02    0.2446979822E-02
    0.3700000000E+02    0.1017356763E+00    0.1181775844E+00    0.5939289289E-01    0.3201769331E-02    0.2552532964E-02
    0.3900000000E+02    0.1058411171E+00    0.1222681169E+00    0.6180104692E-01    0.3312231803E-02    0.2655566528E-02
    0.4100000000E+02    0.1098508097E+00    0.1262039945E+00    0.6415031905E-01    0.3418476514E-02    0.2756199582E-02
    0.4300000000E+02    0.1137691890E+00    0.1299929286E+00    0.6644310436E-01    0.3520713412E-02    0.2854543295E-02
    0.4500000000E+02    0.1176004009E+00    0.1336421368E+00    0.6868166631E-01    0.3619139020E-02    0.2950701593E-02
    0.4700000000E+02    0.1213483259E+00    0.1371583815E+00    0.7086814573E-01    0.3713937491E-02    0.3044771747E-02
    0.4900000000E+02    0.1250165998E+00    0.1405480057E+00    0.7300456909E-01    0.3805281563E-02    0.3136844901E-02
    0.1000000000E+02    0.3385006945E-01    0.4249049177E-01    0.1954575223E-01    0.1152716178E-02    0.8491558483E-03
    0.3000000000E+02    0.8654084720E-01    0.1025183266E+00    0.5046263246E-01    0.2778547051E-02    0.2171212464E-02
    0.5000000000E+02    0.1268219419E+00    0.1421972104E+00    0.7405461364E-01    0.3849709273E-02    0.3182159531E-02
    0.7000000000E+02    0.1594728928E+00    0.1698022261E+00    0.9284420752E-01    0.4591463412E-02    0.4001803455E-02
    0.9000000000E+02    0.1869988889E+00    0.1897101674E+00    0.1082964249E+00    0.5123065606E-02    0.4692944461E-02
    0.1100000000E+03    0.2108506230E+00    0.2044468719E+00    0.1213235611E+00    0.5513402089E-02    0.5291950355E-02
    0.1300000000E+03    0.2319334307E+00    0.2155675722E+00    0.1325252638E+00    0.5804927623E-02    0.5821518119E-02
    0.1500000000E+03    0.2508464130E+00    0.2240791062E+00    0.1423130564E+00    0.6025152855E-02    0.6296667814E-02
    0.1700000000E+03    0.2680052605E+00    0.2306598612E+00    0.1509794971E+00    0.6192631685E-02    0.6727821484E-02
    0.1900000000E+03    0.2837099470E+00    0.2357820560E+00    0.1587387721E+00    0.6320291741E-02    0.7122500127E-02
    0.2100000000E+03    0.2981842258E+00    0.2397834045E+00    0.1657516388E+00    0.6417387210E-02    0.7486313828E-02
    0.2300000000E+03    0.3115997846E+00    0.2429109872E+00    0.1721413524E+00    0.6490694954E-02    0.7823567342E-02
    0.2500000000E+03    0.3240916172E+00    0.2453491138E+00    0.1780041772E+00    0.6545274574E-02    0.8137645442E-02
    0.2700000000E+03    0.3357681409E+00    0.2472375829E+00    0.1834165223E+00    0.6584966805E-02    0.8431266604E-02
    0.2900000000E+03    0.3467180565E+00    0.2486839770E+00    0.1884399082E+00    0.6612729332E-02    0.8706654972E-02
    0.3100000000E+03    0.3570151197E+00    0.2497721407E+00    0.1931245000E+00    0.6630868501E-02    0.8965659992E-02
    0.3300000000E+03    0.3667215371E+00    0.2505681487E+00    0.1975116698E+00    0.6641202565E-02    0.9209841566E-02
    0.3500000000E+03    0.3758904338E+00    0.2511245868E+00    0.2016358878E+00    0.6645178859E-02    0.9440531906E-02
    0.3700000000E+03    0.3845676798E+00    0.2514836722E+00    0.2055261401E+00    0.6643959300E-02    0.9658881325E-02
    0.3900000000E+03    0.3927932645E+00    0.2516795625E+00    0.2092070064E+00    0.6638483717E-02    0.9865892706E-02
    0.4100000000E+03    0.4006023478E+00    0.2517400877E+00    0.2126994897E+00    0.6629517377E-02    0.1006244786E-01
    0.4300000000E+03    0.4080260762E+00    0.2516880642E+00    0.2160216633E+00    0.6617687104E-02    0.1024932795E-01
    0.4500000000E+03    0.4150922229E+00    0.2515423029E+00    0.2191891798E+00    0.6603509017E-02    0.1042722959E-01
    0.4700000000E+03    0.4218256989E+00    0.2513183910E+00    0.2222156758E+00    0.6587410054E-02    0.1059677764E-01
    0.4900000000E+03    0.4282489630E+00    0.2510293032E+00    0.2251130976E+00    0.6569744823E-02    0.1075853545E-01
    0.1000000000E+03    0.1993182693E+00    0.1976112916E+00    0.1150701472E+00    0.5332791020E-02    0.5002315459E-02
    0.3000000000E+03    0.3519440687E+00    0.2492683484E+00    0.1908217864E+00    0.6622878313E-02    0.8838101938E-02
    0.5000000000E+03    0.4313506973E+00    0.2508637793E+00    0.2265167423E+00    0.6560419229E-02    0.1083665436E-01
    0.7000000000E+03    0.4811731060E+00    0.2459916693E+00    0.2498111096E+00    0.6342010578E-02    0.1209225151E-01
    0.9000000000E+03    0.5149617315E+00    0.2403281616E+00    0.2671435912E+00    0.6120003303E-02    0.1294488735E-01
    0.1100000000E+04    0.5390917741E+00    0.2349645122E+00    0.2809745430E+00    0.5920246908E-02    0.1355461164E-01
    0.1300000000E+04    0.5570175683E+00    0.2300896997E+00    0.2924978927E+00    0.5744526472E-02    0.1400819208E-01
    0.1500000000E+04    0.5707625532E+00    0.2256859778E+00    0.3023825475E+00    0.5589792108E-02    0.1435648028E-01
    0.1700000000E+04    0.5815796563E+00    0.2216927814E+00    0.3110411679E+00    0.5452500769E-02    0.1463097943E-01
    0.1900000000E+04    0.5902796624E+00    0.2180484496E+00    0.3187465448E+00    0.5329581747E-02    0.1485208546E-01
    0.2100000000E+04    0.5974068351E+00    0.2146999245E+00    0.3256886230E+00    0.5218560020E-02    0.1503349629E-01
    0.2300000000E+04    0.6033381108E+00    0.2116036815E+00    0.3320051194E+00    0.5117478601E-02    0.1518470315E-01
    0.2500000000E+04    0.6083416693E+00    0.2087244437E+00    0.3377991668E+00    0.5024790946E-02    0.1531246200E-01
    0.2700000000E+04    0.6126128475E+00    0.2060335785E+00    0.3431500684E+00    0.4939266484E-02    0.1542169613E-01
    0.2900000000E+04    0.6162968920E+00    0.2035076844E+00    0.3481201618E+00    0.4859916479E-02    0.1551606813E-01
    0.3100000000E+04    0.6195037948E+00    0.2011274608E+00    0.3527593678E+00    0.4785937971E-02    0.1559835295E-01
    0.3300000000E+04    0.6223182154E+00    0.1988768353E+00    0.3571083059E+00    0.4716671865E-02    0.1567068750E-01
    0.3500000000E+04    0.6248062717E+00    0.1967422947E+00    0.3612004855E+00    0.4651571560E-02    0.1573474150E-01
    0.3700000000E+04    0.6270202812E+00    0.1947123740E+00    0.3650638855E+00    0.4590179339E-02    0.1579183685E-01
    0.3900000000E+04    0.6290021352E+00    0.1927772627E+00    0.3687221159E+00    0.4532108446E-02    0.1584303251E-01
    0.4100000000E+04    0.6307857393E+00    0.1909284998E+00    0.3721952887E+00    0.4477029343E-02    0.1588918606E-01
    0.4300000000E+04    0.6323988061E+00    0.1891587349E+00    0.3755006808E+00    0.4424659075E-02    0.1593099875E-01
    0.4500000000E+04    0.6338641905E+00    0.1874615401E+00    0.3786532462E+00    0.4374752954E-02    0.1596904926E-01
    0.4700000000E+04    0.6352008970E+00    0.1858312593E+00    0.3816660174E+00    0.4327097991E-02    0.1600381899E-01
    0.4900000000E+04    0.6364248490E+00    0.1842628878E+00    0.3845504227E+00    0.4281507671E-02    0.1603571154E-01
    0.1000000000E+04    0.5279732519E+00    0.2375885645E+00    0.2744048466E+00    0.6017020147E-02    0.1327356294E-01
    0.3000000000E+04    0.6179541929E+00    0.2023004352E+00    0.3504783982E+00    0.4822299942E-02    0.1555857523E-01
    0.5000000000E+04    0.6369988244E+00    0.1835005076E+00    0.3859476846E+00    0.4259434652E-02    0.1605068746E-01
    0.7000000000E+04    0.6449302171E+00    0.1706407137E+00    0.4090772221E+00    0.3895110025E-02    0.1625935160E-01
    0.9000000000E+04    0.6492306716E+00    0.1609042610E+00    0.4261034736E+00    0.3628151861E-02    0.1637456233E-01
    0.1100000000E+05    0.6519170319E+00    0.1531077686E+00    0.4394830072E+00    0.3419133216E-02    0.1644784696E-01
    0.1300000000E+05    0.6537502961E+00    0.1466346267E+00    0.4504413984E+00    0.3248489452E-02    0.1649876734E-01
    0.1500000000E+05    0.6550794169E+00    0.1411211715E+00    0.4596788891E+00    0.3105071629E-02    0.1653634882E-01
    0.1700000000E+05    0.6560863762E+00    0.1363346136E+00    0.4676329965E+00    0.2981924444E-02    0.1656532735E-01
    0.1900000000E+05    0.6568751941E+00    0.1321169215E+00    0.4745951157E+00    0.2874420592E-02    0.1658842679E-01
    0.2100000000E+05    0.6575095653E+00    0.1283559357E+00    0.4807688834E+00    0.2779329390E-02    0.1660732542E-01
    0.2300000000E+05    0.6580306410E+00    0.1249692228E+00    0.4863020617E+00    0.2694308699E-02    0.1662311423E-01
    0.2500000000E+05    0.6584661761E+00    0.1218944608E+00    0.4913051640E+00    0.2617608374E-02    0.1663653363E-01
    0.2700000000E+05    0.6588355621E+00    0.1190834197E+00    0.4958629296E+00    0.2547887676E-02    0.1664810413E-01
    0.2900000000E+05    0.6591527522E+00    0.1164980345E+00    0.5000417056E+00    0.2484097856E-02    0.1665820256E-01
    0.3100000000E+05    0.6594280404E+00    0.1141077550E+00    0.5038943701E+00    0.2425403879E-02    0.1666710866E-01
    0.3300000000E+05    0.6596691854E+00    0.1118877040E+00    0.5074637162E+00    0.2371130631E-02    0.1667503456E-01
    0.3500000000E+05    0.6598821451E+00    0.1098173662E+00    0.5107848399E+00    0.2320724976E-02    0.1668214413E-01
    0.3700000000E+05    0.6600715700E+00    0.1078796332E+00    0.5138868645E+00    0.2273728376E-02    0.1668856610E-01
    0.3900000000E+05    0.6602411423E+00    0.1060600964E+00    0.5167942084E+00    0.2229756753E-02    0.1669440297E-01
    0.4100000000E+05    0.6603938155E+00    0.1043465123E+00    0.5195275363E+00    0.2188485396E-02    0.1669973749E-01
    0.4300000000E+05    0.6605319858E+00    0.1027283944E+00    0.5221044822E+00    0.2149637495E-02    0.1670463717E-01
    0.4500000000E+05    0.6606576177E+00    0.1011966958E+00    0.5245402077E+00    0.2112975291E-02    0.1670915772E-01
    0.4700000000E+05    0.6607723366E+00    0.9974356046E-01    0.5268478374E+00    0.2078293166E-02    0.1671334548E-01
    0.4900000000E+05    0.6608774992E+00    0.9836212515E-01    0.5290388039E+00    0.2045412187E-02    0.1671723937E-01
    0.1000000000E+05    0.6507134846E+00    0.1568101893E+00    0.4331553514E+00    0.3517897797E-02    0.1641485088E-01
    0.3000000000E+05    0.6592950998E+00    0.1152801769E+00    0.5020059228E+00    0.2454159323E-02    0.1666279008E-01
    0.5000000000E+05    0.6609268607E+00    0.9769638215E-01    0.5300937173E+00    0.2029597419E-02    0.1671908661E-01
    0.7000000000E+05    0.6616131223E+00    0.8700466492E-01    0.5469544780E+00    0.1778406611E-02    0.1674645808E-01
    0.9000000000E+05    0.6619897866E+00    0.7952870472E-01    0.5586603061E+00    0.1605917026E-02    0.1676350761E-01
    0.1100000000E+06    0.6622272282E+00    0.7388438380E-01    0.5674567342E+00    0.1477441806E-02    0.1677554077E-01
    0.1300000000E+06    0.6623902840E+00    0.6940898148E-01    0.5744077850E+00    0.1376671790E-02    0.1678469458E-01
    0.1500000000E+06    0.6625089848E+00    0.6573717880E-01    0.5800958582E+00    0.1294739213E-02    0.1679201276E-01
    0.1700000000E+06    0.6625991362E+00    0.6264775387E-01    0.5848717963E+00    0.1226333087E-02    0.1679807285E-01
    0.1900000000E+06    0.6626698449E+00    0.5999737424E-01    0.5889619955E+00    0.1168044000E-02    0.1680322380E-01
    0.2100000000E+06    0.6627267249E+00    0.5768829936E-01    0.5925203349E+00    0.1117565418E-02    0.1680769075E-01
    0.2300000000E+06    0.6627734241E+00    0.5565114918E-01    0.5956557484E+00    0.1073271437E-02    0.1681162650E-01
    0.2500000000E+06    0.6628124147E+00    0.5383505453E-01    0.5984479231E+00    0.1033977320E-02    0.1681513901E-01
    0.2700000000E+06    0.6628454310E+00    0.5220170946E-01    0.6009567473E+00    0.9987958941E-03    0.1681830713E-01
    0.2900000000E+06    0.6628737254E+00    0.5072161510E-01    0.6032282610E+00    0.9670474241E-03    0.1682119004E-01
    0.3100000000E+06    0.6628982245E+00    0.4937161730E-01    0.6052985467E+00    0.9382008544E-03    0.1682383322E-01
    0.3300000000E+06    0.6629196283E+00    0.4813324074E-01    0.6071963568E+00    0.9118342597E-03    0.1682627226E-01
    0.3500000000E+06    0.6629384757E+00    0.4699153064E-01    0.6089449365E+00    0.8876074767E-03    0.1682853554E-01
    0.3700000000E+06    0.6629551879E+00    0.4593422855E-01    0.6105633190E+00    0.8652427096E-03    0.1683064604E-01
    0.3900000000E+06    0.6629700989E+00    0.4495117332E-01    0.6120672652E+00    0.8445104945E-03    0.1683262255E-01
    0.4100000000E+06    0.6629834771E+00    0.4403385796E-01    0.6134699582E+00    0.8252193528E-03    0.1683448068E-01
    0.4300000000E+06    0.6629955401E+00    0.4317509631E-01    0.6147825249E+00    0.8072080370E-03    0.1683623350E-01
    0.4500000000E+06    0.6630064669E+00    0.4236876871E-01    0.6160144335E+00    0.7903396332E-03    0.1683789206E-01
    0.4700000000E+06    0.6630164054E+00    0.4160962533E-01    0.6171738003E+00    0.7744970154E-03    0.1683946578E-01
    0.4900000000E+06    0.6630254792E+00    0.4089313229E-01    0.6182676302E+00    0.7595792998E-03    0.1684096275E-01
    0.1000000000E+06    0.6621206308E+00    0.7652882591E-01    0.5633397447E+00    0.1537443922E-02    0.1676997969E-01
    0.3000000000E+06    0.6628864012E+00    0.5003160296E-01    0.6042866129E+00    0.9522899620E-03    0.1682253918E-01
    0.5000000000E+06    0.6630297249E+00    0.4054962812E-01    0.6187919013E+00    0.7524394946E-03    0.1684168469E-01
    0.7000000000E+06    0.6630875323E+00    0.3518672053E-01    0.6269656379E+00    0.6420259550E-03    0.1685338965E-01
    0.9000000000E+06    0.6631177038E+00    0.3159994664E-01    0.6324206613E+00    0.5693532284E-03    0.1686181183E-01
    0.1100000000E+07    0.6631356827E+00    0.2897528813E-01    0.6364066524E+00    0.5168195451E-03    0.1686838697E-01
    0.1300000000E+07    0.6631472898E+00    0.2694284318E-01    0.6394899623E+00    0.4765391535E-03    0.1687377867E-01
    0.1500000000E+07    0.6631551880E+00    0.2530635939E-01    0.6419705061E+00    0.4443742399E-03    0.1687834764E-01
    0.1700000000E+07    0.6631607596E+00    0.2395048659E-01    0.6440243132E+00    0.4179147420E-03    0.1688231160E-01
    0.1900000000E+07    0.6631647891E+00    0.2280227632E-01    0.6457625805E+00    0.3956482449E-03    0.1688581201E-01
    0.2100000000E+07    0.6631677526E+00    0.2181298064E-01    0.6472595472E+00    0.3765708493E-03    0.1688894593E-01
    0.2300000000E+07    0.6631699543E+00    0.2094858913E-01    0.6485669680E+00    0.3599863167E-03    0.1689178283E-01
    0.2500000000E+07    0.6631715969E+00    0.2018453674E-01    0.6497221994E+00    0.3453944508E-03    0.1689437415E-01
    0.2700000000E+07    0.6631728200E+00    0.1950256779E-01    0.6507529869E+00    0.3324253267E-03    0.1689675904E-01
    0.2900000000E+07    0.6631737225E+00    0.1888878784E-01    0.6516804372E+00    0.3207986428E-03    0.1689896798E-01
    0.3100000000E+07    0.6631743765E+00    0.1833240526E-01    0.6525209357E+00    0.3102975819E-03    0.1690102515E-01
    0.3300000000E+07    0.6631748350E+00    0.1782489077E-01    0.6532874278E+00    0.3007514305E-03    0.1690295009E-01
    0.3500000000E+07    0.6631751383E+00    0.1735940007E-01    0.6539902974E+00    0.2920236847E-03    0.1690475878E-01
    0.3700000000E+07    0.6631753170E+00    0.1693036733E-01    0.6546379861E+00    0.2840037063E-03    0.1690646446E-01
    0.3900000000E+07    0.6631753951E+00    0.1653321264E-01    0.6552374379E+00    0.2766007396E-03    0.1690807826E-01
    0.4100000000E+07    0.6631753914E+00    0.1616412758E-01    0.6557944254E+00    0.2697395384E-03    0.1690960957E-01
    0.4300000000E+07    0.6631753206E+00    0.1581991523E-01    0.6563137931E+00    0.2633571148E-03    0.1691106642E-01
    0.4500000000E+07    0.6631751948E+00    0.1549786903E-01    0.6567996414E+00    0.2574002838E-03    0.1691245572E-01
    0.4700000000E+07    0.6631750235E+00    0.1519567986E-01    0.6572554679E+00    0.2518237841E-03    0.1691378346E-01
    0.4900000000E+07    0.6631748146E+00    0.1491136377E-01    0.6576842767E+00    0.2465888217E-03    0.1691505488E-01
    0.1000000000E+07    0.6631277419E+00    0.3019629550E-01    0.6345529463E+00    0.5411880828E-03    0.1686527869E-01
    0.3000000000E+07    0.6631740769E+00    0.1860400021E-01    0.6521106775E+00    0.3154189992E-03    0.1690001422E-01
    0.5000000000E+07    0.6631746982E+00    0.1477536282E-01    0.6578893751E+00    0.2440887759E-03    0.1691567093E-01
    0.7000000000E+07    0.6631714761E+00    0.1267750882E-01    0.6610514448E+00    0.2058748624E-03    0.1692590343E-01
    0.9000000000E+07    0.6631677753E+00    0.1130057753E-01    0.6631251860E+00    0.1811781957E-03    0.1693351944E-01
    0.1100000000E+08    0.6631642110E+00    0.1030593223E-01    0.6646223292E+00    0.1635482657E-03    0.1693958901E-01
    0.1300000000E+08    0.6631609084E+00    0.9543090774E-02    0.6657700657E+00    0.1501563349E-03    0.1694463587E-01
    0.1500000000E+08    0.6631578751E+00    0.8933482518E-02    0.6666869394E+00    0.1395406976E-03    0.1694895578E-01
    0.1700000000E+08    0.6631550885E+00    0.8431490814E-02    0.6674417396E+00    0.1308599595E-03    0.1695273223E-01
    0.1900000000E+08    0.6631525200E+00    0.8008550571E-02    0.6680775243E+00    0.1235910826E-03    0.1695608696E-01
    0.2100000000E+08    0.6631501424E+00    0.7645728382E-02    0.6686228234E+00    0.1173895974E-03    0.1695910487E-01
    0.2300000000E+08    0.6631479321E+00    0.7329905854E-02    0.6690973983E+00    0.1120181827E-03    0.1696184754E-01
    0.2500000000E+08    0.6631458686E+00    0.7051664157E-02    0.6695154342E+00    0.1073073130E-03    0.1696436107E-01
    0.2700000000E+08    0.6631439346E+00    0.6804040009E-02    0.6698874155E+00    0.1031322403E-03    0.1696668086E-01
