  Pressure (Pa) 22mC5-400 (mol/kg) 2mC6-400 (mol/kg) 3mC6-400 (mol/kg) 33mC5-400 (mol/kg) 23mC5-400 (mol/kg)
    0.1000000000E+01    0.3696056249E-02    0.3180780899E-02    0.1587837811E-02    0.3237069268E-03    0.9271266142E-04
    0.3000000000E+01    0.1089412163E-01    0.9343936103E-02    0.4701842631E-02    0.9508428568E-03    0.2732740566E-03
    0.5000000000E+01    0.1784668834E-01    0.1525548300E-01    0.7736478708E-02    0.1552259815E-02    0.4476818025E-03
    0.7000000000E+01    0.2456848934E-01    0.2092989028E-01    0.1069500904E-01    0.2129432713E-02    0.6163051353E-03
    0.9000000000E+01    0.3107306877E-01    0.2638052868E-01    0.1358051685E-01    0.2683724770E-02    0.7794835003E-03
    0.1100000000E+02    0.3737289958E-01    0.3161977466E-01    0.1639591786E-01    0.3216398042E-02    0.9375294992E-03
    0.1300000000E+02    0.4347948745E-01    0.3665910241E-01    0.1914397159E-01    0.3728622771E-02    0.1090731494E-02
    0.1500000000E+02    0.4940346291E-01    0.4150916566E-01    0.2182729178E-01    0.4221485701E-02    0.1239355915E-02
    0.1700000000E+02    0.5515466314E-01    0.4617987074E-01    0.2444835594E-01    0.4695997501E-02    0.1383649311E-02
    0.1900000000E+02    0.6074220481E-01    0.5068044179E-01    0.2700951416E-01    0.5153099394E-02    0.1523840176E-02
    0.2100000000E+02    0.6617454902E-01    0.5501947926E-01    0.2951299728E-01    0.5593669100E-02    0.1660140572E-02
    0.2300000000E+02    0.7145955942E-01    0.5920501234E-01    0.3196092442E-01    0.6018526173E-02    0.1792747592E-02
    0.2500000000E+02    0.7660455421E-01    0.6324454622E-01    0.3435530990E-01    0.6428436801E-02    0.1921844656E-02
    0.2700000000E+02    0.8161635283E-01    0.6714510460E-01    0.3669806975E-01    0.6824118132E-02    0.2047602686E-02
    0.2900000000E+02    0.8650131796E-01    0.7091326817E-01    0.3899102762E-01    0.7206242182E-02    0.2170181158E-02
    0.3100000000E+02    0.9126539331E-01    0.7455520931E-01    0.4123592035E-01    0.7575439373E-02    0.2289729046E-02
    0.3300000000E+02    0.9591413779E-01    0.7807672364E-01    0.4343440315E-01    0.7932301732E-02    0.2406385680E-02
    0.3500000000E+02    0.1004527563E+00    0.8148325862E-01    0.4558805431E-01    0.8277385808E-02    0.2520281522E-02
    0.3700000000E+02    0.1048861279E+00    0.8477993952E-01    0.4769837971E-01    0.8611215313E-02    0.2631538859E-02
    0.3900000000E+02    0.1092188305E+00    0.8797159315E-01    0.4976681694E-01    0.8934283533E-02    0.2740272444E-02
    0.4100000000E+02    0.1134551649E+00    0.9106276945E-01    0.5179473915E-01    0.9247055529E-02    0.2846590069E-02
    0.4300000000E+02    0.1175991746E+00    0.9405776120E-01    0.5378345868E-01    0.9549970143E-02    0.2950593090E-02
    0.4500000000E+02    0.1216546657E+00    0.9696062212E-01    0.5573423038E-01    0.9843441836E-02    0.3052376907E-02
    0.4700000000E+02    0.1256252238E+00    0.9977518337E-01    0.5764825481E-01    0.1012786237E-01    0.3152031397E-02
    0.4900000000E+02    0.1295142303E+00    0.1025050687E+00    0.5952668111E-01    0.1040360237E-01    0.3249641314E-02
    0.1000000000E+02    0.3424783711E-01    0.2902583845E-01    0.1499680470E-01    0.2952688564E-02    0.8591294832E-03
    0.3000000000E+02    0.8889811078E-01    0.7274964583E-01    0.4011937682E-01    0.7392418769E-02    0.2230325000E-02
    0.5000000000E+02    0.1314291561E+00    0.1038393372E+00    0.6045289069E-01    0.1053832755E-01    0.3297704732E-02
    0.7000000000E+02    0.1661336592E+00    0.1268225025E+00    0.7735250514E-01    0.1285315378E-01    0.4168864743E-02
    0.9000000000E+02    0.1954115713E+00    0.1443076053E+00    0.9169783028E-01    0.1460388238E-01    0.4903963267E-02
    0.1100000000E+03    0.2207174627E+00    0.1579057677E+00    0.1040859160E+00    0.1595563963E-01    0.5539462964E-02
    0.1300000000E+03    0.2429900514E+00    0.1686658603E+00    0.1149370615E+00    0.1701606103E-01    0.6098896246E-02
    0.1500000000E+03    0.2628665023E+00    0.1772994640E+00    0.1245562392E+00    0.1785825480E-01    0.6598236549E-02
    0.1700000000E+03    0.2807976576E+00    0.1843056420E+00    0.1331704732E+00    0.1853355052E-01    0.7048786640E-02
    0.1900000000E+03    0.2971138520E+00    0.1900441172E+00    0.1409525033E+00    0.1907898282E-01    0.7458828364E-02
    0.2100000000E+03    0.3120644214E+00    0.1947801897E+00    0.1480362801E+00    0.1952188912E-01    0.7834613013E-02
    0.2300000000E+03    0.3258424327E+00    0.1987133740E+00    0.1545274109E+00    0.1988284338E-01    0.8180981262E-02
    0.2500000000E+03    0.3386007270E+00    0.2019962505E+00    0.1605103826E+00    0.2017758921E-01    0.8501765334E-02
    0.2700000000E+03    0.3504626534E+00    0.2047472222E+00    0.1660536683E+00    0.2041834906E-01    0.8800058097E-02
    0.2900000000E+03    0.3615294500E+00    0.2070593558E+00    0.1712134107E+00    0.2061473238E-01    0.9078398083E-02
    0.3100000000E+03    0.3718854409E+00    0.2090066375E+00    0.1760361254E+00    0.2077437885E-01    0.9338899791E-02
    0.3300000000E+03    0.3816017774E+00    0.2106484824E+00    0.1805607173E+00    0.2090342252E-01    0.9583347469E-02
    0.3500000000E+03    0.3907391825E+00    0.2120330394E+00    0.1848200063E+00    0.2100683223E-01    0.9813263925E-02
    0.3700000000E+03    0.3993500021E+00    0.2131996478E+00    0.1888418962E+00    0.2108866495E-01    0.1002996193E-01
    0.3900000000E+03    0.4074797605E+00    0.2141806889E+00    0.1926502821E+00    0.2115225692E-01    0.1023458326E-01
    0.4100000000E+03    0.4151683609E+00    0.2150029978E+00    0.1962657614E+00    0.2120036950E-01    0.1042812872E-01
    0.4300000000E+03    0.4224510218E+00    0.2156889516E+00    0.1997061975E+00    0.2123530174E-01    0.1061148169E-01
    0.4500000000E+03    0.4293590193E+00    0.2162573167E+00    0.2029871697E+00    0.2125897811E-01    0.1078542669E-01
    0.4700000000E+03    0.4359202805E+00    0.2167239144E+00    0.2061223367E+00    0.2127301743E-01    0.1095066429E-01
    0.4900000000E+03    0.4421598644E+00    0.2171021482E+00    0.2091237315E+00    0.2127878762E-01    0.1110782313E-01
    0.1000000000E+03    0.2084934333E+00    0.1515171201E+00    0.9810698888E-01    0.1532189433E-01    0.5232468691E-02
    0.3000000000E+03    0.3667915767E+00    0.2080745918E+00    0.1736643064E+00    0.2069873354E-01    0.9210760372E-02
    0.5000000000E+03    0.4451661724E+00    0.2172617616E+00    0.2105776405E+00    0.2127894159E-01    0.1118355226E-01
    0.7000000000E+03    0.4928792928E+00    0.2178417452E+00    0.2346713082E+00    0.2105265529E-01    0.1238628174E-01
    0.9000000000E+03    0.5246751131E+00    0.2160992828E+00    0.2525232007E+00    0.2065055969E-01    0.1318892899E-01
    0.1100000000E+04    0.5471545931E+00    0.2136511087E+00    0.2667095624E+00    0.2022312145E-01    0.1375723096E-01
    0.1300000000E+04    0.5637612074E+00    0.2110171564E+00    0.2784890762E+00    0.1981167888E-01    0.1417769473E-01
    0.1500000000E+04    0.5764585818E+00    0.2083863966E+00    0.2885670471E+00    0.1942691544E-01    0.1449967705E-01
    0.1700000000E+04    0.5864399850E+00    0.2058309161E+00    0.2973774997E+00    0.1906999094E-01    0.1475318698E-01
    0.1900000000E+04    0.5944675014E+00    0.2033769592E+00    0.3052063332E+00    0.1873909628E-01    0.1495739982E-01
    0.2100000000E+04    0.6010479959E+00    0.2010315548E+00    0.3122518573E+00    0.1843165596E-01    0.1512507567E-01
    0.2300000000E+04    0.6065302339E+00    0.1987934306E+00    0.3186573110E+00    0.1814508550E-01    0.1526499906E-01
    0.2500000000E+04    0.6111612348E+00    0.1966577864E+00    0.3245295798E+00    0.1787703569E-01    0.1538339498E-01
    0.2700000000E+04    0.6151203676E+00    0.1946184778E+00    0.3299505822E+00    0.1762544919E-01    0.1548478599E-01
    0.2900000000E+04    0.6185407344E+00    0.1926690359E+00    0.3349845181E+00    0.1738854971E-01    0.1557252982E-01
    0.3100000000E+04    0.6215230032E+00    0.1908031432E+00    0.3396826608E+00    0.1716480995E-01    0.1564916733E-01
    0.3300000000E+04    0.6241446049E+00    0.1890148438E+00    0.3440866279E+00    0.1695291565E-01    0.1571665393E-01
    0.3500000000E+04    0.6264659972E+00    0.1872986242E+00    0.3482306773E+00    0.1675173236E-01    0.1577651719E-01
    0.3700000000E+04    0.6285350237E+00    0.1856494280E+00    0.3521433564E+00    0.1656027657E-01    0.1582996664E-01
    0.3900000000E+04    0.6303900066E+00    0.1840626407E+00    0.3558487128E+00    0.1637769153E-01    0.1587797160E-01
    0.4100000000E+04    0.6320619794E+00    0.1825340594E+00    0.3593671989E+00    0.1620322719E-01    0.1592131749E-01
    0.4300000000E+04    0.6335763249E+00    0.1810598582E+00    0.3627163592E+00    0.1603622370E-01    0.1596064705E-01
    0.4500000000E+04    0.6349539929E+00    0.1796365521E+00    0.3659113602E+00    0.1587609780E-01    0.1599649106E-01
    0.4700000000E+04    0.6362124194E+00    0.1782609634E+00    0.3689654047E+00    0.1572233156E-01    0.1602929155E-01
    0.4900000000E+04    0.6373662271E+00    0.1769301900E+00    0.3718900586E+00    0.1557446312E-01    0.1605941939E-01
    0.1000000000E+04    0.5368170144E+00    0.2149187514E+00    0.2599777278E+00    0.2043626309E-01    0.1349578263E-01
    0.3000000000E+04    0.6200813317E+00    0.1917260280E+00    0.3373727669E+00    0.1727512159E-01    0.1561210306E-01
    0.5000000000E+04    0.6379078348E+00    0.1762807704E+00    0.3733070964E+00    0.1550260963E-01    0.1607358096E-01
    0.7000000000E+04    0.6454315046E+00    0.1651071537E+00    0.3967971064E+00    0.1429427341E-01    0.1627198448E-01
    0.9000000000E+04    0.6495480413E+00    0.1564197221E+00    0.4141391337E+00    0.1338573815E-01    0.1638256468E-01
    0.1100000000E+05    0.6521360483E+00    0.1493511139E+00    0.4278033978E+00    0.1266305315E-01    0.1645337223E-01
    0.1300000000E+05    0.6539106042E+00    0.1434177538E+00    0.4390215349E+00    0.1206658997E-01    0.1650281362E-01
    0.1500000000E+05    0.6552018791E+00    0.1383229774E+00    0.4484976934E+00    0.1156122693E-01    0.1653944149E-01
    0.1700000000E+05    0.6561830132E+00    0.1338718842E+00    0.4566723292E+00    0.1112454988E-01    0.1656776921E-01
    0.1900000000E+05    0.6569534201E+00    0.1299296851E+00    0.4638391849E+00    0.1074139637E-01    0.1659040463E-01
    0.2100000000E+05    0.6575742021E+00    0.1263993653E+00    0.4702038227E+00    0.1040104374E-01    0.1660896073E-01
    0.2300000000E+05    0.6580849600E+00    0.1232088307E+00    0.4759156087E+00    0.1009563859E-01    0.1662448947E-01
    0.2500000000E+05    0.6585124757E+00    0.1203030855E+00    0.4810864062E+00    0.9819263244E-02    0.1663770673E-01
    0.2700000000E+05    0.6588755044E+00    0.1176392506E+00    0.4858021008E+00    0.9567352397E-02    0.1664911699E-01
    0.2900000000E+05    0.6591875692E+00    0.1151832691E+00    0.4901300199E+00    0.9336313584E-02    0.1665908624E-01
    0.3100000000E+05    0.6594586645E+00    0.1129076577E+00    0.4941238862E+00    0.9123271559E-02    0.1666788667E-01
    0.3300000000E+05    0.6596963358E+00    0.1107899298E+00    0.4978272247E+00    0.8925891156E-02    0.1667572502E-01
    0.3500000000E+05    0.6599063851E+00    0.1088114627E+00    0.5012757698E+00    0.8742251408E-02    0.1668276126E-01
    0.3700000000E+05    0.6600933472E+00    0.1069566679E+00    0.5044992039E+00    0.8570754149E-02    0.1668912117E-01
    0.3900000000E+05    0.6602608169E+00    0.1052123721E+00    0.5075224385E+00    0.8410056377E-02    0.1669490508E-01
    0.4100000000E+05    0.6604116806E+00    0.1035673470E+00    0.5103665746E+00    0.8259019346E-02    0.1670019403E-01
    0.4300000000E+05    0.6605482825E+00    0.1020119486E+00    0.5130496343E+00    0.8116669682E-02    0.1670505423E-01
    0.4500000000E+05    0.6606725460E+00    0.1005378354E+00    0.5155871251E+00    0.7982169270E-02    0.1670954033E-01
    0.4700000000E+05    0.6607860639E+00    0.9913774651E-01    0.5179924824E+00    0.7854791646E-02    0.1671369786E-01
    0.4900000000E+05    0.6608901667E+00    0.9780532490E-01    0.5202774178E+00    0.7733903298E-02    0.1671756509E-01
    0.1000000000E+05    0.6509748447E+00    0.1527191550E+00    0.4213368023E+00    0.1300567761E-01    0.1642144269E-01
    0.3000000000E+05    0.6593277187E+00    0.1140244246E+00    0.4921657825E+00    0.9227699902E-02    0.1666361835E-01
    0.5000000000E+05    0.6609390444E+00    0.9716271429E-01    0.5213779859E+00    0.7675716299E-02    0.1671940016E-01
    0.7000000000E+05    0.6616195063E+00    0.8680027187E-01    0.5390044432E+00    0.6747829604E-02    0.1674662602E-01
    0.9000000000E+05    0.6619937503E+00    0.7950923081E-01    0.5512812533E+00    0.6106770221E-02    0.1676361514E-01
    0.1100000000E+06    0.6622299576E+00    0.7398098418E-01    0.5605275557E+00    0.5627302988E-02    0.1677561775E-01
    0.1300000000E+06    0.6623923010E+00    0.6958368807E-01    0.5678464697E+00    0.5250069573E-02    0.1678475414E-01
    0.1500000000E+06    0.6625105544E+00    0.6596698802E-01    0.5738435269E+00    0.4942613123E-02    0.1679206155E-01
    0.1700000000E+06    0.6626004071E+00    0.6291777530E-01    0.5788843282E+00    0.4685412001E-02    0.1679811457E-01
    0.1900000000E+06    0.6626709069E+00    0.6029748312E-01    0.5832052278E+00    0.4465891738E-02    0.1680326070E-01
    0.2100000000E+06    0.6627276354E+00    0.5801134448E-01    0.5869671201E+00    0.4275521766E-02    0.1680772425E-01
    0.2300000000E+06    0.6627742214E+00    0.5599192434E-01    0.5902840552E+00    0.4108274682E-02    0.1681165754E-01
    0.2500000000E+06    0.6628131254E+00    0.5418967508E-01    0.5932395575E+00    0.3959749690E-02    0.1681516825E-01
    0.2700000000E+06    0.6628460742E+00    0.5256721710E-01    0.5958964616E+00    0.3826645541E-02    0.1681833503E-01
    0.2900000000E+06    0.6628743150E+00    0.5109571807E-01    0.5983031154E+00    0.3706428957E-02    0.1682121694E-01
    0.3100000000E+06    0.6628987709E+00    0.4975251424E-01    0.6004974399E+00    0.3597118044E-02    0.1682385935E-01
    0.3300000000E+06    0.6629201396E+00    0.4851949796E-01    0.6025096741E+00    0.3497136223E-02    0.1682629783E-01
    0.3500000000E+06    0.6629389580E+00    0.4738199482E-01    0.6043642806E+00    0.3405211003E-02    0.1682856069E-01
    0.3700000000E+06    0.6629556460E+00    0.4632796319E-01    0.6060813013E+00    0.3320302132E-02    0.1683067087E-01
    0.3900000000E+06    0.6629705369E+00    0.4534741183E-01    0.6076773413E+00    0.3241549542E-02    0.1683264716E-01
    0.4100000000E+06    0.6629838979E+00    0.4443196837E-01    0.6091662968E+00    0.3168234914E-02    0.1683450514E-01
    0.4300000000E+06    0.6629959465E+00    0.4357455444E-01    0.6105599018E+00    0.3099752860E-02    0.1683625787E-01
    0.4500000000E+06    0.6630068609E+00    0.4276913746E-01    0.6118681452E+00    0.3035588964E-02    0.1683791637E-01
    0.4700000000E+06    0.6630167887E+00    0.4201053853E-01    0.6130995935E+00    0.2975302854E-02    0.1683949007E-01
    0.4900000000E+06    0.6630258533E+00    0.4129428199E-01    0.6142616423E+00    0.2918514980E-02    0.1684098707E-01
    0.1000000000E+06    0.6621238858E+00    0.7657351541E-01    0.5561978147E+00    0.5851438127E-02    0.1677006963E-01
    0.3000000000E+06    0.6628869681E+00    0.5040930271E-01    0.5994247744E+00    0.3650516968E-02    0.1682256567E-01
    0.5000000000E+06    0.6630300949E+00    0.4095079594E-01    0.6148186831E+00    0.2891328287E-02    0.1684170902E-01
    0.7000000000E+06    0.6630878588E+00    0.3558024602E-01    0.6235091466E+00    0.2470299273E-02    0.1685341504E-01
    0.9000000000E+06    0.6631180188E+00    0.3198016972E-01    0.6293147254E+00    0.2192570580E-02    0.1686183873E-01
    0.1100000000E+07    0.6631359963E+00    0.2934169482E-01    0.6335594652E+00    0.1991504247E-02    0.1686841539E-01
    0.1300000000E+07    0.6631476057E+00    0.2729621358E-01    0.6368442897E+00    0.1837164846E-02    0.1687380852E-01
    0.1500000000E+07    0.6631555077E+00    0.2564776671E-01    0.6394877376E+00    0.1713814475E-02    0.1687837882E-01
    0.1700000000E+07    0.6631610837E+00    0.2428100009E-01    0.6416769047E+00    0.1612273224E-02    0.1688234404E-01
    0.1900000000E+07    0.6631651178E+00    0.2312287381E-01    0.6435300453E+00    0.1526773606E-02    0.1688584561E-01
    0.2100000000E+07    0.6631680859E+00    0.2212452989E-01    0.6451261452E+00    0.1453483658E-02    0.1688898063E-01
    0.2300000000E+07    0.6631702921E+00    0.2125185241E-01    0.6465202880E+00    0.1389743639E-02    0.1689181856E-01
    0.2500000000E+07    0.6631719390E+00    0.2048018224E-01    0.6477522453E+00    0.1333641399E-02    0.1689441087E-01
    0.2700000000E+07    0.6631731662E+00    0.1979118224E-01    0.6488515637E+00    0.1283761937E-02    0.1689679669E-01
    0.2900000000E+07    0.6631740728E+00    0.1917088824E-01    0.6498407246E+00    0.1239032500E-02    0.1689900651E-01
    0.3100000000E+07    0.6631747306E+00    0.1860844908E-01    0.6507371844E+00    0.1198622909E-02    0.1690106453E-01
    0.3300000000E+07    0.6631751928E+00    0.1809528461E-01    0.6515547363E+00    0.1161879233E-02    0.1690299029E-01
    0.3500000000E+07    0.6631754996E+00    0.1762450698E-01    0.6523044464E+00    0.1128278386E-02    0.1690479975E-01
    0.3700000000E+07    0.6631756818E+00    0.1719051286E-01    0.6529953116E+00    0.1097396247E-02    0.1690650619E-01
    0.3900000000E+07    0.6631757632E+00    0.1678868998E-01    0.6536347336E+00    0.1068884807E-02    0.1690812071E-01
    0.4100000000E+07    0.6631757626E+00    0.1641520180E-01    0.6542288661E+00    0.1042455440E-02    0.1690965272E-01
    0.4300000000E+07    0.6631756949E+00    0.1606682688E-01    0.6547828741E+00    0.1017866476E-02    0.1691111025E-01
    0.4500000000E+07    0.6631755720E+00    0.1574083721E-01    0.6553011292E+00    0.9949138046E-03    0.1691250021E-01
    0.4700000000E+07    0.6631754036E+00    0.1543490478E-01    0.6557873608E+00    0.9734236842E-03    0.1691382859E-01
    0.4900000000E+07    0.6631751975E+00    0.1514702893E-01    0.6562447726E+00    0.9532471651E-03    0.1691510063E-01
    0.1000000000E+07    0.6631280555E+00    0.3056955525E-01    0.6315851686E+00    0.2084803317E-02    0.1686530635E-01
    0.3000000000E+07    0.6631744291E+00    0.1888301850E-01    0.6502996068E+00    0.1218332113E-02    0.1690005318E-01
    0.5000000000E+07    0.6631750824E+00    0.1500931224E-01    0.6564635514E+00    0.9436106424E-03    0.1691571698E-01
    0.7000000000E+07    0.6631718836E+00    0.1288393644E-01    0.6598364324E+00    0.7962427220E-03    0.1692595483E-01
    0.9000000000E+07    0.6631682012E+00    0.1148787349E-01    0.6620481879E+00    0.7009317540E-03    0.1693357523E-01
    0.1100000000E+08    0.6631646521E+00    0.1047888845E-01    0.6636447569E+00    0.6328590994E-03    0.1693964857E-01
    0.1300000000E+08    0.6631613625E+00    0.9704756640E-02    0.6648685467E+00    0.5811311951E-03    0.1694469875E-01
    0.1500000000E+08    0.6631583408E+00    0.9085944811E-02    0.6658460450E+00    0.5401153773E-03    0.1694902164E-01
    0.1700000000E+08    0.6631555644E+00    0.8576254267E-02    0.6666506504E+00    0.5065677818E-03    0.1695280083E-01
    0.1900000000E+08    0.6631530051E+00    0.8146743906E-02    0.6673283049E+00    0.4784711459E-03    0.1695615807E-01
    0.2100000000E+08    0.6631506361E+00    0.7778224830E-02    0.6679094481E+00    0.4544964975E-03    0.1695917831E-01
    0.2300000000E+08    0.6631484336E+00    0.7457397978E-02    0.6684151632E+00    0.4337280035E-03    0.1696192318E-01
    0.2500000000E+08    0.6631463773E+00    0.7174712558E-02    0.6688605835E+00    0.4155113112E-03    0.1696443877E-01
    0.2700000000E+08    0.6631444501E+00    0.6923106295E-02    0.6692568935E+00    0.3993648095E-03    0.1696676052E-01
