  Pressure (Pa) 22mC5-400 (mol/kg) 2mC6-400 (mol/kg) 3mC6-400 (mol/kg) 33mC5-400 (mol/kg) 23mC5-400 (mol/kg)
    0.1000000000E+01    0.3692194753E-02    0.3976199678E-02    0.5296757106E-03    0.1942309729E-03    0.3704634415E-03
    0.3000000000E+01    0.1086095080E-01    0.1168249077E-01    0.1570762156E-02    0.5705950657E-03    0.1089770056E-02
    0.5000000000E+01    0.1775864835E-01    0.1907787570E-01    0.2588264936E-02    0.9316734856E-03    0.1781899012E-02
    0.7000000000E+01    0.2440344140E-01    0.2618147489E-01    0.3583066323E-02    0.1278403468E-02    0.2448670242E-02
    0.9000000000E+01    0.3081185154E-01    0.3301079573E-01    0.4556004094E-02    0.1611643386E-02    0.3091740042E-02
    0.1100000000E+02    0.3699894763E-01    0.3958190490E-01    0.5507874331E-02    0.1932181161E-02    0.3712619086E-02
    0.1300000000E+02    0.4297850228E-01    0.4590957850E-01    0.6439434003E-02    0.2240741589E-02    0.4312688112E-02
    0.1500000000E+02    0.4876312866E-01    0.5200743356E-01    0.7351403363E-02    0.2537992765E-02    0.4893211630E-02
    0.1700000000E+02    0.5436440033E-01    0.5788804342E-01    0.8244468166E-02    0.2824551712E-02    0.5455349938E-02
    0.1900000000E+02    0.5979295653E-01    0.6356303936E-01    0.9119281733E-02    0.3100989347E-02    0.6000169671E-02
    0.2100000000E+02    0.6505859494E-01    0.6904320024E-01    0.9976466861E-02    0.3367834865E-02    0.6528653105E-02
    0.2300000000E+02    0.7017035371E-01    0.7433853203E-01    0.1081661760E-01    0.3625579612E-02    0.7041706374E-02
    0.2500000000E+02    0.7513658393E-01    0.7945833825E-01    0.1164030092E-01    0.3874680541E-02    0.7540166737E-02
    0.2700000000E+02    0.7996501415E-01    0.8441128277E-01    0.1244805824E-01    0.4115563269E-02    0.8024809043E-02
    0.2900000000E+02    0.8466280761E-01    0.8920544578E-01    0.1324040686E-01    0.4348624822E-02    0.8496351473E-02
    0.3100000000E+02    0.8923661337E-01    0.9384837390E-01    0.1401784133E-01    0.4574236080E-02    0.8955460659E-02
    0.3300000000E+02    0.9369261197E-01    0.9834712504E-01    0.1478083467E-01    0.4792743970E-02    0.9402756265E-02
    0.3500000000E+02    0.9803655630E-01    0.1027083087E+00    0.1552983957E-01    0.5004473442E-02    0.9838815081E-02
    0.3700000000E+02    0.1022738083E+00    0.1069381223E+00    0.1626528944E-01    0.5209729240E-02    0.1026417470E-01
    0.3900000000E+02    0.1064093717E+00    0.1110423840E+00    0.1698759948E-01    0.5408797505E-02    0.1067933683E-01
    0.4100000000E+02    0.1104479223E+00    0.1150265619E+00    0.1769716761E-01    0.5601947226E-02    0.1108477025E-01
    0.4300000000E+02    0.1143938339E+00    0.1188958015E+00    0.1839437540E-01    0.5789431546E-02    0.1148091352E-01
    0.4500000000E+02    0.1182512032E+00    0.1226549493E+00    0.1907958885E-01    0.5971488953E-02    0.1186817738E-01
    0.4700000000E+02    0.1220238712E+00    0.1263085754E+00    0.1975315927E-01    0.6148344365E-02    0.1224694696E-01
    0.4900000000E+02    0.1257154436E+00    0.1298609934E+00    0.2041542393E-01    0.6320210107E-02    0.1261758377E-01
    0.1000000000E+02    0.3393217437E-01    0.3632767465E-01    0.5034524456E-02    0.1773453342E-02    0.3404864237E-02
    0.3000000000E+02    0.8696481219E-01    0.9154536212E-01    0.1363095831E-01    0.4462339518E-02    0.8727420442E-02
    0.5000000000E+02    0.1275318857E+00    0.1316005317E+00    0.2074241836E-01    0.6404334986E-02    0.1279995934E-01
    0.7000000000E+02    0.1603265185E+00    0.1619579154E+00    0.2676115422E-01    0.7868215166E-02    0.1609302550E-01
    0.9000000000E+02    0.1878529518E+00    0.1856994068E+00    0.3194970177E-01    0.9005808300E-02    0.1885771599E-01
    0.1100000000E+03    0.2115796166E+00    0.2047148039E+00    0.3649080296E-01    0.9910339565E-02    0.2124127578E-01
    0.1300000000E+03    0.2324316738E+00    0.2202350282E+00    0.4051583791E-01    0.1064259875E-01    0.2333647787E-01
    0.1500000000E+03    0.2510260877E+00    0.2330992579E+00    0.4412185889E-01    0.1124406743E-01    0.2520519218E-01
    0.1700000000E+03    0.2677937802E+00    0.2439004138E+00    0.4738223559E-01    0.1174407661E-01    0.2689063331E-01
    0.1900000000E+03    0.2830475357E+00    0.2530696682E+00    0.5035354972E-01    0.1216396867E-01    0.2842416945E-01
    0.2100000000E+03    0.2970218837E+00    0.2609281118E+00    0.5308019975E-01    0.1251964412E-01    0.2982932149E-01
    0.2300000000E+03    0.3098976188E+00    0.2677196848E+00    0.5559755926E-01    0.1282318632E-01    0.3112422178E-01
    0.2500000000E+03    0.3218174717E+00    0.2736329049E+00    0.5793419447E-01    0.1308393425E-01    0.3232318557E-01
    0.2700000000E+03    0.3328964656E+00    0.2788156267E+00    0.6011345372E-01    0.1330921184E-01    0.3343774954E-01
    0.2900000000E+03    0.3432289619E+00    0.2833853226E+00    0.6215462789E-01    0.1350483634E-01    0.3447737837E-01
    0.3100000000E+03    0.3528935798E+00    0.2874363987E+00    0.6407381168E-01    0.1367548042E-01    0.3544995807E-01
    0.3300000000E+03    0.3619567110E+00    0.2910455018E+00    0.6588455244E-01    0.1382493500E-01    0.3636214843E-01
    0.3500000000E+03    0.3704750835E+00    0.2942754329E+00    0.6759834560E-01    0.1395630318E-01    0.3721964010E-01
    0.3700000000E+03    0.3784976669E+00    0.2971780773E+00    0.6922501759E-01    0.1407214564E-01    0.3802734573E-01
    0.3900000000E+03    0.3860671145E+00    0.2997966266E+00    0.7077302521E-01    0.1417459090E-01    0.3878954449E-01
    0.4100000000E+03    0.3932208705E+00    0.3021672852E+00    0.7224969203E-01    0.1426542008E-01    0.3950999318E-01
    0.4300000000E+03    0.3999920339E+00    0.3043205942E+00    0.7366139691E-01    0.1434613275E-01    0.4019201280E-01
    0.4500000000E+03    0.4064100411E+00    0.3062824698E+00    0.7501372559E-01    0.1441799854E-01    0.4083855702E-01
    0.4700000000E+03    0.4125012122E+00    0.3080750239E+00    0.7631159369E-01    0.1448209802E-01    0.4145226702E-01
    0.4900000000E+03    0.4182891939E+00    0.3097172191E+00    0.7755934710E-01    0.1453935528E-01    0.4203551577E-01
    0.1000000000E+03    0.2001242211E+00    0.1957094359E+00    0.3429200770E-01    0.9482840827E-02    0.2009041526E-01
    0.3000000000E+03    0.3481403534E+00    0.2854705330E+00    0.6312856861E-01    0.1359302588E-01    0.3497160778E-01
    0.5000000000E+03    0.4210762376E+00    0.3104871285E+00    0.7816565377E-01    0.1456567064E-01    0.4231639449E-01
    0.7000000000E+03    0.4651338226E+00    0.3209661159E+00    0.8840374243E-01    0.1487629158E-01    0.4675974053E-01
    0.9000000000E+03    0.4942629531E+00    0.3262501503E+00    0.9624637150E-01    0.1497305925E-01    0.4970195443E-01
    0.1100000000E+04    0.5147160319E+00    0.3291645739E+00    0.1026572723E+00    0.1498420505E-01    0.5177105119E-01
    0.1300000000E+04    0.5297388986E+00    0.3308191910E+00    0.1081145275E+00    0.1495635122E-01    0.5329324612E-01
    0.1500000000E+04    0.5411704301E+00    0.3317317840E+00    0.1128890923E+00    0.1490932485E-01    0.5445345499E-01
    0.1700000000E+04    0.5501208123E+00    0.3321751679E+00    0.1171492556E+00    0.1485255040E-01    0.5536337829E-01
    0.1900000000E+04    0.5572948326E+00    0.3323064887E+00    0.1210067636E+00    0.1479088795E-01    0.5609396616E-01
    0.2100000000E+04    0.5631587549E+00    0.3322225390E+00    0.1245396892E+00    0.1472699819E-01    0.5669218229E-01
    0.2300000000E+04    0.5680319054E+00    0.3319860861E+00    0.1278048031E+00    0.1466240120E-01    0.5719020778E-01
    0.2500000000E+04    0.5721395214E+00    0.3316395068E+00    0.1308447370E+00    0.1459798998E-01    0.5761075403E-01
    0.2700000000E+04    0.5756445625E+00    0.3312123447E+00    0.1336923625E+00    0.1453429631E-01    0.5797026184E-01
    0.2900000000E+04    0.5786675657E+00    0.3307257379E+00    0.1363735925E+00    0.1447163608E-01    0.5828089880E-01
    0.3100000000E+04    0.5812994364E+00    0.3301951352E+00    0.1389092405E+00    0.1441019229E-01    0.5855184647E-01
    0.3300000000E+04    0.5836099183E+00    0.3296320272E+00    0.1413162944E+00    0.1435006443E-01    0.5879015306E-01
    0.3500000000E+04    0.5856533427E+00    0.3290450858E+00    0.1436088141E+00    0.1429129861E-01    0.5900131234E-01
    0.3700000000E+04    0.5874726165E+00    0.3284409355E+00    0.1457985787E+00    0.1423390656E-01    0.5918966540E-01
    0.3900000000E+04    0.5891020437E+00    0.3278246884E+00    0.1478955625E+00    0.1417787786E-01    0.5935868494E-01
    0.4100000000E+04    0.5905693568E+00    0.3272003223E+00    0.1499082928E+00    0.1412318789E-01    0.5951118005E-01
    0.4300000000E+04    0.5918972033E+00    0.3265709530E+00    0.1518441215E+00    0.1406980313E-01    0.5964944611E-01
    0.4500000000E+04    0.5931042493E+00    0.3259390348E+00    0.1537094364E+00    0.1401768471E-01    0.5977537607E-01
    0.4700000000E+04    0.5942060095E+00    0.3253065078E+00    0.1555098252E+00    0.1396679080E-01    0.5989054426E-01
    0.4900000000E+04    0.5952154798E+00    0.3246749101E+00    0.1572502072E+00    0.1391707824E-01    0.5999627021E-01
    0.1000000000E+04    0.5053262220E+00    0.3279134695E+00    0.9959413532E-01    0.1498546421E-01    0.5082074435E-01
    0.3000000000E+04    0.5800276155E+00    0.3304651407E+00    0.1376584749E+00    0.1444075438E-01    0.5842085112E-01
    0.5000000000E+04    0.5956891009E+00    0.3243598517E+00    0.1580992762E+00    0.1389265138E-01    0.6004594736E-01
    0.7000000000E+04    0.6022518217E+00    0.3182956243E+00    0.1727680469E+00    0.1345611076E-01    0.6074063213E-01
    0.9000000000E+04    0.6058277432E+00    0.3128217032E+00    0.1843968701E+00    0.1309643125E-01    0.6112677986E-01
    0.1100000000E+05    0.6080691251E+00    0.3079169648E+00    0.1941084744E+00    0.1279085163E-01    0.6137366429E-01
    0.1300000000E+05    0.6096022227E+00    0.3034951082E+00    0.2024854770E+00    0.1252516603E-01    0.6154588414E-01
    0.1500000000E+05    0.6107153827E+00    0.2994754337E+00    0.2098730421E+00    0.1229007802E-01    0.6167338567E-01
    0.1700000000E+05    0.6115595017E+00    0.2957922297E+00    0.2164941526E+00    0.1207920299E-01    0.6177194717E-01
    0.1900000000E+05    0.6122210807E+00    0.2923934006E+00    0.2225019788E+00    0.1188797363E-01    0.6185067508E-01
    0.2100000000E+05    0.6127532134E+00    0.2892376104E+00    0.2280066804E+00    0.1171301111E-01    0.6191519693E-01
    0.2300000000E+05    0.6131902710E+00    0.2862917558E+00    0.2330903648E+00    0.1155174531E-01    0.6196918048E-01
    0.2500000000E+05    0.6135554742E+00    0.2835290172E+00    0.2378160066E+00    0.1140217530E-01    0.6201512044E-01
    0.2700000000E+05    0.6138650696E+00    0.2809274059E+00    0.2422330517E+00    0.1126271229E-01    0.6205477402E-01
    0.2900000000E+05    0.6141307613E+00    0.2784686894E+00    0.2463810911E+00    0.1113207331E-01    0.6208941562E-01
    0.3100000000E+05    0.6143611926E+00    0.2761375894E+00    0.2502923554E+00    0.1100920713E-01    0.6211999270E-01
    0.3300000000E+05    0.6145628838E+00    0.2739211800E+00    0.2539934601E+00    0.1089324136E-01    0.6214722475E-01
    0.3500000000E+05    0.6147408454E+00    0.2718084287E+00    0.2575066577E+00    0.1078344388E-01    0.6217166836E-01
    0.3700000000E+05    0.6148989903E+00    0.2697898436E+00    0.2608507555E+00    0.1067919414E-01    0.6219376106E-01
    0.3900000000E+05    0.6150404187E+00    0.2678571987E+00    0.2640418029E+00    0.1057996151E-01    0.6221385180E-01
    0.4100000000E+05    0.6151676182E+00    0.2660033169E+00    0.2670936126E+00    0.1048528856E-01    0.6223222240E-01
    0.4300000000E+05    0.6152826075E+00    0.2642218987E+00    0.2700181644E+00    0.1039477817E-01    0.6224910309E-01
    0.4500000000E+05    0.6153870424E+00    0.2625073830E+00    0.2728259200E+00    0.1030808329E-01    0.6226468389E-01
    0.4700000000E+05    0.6154822928E+00    0.2608548362E+00    0.2755260726E+00    0.1022489884E-01    0.6227912309E-01
    0.4900000000E+05    0.6155695026E+00    0.2592598594E+00    0.2781267473E+00    0.1014495517E-01    0.6229255367E-01
    0.1000000000E+05    0.6070641807E+00    0.3103034296E+00    0.1894482515E+00    0.1293791443E-01    0.6126237125E-01
    0.3000000000E+05    0.6142499356E+00    0.2772880443E+00    0.2483645416E+00    0.1106972683E-01    0.6210516280E-01
    0.5000000000E+05    0.6156103990E+00    0.2584827129E+00    0.2793920677E+00    0.1010612272E-01    0.6229892660E-01
    0.7000000000E+05    0.6161754537E+00    0.2451910497E+00    0.3008712533E+00    0.9453348870E-02    0.6239347008E-01
    0.9000000000E+05    0.6164811016E+00    0.2348869345E+00    0.3173529663E+00    0.8960804932E-02    0.6245246022E-01
    0.1100000000E+06    0.6166707760E+00    0.2264717510E+00    0.3307291659E+00    0.8566417555E-02    0.6249413471E-01
    0.1300000000E+06    0.6167988985E+00    0.2193636610E+00    0.3419791354E+00    0.8238404961E-02    0.6252585712E-01
    0.1500000000E+06    0.6168905802E+00    0.2132156599E+00    0.3516786691E+00    0.7958273730E-02    0.6255122925E-01
    0.1700000000E+06    0.6169589816E+00    0.2078035225E+00    0.3601962033E+00    0.7714302383E-02    0.6257224627E-01
    0.1900000000E+06    0.6170116511E+00    0.2029737043E+00    0.3677822225E+00    0.7498590364E-02    0.6259011470E-01
    0.2100000000E+06    0.6170532201E+00    0.1986163237E+00    0.3746149856E+00    0.7305558978E-02    0.6260561336E-01
    0.2300000000E+06    0.6170866831E+00    0.1946499729E+00    0.3808259731E+00    0.7131122710E-02    0.6261927108E-01
    0.2500000000E+06    0.6171140594E+00    0.1910126266E+00    0.3865149969E+00    0.6972200295E-02    0.6263146168E-01
    0.2700000000E+06    0.6171367585E+00    0.1876559218E+00    0.3917596454E+00    0.6826410881E-02    0.6264245825E-01
    0.2900000000E+06    0.6171557925E+00    0.1845414091E+00    0.3966214426E+00    0.6691877062E-02    0.6265246584E-01
    0.3100000000E+06    0.6171719065E+00    0.1816380105E+00    0.4011500053E+00    0.6567092598E-02    0.6266164195E-01
    0.3300000000E+06    0.6171856603E+00    0.1789202452E+00    0.4053859346E+00    0.6450830895E-02    0.6267011001E-01
    0.3500000000E+06    0.6171974826E+00    0.1763669597E+00    0.4093628777E+00    0.6342080041E-02    0.6267796841E-01
    0.3700000000E+06    0.6172077063E+00    0.1739603999E+00    0.4131090312E+00    0.6239995653E-02    0.6268529672E-01
    0.3900000000E+06    0.6172165943E+00    0.1716855191E+00    0.4166482584E+00    0.6143865987E-02    0.6269216019E-01
    0.4100000000E+06    0.6172243563E+00    0.1695294545E+00    0.4200009335E+00    0.6053085665E-02    0.6269861289E-01
    0.4300000000E+06    0.6172311617E+00    0.1674811239E+00    0.4231845901E+00    0.5967135597E-02    0.6270470017E-01
    0.4500000000E+06    0.6172371485E+00    0.1655309123E+00    0.4262144251E+00    0.5885567413E-02    0.6271046033E-01
    0.4700000000E+06    0.6172424306E+00    0.1636704235E+00    0.4291036956E+00    0.5807991248E-02    0.6271592607E-01
    0.4900000000E+06    0.6172471023E+00    0.1618922833E+00    0.4318640350E+00    0.5734066053E-02    0.6272112548E-01
    0.1000000000E+06    0.6165860000E+00    0.2304871049E+00    0.3243550394E+00    0.8753757868E-02    0.6247487109E-01
    0.3000000000E+06    0.6171641759E+00    0.1830650274E+00    0.3989246568E+00    0.6628348512E-02    0.6265714943E-01
    0.5000000000E+06    0.6172492345E+00    0.1610320291E+00    0.4331991106E+00    0.5698377395E-02    0.6272363303E-01
    0.7000000000E+06    0.6172735623E+00    0.1469058766E+00    0.4550905230E+00    0.5119330782E-02    0.6276429478E-01
    0.9000000000E+06    0.6172804591E+00    0.1366569017E+00    0.4709389814E+00    0.4707343373E-02    0.6279355970E-01
    0.1100000000E+07    0.6172806651E+00    0.1286986353E+00    0.4832270928E+00    0.4392092907E-02    0.6281641093E-01
    0.1300000000E+07    0.6172779217E+00    0.1222450895E+00    0.4931809229E+00    0.4139425955E-02    0.6283515216E-01
    0.1500000000E+07    0.6172737974E+00    0.1168508489E+00    0.5014937650E+00    0.3930280272E-02    0.6285103580E-01
    0.1700000000E+07    0.6172690302E+00    0.1122398613E+00    0.5085945982E+00    0.3752986481E-02    0.6286481788E-01
    0.1900000000E+07    0.6172639938E+00    0.1082296714E+00    0.5147665919E+00    0.3599911158E-02    0.6287698960E-01
    0.2100000000E+07    0.6172588869E+00    0.1046936754E+00    0.5202060294E+00    0.3465804528E-02    0.6288788806E-01
    0.2300000000E+07    0.6172538178E+00    0.1015406077E+00    0.5250542831E+00    0.3346911621E-02    0.6289775455E-01
    0.2500000000E+07    0.6172488456E+00    0.9870262143E-01    0.5294163708E+00    0.3240460346E-02    0.6290676775E-01
    0.2700000000E+07    0.6172440017E+00    0.9612798326E-01    0.5333723164E+00    0.3144350185E-02    0.6291506363E-01
    0.2900000000E+07    0.6172393018E+00    0.9377639795E-01    0.5369844156E+00    0.3056954329E-02    0.6292274806E-01
    0.3100000000E+07    0.6172347518E+00    0.9161590518E-01    0.5403020528E+00    0.2976989184E-02    0.6292990507E-01
    0.3300000000E+07    0.6172303521E+00    0.8962075620E-01    0.5433649966E+00    0.2903425592E-02    0.6293660252E-01
    0.3500000000E+07    0.6172260999E+00    0.8776992212E-01    0.5462057123E+00    0.2835426788E-02    0.6294289592E-01
    0.3700000000E+07    0.6172219906E+00    0.8604602179E-01    0.5488510234E+00    0.2772304029E-02    0.6294883132E-01
    0.3900000000E+07    0.6172180183E+00    0.8443453568E-01    0.5513233295E+00    0.2713484203E-02    0.6295444732E-01
    0.4100000000E+07    0.6172141770E+00    0.8292321925E-01    0.5536415145E+00    0.2658485765E-02    0.6295977659E-01
    0.4300000000E+07    0.6172104603E+00    0.8150165818E-01    0.5558216348E+00    0.2606900558E-02    0.6296484702E-01
    0.4500000000E+07    0.6172068620E+00    0.8016092640E-01    0.5578774488E+00    0.2558379896E-02    0.6296968264E-01
    0.4700000000E+07    0.6172033758E+00    0.7889331978E-01    0.5598208279E+00    0.2512623756E-02    0.6297430426E-01
    0.4900000000E+07    0.6171999962E+00    0.7769214636E-01    0.5616620817E+00    0.2469372303E-02    0.6297873006E-01
    0.1000000000E+07    0.6172810864E+00    0.1324516801E+00    0.4774340289E+00    0.4540256644E-02    0.6280560792E-01
    0.3000000000E+07    0.6172370079E+00    0.9267399993E-01    0.5386773619E+00    0.3016112372E-02    0.6292638792E-01
    0.5000000000E+07    0.6171983445E+00    0.7711461583E-01    0.5625472707E+00    0.2448613937E-02    0.6298087459E-01
    0.7000000000E+07    0.6171697211E+00    0.6795513470E-01    0.5765778568E+00    0.2122689853E-02    0.6301650367E-01
    0.9000000000E+07    0.6171472163E+00    0.6167387463E-01    0.5861905336E+00    0.1902902262E-02    0.6304303332E-01
    0.1100000000E+08    0.6171287162E+00    0.5699504406E-01    0.5933460748E+00    0.1741259037E-02    0.6306418345E-01
    0.1300000000E+08    0.6171130234E+00    0.5332249040E-01    0.5989597469E+00    0.1615678436E-02    0.6308177513E-01
    0.1500000000E+08    0.6170994027E+00    0.5033328842E-01    0.6035269527E+00    0.1514341663E-02    0.6309683694E-01
    0.1700000000E+08    0.6170873730E+00    0.4783450168E-01    0.6073435001E+00    0.1430256344E-02    0.6311000716E-01
    0.1900000000E+08    0.6170766025E+00    0.4570246865E-01    0.6105988924E+00    0.1358977866E-02    0.6312170925E-01
    0.2100000000E+08    0.6170668531E+00    0.4385361508E-01    0.6134211488E+00    0.1297524018E-02    0.6313223860E-01
    0.2300000000E+08    0.6170579484E+00    0.4222906580E-01    0.6159004225E+00    0.1243807289E-02    0.6314180952E-01
    0.2500000000E+08    0.6170497538E+00    0.4078593601E-01    0.6181023606E+00    0.1196315792E-02    0.6315058242E-01
    0.2700000000E+08    0.6170421647E+00    0.3949211712E-01    0.6200761009E+00    0.1153923387E-02    0.6315868053E-01
