  Pressure (Pa) 22mC5-400 (mol/kg) 2mC6-400 (mol/kg) 3mC6-400 (mol/kg) 33mC5-400 (mol/kg) 23mC5-400 (mol/kg)
    0.1000000000E+01    0.3696491439E-02    0.3175587403E-02    0.3169260987E-02    0.6463711902E-04    0.1854471557E-03
    0.3000000000E+01    0.1089783480E-01    0.9298651763E-02    0.9347714396E-02    0.1892595961E-03    0.5467344022E-03
    0.5000000000E+01    0.1785647517E-01    0.1513355391E-01    0.1532214427E-01    0.3080049753E-03    0.8958546213E-03
    0.7000000000E+01    0.2458670546E-01    0.2069813219E-01    0.2110313878E-01    0.4212362486E-03    0.1233524219E-02
    0.9000000000E+01    0.3110168711E-01    0.2600882331E-01    0.2670055556E-01    0.5292879212E-03    0.1560402892E-02
    0.1100000000E+02    0.3741355980E-01    0.3108079579E-01    0.3212358394E-01    0.6324687218E-03    0.1877099132E-02
    0.1300000000E+02    0.4353353877E-01    0.3592806853E-01    0.3738080094E-01    0.7310640109E-03    0.2184175096E-02
    0.1500000000E+02    0.4947200122E-01    0.4056361640E-01    0.4248022162E-01    0.8253379266E-03    0.2482150939E-02
    0.1700000000E+02    0.5523856319E-01    0.4499946450E-01    0.4742934468E-01    0.9155352984E-03    0.2771508668E-02
    0.1900000000E+02    0.6084214827E-01    0.4924677242E-01    0.5223519352E-01    0.1001883360E-02    0.3052695583E-02
    0.2100000000E+02    0.6629104887E-01    0.5331590981E-01    0.5690435358E-01    0.1084593283E-02    0.3326127350E-02
    0.2300000000E+02    0.7159298131E-01    0.5721652415E-01    0.6144300610E-01    0.1163861555E-02    0.3592190761E-02
    0.2500000000E+02    0.7675513504E-01    0.6095760174E-01    0.6585695885E-01    0.1239871219E-02    0.3851246198E-02
    0.2700000000E+02    0.8178421710E-01    0.6454752263E-01    0.7015167409E-01    0.1312792989E-02    0.4103629868E-02
    0.2900000000E+02    0.8668649202E-01    0.6799411028E-01    0.7433229402E-01    0.1382786258E-02    0.4349655795E-02
    0.3100000000E+02    0.9146781797E-01    0.7130467633E-01    0.7840366404E-01    0.1450000011E-02    0.4589617636E-02
    0.3300000000E+02    0.9613367927E-01    0.7448606124E-01    0.8237035399E-01    0.1514573647E-02    0.4823790310E-02
    0.3500000000E+02    0.1006892160E+00    0.7754467114E-01    0.8623667757E-01    0.1576637729E-02    0.5052431483E-02
    0.3700000000E+02    0.1051392507E+00    0.8048651121E-01    0.9000671020E-01    0.1636314665E-02    0.5275782902E-02
    0.3900000000E+02    0.1094883128E+00    0.8331721618E-01    0.9368430530E-01    0.1693719324E-02    0.5494071623E-02
    0.4100000000E+02    0.1137406606E+00    0.8604207802E-01    0.9727310935E-01    0.1748959603E-02    0.5707511111E-02
    0.4300000000E+02    0.1179003015E+00    0.8866607121E-01    0.1007765757E+00    0.1802136937E-02    0.5916302257E-02
    0.4500000000E+02    0.1219710102E+00    0.9119387588E-01    0.1041979771E+00    0.1853346771E-02    0.6120634292E-02
    0.4700000000E+02    0.1259563459E+00    0.9362989890E-01    0.1075404179E+00    0.1902678987E-02    0.6320685636E-02
    0.4900000000E+02    0.1298596673E+00    0.9597829323E-01    0.1108068443E+00    0.1950218302E-02    0.6516624661E-02
    0.1000000000E+02    0.3428229052E-01    0.2857374755E-01    0.2943331850E-01    0.5814688241E-03    0.1719987649E-02
    0.3000000000E+02    0.8909192244E-01    0.6966595788E-01    0.7638134343E-01    0.1416731646E-02    0.4470377122E-02
    0.5000000000E+02    0.1317815710E+00    0.9712086240E-01    0.1124124321E+00    0.1973340771E-02    0.6613102099E-02
    0.7000000000E+02    0.1665982572E+00    0.1162135996E+00    0.1411439977E+00    0.2358842860E-02    0.8361062454E-02
    0.9000000000E+02    0.1959345333E+00    0.1298720435E+00    0.1647341979E+00    0.2633007548E-02    0.9834201986E-02
    0.1100000000E+03    0.2212485391E+00    0.1398403476E+00    0.1845535979E+00    0.2831489197E-02    0.1110562394E-01
    0.1300000000E+03    0.2434853259E+00    0.1472156745E+00    0.2015163994E+00    0.2976748689E-02    0.1222271002E-01
    0.1500000000E+03    0.2632885819E+00    0.1527186543E+00    0.2162570631E+00    0.3083560599E-02    0.1321773379E-01
    0.1700000000E+03    0.2811150928E+00    0.1568394729E+00    0.2292305469E+00    0.3161990055E-02    0.1411359853E-01
    0.1900000000E+03    0.2973003876E+00    0.1599213408E+00    0.2407721700E+00    0.3219094894E-02    0.1492712825E-01
    0.2100000000E+03    0.3120982743E+00    0.1622104480E+00    0.2511349175E+00    0.3259945213E-02    0.1567104970E-01
    0.2300000000E+03    0.3257056524E+00    0.1638870484E+00    0.2605135389E+00    0.3288258381E-02    0.1635523640E-01
    0.2500000000E+03    0.3382786455E+00    0.1650854557E+00    0.2690606051E+00    0.3306807901E-02    0.1698751742E-01
    0.2700000000E+03    0.3499434171E+00    0.1659072788E+00    0.2768974994E+00    0.3317694346E-02    0.1757421964E-01
    0.2900000000E+03    0.3608036208E+00    0.1664304036E+00    0.2841221178E+00    0.3322529408E-02    0.1812054133E-01
    0.3100000000E+03    0.3709456562E+00    0.1667152220E+00    0.2908143802E+00    0.3322563724E-02    0.1863081564E-01
    0.3300000000E+03    0.3804424586E+00    0.1668090374E+00    0.2970402468E+00    0.3318777360E-02    0.1910870061E-01
    0.3500000000E+03    0.3893562848E+00    0.1667492321E+00    0.3028546940E+00    0.3311944995E-02    0.1955731883E-01
    0.3700000000E+03    0.3977407975E+00    0.1665655822E+00    0.3083039547E+00    0.3302683600E-02    0.1997936200E-01
    0.3900000000E+03    0.4056426512E+00    0.1662819711E+00    0.3134272253E+00    0.3291487793E-02    0.2037717039E-01
    0.4100000000E+03    0.4131027164E+00    0.1659176743E+00    0.3182579843E+00    0.3278756394E-02    0.2075279424E-01
    0.4300000000E+03    0.4201570381E+00    0.1654883341E+00    0.3228250222E+00    0.3264812587E-02    0.2110804184E-01
    0.4500000000E+03    0.4268375957E+00    0.1650067057E+00    0.3271532532E+00    0.3249919397E-02    0.2144451758E-01
    0.4700000000E+03    0.4331729129E+00    0.1644832344E+00    0.3312643628E+00    0.3234291665E-02    0.2176365257E-01
    0.4900000000E+03    0.4391885518E+00    0.1639265058E+00    0.3351773275E+00    0.3218105412E-02    0.2206672942E-01
    0.1000000000E+03    0.2090263588E+00    0.1352377243E+00    0.1750499832E+00    0.2740077112E-02    0.1049172035E-01
    0.3000000000E+03    0.3659595722E+00    0.1665993799E+00    0.2875303829E+00    0.3323079929E-02    0.1837994180E-01
    0.5000000000E+03    0.4420837717E+00    0.1636379332E+00    0.3370648004E+00    0.3209849076E-02    0.2221261132E-01
    0.7000000000E+03    0.4877491736E+00    0.1573016491E+00    0.3675729095E+00    0.3039259416E-02    0.2451524031E-01
    0.9000000000E+03    0.5178784126E+00    0.1511485533E+00    0.3892161102E+00    0.2882400273E-02    0.2603678906E-01
    0.1100000000E+04    0.5390370320E+00    0.1456789351E+00    0.4058086998E+00    0.2747019250E-02    0.2710697984E-01
    0.1300000000E+04    0.5545968631E+00    0.1408756171E+00    0.4191654985E+00    0.2630759170E-02    0.2789524455E-01
    0.1500000000E+04    0.5664569610E+00    0.1366370628E+00    0.4302834839E+00    0.2530090047E-02    0.2849706248E-01
    0.1700000000E+04    0.5757603781E+00    0.1328640204E+00    0.4397661238E+00    0.2441952225E-02    0.2896993460E-01
    0.1900000000E+04    0.5832317913E+00    0.1294748050E+00    0.4480051511E+00    0.2363942799E-02    0.2935033530E-01
    0.2100000000E+04    0.5893504634E+00    0.1264048787E+00    0.4552686420E+00    0.2294214502E-02    0.2966239984E-01
    0.2300000000E+04    0.5944447180E+00    0.1236035333E+00    0.4617477818E+00    0.2231344572E-02    0.2992267126E-01
    0.2500000000E+04    0.5987462951E+00    0.1210306667E+00    0.4675835131E+00    0.2174226268E-02    0.3014283243E-01
    0.2700000000E+04    0.6024230116E+00    0.1186542238E+00    0.4728826038E+00    0.2121987775E-02    0.3033134828E-01
    0.2900000000E+04    0.6055991288E+00    0.1164482757E+00    0.4777277909E+00    0.2073933317E-02    0.3049449018E-01
    0.3100000000E+04    0.6083684672E+00    0.1143916013E+00    0.4821844346E+00    0.2029500547E-02    0.3063699580E-01
    0.3300000000E+04    0.6108030920E+00    0.1124666381E+00    0.4863050277E+00    0.1988229547E-02    0.3076250627E-01
    0.3500000000E+04    0.6129592101E+00    0.1106587008E+00    0.4901323374E+00    0.1949740029E-02    0.3087386310E-01
    0.3700000000E+04    0.6148812628E+00    0.1089553930E+00    0.4937016466E+00    0.1913714378E-02    0.3097331423E-01
    0.3900000000E+04    0.6166048226E+00    0.1073461599E+00    0.4970423884E+00    0.1879884873E-02    0.3106266005E-01
    0.4100000000E+04    0.6181586807E+00    0.1058219433E+00    0.5001793591E+00    0.1848023947E-02    0.3114335859E-01
    0.4300000000E+04    0.6195663759E+00    0.1043749133E+00    0.5031336334E+00    0.1817936675E-02    0.3121660256E-01
    0.4500000000E+04    0.6208473301E+00    0.1029982570E+00    0.5059232663E+00    0.1789454912E-02    0.3128337666E-01
    0.4700000000E+04    0.6220177036E+00    0.1016860107E+00    0.5085638372E+00    0.1762432675E-02    0.3134450068E-01
    0.4900000000E+04    0.6230910470E+00    0.1004329249E+00    0.5110688777E+00    0.1736742465E-02    0.3140066246E-01
    0.1000000000E+04    0.5293210974E+00    0.1483253390E+00    0.3980032315E+00    0.2812103675E-02    0.2661534441E-01
    0.3000000000E+04    0.6070297112E+00    0.1154024524E+00    0.4800011404E+00    0.2051295066E-02    0.3056807327E-01
    0.5000000000E+04    0.6235949795E+00    0.9982709482E-01    0.5122743278E+00    0.1724361343E-02    0.3142706773E-01
    0.7000000000E+04    0.6306031429E+00    0.8992619086E-01    0.5314868850E+00    0.1525486854E-02    0.3179754592E-01
    0.9000000000E+04    0.6344456474E+00    0.8281549893E-01    0.5447732833E+00    0.1386429526E-02    0.3200460582E-01
    0.1100000000E+05    0.6368651094E+00    0.7734851199E-01    0.5547329262E+00    0.1281504020E-02    0.3213748169E-01
    0.1300000000E+05    0.6385259549E+00    0.7295584196E-01    0.5625890918E+00    0.1198393275E-02    0.3223042259E-01
    0.1500000000E+05    0.6397354624E+00    0.6931508907E-01    0.5690087116E+00    0.1130294428E-02    0.3229937223E-01
    0.1700000000E+05    0.6406549970E+00    0.6622694952E-01    0.5743925085E+00    0.1073080722E-02    0.3235275838E-01
    0.1900000000E+05    0.6413773234E+00    0.6356015042E-01    0.5789985806E+00    0.1024074600E-02    0.3239545768E-01
    0.2100000000E+05    0.6419595164E+00    0.6122396256E-01    0.5830021004E+00    0.9814482390E-03    0.3243049017E-01
    0.2300000000E+05    0.6424386000E+00    0.5915325542E-01    0.5865269298E+00    0.9439031854E-03    0.3245982766E-01
    0.2500000000E+05    0.6428396320E+00    0.5729981796E-01    0.5896635858E+00    0.9104869325E-03    0.3248481332E-01
    0.2700000000E+05    0.6431801722E+00    0.5562704658E-01    0.5924800372E+00    0.8804820003E-03    0.3250639448E-01
    0.2900000000E+05    0.6434728887E+00    0.5410655095E-01    0.5950284958E+00    0.8533357976E-03    0.3252525898E-01
    0.3100000000E+05    0.6437271490E+00    0.5271590638E-01    0.5973498531E+00    0.8286145935E-03    0.3254191869E-01
    0.3300000000E+05    0.6439500281E+00    0.5143711924E-01    0.5994766728E+00    0.8059723468E-03    0.3255676266E-01
    0.3500000000E+05    0.6441469684E+00    0.5025555177E-01    0.6014352660E+00    0.7851290199E-03    0.3257009210E-01
    0.3700000000E+05    0.6443222250E+00    0.4915915119E-01    0.6032471645E+00    0.7658551342E-03    0.3258214395E-01
    0.3900000000E+05    0.6444791720E+00    0.4813788605E-01    0.6049301894E+00    0.7479605427E-03    0.3259310732E-01
    0.4100000000E+05    0.6446205194E+00    0.4718332672E-01    0.6064992396E+00    0.7312861197E-03    0.3260313501E-01
    0.4300000000E+05    0.6447484683E+00    0.4628832817E-01    0.6079668847E+00    0.7156975077E-03    0.3261235192E-01
    0.4500000000E+05    0.6448648252E+00    0.4544678673E-01    0.6093438155E+00    0.7010803463E-03    0.3262086119E-01
    0.4700000000E+05    0.6449710865E+00    0.4465345121E-01    0.6106391931E+00    0.6873365811E-03    0.3262874877E-01
    0.4900000000E+05    0.6450685021E+00    0.4390377445E-01    0.6118609208E+00    0.6743815769E-03    0.3263608691E-01
    0.1000000000E+05    0.6357791434E+00    0.7992018728E-01    0.5500740315E+00    0.1330652030E-02    0.3207753205E-01
    0.3000000000E+05    0.6436043390E+00    0.5339621135E-01    0.5962153596E+00    0.8406954626E-03    0.3253383772E-01
    0.5000000000E+05    0.6451142282E+00    0.4354405014E-01    0.6124463455E+00    0.6681765090E-03    0.3263956943E-01
    0.7000000000E+05    0.6457496806E+00    0.3790272627E-01    0.6215606878E+00    0.5718445903E-03    0.3269127027E-01
    0.9000000000E+05    0.6460976605E+00    0.3410479667E-01    0.6276293557E+00    0.5080709314E-03    0.3272356114E-01
    0.1100000000E+06    0.6463162475E+00    0.3131388328E-01    0.6320561515E+00    0.4617965453E-03    0.3274638622E-01
    0.1300000000E+06    0.6464657265E+00    0.2914626559E-01    0.6354758602E+00    0.4262205325E-03    0.3276376644E-01
    0.1500000000E+06    0.6465740410E+00    0.2739705036E-01    0.6382240508E+00    0.3977548241E-03    0.3277767047E-01
    0.1700000000E+06    0.6466558991E+00    0.2594524583E-01    0.6404973970E+00    0.3743011677E-03    0.3278918954E-01
    0.1900000000E+06    0.6467197715E+00    0.2471406150E-01    0.6424199875E+00    0.3545387358E-03    0.3279898386E-01
    0.2100000000E+06    0.6467708767E+00    0.2365203550E-01    0.6440745817E+00    0.3375886193E-03    0.3280747978E-01
    0.2300000000E+06    0.6468126024E+00    0.2272318008E-01    0.6455188219E+00    0.3228400162E-03    0.3281496686E-01
    0.2500000000E+06    0.6468472420E+00    0.2190145113E-01    0.6467942810E+00    0.3098533547E-03    0.3282164985E-01
    0.2700000000E+06    0.6468764027E+00    0.2116746154E-01    0.6479318136E+00    0.2983030668E-03    0.3282767836E-01
    0.2900000000E+06    0.6469012434E+00    0.2050643451E-01    0.6489548762E+00    0.2879421463E-03    0.3283316472E-01
    0.3100000000E+06    0.6469226204E+00    0.1990687864E-01    0.6498816679E+00    0.2785793166E-03    0.3283819525E-01
    0.3300000000E+06    0.6469411799E+00    0.1935970147E-01    0.6507265591E+00    0.2700638247E-03    0.3284283759E-01
    0.3500000000E+06    0.6469574183E+00    0.1885759958E-01    0.6515010710E+00    0.2622750204E-03    0.3284714567E-01
    0.3700000000E+06    0.6469717231E+00    0.1839462846E-01    0.6522145656E+00    0.2551150375E-03    0.3285116309E-01
    0.3900000000E+06    0.6469844014E+00    0.1796589271E-01    0.6528747404E+00    0.2485035389E-03    0.3285492563E-01
    0.4100000000E+06    0.6469956990E+00    0.1756731855E-01    0.6534879924E+00    0.2423738731E-03    0.3285846294E-01
    0.4300000000E+06    0.6470058156E+00    0.1719548404E-01    0.6540596876E+00    0.2366702129E-03    0.3286179986E-01
    0.4500000000E+06    0.6470149145E+00    0.1684749036E-01    0.6545943666E+00    0.2313453936E-03    0.3286495741E-01
    0.4700000000E+06    0.6470231308E+00    0.1652086295E-01    0.6550959007E+00    0.2263592569E-03    0.3286795351E-01
    0.4900000000E+06    0.6470305771E+00    0.1621347459E-01    0.6555676147E+00    0.2216773662E-03    0.3287080356E-01
    0.1000000000E+06    0.6462182208E+00    0.3261342536E-01    0.6299982640E+00    0.4832793209E-03    0.3273583437E-01
    0.3000000000E+06    0.6469123204E+00    0.2019958898E-01    0.6494293312E+00    0.2831462015E-03    0.3283573237E-01
    0.5000000000E+06    0.6470340416E+00    0.1606641011E-01    0.6557932026E+00    0.2194410636E-03    0.3287217805E-01
    0.7000000000E+06    0.6470794871E+00    0.1379573663E-01    0.6592685275E+00    0.1852280043E-03    0.3289446414E-01
    0.9000000000E+06    0.6471010721E+00    0.1230324817E-01    0.6615450068E+00    0.1630871925E-03    0.3291050050E-01
    0.1100000000E+07    0.6471124946E+00    0.1122412839E-01    0.6631871847E+00    0.1472678815E-03    0.3292301997E-01
    0.1300000000E+07    0.6471188065E+00    0.1039594996E-01    0.6644453516E+00    0.1352437372E-03    0.3293328595E-01
    0.1500000000E+07    0.6471222673E+00    0.9733795084E-02    0.6654499733E+00    0.1257077465E-03    0.3294198528E-01
    0.1700000000E+07    0.6471240217E+00    0.9188314909E-02    0.6662766986E+00    0.1179068922E-03    0.3294953253E-01
    0.1900000000E+07    0.6471247029E+00    0.8728584312E-02    0.6669728499E+00    0.1113727510E-03    0.3295619707E-01
    0.2100000000E+07    0.6471246849E+00    0.8334093370E-02    0.6675697663E+00    0.1057966505E-03    0.3296216371E-01
    0.2300000000E+07    0.6471241998E+00    0.7990624343E-02    0.6680891460E+00    0.1009658335E-03    0.3296756477E-01
    0.2500000000E+07    0.6471233974E+00    0.7687964821E-02    0.6685465583E+00    0.9672826214E-04    0.3297249820E-01
    0.2700000000E+07    0.6471223775E+00    0.7418562127E-02    0.6689535071E+00    0.9297201910E-04    0.3297703855E-01
    0.2900000000E+07    0.6471212084E+00    0.7176692572E-02    0.6693187034E+00    0.8961265148E-04    0.3298124385E-01
    0.3100000000E+07    0.6471199376E+00    0.6957927689E-02    0.6696488823E+00    0.8658507493E-04    0.3298516017E-01
    0.3300000000E+07    0.6471185989E+00    0.6758779505E-02    0.6699493452E+00    0.8383821506E-04    0.3298882470E-01
    0.3500000000E+07    0.6471172167E+00    0.6576457904E-02    0.6702243303E+00    0.8133135586E-04    0.3299226787E-01
    0.3700000000E+07    0.6471158086E+00    0.6408700447E-02    0.6704772725E+00    0.7903158753E-04    0.3299551492E-01
    0.3900000000E+07    0.6471143877E+00    0.6253650379E-02    0.6707109893E+00    0.7691198295E-04    0.3299858701E-01
    0.4100000000E+07    0.6471129634E+00    0.6109767465E-02    0.6709278170E+00    0.7495026891E-04    0.3300150203E-01
    0.4300000000E+07    0.6471115429E+00    0.5975761694E-02    0.6711297114E+00    0.7312784113E-04    0.3300427528E-01
    0.4500000000E+07    0.6471101313E+00    0.5850543227E-02    0.6713183245E+00    0.7142902252E-04    0.3300691991E-01
    0.4700000000E+07    0.6471087326E+00    0.5733184073E-02    0.6714950621E+00    0.6984049677E-04    0.3300944735E-01
    0.4900000000E+07    0.6471073494E+00    0.5622888381E-02    0.6716611297E+00    0.6835087041E-04    0.3301186754E-01
    0.1000000000E+07    0.6471076387E+00    0.1172478420E-01    0.6624256921E+00    0.1545865464E-03    0.3291710162E-01
    0.3000000000E+07    0.6471205833E+00    0.7064658815E-02    0.6694878101E+00    0.8806086051E-04    0.3298323563E-01
    0.5000000000E+07    0.6471066644E+00    0.5570170924E-02    0.6717404930E+00    0.6764002394E-04    0.3301304019E-01
    0.7000000000E+07    0.6470940301E+00    0.4760404601E-02    0.6729586380E+00    0.5681890278E-04    0.3303251708E-01
    0.9000000000E+07    0.6470833565E+00    0.4232378463E-02    0.6737520290E+00    0.4986999379E-04    0.3304701255E-01
    0.1100000000E+08    0.6470742508E+00    0.3852647187E-02    0.6743221420E+00    0.4493096962E-04    0.3305856399E-01
    0.1300000000E+08    0.6470663493E+00    0.3562371536E-02    0.6747576905E+00    0.4119126714E-04    0.3306816852E-01
    0.1500000000E+08    0.6470593849E+00    0.3330999799E-02    0.6751046931E+00    0.3823427285E-04    0.3307638924E-01
    0.1700000000E+08    0.6470531653E+00    0.3140869102E-02    0.6753897352E+00    0.3582114971E-04    0.3308357548E-01
    0.1900000000E+08    0.6470475497E+00    0.2980956287E-02    0.6756293981E+00    0.3380391168E-04    0.3308995899E-01
    0.2100000000E+08    0.6470424328E+00    0.2843975355E-02    0.6758346366E+00    0.3208535756E-04    0.3309570138E-01
    0.2300000000E+08    0.6470377343E+00    0.2724889912E-02    0.6760130197E+00    0.3059867248E-04    0.3310091990E-01
    0.2500000000E+08    0.6470333916E+00    0.2620091202E-02    0.6761699691E+00    0.2929622163E-04    0.3310570229E-01
    0.2700000000E+08    0.6470293550E+00    0.2526915996E-02    0.6763094847E+00    0.2814301166E-04    0.3311011595E-01
