  Pressure (Pa) 22mC5-400 (mol/kg) 2mC6-400 (mol/kg) 3mC6-400 (mol/kg) 33mC5-400 (mol/kg) 23mC5-400 (mol/kg)
    0.1000000000E+01    0.3692662284E-02    0.3971850705E-02    0.1586802912E-02    0.6467386926E-04    0.3705103292E-03
    0.3000000000E+01    0.1086494940E-01    0.1164438033E-01    0.4692806614E-02    0.1895868788E-03    0.1090171072E-02
    0.5000000000E+01    0.1776921596E-01    0.1897476779E-01    0.7712116597E-02    0.3089037080E-03    0.1782958844E-02
    0.7000000000E+01    0.2442317011E-01    0.2598458060E-01    0.1064864206E-01    0.4229762293E-03    0.2450648868E-02
    0.9000000000E+01    0.3084294895E-01    0.3269359056E-01    0.1350605614E-01    0.5321270758E-03    0.3094858893E-02
    0.1100000000E+02    0.3704328923E-01    0.3911995979E-01    0.1628781357E-01    0.6366526646E-03    0.3717066289E-02
    0.1300000000E+02    0.4303767619E-01    0.4528040370E-01    0.1899716682E-01    0.7368258490E-03    0.4318622978E-02
    0.1500000000E+02    0.4883847395E-01    0.5119033439E-01    0.2163718075E-01    0.8328982504E-03    0.4900768497E-02
    0.1700000000E+02    0.5445703992E-01    0.5686398711E-01    0.2421074610E-01    0.9251023155E-03    0.5464641469E-02
    0.1900000000E+02    0.5990382556E-01    0.6231453205E-01    0.2672059171E-01    0.1013653136E-02    0.6011289697E-02
    0.2100000000E+02    0.6518846523E-01    0.6755417352E-01    0.2916929584E-01    0.1098750060E-02    0.6541679078E-02
    0.2300000000E+02    0.7031985484E-01    0.7259423809E-01    0.3155929647E-01    0.1180578132E-02    0.7056701482E-02
    0.2500000000E+02    0.7530622164E-01    0.7744525313E-01    0.3389290078E-01    0.1259309364E-02    0.7557181747E-02
    0.2700000000E+02    0.8015518616E-01    0.8211701698E-01    0.3617229390E-01    0.1335103883E-02    0.8043883890E-02
    0.2900000000E+02    0.8487381748E-01    0.8661866176E-01    0.3839954692E-01    0.1408110951E-02    0.8517516645E-02
    0.3100000000E+02    0.8946868253E-01    0.9095870972E-01    0.4057662431E-01    0.1478469885E-02    0.8978738409E-02
    0.3300000000E+02    0.9394589024E-01    0.9514512386E-01    0.4270539073E-01    0.1546310878E-02    0.9428161661E-02
    0.3500000000E+02    0.9831113102E-01    0.9918535361E-01    0.4478761739E-01    0.1611755746E-02    0.9866356925E-02
    0.3700000000E+02    0.1025697124E+00    0.1030863760E+00    0.4682498782E-01    0.1674918597E-02    0.1029385634E-01
    0.3900000000E+02    0.1067265907E+00    0.1068547329E+00    0.4881910333E-01    0.1735906437E-02    0.1071115684E-01
    0.4100000000E+02    0.1107864004E+00    0.1104965647E+00    0.5077148800E-01    0.1794819721E-02    0.1111872309E-01
    0.4300000000E+02    0.1147534797E+00    0.1140176411E+00    0.5268359330E-01    0.1851752851E-02    0.1151699004E-01
    0.4500000000E+02    0.1186318939E+00    0.1174233885E+00    0.5455680243E-01    0.1906794630E-02    0.1190636532E-01
    0.4700000000E+02    0.1224254575E+00    0.1207189160E+00    0.5639243431E-01    0.1960028675E-02    0.1228723135E-01
    0.4900000000E+02    0.1261377527E+00    0.1239090378E+00    0.5819174733E-01    0.2011533790E-02    0.1265994734E-01
    0.1000000000E+02    0.3396967836E-01    0.3594102842E-01    0.1490618409E-01    0.5849504506E-03    0.3408625646E-02
    0.3000000000E+02    0.8718632873E-01    0.8880837511E-01    0.3949423876E-01    0.1443613093E-02    0.8749639594E-02
    0.5000000000E+02    0.1279644850E+00    0.1254660007E+00    0.5907816181E-01    0.2036661395E-02    0.1284335538E-01
    0.7000000000E+02    0.1609523812E+00    0.1520480879E+00    0.7516463563E-01    0.2464438163E-02    0.1615581430E-01
    0.9000000000E+02    0.1886447213E+00    0.1719572988E+00    0.8870062396E-01    0.2782684172E-02    0.1893715570E-01
    0.1100000000E+03    0.2125102927E+00    0.1872367428E+00    0.1003127492E+00    0.3024912561E-02    0.2133465942E-01
    0.1300000000E+03    0.2334772341E+00    0.1991874193E+00    0.1104331590E+00    0.3212489507E-02    0.2344139650E-01
    0.1500000000E+03    0.2521658877E+00    0.2086762456E+00    0.1193701724E+00    0.3359668314E-02    0.2531957525E-01
    0.1700000000E+03    0.2690102888E+00    0.2163021749E+00    0.1273500959E+00    0.3476306771E-02    0.2701272224E-01
    0.1900000000E+03    0.2843259123E+00    0.2224914303E+00    0.1345430889E+00    0.3569426346E-02    0.2855247536E-01
    0.2100000000E+03    0.2983495602E+00    0.2275548656E+00    0.1410797717E+00    0.3644152104E-02    0.2996258328E-01
    0.2300000000E+03    0.3112639334E+00    0.2317239523E+00    0.1470622333E+00    0.3704302884E-02    0.3126136950E-01
    0.2500000000E+03    0.3232133621E+00    0.2351741456E+00    0.1525715327E+00    0.3752774817E-02    0.3246330962E-01
    0.2700000000E+03    0.3343142150E+00    0.2380405043E+00    0.1576729352E+00    0.3791797937E-02    0.3358007529E-01
    0.2900000000E+03    0.3446619906E+00    0.2404284019E+00    0.1624196464E+00    0.3823112296E-02    0.3462124523E-01
    0.3100000000E+03    0.3543362730E+00    0.2424210331E+00    0.1668555264E+00    0.3848091508E-02    0.3559480221E-01
    0.3300000000E+03    0.3634042758E+00    0.2440847793E+00    0.1710170952E+00    0.3867831137E-02    0.3650748849E-01
    0.3500000000E+03    0.3719234299E+00    0.2454731084E+00    0.1749350393E+00    0.3883213011E-02    0.3736506527E-01
    0.3700000000E+03    0.3799433084E+00    0.2466294545E+00    0.1786353570E+00    0.3894952758E-02    0.3817250571E-01
    0.3900000000E+03    0.3875070836E+00    0.2475893737E+00    0.1821402418E+00    0.3903635417E-02    0.3893414109E-01
    0.4100000000E+03    0.3946526475E+00    0.2483821768E+00    0.1854687710E+00    0.3909742457E-02    0.3965377314E-01
    0.4300000000E+03    0.4014134861E+00    0.2490321818E+00    0.1886374481E+00    0.3913672505E-02    0.4033476170E-01
    0.4500000000E+03    0.4078193707E+00    0.2495596829E+00    0.1916606341E+00    0.3915757409E-02    0.4098009411E-01
    0.4700000000E+03    0.4138969121E+00    0.2499817080E+00    0.1945508942E+00    0.3916274811E-02    0.4159244066E-01
    0.4900000000E+03    0.4196700085E+00    0.2503126167E+00    0.1973192782E+00    0.3915458061E-02    0.4217419964E-01
    0.1000000000E+03    0.2009886563E+00    0.1800815948E+00    0.9471661508E-01    0.2911754972E-02    0.2017714905E-01
    0.3000000000E+03    0.3495788618E+00    0.2414696345E+00    0.1646740055E+00    0.3836319656E-02    0.3511602830E-01
    0.5000000000E+03    0.4224492083E+00    0.2504477788E+00    0.1986608624E+00    0.3914612166E-02    0.4245429309E-01
    0.7000000000E+03    0.4663236507E+00    0.2505121254E+00    0.2209582706E+00    0.3862060851E-02    0.4687928366E-01
    0.9000000000E+03    0.4952709618E+00    0.2483022707E+00    0.2375792970E+00    0.3784350401E-02    0.4980325711E-01
    0.1100000000E+04    0.5155692016E+00    0.2454544128E+00    0.2508611310E+00    0.3705135949E-02    0.5185681227E-01
    0.1300000000E+04    0.5304656581E+00    0.2424738689E+00    0.2619437961E+00    0.3630324005E-02    0.5336631463E-01
    0.1500000000E+04    0.5417949504E+00    0.2395359354E+00    0.2714665526E+00    0.3561104967E-02    0.5451625505E-01
    0.1700000000E+04    0.5506624153E+00    0.2367030377E+00    0.2798234537E+00    0.3497316129E-02    0.5541784860E-01
    0.1900000000E+04    0.5577686842E+00    0.2339948271E+00    0.2872746217E+00    0.3438433898E-02    0.5614162892E-01
    0.2100000000E+04    0.5635767372E+00    0.2314137621E+00    0.2940009000E+00    0.3383884985E-02    0.5673423039E-01
    0.2300000000E+04    0.5684033749E+00    0.2289553081E+00    0.3001332132E+00    0.3333141612E-02    0.5722758078E-01
    0.2500000000E+04    0.5724719054E+00    0.2266122635E+00    0.3057694787E+00    0.3285744567E-02    0.5764419788E-01
    0.2700000000E+04    0.5759438111E+00    0.2243766622E+00    0.3109849059E+00    0.3241302259E-02    0.5800037424E-01
    0.2900000000E+04    0.5789384911E+00    0.2222406166E+00    0.3158385595E+00    0.3199482605E-02    0.5830816320E-01
    0.3100000000E+04    0.5815459664E+00    0.2201966786E+00    0.3203777056E+00    0.3160003728E-02    0.5857665752E-01
    0.3300000000E+04    0.5838352873E+00    0.2182379731E+00    0.3246407821E+00    0.3122625411E-02    0.5881283579E-01
    0.3500000000E+04    0.5858602365E+00    0.2163582257E+00    0.3286594862E+00    0.3087141843E-02    0.5902213669E-01
    0.3700000000E+04    0.5876632833E+00    0.2145517414E+00    0.3324602769E+00    0.3053375661E-02    0.5920885732E-01
    0.3900000000E+04    0.5892783787E+00    0.2128133625E+00    0.3360654789E+00    0.3021173099E-02    0.5937643494E-01
    0.4100000000E+04    0.5907329690E+00    0.2111384189E+00    0.3394941087E+00    0.2990400075E-02    0.5952764988E-01
    0.4300000000E+04    0.5920494673E+00    0.2095226791E+00    0.3427625034E+00    0.2960939018E-02    0.5966477398E-01
    0.4500000000E+04    0.5932463466E+00    0.2079623030E+00    0.3458848058E+00    0.2932686287E-02    0.5978968077E-01
    0.4700000000E+04    0.5943389613E+00    0.2064537994E+00    0.3488733442E+00    0.2905550070E-02    0.5990392847E-01
    0.4900000000E+04    0.5953401731E+00    0.2049939879E+00    0.3517389326E+00    0.2879448652E-02    0.6000882314E-01
    0.1000000000E+04    0.5062531040E+00    0.2469142588E+00    0.2445498998E+00    0.3744379793E-02    0.5091390490E-01
    0.3000000000E+04    0.5802858994E+00    0.2212075779E+00    0.3181448646E+00    0.3179466468E-02    0.5844684425E-01
    0.5000000000E+04    0.5958099617E+00    0.2042814244E+00    0.3531286460E+00    0.2866762862E-02    0.6005811449E-01
    0.7000000000E+04    0.6023229070E+00    0.1919997739E+00    0.3762904066E+00    0.2653121276E-02    0.6074778657E-01
    0.9000000000E+04    0.6058750351E+00    0.1824163355E+00    0.3935445962E+00    0.2491977192E-02    0.6113153596E-01
    0.1100000000E+05    0.6081030928E+00    0.1745920728E+00    0.4072353315E+00    0.2363399173E-02    0.6137707600E-01
    0.1300000000E+05    0.6096279254E+00    0.1680039789E+00    0.4185401732E+00    0.2256973393E-02    0.6154846098E-01
    0.1500000000E+05    0.6107355780E+00    0.1623310168E+00    0.4281364430E+00    0.2166565293E-02    0.6167540549E-01
    0.1700000000E+05    0.6115758278E+00    0.1573620296E+00    0.4364499950E+00    0.2088256800E-02    0.6177357506E-01
    0.1900000000E+05    0.6122345751E+00    0.1529507799E+00    0.4437661069E+00    0.2019394554E-02    0.6185201567E-01
    0.2100000000E+05    0.6127645675E+00    0.1489918544E+00    0.4502852132E+00    0.1958099816E-02    0.6191631992E-01
    0.2300000000E+05    0.6131999641E+00    0.1454067979E+00    0.4561534776E+00    0.1902994787E-02    0.6197013425E-01
    0.2500000000E+05    0.6135638497E+00    0.1421356706E+00    0.4614807242E+00    0.1853039897E-02    0.6201593965E-01
    0.2700000000E+05    0.6138723806E+00    0.1391316687E+00    0.4663515270E+00    0.1807432103E-02    0.6205548421E-01
    0.2900000000E+05    0.6141371985E+00    0.1363575638E+00    0.4708323707E+00    0.1765538666E-02    0.6209003607E-01
    0.3100000000E+05    0.6143669028E+00    0.1337832708E+00    0.4749764433E+00    0.1726852532E-02    0.6212053824E-01
    0.3300000000E+05    0.6145679819E+00    0.1313841403E+00    0.4788269414E+00    0.1690961385E-02    0.6214770700E-01
    0.3500000000E+05    0.6147454225E+00    0.1291397316E+00    0.4824194111E+00    0.1657525637E-02    0.6217209654E-01
    0.3700000000E+05    0.6149031200E+00    0.1270329126E+00    0.4857834420E+00    0.1626262439E-02    0.6219414262E-01
    0.3900000000E+05    0.6150441609E+00    0.1250491871E+00    0.4889439184E+00    0.1596933832E-02    0.6221419281E-01
    0.4100000000E+05    0.6151710222E+00    0.1231761852E+00    0.4919219591E+00    0.1569337831E-02    0.6223252786E-01
    0.4300000000E+05    0.6152857145E+00    0.1214032694E+00    0.4947356343E+00    0.1543301599E-02    0.6224937716E-01
    0.4500000000E+05    0.6153898867E+00    0.1197212290E+00    0.4974005208E+00    0.1518676166E-02    0.6226493007E-01
    0.4700000000E+05    0.6154849037E+00    0.1181220378E+00    0.4999301359E+00    0.1495332278E-02    0.6227934435E-01
    0.4900000000E+05    0.6155719049E+00    0.1165986614E+00    0.5023362821E+00    0.1473157112E-02    0.6229275252E-01
    0.1000000000E+05    0.6071039523E+00    0.1783233379E+00    0.4007455169E+00    0.2424405711E-02    0.6126636873E-01
    0.3000000000E+05    0.6142559932E+00    0.1350470925E+00    0.4729436006E+00    0.1745822383E-02    0.6210574417E-01
    0.5000000000E+05    0.6156127051E+00    0.1158634377E+00    0.5034963426E+00    0.1462476374E-02    0.6229911508E-01
    0.7000000000E+05    0.6161765457E+00    0.1039598482E+00    0.5221760201E+00    0.1291500236E-02    0.6239352352E-01
    0.9000000000E+05    0.6164816267E+00    0.9552863292E-01    0.5353016421E+00    0.1172619790E-02    0.6245244519E-01
    0.1100000000E+06    0.6166709797E+00    0.8910376731E-01    0.5452522935E+00    0.1083275745E-02    0.6249407688E-01
    0.1300000000E+06    0.6167988959E+00    0.8397286946E-01    0.5531696193E+00    0.1012711401E-02    0.6252576885E-01
    0.1500000000E+06    0.6168904335E+00    0.7973890671E-01    0.5596846183E+00    0.9550167535E-03    0.6255111741E-01
    0.1700000000E+06    0.6169587278E+00    0.7615935227E-01    0.5651804136E+00    0.9066229143E-03    0.6257211507E-01
    0.1900000000E+06    0.6170113138E+00    0.7307594076E-01    0.5699058627E+00    0.8652232005E-03    0.6258996695E-01
    0.2100000000E+06    0.6170528152E+00    0.7038009313E-01    0.5740310646E+00    0.8292480988E-03    0.6260545104E-01
    0.2300000000E+06    0.6170862219E+00    0.6799433195E-01    0.5776770258E+00    0.7975857361E-03    0.6261909564E-01
    0.2500000000E+06    0.6171135503E+00    0.6586159037E-01    0.5809326475E+00    0.7694223989E-03    0.6263127425E-01
    0.2700000000E+06    0.6171362075E+00    0.6393872049E-01    0.5838649999E+00    0.7441463932E-03    0.6264225973E-01
    0.2900000000E+06    0.6171552047E+00    0.6219237348E-01    0.5865258233E+00    0.7212874240E-03    0.6265225694E-01
    0.3100000000E+06    0.6171712856E+00    0.6059628702E-01    0.5889557952E+00    0.7004769135E-03    0.6266142327E-01
    0.3300000000E+06    0.6171850096E+00    0.5912944274E-01    0.5911874225E+00    0.6814211888E-03    0.6266988207E-01
    0.3500000000E+06    0.6171968045E+00    0.5777478070E-01    0.5932470553E+00    0.6638828666E-03    0.6267773165E-01
    0.3700000000E+06    0.6172070030E+00    0.5651828134E-01    0.5951563217E+00    0.6476676193E-03    0.6268505152E-01
    0.3900000000E+06    0.6172158676E+00    0.5534829653E-01    0.5969331718E+00    0.6326145710E-03    0.6269190688E-01
    0.4100000000E+06    0.6172236078E+00    0.5425505310E-01    0.5985926514E+00    0.6185891982E-03    0.6269835178E-01
    0.4300000000E+06    0.6172303927E+00    0.5323027853E-01    0.6001474846E+00    0.6054779973E-03    0.6270443152E-01
    0.4500000000E+06    0.6172363602E+00    0.5226691461E-01    0.6016085186E+00    0.5931844186E-03    0.6271018440E-01
    0.4700000000E+06    0.6172416240E+00    0.5135889556E-01    0.6029850681E+00    0.5816257257E-03    0.6271564307E-01
    0.4900000000E+06    0.6172462784E+00    0.5050097402E-01    0.6042851854E+00    0.5707305414E-03    0.6272083562E-01
    0.1000000000E+06    0.6165863447E+00    0.9212029182E-01    0.5405856411E+00    0.1125088185E-02    0.6247483257E-01
    0.3000000000E+06    0.6171635711E+00    0.6137696701E-01    0.5877674695E+00    0.7106459717E-03    0.6265693558E-01
    0.5000000000E+06    0.6172484021E+00    0.5008934928E-01    0.6049088065E+00    0.5655120795E-03    0.6272333981E-01
    0.7000000000E+06    0.6172725935E+00    0.4363618439E-01    0.6146717611E+00    0.4844863676E-03    0.6276394211E-01
    0.9000000000E+06    0.6172793892E+00    0.3929195585E-01    0.6212300559E+00    0.4308168585E-03    0.6279315772E-01
    0.1100000000E+07    0.6172795136E+00    0.3609850769E-01    0.6260441386E+00    0.3918480984E-03    0.6281596617E-01
    0.1300000000E+07    0.6172767012E+00    0.3361711943E-01    0.6297808562E+00    0.3618689285E-03    0.6283466927E-01
    0.1500000000E+07    0.6172725169E+00    0.3161373625E-01    0.6327952794E+00    0.3378666758E-03    0.6285051834E-01
    0.1700000000E+07    0.6172676963E+00    0.2995019721E-01    0.6352967000E+00    0.3180793818E-03    0.6286426866E-01
    0.1900000000E+07    0.6172626119E+00    0.2853882394E-01    0.6374177845E+00    0.3013976552E-03    0.6287641092E-01
    0.2100000000E+07    0.6172574611E+00    0.2732085530E-01    0.6392473619E+00    0.2870830653E-03    0.6288728184E-01
    0.2300000000E+07    0.6172523517E+00    0.2625519360E-01    0.6408475103E+00    0.2746222727E-03    0.6289712243E-01
    0.2500000000E+07    0.6172473421E+00    0.2531209136E-01    0.6422631336E+00    0.2636457240E-03    0.6290611114E-01
    0.2700000000E+07    0.6172424634E+00    0.2446939994E-01    0.6435276458E+00    0.2538796204E-03    0.6291438377E-01
    0.2900000000E+07    0.6172377308E+00    0.2371023395E-01    0.6446665076E+00    0.2451161653E-03    0.6292204604E-01
    0.3100000000E+07    0.6172331499E+00    0.2302145906E-01    0.6456995147E+00    0.2371943947E-03    0.6292918188E-01
    0.3300000000E+07    0.6172287212E+00    0.2239268042E-01    0.6466423275E+00    0.2299874078E-03    0.6293585901E-01
    0.3500000000E+07    0.6172244414E+00    0.2181554648E-01    0.6475075236E+00    0.2233936139E-03    0.6294213289E-01
    0.3700000000E+07    0.6172203058E+00    0.2128325806E-01    0.6483053393E+00    0.2173305835E-03    0.6294804950E-01
    0.3900000000E+07    0.6172163085E+00    0.2079021460E-01    0.6490442035E+00    0.2117306334E-03    0.6295364735E-01
    0.4100000000E+07    0.6172124433E+00    0.2033175449E-01    0.6497311303E+00    0.2065375954E-03    0.6295895908E-01
    0.4300000000E+07    0.6172087036E+00    0.1990396115E-01    0.6503720112E+00    0.2017044115E-03    0.6296401253E-01
    0.4500000000E+07    0.6172050832E+00    0.1950351605E-01    0.6509718367E+00    0.1971913160E-03    0.6296883168E-01
    0.4700000000E+07    0.6172015759E+00    0.1912758573E-01    0.6515348672E+00    0.1929644426E-03    0.6297343731E-01
    0.4900000000E+07    0.6171981758E+00    0.1877373397E-01    0.6520647648E+00    0.1889947439E-03    0.6297784756E-01
    0.1000000000E+07    0.6172799738E+00    0.3758565249E-01    0.6238030048E+00    0.4099425109E-03    0.6280518387E-01
    0.3000000000E+07    0.6172354213E+00    0.2335775213E-01    0.6451951814E+00    0.2410586811E-03    0.6292567520E-01
    0.5000000000E+07    0.6171965142E+00    0.1860441754E-01    0.6523182958E+00    0.1870983628E-03    0.6297998447E-01
    0.7000000000E+07    0.6171677215E+00    0.1598826514E-01    0.6562338112E+00    0.1580642330E-03    0.6301547888E-01
    0.9000000000E+07    0.6171450856E+00    0.1426664075E-01    0.6588086049E+00    0.1392522071E-03    0.6304189773E-01
    0.1100000000E+08    0.6171264781E+00    0.1302076914E-01    0.6606709290E+00    0.1257995773E-03    0.6306295266E-01
    0.1300000000E+08    0.6171106937E+00    0.1206397697E-01    0.6621005898E+00    0.1155675062E-03    0.6308046025E-01
    0.1500000000E+08    0.6170969933E+00    0.1129858065E-01    0.6632439157E+00    0.1074484174E-03    0.6309544637E-01
    0.1700000000E+08    0.6170848927E+00    0.1066777041E-01    0.6641859664E+00    0.1008037179E-03    0.6310854749E-01
    0.1900000000E+08    0.6170740583E+00    0.1013592358E-01    0.6649800588E+00    0.9523591637E-04    0.6312018582E-01
    0.2100000000E+08    0.6170642507E+00    0.9679402302E-02    0.6656615608E+00    0.9048294411E-04    0.6313065585E-01
    0.2300000000E+08    0.6170552925E+00    0.9281813019E-02    0.6662549945E+00    0.8636408399E-04    0.6314017120E-01
    0.2500000000E+08    0.6170470483E+00    0.8931375732E-02    0.6667779769E+00    0.8275014281E-04    0.6314889175E-01
    0.2700000000E+08    0.6170394130E+00    0.8619375336E-02    0.6672435390E+00    0.7954598594E-04    0.6315694029E-01
