  Pressure (Pa) 22mC5-400 (mol/kg) 2mC6-400 (mol/kg) 3mC6-400 (mol/kg) 33mC5-400 (mol/kg) 23mC5-400 (mol/kg)
    0.1000000000E+01    0.3695319723E-02    0.3184278378E-02    0.5300627641E-03    0.3888686814E-03    0.1853884011E-03
    0.3000000000E+01    0.1088776582E-01    0.9374694739E-02    0.1574162055E-02    0.1144707814E-02    0.5462294978E-03
    0.5000000000E+01    0.1782974395E-01    0.1533899014E-01    0.2597485368E-02    0.1872745646E-02    0.8945141804E-03
    0.7000000000E+01    0.2453658568E-01    0.2108989354E-01    0.3600715598E-02    0.2574541691E-02    0.1231010926E-02
    0.9000000000E+01    0.3102236126E-01    0.2663914596E-01    0.4584505342E-02    0.3251534775E-02    0.1556424994E-02
    0.1100000000E+02    0.3730000673E-01    0.3199759765E-01    0.5549478577E-02    0.3905054885E-02    0.1871404802E-02
    0.1300000000E+02    0.4338143612E-01    0.3717529387E-01    0.6496232229E-02    0.4536333638E-02    0.2176547541E-02
    0.1500000000E+02    0.4927764053E-01    0.4218155079E-01    0.7425337631E-02    0.5146513526E-02    0.2472404146E-02
    0.1700000000E+02    0.5499877598E-01    0.4702502278E-01    0.8337341898E-02    0.5736656131E-02    0.2759483697E-02
    0.1900000000E+02    0.6055424141E-01    0.5171376220E-01    0.9232769205E-02    0.6307749427E-02    0.3038257330E-02
    0.2100000000E+02    0.6595274818E-01    0.5625527281E-01    0.1011212199E-01    0.6860714282E-02    0.3309161717E-02
    0.2300000000E+02    0.7120238200E-01    0.6065655737E-01    0.1097588207E-01    0.7396410279E-02    0.3572602170E-02
    0.2500000000E+02    0.7631065832E-01    0.6492416031E-01    0.1182451173E-01    0.7915640924E-02    0.3828955422E-02
    0.2700000000E+02    0.8128457200E-01    0.6906420603E-01    0.1265845466E-01    0.8419158313E-02    0.4078572109E-02
    0.2900000000E+02    0.8613064180E-01    0.7308243328E-01    0.1347813694E-01    0.8907667343E-02    0.4321779006E-02
    0.3100000000E+02    0.9085495044E-01    0.7698422623E-01    0.1428396789E-01    0.9381829494E-02    0.4558881032E-02
    0.3300000000E+02    0.9546318071E-01    0.8077464244E-01    0.1507634088E-01    0.9842266253E-02    0.4790163057E-02
    0.3500000000E+02    0.9996064801E-01    0.8445843817E-01    0.1585563416E-01    0.1028956220E-01    0.5015891540E-02
    0.3700000000E+02    0.1043523298E+00    0.8804009137E-01    0.1662221151E-01    0.1072426784E-01    0.5236315997E-02
    0.3900000000E+02    0.1086428921E+00    0.9152382245E-01    0.1737642300E-01    0.1114690209E-01    0.5451670341E-02
    0.4100000000E+02    0.1128367140E+00    0.9491361329E-01    0.1811860561E-01    0.1155795465E-01    0.5662174091E-02
    0.4300000000E+02    0.1169379092E+00    0.9821322441E-01    0.1884908383E-01    0.1195788810E-01    0.5868033475E-02
    0.4500000000E+02    0.1209503465E+00    0.1014262108E+00    0.1956817026E-01    0.1234713980E-01    0.6069442428E-02
    0.4700000000E+02    0.1248776672E+00    0.1045559362E+00    0.2027616615E-01    0.1272612368E-01    0.6266583506E-02
    0.4900000000E+02    0.1287233025E+00    0.1076055863E+00    0.2097336190E-01    0.1309523181E-01    0.6459628717E-02
    0.1000000000E+02    0.3418643289E-01    0.2934157613E-01    0.5069306099E-02    0.3581149784E-02    0.1715180717E-02
    0.3000000000E+02    0.8850765211E-01    0.7504756060E-01    0.1388275888E-01    0.9146502036E-02    0.4441074874E-02
    0.5000000000E+02    0.1306165067E+00    0.1091013329E+00    0.2131799765E-01    0.1327619939E-01    0.6554666428E-02
    0.7000000000E+02    0.1648880329E+00    0.1354688201E+00    0.2770682323E-01    0.1645792051E-01    0.8275276010E-02
    0.9000000000E+02    0.1937480912E+00    0.1564647854E+00    0.3328031687E-01    0.1897683471E-01    0.9724519268E-02
    0.1100000000E+03    0.2186582905E+00    0.1735465256E+00    0.3820464403E-01    0.2101275366E-01    0.1097567462E-01
    0.1300000000E+03    0.2405578488E+00    0.1876838797E+00    0.4260254494E-01    0.2268549779E-01    0.1207583211E-01
    0.1500000000E+03    0.2600822806E+00    0.1995502064E+00    0.4656678352E-01    0.2407834753E-01    0.1305685600E-01
    0.1700000000E+03    0.2776802499E+00    0.2096288864E+00    0.5016886716E-01    0.2525113928E-01    0.1394124270E-01
    0.1900000000E+03    0.2936799747E+00    0.2182764226E+00    0.5346487487E-01    0.2624803405E-01    0.1474544985E-01
    0.2100000000E+03    0.3083289268E+00    0.2257616847E+00    0.5649945708E-01    0.2710235442E-01    0.1548188665E-01
    0.2300000000E+03    0.3218185972E+00    0.2322913045E+00    0.5930864497E-01    0.2783971789E-01    0.1616015549E-01
    0.2500000000E+03    0.3343005173E+00    0.2380266619E+00    0.6192186463E-01    0.2848013464E-01    0.1678785521E-01
    0.2700000000E+03    0.3458969541E+00    0.2430955683E+00    0.6436340766E-01    0.2903945177E-01    0.1737111734E-01
    0.2900000000E+03    0.3567082491E+00    0.2476004968E+00    0.6665352274E-01    0.2953037166E-01    0.1791497406E-01
    0.3100000000E+03    0.3668179803E+00    0.2516245022E+00    0.6880923782E-01    0.2996318496E-01    0.1842361700E-01
    0.3300000000E+03    0.3762966723E+00    0.2552355569E+00    0.7084498783E-01    0.3034630806E-01    0.1890058327E-01
    0.3500000000E+03    0.3852045158E+00    0.2584897772E+00    0.7277309980E-01    0.3068668326E-01    0.1934889186E-01
    0.3700000000E+03    0.3935933990E+00    0.2614338600E+00    0.7460417195E-01    0.3099008124E-01    0.1977114541E-01
    0.3900000000E+03    0.4015084480E+00    0.2641069454E+00    0.7634737300E-01    0.3126133248E-01    0.2016960752E-01
    0.4100000000E+03    0.4089892145E+00    0.2665420576E+00    0.7801068074E-01    0.3150450643E-01    0.2054626226E-01
    0.4300000000E+03    0.4160706034E+00    0.2687672314E+00    0.7960107383E-01    0.3172305160E-01    0.2090286069E-01
    0.4500000000E+03    0.4227836072E+00    0.2708064006E+00    0.8112468730E-01    0.3191990623E-01    0.2124095767E-01
    0.4700000000E+03    0.4291558938E+00    0.2726801062E+00    0.8258693948E-01    0.3209758643E-01    0.2156194136E-01
    0.4900000000E+03    0.4352122830E+00    0.2744060635E+00    0.8399263650E-01    0.3225825693E-01    0.2186705710E-01
    0.1000000000E+03    0.2066292243E+00    0.1654256911E+00    0.3581512389E-01    0.2004661711E-01    0.1037146371E-01
    0.3000000000E+03    0.3618461323E+00    0.2496680554E+00    0.6774722360E-01    0.2975347693E-01    0.1817346264E-01
    0.5000000000E+03    0.4381290911E+00    0.2752185148E+00    0.8467563290E-01    0.3233280826E-01    0.2201401948E-01
    0.7000000000E+03    0.4843078707E+00    0.2865322381E+00    0.9619455989E-01    0.3327262712E-01    0.2434237303E-01
    0.9000000000E+03    0.5149538794E+00    0.2925004438E+00    0.1049871060E+00    0.3364445812E-01    0.2588984178E-01
    0.1100000000E+04    0.5365554237E+00    0.2959428955E+00    0.1121469304E+00    0.3377284813E-01    0.2698225993E-01
    0.1300000000E+04    0.5524784345E+00    0.2980076091E+00    0.1182201710E+00    0.3378210928E-01    0.2778875652E-01
    0.1500000000E+04    0.5646332587E+00    0.2992449971E+00    0.1235170802E+00    0.3372782520E-01    0.2840537396E-01
    0.1700000000E+04    0.5741763617E+00    0.2999511145E+00    0.1282304024E+00    0.3363775231E-01    0.2889028449E-01
    0.1900000000E+04    0.5818440751E+00    0.3002991886E+00    0.1324880176E+00    0.3352693403E-01    0.2928054646E-01
    0.2100000000E+04    0.5881249420E+00    0.3003972163E+00    0.1363791472E+00    0.3340404340E-01    0.2960076037E-01
    0.2300000000E+04    0.5933544608E+00    0.3003159078E+00    0.1399685615E+00    0.3327432099E-01    0.2986782912E-01
    0.2500000000E+04    0.5977698737E+00    0.3001033840E+00    0.1433048130E+00    0.3314104733E-01    0.3009371162E-01
    0.2700000000E+04    0.6015432243E+00    0.2997934255E+00    0.1464252718E+00    0.3300633002E-01    0.3028708490E-01
    0.2900000000E+04    0.6048020393E+00    0.2994103546E+00    0.1493593448E+00    0.3287154740E-01    0.3045438422E-01
    0.3100000000E+04    0.6076426823E+00    0.2989720543E+00    0.1521306111E+00    0.3273761001E-01    0.3060047492E-01
    0.3300000000E+04    0.6101392166E+00    0.2984919052E+00    0.1547582848E+00    0.3260512058E-01    0.3072909845E-01
    0.3500000000E+04    0.6123494325E+00    0.2979800680E+00    0.1572582433E+00    0.3247447501E-01    0.3084317582E-01
    0.3700000000E+04    0.6143190374E+00    0.2974443548E+00    0.1596437685E+00    0.3234592796E-01    0.3094501856E-01
    0.3900000000E+04    0.6160846251E+00    0.2968908366E+00    0.1619260918E+00    0.3221963635E-01    0.3103647837E-01
    0.4100000000E+04    0.6176758170E+00    0.2963242731E+00    0.1641148023E+00    0.3209568882E-01    0.3111905496E-01
    0.4300000000E+04    0.6191168321E+00    0.2957484248E+00    0.1662181573E+00    0.3197412604E-01    0.3119397521E-01
    0.4500000000E+04    0.6204276536E+00    0.2951662815E+00    0.1682433222E+00    0.3185495491E-01    0.3126225203E-01
    0.4700000000E+04    0.6216249083E+00    0.2945802323E+00    0.1701965588E+00    0.3173815856E-01    0.3132472866E-01
    0.4900000000E+04    0.6227225368E+00    0.2939921942E+00    0.1720833735E+00    0.3162370355E-01    0.3138211251E-01
    0.1000000000E+04    0.5266283528E+00    0.2944449318E+00    0.1087292812E+00    0.3372889440E-01    0.2648002789E-01
    0.3000000000E+04    0.6062695622E+00    0.2991971838E+00    0.1507640393E+00    0.3280442957E-01    0.3052982457E-01
    0.5000000000E+04    0.6232377429E+00    0.2936979240E+00    0.1730034166E+00    0.3156734037E-01    0.3140908512E-01
    0.7000000000E+04    0.6303925599E+00    0.2879539347E+00    0.1888523244E+00    0.3054944874E-01    0.3178694641E-01
    0.9000000000E+04    0.6343053387E+00    0.2826971351E+00    0.2013582509E+00    0.2970058635E-01    0.3199754696E-01
    0.1100000000E+05    0.6367642095E+00    0.2779595466E+00    0.2117647375E+00    0.2897510250E-01    0.3213240996E-01
    0.1300000000E+05    0.6384495217E+00    0.2736762470E+00    0.2207142596E+00    0.2834223372E-01    0.3222658560E-01
    0.1500000000E+05    0.6396753410E+00    0.2697768992E+00    0.2285862582E+00    0.2778114442E-01    0.3229635921E-01
    0.1700000000E+05    0.6406063391E+00    0.2662014721E+00    0.2356252741E+00    0.2727724445E-01    0.3235032502E-01
    0.1900000000E+05    0.6413370555E+00    0.2629012699E+00    0.2419989596E+00    0.2681996605E-01    0.3239344907E-01
    0.2100000000E+05    0.6419255903E+00    0.2598371306E+00    0.2478276922E+00    0.2640142362E-01    0.3242880302E-01
    0.2300000000E+05    0.6424095947E+00    0.2569774158E+00    0.2532010668E+00    0.2601558116E-01    0.3245839029E-01
    0.2500000000E+05    0.6428145290E+00    0.2542963351E+00    0.2581877134E+00    0.2565771684E-01    0.3248357435E-01
    0.2700000000E+05    0.6431582210E+00    0.2517726490E+00    0.2628414558E+00    0.2532406739E-01    0.3250531602E-01
    0.2900000000E+05    0.6434535234E+00    0.2493886858E+00    0.2672053448E+00    0.2501158482E-01    0.3252431245E-01
    0.3100000000E+05    0.6437099342E+00    0.2471295986E+00    0.2713143929E+00    0.2471776555E-01    0.3254108209E-01
    0.3300000000E+05    0.6439346230E+00    0.2449827999E+00    0.2751974862E+00    0.2444052777E-01    0.3255601878E-01
    0.3500000000E+05    0.6441331022E+00    0.2429375280E+00    0.2788787541E+00    0.2417812144E-01    0.3256942723E-01
    0.3700000000E+05    0.6443096795E+00    0.2409845116E+00    0.2823785737E+00    0.2392906111E-01    0.3258154708E-01
    0.3900000000E+05    0.6444677695E+00    0.2391157063E+00    0.2857143198E+00    0.2369207499E-01    0.3259256943E-01
    0.4100000000E+05    0.6446101134E+00    0.2373240876E+00    0.2889009347E+00    0.2346606565E-01    0.3260264870E-01
    0.4300000000E+05    0.6447389370E+00    0.2356034847E+00    0.2919513682E+00    0.2325007947E-01    0.3261191101E-01
    0.4500000000E+05    0.6448560663E+00    0.2339484471E+00    0.2948769211E+00    0.2304328246E-01    0.3262046049E-01
    0.4700000000E+05    0.6449630136E+00    0.2323541362E+00    0.2976875175E+00    0.2284494095E-01    0.3262838391E-01
    0.4900000000E+05    0.6450610415E+00    0.2308162364E+00    0.3003919221E+00    0.2265440609E-01    0.3263575414E-01
    0.1000000000E+05    0.6356610724E+00    0.2802669640E+00    0.2067752728E+00    0.2932463338E-01    0.3207159429E-01
    0.3000000000E+05    0.6435860968E+00    0.2482443668E+00    0.2692897932E+00    0.2486248108E-01    0.3253294857E-01
    0.5000000000E+05    0.6451070495E+00    0.2300672168E+00    0.3017067686E+00    0.2256188342E-01    0.3263925148E-01
    0.7000000000E+05    0.6457460394E+00    0.2172911778E+00    0.3239311095E+00    0.2100981872E-01    0.3269114167E-01
    0.9000000000E+05    0.6460956409E+00    0.2074360857E+00    0.3408593108E+00    0.1984345594E-01    0.3272352387E-01
    0.1100000000E+06    0.6463151270E+00    0.1994227351E+00    0.3545154754E+00    0.1891297147E-01    0.3274640283E-01
    0.1300000000E+06    0.6464651677E+00    0.1926802008E+00    0.3659424346E+00    0.1814166527E-01    0.3276381919E-01
    0.1500000000E+06    0.6465738632E+00    0.1868685358E+00    0.3757508879E+00    0.1748494418E-01    0.3277774966E-01
    0.1700000000E+06    0.6466559960E+00    0.1817684678E+00    0.3843302089E+00    0.1691457679E-01    0.3278928934E-01
    0.1900000000E+06    0.6467200758E+00    0.1772301190E+00    0.3919442562E+00    0.1641155912E-01    0.3279910048E-01
    0.2100000000E+06    0.6467713435E+00    0.1731464274E+00    0.3987802471E+00    0.1596249040E-01    0.3280761061E-01
    0.2300000000E+06    0.6468132003E+00    0.1694382157E+00    0.4049758877E+00    0.1555757020E-01    0.3281511003E-01
    0.2500000000E+06    0.6468479484E+00    0.1660452627E+00    0.4106354464E+00    0.1518941723E-01    0.3282180397E-01
    0.2700000000E+06    0.6468772007E+00    0.1629206911E+00    0.4158397800E+00    0.1485233582E-01    0.3282784234E-01
    0.2900000000E+06    0.6469021201E+00    0.1600272933E+00    0.4206528578E+00    0.1454184063E-01    0.3283333770E-01
    0.3100000000E+06    0.6469235657E+00    0.1573350424E+00    0.4251261578E+00    0.1425433776E-01    0.3283837654E-01
    0.3300000000E+06    0.6469421857E+00    0.1548193567E+00    0.4293017173E+00    0.1398690427E-01    0.3284302662E-01
    0.3500000000E+06    0.6469584781E+00    0.1524598591E+00    0.4332143065E+00    0.1373713176E-01    0.3284734195E-01
    0.3700000000E+06    0.6469728316E+00    0.1502394712E+00    0.4368930084E+00    0.1350301298E-01    0.3285136623E-01
    0.3900000000E+06    0.6469855541E+00    0.1481437391E+00    0.4403623929E+00    0.1328285798E-01    0.3285513527E-01
    0.4100000000E+06    0.6469968923E+00    0.1461603228E+00    0.4436434019E+00    0.1307523098E-01    0.3285867876E-01
    0.4300000000E+06    0.6470070462E+00    0.1442786046E+00    0.4467540279E+00    0.1287890222E-01    0.3286202160E-01
    0.4500000000E+06    0.6470161798E+00    0.1424893835E+00    0.4497098408E+00    0.1269281063E-01    0.3286518483E-01
    0.4700000000E+06    0.6470244283E+00    0.1407846350E+00    0.4525244028E+00    0.1251603457E-01    0.3286818638E-01
    0.4900000000E+06    0.6470319047E+00    0.1391573194E+00    0.4552095976E+00    0.1234776861E-01    0.3287104170E-01
    0.1000000000E+06    0.6462167086E+00    0.2032422672E+00    0.3480172678E+00    0.1935456110E-01    0.3273582706E-01
    0.3000000000E+06    0.6469132325E+00    0.1586576720E+00    0.4229291603E+00    0.1439541148E-01    0.3283590958E-01
    0.5000000000E+06    0.6470353836E+00    0.1383707298E+00    0.4565070032E+00    0.1226660235E-01    0.3287241875E-01
    0.7000000000E+06    0.6470810518E+00    0.1255200895E+00    0.4776562910E+00    0.1095594660E-01    0.3289474914E-01
    0.9000000000E+06    0.6471027897E+00    0.1162758120E+00    0.4928190124E+00    0.1003088645E-01    0.3291082114E-01
    0.1100000000E+07    0.6471143304E+00    0.1091447412E+00    0.5044881047E+00    0.9327423724E-02    0.3292337101E-01
    0.1300000000E+07    0.6471207399E+00    0.1033926820E+00    0.5138838635E+00    0.8766452041E-02    0.3293366380E-01
    0.1500000000E+07    0.6471242840E+00    0.9860613232E-01    0.5216913959E+00    0.8304067691E-02    0.3294238726E-01
    0.1700000000E+07    0.6471261116E+00    0.9453015646E-01    0.5283320747E+00    0.7913522894E-02    0.3294995655E-01
    0.1900000000E+07    0.6471268582E+00    0.9099701874E-01    0.5340826116E+00    0.7577393849E-02    0.3295664144E-01
    0.2100000000E+07    0.6471268995E+00    0.8789079350E-01    0.5391339439E+00    0.7283741841E-02    0.3296262704E-01
    0.2300000000E+07    0.6471264687E+00    0.8512821064E-01    0.5436230387E+00    0.7024055789E-02    0.3296804589E-01
    0.2500000000E+07    0.6471257163E+00    0.8264756617E-01    0.5476512720E+00    0.6792071206E-02    0.3297299609E-01
    0.2700000000E+07    0.6471247430E+00    0.8040194846E-01    0.5512956381E+00    0.6583054197E-02    0.3297755233E-01
    0.2900000000E+07    0.6471236173E+00    0.7835491583E-01    0.5546158930E+00    0.6393347626E-02    0.3298177275E-01
    0.3100000000E+07    0.6471223874E+00    0.7647763588E-01    0.5576592770E+00    0.6220072589E-02    0.3298570350E-01
    0.3300000000E+07    0.6471210873E+00    0.7474693307E-01    0.5604637339E+00    0.6060925786E-02    0.3298938184E-01
    0.3500000000E+07    0.6471197417E+00    0.7314392039E-01    0.5630601654E+00    0.5914038244E-02    0.3299283828E-01
    0.3700000000E+07    0.6471183683E+00    0.7165301813E-01    0.5654740462E+00    0.5777874478E-02    0.3299609809E-01
    0.3900000000E+07    0.6471169805E+00    0.7026123597E-01    0.5677266050E+00    0.5651159040E-02    0.3299918248E-01
    0.4100000000E+07    0.6471155878E+00    0.6895763822E-01    0.5698357036E+00    0.5532822023E-02    0.3300210938E-01
    0.4300000000E+07    0.6471141975E+00    0.6773293919E-01    0.5718165010E+00    0.5421958000E-02    0.3300489412E-01
    0.4500000000E+07    0.6471128150E+00    0.6657919267E-01    0.5736819637E+00    0.5317794603E-02    0.3300754990E-01
    0.4700000000E+07    0.6471114441E+00    0.6548955046E-01    0.5754432618E+00    0.5219668196E-02    0.3301008814E-01
    0.4900000000E+07    0.6471100879E+00    0.6445807248E-01    0.5771100799E+00    0.5127004795E-02    0.3301251884E-01
    0.1000000000E+07    0.6471094186E+00    0.1125025133E+00    0.4989964452E+00    0.9657558996E-02    0.3291743799E-01
    0.3000000000E+07    0.6471230130E+00    0.7739661952E-01    0.5561696347E+00    0.6304811720E-02    0.3298377182E-01
    0.5000000000E+07    0.6471094159E+00    0.6396249934E-01    0.5779107413E+00    0.5082563081E-02    0.3301369663E-01
    0.7000000000E+07    0.6470970039E+00    0.5613484297E-01    0.5905433356E+00    0.4387523004E-02    0.3303326425E-01
    0.9000000000E+07    0.6470865022E+00    0.5080193229E-01    0.5991344333E+00    0.3921778396E-02    0.3304783413E-01
    0.1100000000E+08    0.6470775375E+00    0.4684818445E-01    0.6054954382E+00    0.3580803602E-02    0.3305944940E-01
    0.1300000000E+08    0.6470697561E+00    0.4375599925E-01    0.6104652174E+00    0.3316828728E-02    0.3306911025E-01
    0.1500000000E+08    0.6470628965E+00    0.4124649889E-01    0.6144951140E+00    0.3104415857E-02    0.3307738163E-01
    0.1700000000E+08    0.6470567701E+00    0.3915377273E-01    0.6178533448E+00    0.2928576126E-02    0.3308461409E-01
    0.1900000000E+08    0.6470512385E+00    0.3737185503E-01    0.6207110612E+00    0.2779813982E-02    0.3309104021E-01
    0.2100000000E+08    0.6470461983E+00    0.3582934407E-01    0.6231834981E+00    0.2651776278E-02    0.3309682224E-01
    0.2300000000E+08    0.6470415703E+00    0.3447606912E-01    0.6253515715E+00    0.2540026803E-02    0.3310207789E-01
    0.2500000000E+08    0.6470372930E+00    0.3327556804E-01    0.6272740527E+00    0.2441359526E-02    0.3310689526E-01
    0.2700000000E+08    0.6470333173E+00    0.3220059554E-01    0.6289948336E+00    0.2353390977E-02    0.3311134202E-01
