  Pressure (Pa) 22mC5-400 (mol/kg) 2mC6-400 (mol/kg) 3mC6-400 (mol/kg) 33mC5-400 (mol/kg) 23mC5-400 (mol/kg)
    0.1000000000E+01    0.4222223499E-02    0.2388464242E-02    0.1060731886E-02    0.6481796380E-04    0.5560340208E-03
    0.3000000000E+01    0.1243420941E-01    0.7033285138E-02    0.3153657668E-02    0.1908421531E-03    0.1637513008E-02
    0.5000000000E+01    0.2035211172E-01    0.1151043826E-01    0.5209453965E-02    0.3122810344E-03    0.2680293776E-02
    0.7000000000E+01    0.2799360028E-01    0.1582938714E-01    0.7229188369E-02    0.4293918789E-03    0.3686701040E-02
    0.9000000000E+01    0.3537492290E-01    0.1999885957E-01    0.9213887155E-02    0.5424120435E-03    0.4658872451E-02
    0.1100000000E+02    0.4251104523E-01    0.2402691952E-01    0.1116453728E-01    0.6515609145E-03    0.5598776991E-02
    0.1300000000E+02    0.4941577452E-01    0.2792103078E-01    0.1308208823E-01    0.7570416252E-03    0.6508231247E-02
    0.1500000000E+02    0.5610186934E-01    0.3168811328E-01    0.1496745386E-01    0.8590425785E-03    0.7388913855E-02
    0.1700000000E+02    0.6258113724E-01    0.3533459315E-01    0.1682151399E-01    0.9577387998E-03    0.8242378335E-02
    0.1900000000E+02    0.6886452168E-01    0.3886644731E-01    0.1864511602E-01    0.1053293142E-02    0.9070064531E-02
    0.2100000000E+02    0.7496217966E-01    0.4228924324E-01    0.2043907642E-01    0.1145857358E-02    0.9873308827E-02
    0.2300000000E+02    0.8088355122E-01    0.4560817456E-01    0.2220418215E-01    0.1235573068E-02    0.1065335328E-01
    0.2500000000E+02    0.8663742170E-01    0.4882809288E-01    0.2394119196E-01    0.1322572613E-02    0.1141135383E-01
    0.2700000000E+02    0.9223197764E-01    0.5195353647E-01    0.2565083767E-01    0.1406979837E-02    0.1214838760E-01
    0.2900000000E+02    0.9767485711E-01    0.5498875597E-01    0.2733382536E-01    0.1488910777E-02    0.1286545961E-01
    0.3100000000E+02    0.1029731951E+00    0.5793773761E-01    0.2899083652E-01    0.1568474295E-02    0.1356350864E-01
    0.3300000000E+02    0.1081336642E+00    0.6080422422E-01    0.3062252910E-01    0.1645772642E-02    0.1424341269E-01
    0.3500000000E+02    0.1131625123E+00    0.6359173414E-01    0.3222953850E-01    0.1720901975E-02    0.1490599383E-01
    0.3700000000E+02    0.1180655951E+00    0.6630357843E-01    0.3381247860E-01    0.1793952818E-02    0.1555202257E-01
    0.3900000000E+02    0.1228484075E+00    0.6894287647E-01    0.3537194262E-01    0.1865010485E-02    0.1618222194E-01
    0.4100000000E+02    0.1275161108E+00    0.7151257015E-01    0.3690850399E-01    0.1934155469E-02    0.1679727106E-01
    0.4300000000E+02    0.1320735576E+00    0.7401543678E-01    0.3842271722E-01    0.2001463783E-02    0.1739780847E-01
    0.4500000000E+02    0.1365253154E+00    0.7645410087E-01    0.3991511861E-01    0.2067007287E-02    0.1798443517E-01
    0.4700000000E+02    0.1408756867E+00    0.7883104492E-01    0.4138622706E-01    0.2130853975E-02    0.1855771731E-01
    0.4900000000E+02    0.1451287289E+00    0.8114861921E-01    0.4283654477E-01    0.2193068244E-02    0.1911818879E-01
    0.1000000000E+02    0.3897274535E-01    0.2203008624E-01    0.1019340810E-01    0.5974573327E-03    0.5132741149E-02
    0.3000000000E+02    0.1003416663E+00    0.5647378712E-01    0.2816553635E-01    0.1528981924E-02    0.1321680576E-01
    0.5000000000E+02    0.1472199566E+00    0.8228584326E-01    0.4355405961E-01    0.2223582422E-02    0.1939377910E-01
    0.7000000000E+02    0.1847595331E+00    0.1023973220E+00    0.5692331521E-01    0.2761437235E-02    0.2434155980E-01
    0.9000000000E+02    0.2158400043E+00    0.1185137015E+00    0.6868165887E-01    0.3189363527E-02    0.2843907751E-01
    0.1100000000E+03    0.2422075338E+00    0.1317073199E+00    0.7913219826E-01    0.3536886732E-02    0.3191612464E-01
    0.1300000000E+03    0.2649908202E+00    0.1426920550E+00    0.8850487965E-01    0.3823710380E-02    0.3492124424E-01
    0.1500000000E+03    0.2849579656E+00    0.1519642846E+00    0.9697747366E-01    0.4063560218E-02    0.3755552812E-01
    0.1700000000E+03    0.3026542267E+00    0.1598811412E+00    0.1046897040E+00    0.4266324286E-02    0.3989074265E-01
    0.1900000000E+03    0.3184804980E+00    0.1667067381E+00    0.1117530030E+00    0.4439320607E-02    0.4197965616E-01
    0.2100000000E+03    0.3327403404E+00    0.1726408750E+00    0.1182573990E+00    0.4588086483E-02    0.4386222759E-01
    0.2300000000E+03    0.3456693986E+00    0.1778376066E+00    0.1242764758E+00    0.4716890347E-02    0.4556947759E-01
    0.2500000000E+03    0.3574544955E+00    0.1824176678E+00    0.1298710072E+00    0.4829075055E-02    0.4712600142E-01
    0.2700000000E+03    0.3682464360E+00    0.1864770278E+00    0.1350916628E+00    0.4927294747E-02    0.4855165379E-01
    0.2900000000E+03    0.3781688406E+00    0.1900929240E+00    0.1399810524E+00    0.5013682237E-02    0.4986271152E-01
    0.3100000000E+03    0.3873243989E+00    0.1933282081E+00    0.1445752894E+00    0.5089969788E-02    0.5107269641E-01
    0.3300000000E+03    0.3957993974E+00    0.1962345340E+00    0.1489052024E+00    0.5157577834E-02    0.5219297118E-01
    0.3500000000E+03    0.4036670667E+00    0.1988547335E+00    0.1529972823E+00    0.5217681191E-02    0.5323317999E-01
    0.3700000000E+03    0.4109901014E+00    0.2012246130E+00    0.1568744327E+00    0.5271259167E-02    0.5420158005E-01
    0.3900000000E+03    0.4178225895E+00    0.2033743290E+00    0.1605565670E+00    0.5319133964E-02    0.5510529556E-01
    0.4100000000E+03    0.4242115119E+00    0.2053294535E+00    0.1640610903E+00    0.5362000440E-02    0.5595051512E-01
    0.4300000000E+03    0.4301979236E+00    0.2071118080E+00    0.1674032895E+00    0.5400449414E-02    0.5674264711E-01
    0.4500000000E+03    0.4358178962E+00    0.2087401226E+00    0.1705966525E+00    0.5434986078E-02    0.5748644376E-01
    0.4700000000E+03    0.4411032771E+00    0.2102305611E+00    0.1736531305E+00    0.5466044680E-02    0.5818610119E-01
    0.4900000000E+03    0.4460823095E+00    0.2115971438E+00    0.1765833558E+00    0.5494000318E-02    0.5884534082E-01
    0.1000000000E+03    0.2295316787E+00    0.1254249050E+00    0.7405460506E-01    0.3371770190E-02    0.3024447264E-01
    0.3000000000E+03    0.3828367421E+00    0.1917546829E+00    0.1423130266E+00    0.5052993287E-02    0.5047958308E-01
    0.5000000000E+03    0.4484649122E+00    0.2122378698E+00    0.1780041307E+00    0.5506917955E-02    0.5916085385E-01
    0.7000000000E+03    0.4848924922E+00    0.2208218764E+00    0.2016358278E+00    0.5662363919E-02    0.6398955151E-01
    0.9000000000E+03    0.5078046082E+00    0.2247145212E+00    0.2191891084E+00    0.5708581945E-02    0.6703313144E-01
    0.1100000000E+04    0.5234203076E+00    0.2263477317E+00    0.2331301333E+00    0.5706195643E-02    0.6911196723E-01
    0.1300000000E+04    0.5346864169E+00    0.2267610330E+00    0.2446919159E+00    0.5679782818E-02    0.7061507461E-01
    0.1500000000E+04    0.5431679474E+00    0.2264678081E+00    0.2545726469E+00    0.5640862660E-02    0.7174920494E-01
    0.1700000000E+04    0.5497675254E+00    0.2257472788E+00    0.2632037655E+00    0.5595377414E-02    0.7263368965E-01
    0.1900000000E+04    0.5550397477E+00    0.2247620448E+00    0.2708697013E+00    0.5546600321E-02    0.7334190247E-01
    0.2100000000E+04    0.5593429485E+00    0.2236116722E+00    0.2777675509E+00    0.5496417269E-02    0.7392128604E-01
    0.2300000000E+04    0.5629183416E+00    0.2223594777E+00    0.2840394003E+00    0.5445946965E-02    0.7440380002E-01
    0.2500000000E+04    0.5659339274E+00    0.2210468979E+00    0.2897910188E+00    0.5395863329E-02    0.7481172016E-01
    0.2700000000E+04    0.5685101288E+00    0.2197016403E+00    0.2951032575E+00    0.5346572852E-02    0.7516102561E-01
    0.2900000000E+04    0.5707354143E+00    0.2183425235E+00    0.3000393125E+00    0.5298316676E-02    0.7546346425E-01
    0.3100000000E+04    0.5726761741E+00    0.2169824596E+00    0.3046495260E+00    0.5251231559E-02    0.7572785878E-01
    0.3300000000E+04    0.5743831639E+00    0.2156303515E+00    0.3089746600E+00    0.5205387399E-02    0.7596095935E-01
    0.3500000000E+04    0.5758958263E+00    0.2142923320E+00    0.3130481913E+00    0.5160810917E-02    0.7616801555E-01
    0.3700000000E+04    0.5772452604E+00    0.2129725924E+00    0.3168979574E+00    0.5117500902E-02    0.7635316965E-01
    0.3900000000E+04    0.5784563059E+00    0.2116739464E+00    0.3205473619E+00    0.5075438196E-02    0.7651973275E-01
    0.4100000000E+04    0.5795490353E+00    0.2103982218E+00    0.3240162743E+00    0.5034592305E-02    0.7667038258E-01
    0.4300000000E+04    0.5805398402E+00    0.2091465356E+00    0.3273217115E+00    0.4994925837E-02    0.7680730748E-01
    0.4500000000E+04    0.5814422339E+00    0.2079194906E+00    0.3304783626E+00    0.4956397478E-02    0.7693231299E-01
    0.4700000000E+04    0.5822674546E+00    0.2067173160E+00    0.3334989975E+00    0.4918964004E-02    0.7704690179E-01
    0.4900000000E+04    0.5830249225E+00    0.2055399709E+00    0.3363947902E+00    0.4882581640E-02    0.7715233449E-01
    0.1000000000E+04    0.5162947402E+00    0.2257306733E+00    0.2265166659E+00    0.5711477121E-02    0.6816281630E-01
    0.3000000000E+04    0.5717378800E+00    0.2176619765E+00    0.3023824080E+00    0.5274622128E-02    0.7559995434E-01
    0.5000000000E+04    0.5833807842E+00    0.2049605418E+00    0.3377989905E+00    0.4864771022E-02    0.7720195678E-01
    0.7000000000E+04    0.5883480335E+00    0.1945657187E+00    0.3612002810E+00    0.4553909193E-02    0.7790241627E-01
    0.9000000000E+04    0.5910890588E+00    0.1860415286E+00    0.3786530181E+00    0.4308377199E-02    0.7829836676E-01
    0.1100000000E+05    0.5928223722E+00    0.1788858445E+00    0.3925284285E+00    0.4107208103E-02    0.7855474966E-01
    0.1300000000E+05    0.5940155178E+00    0.1727503865E+00    0.4040100972E+00    0.3937759077E-02    0.7873539307E-01
    0.1500000000E+05    0.5948859284E+00    0.1673981631E+00    0.4137767589E+00    0.3791988727E-02    0.7887022973E-01
    0.1700000000E+05    0.5955483132E+00    0.1626636096E+00    0.4222546044E+00    0.3664508339E-02    0.7897518226E-01
    0.1900000000E+05    0.5960688645E+00    0.1584274087E+00    0.4297290405E+00    0.3551545945E-02    0.7905951445E-01
    0.2100000000E+05    0.5964884340E+00    0.1546010770E+00    0.4364006356E+00    0.3450365211E-02    0.7912899038E-01
    0.2300000000E+05    0.5968335894E+00    0.1511173376E+00    0.4424157312E+00    0.3358921695E-02    0.7918738917E-01
    0.2500000000E+05    0.5971223496E+00    0.1479239238E+00    0.4478843671E+00    0.3275649829E-02    0.7923729464E-01
    0.2700000000E+05    0.5973673640E+00    0.1449794675E+00    0.4528913569E+00    0.3199325532E-02    0.7928053520E-01
    0.2900000000E+05    0.5975777716E+00    0.1422506937E+00    0.4575034362E+00    0.3128974532E-02    0.7931844242E-01
    0.3100000000E+05    0.5977603385E+00    0.1397104567E+00    0.4617740451E+00    0.3063809352E-02    0.7935200991E-01
    0.3300000000E+05    0.5979201800E+00    0.1373363344E+00    0.4657466282E+00    0.3003184882E-02    0.7938199486E-01
    0.3500000000E+05    0.5980612345E+00    0.1351096012E+00    0.4694569708E+00    0.2946566359E-02    0.7940898478E-01
    0.3700000000E+05    0.5981865834E+00    0.1330144649E+00    0.4729348904E+00    0.2893505808E-02    0.7943344291E-01
    0.3900000000E+05    0.5982986714E+00    0.1310374892E+00    0.4762054874E+00    0.2843624434E-02    0.7945573965E-01
    0.4100000000E+05    0.5983994628E+00    0.1291671513E+00    0.4792900838E+00    0.2796599223E-02    0.7947617494E-01
    0.4300000000E+05    0.5984905539E+00    0.1273934985E+00    0.4822069408E+00    0.2752152635E-02    0.7949499434E-01
    0.4500000000E+05    0.5985732550E+00    0.1257078774E+00    0.4849718135E+00    0.2710044543E-02    0.7951240099E-01
    0.4700000000E+05    0.5986486518E+00    0.1241027196E+00    0.4875983864E+00    0.2670065886E-02    0.7952856446E-01
    0.4900000000E+05    0.5987176511E+00    0.1225713690E+00    0.4900986176E+00    0.2632033593E-02    0.7954362750E-01
    0.1000000000E+05    0.5920436584E+00    0.1823175797E+00    0.3859474458E+00    0.4203177585E-02    0.7843882494E-01
    0.3000000000E+05    0.5976721832E+00    0.1409585067E+00    0.4596785060E+00    0.3095786946E-02    0.7933571668E-01
    0.5000000000E+05    0.5987499951E+00    0.1218315061E+00    0.4913046892E+00    0.2613696209E-02    0.7955078492E-01
    0.7000000000E+05    0.5991954886E+00    0.1097837936E+00    0.5107842949E+00    0.2318520170E-02    0.7965777494E-01
    0.9000000000E+05    0.5994343707E+00    0.1011757128E+00    0.5245396048E+00    0.2111540442E-02    0.7972538743E-01
    0.1100000000E+06    0.5995810350E+00    0.9457673544E-01    0.5350054312E+00    0.1955083611E-02    0.7977360201E-01
    0.1300000000E+06    0.5996789126E+00    0.8928323601E-01    0.5433561662E+00    0.1830979466E-02    0.7981056965E-01
    0.1500000000E+06    0.5997480256E+00    0.8489974650E-01    0.5502435215E+00    0.1729165265E-02    0.7984030949E-01
    0.1700000000E+06    0.5997988489E+00    0.8118315820E-01    0.5560644953E+00    0.1643527925E-02    0.7986506274E-01
    0.1900000000E+06    0.5998373768E+00    0.7797402537E-01    0.5610776666E+00    0.1570097560E-02    0.7988619233E-01
    0.2100000000E+06    0.5998672769E+00    0.7516250578E-01    0.5654601959E+00    0.1506162417E-02    0.7990458245E-01
    0.2300000000E+06    0.5998909139E+00    0.7266994696E-01    0.5693383713E+00    0.1449795103E-02    0.7992083604E-01
    0.2500000000E+06    0.5999098770E+00    0.7043824280E-01    0.5728051417E+00    0.1399581081E-02    0.7993538102E-01
    0.2700000000E+06    0.5999252716E+00    0.6842334460E-01    0.5759307443E+00    0.1354454367E-02    0.7994853108E-01
    0.2900000000E+06    0.5999378889E+00    0.6659112860E-01    0.5787694407E+00    0.1313593599E-02    0.7996052249E-01
    0.3100000000E+06    0.5999483090E+00    0.6491466674E-01    0.5813639467E+00    0.1276353807E-02    0.7997153730E-01
    0.3300000000E+06    0.5999569660E+00    0.6337236782E-01    0.5837484391E+00    0.1242220191E-02    0.7998171854E-01
    0.3500000000E+06    0.5999641910E+00    0.6194667735E-01    0.5859506518E+00    0.1210775963E-02    0.7999118050E-01
    0.3700000000E+06    0.5999702402E+00    0.6062314722E-01    0.5879933718E+00    0.1181679433E-02    0.8000001585E-01
    0.3900000000E+06    0.5999753149E+00    0.5938975622E-01    0.5898955289E+00    0.1154647350E-02    0.8000830070E-01
    0.4100000000E+06    0.5999795749E+00    0.5823640504E-01    0.5916730039E+00    0.1129442571E-02    0.8001609830E-01
    0.4300000000E+06    0.5999831490E+00    0.5715453474E-01    0.5933392379E+00    0.1105864776E-02    0.8002346173E-01
    0.4500000000E+06    0.5999861414E+00    0.5613683454E-01    0.5949056982E+00    0.1083743388E-02    0.8003043597E-01
    0.4700000000E+06    0.5999886377E+00    0.5517701500E-01    0.5963822390E+00    0.1062932086E-02    0.8003705944E-01
    0.4900000000E+06    0.5999907085E+00    0.5426962992E-01    0.5977773846E+00    0.1043304522E-02    0.8004336519E-01
    0.1000000000E+06    0.5995156899E+00    0.9767914925E-01    0.5300930888E+00    0.2028399285E-02    0.7975126697E-01
    0.3000000000E+06    0.5999433436E+00    0.6573488553E-01    0.5800949094E+00    0.1294555876E-02    0.7996614225E-01
    0.5000000000E+06    0.5999916031E+00    0.5383409357E-01    0.5984467905E+00    0.1033899768E-02    0.8004640802E-01
    0.7000000000E+06    0.5999972853E+00    0.4699095763E-01    0.6089436695E+00    0.8875629493E-03    0.8009589448E-01
    0.9000000000E+06    0.5999922291E+00    0.4236836241E-01    0.6160130588E+00    0.7903099104E-03    0.8013165880E-01
    0.1100000000E+07    0.5999838146E+00    0.3896224753E-01    0.6212115308E+00    0.7195337534E-03    0.8015965607E-01
    0.1300000000E+07    0.5999744011E+00    0.3631094443E-01    0.6252519819E+00    0.6649916279E-03    0.8018265713E-01
    0.1500000000E+07    0.5999648707E+00    0.3416741644E-01    0.6285148386E+00    0.6212649052E-03    0.8020217505E-01
    0.1700000000E+07    0.5999555756E+00    0.3238550388E-01    0.6312247201E+00    0.5851775483E-03    0.8021912618E-01
    0.1900000000E+07    0.5999466536E+00    0.3087228109E-01    0.6335242046E+00    0.5547262901E-03    0.8023410737E-01
    0.2100000000E+07    0.5999381494E+00    0.2956537516E-01    0.6355088663E+00    0.5285757773E-03    0.8024752904E-01
    0.2300000000E+07    0.5999300658E+00    0.2842110601E-01    0.6372455625E+00    0.5057965579E-03    0.8025968545E-01
    0.2500000000E+07    0.5999223867E+00    0.2740782167E-01    0.6387826944E+00    0.4857188072E-03    0.8027079477E-01
    0.2700000000E+07    0.5999150882E+00    0.2650193266E-01    0.6401563049E+00    0.4678457962E-03    0.8028102322E-01
    0.2900000000E+07    0.5999081436E+00    0.2568543958E-01    0.6413938757E+00    0.4518002281E-03    0.8029050036E-01
    0.3100000000E+07    0.5999015268E+00    0.2494433084E-01    0.6425167863E+00    0.4372896248E-03    0.8029932911E-01
    0.3300000000E+07    0.5998952126E+00    0.2426750961E-01    0.6435419590E+00    0.4240832495E-03    0.8030759259E-01
    0.3500000000E+07    0.5998891776E+00    0.2364605476E-01    0.6444829912E+00    0.4119962749E-03    0.8031535893E-01
    0.3700000000E+07    0.5998834005E+00    0.2307269921E-01    0.6453509540E+00    0.4008786516E-03    0.8032268460E-01
    0.3900000000E+07    0.5998778618E+00    0.2254145385E-01    0.6461549677E+00    0.3906071114E-03    0.8032961699E-01
    0.4100000000E+07    0.5998725440E+00    0.2204733126E-01    0.6469026241E+00    0.3810793105E-03    0.8033619623E-01
    0.4300000000E+07    0.5998674311E+00    0.2158613920E-01    0.6476003022E+00    0.3722094676E-03    0.8034245660E-01
    0.4500000000E+07    0.5998625086E+00    0.2115432411E-01    0.6482534074E+00    0.3639250655E-03    0.8034842762E-01
    0.4700000000E+07    0.5998577635E+00    0.2074885068E-01    0.6488665555E+00    0.3561643221E-03    0.8035413489E-01
    0.4900000000E+07    0.5998531838E+00    0.2036710817E-01    0.6494437152E+00    0.3488742278E-03    0.8035960076E-01
    0.1000000000E+07    0.5999882399E+00    0.4054927184E-01    0.6187904796E+00    0.7524143169E-03    0.8014641319E-01
    0.3000000000E+07    0.5999047959E+00    0.2530621409E-01    0.6419685166E+00    0.4443687106E-03    0.8029499019E-01
    0.5000000000E+07    0.5998509527E+00    0.2018441778E-01    0.6497198909E+00    0.3453911209E-03    0.8036224939E-01
    0.7000000000E+07    0.5998128668E+00    0.1735929208E-01    0.6539877563E+00    0.2920211086E-03    0.8040626489E-01
    0.9000000000E+07    0.5997834838E+00    0.1549776754E-01    0.6567969136E+00    0.2573980815E-03    0.8043904890E-01
    0.1100000000E+08    0.5997595801E+00    0.1414948142E-01    0.6588300486E+00    0.2326178652E-03    0.8046518855E-01
    0.1300000000E+08    0.5997394372E+00    0.1311337017E-01    0.6603915662E+00    0.2137581953E-03    0.8048693141E-01
    0.1500000000E+08    0.5997220338E+00    0.1228410476E-01    0.6616407907E+00    0.1987858272E-03    0.8050554765E-01
    0.1700000000E+08    0.5997067145E+00    0.1160037792E-01    0.6626703946E+00    0.1865275156E-03    0.8052182575E-01
    0.1900000000E+08    0.5996930336E+00    0.1102372114E-01    0.6635384953E+00    0.1762525080E-03    0.8053628893E-01
    0.2100000000E+08    0.5996806748E+00    0.1052859417E-01    0.6642836611E+00    0.1674787595E-03    0.8054930227E-01
    0.2300000000E+08    0.5996694049E+00    0.1009727586E-01    0.6649326424E+00    0.1598737140E-03    0.8056113066E-01
    0.2500000000E+08    0.5996590477E+00    0.9717027166E-02    0.6655046625E+00    0.1531995387E-03    0.8057197238E-01
    0.2700000000E+08    0.5996494664E+00    0.9378420182E-02    0.6660139441E+00    0.1472810409E-03    0.8058197976E-01
