  Pressure (Pa) 22mC5-400 (mol/kg) 2mC6-400 (mol/kg) 3mC6-400 (mol/kg) 33mC5-400 (mol/kg) 23mC5-400 (mol/kg)
    0.1000000000E+01    0.4227181615E-02    0.1590476615E-02    0.3175354784E-02    0.6474575141E-04    0.2783432808E-03
    0.3000000000E+01    0.1247695456E-01    0.4672481275E-02    0.9400767520E-02    0.1901968475E-03    0.8215693922E-03
    0.5000000000E+01    0.2046594453E-01    0.7628503909E-02    0.1546477815E-01    0.3105025964E-03    0.1347637846E-02
    0.7000000000E+01    0.2820766677E-01    0.1046525561E-01    0.2137385799E-01    0.4259358718E-03    0.1857437664E-02
    0.9000000000E+01    0.3571469885E-01    0.1318899481E-01    0.2713413354E-01    0.5367511930E-03    0.2351796192E-02
    0.1100000000E+02    0.4299876022E-01    0.1580556437E-01    0.3275140912E-01    0.6431862279E-03    0.2831484341E-02
    0.1300000000E+02    0.5007078400E-01    0.1832042508E-01    0.3823118793E-01    0.7454631506E-03    0.3297221296E-02
    0.1500000000E+02    0.5694098157E-01    0.2073868609E-01    0.4357869135E-01    0.8437898710E-03    0.3749678777E-02
    0.1700000000E+02    0.6361890110E-01    0.2306513232E-01    0.4879887681E-01    0.9383611491E-03    0.4189484880E-02
    0.1900000000E+02    0.7011348043E-01    0.2530424951E-01    0.5389645433E-01    0.1029359607E-02    0.4617227556E-02
    0.2100000000E+02    0.7643309497E-01    0.2746024693E-01    0.5887590182E-01    0.1116956650E-02    0.5033457765E-02
    0.2300000000E+02    0.8258560130E-01    0.2953707806E-01    0.6374147924E-01    0.1201313303E-02    0.5438692339E-02
    0.2500000000E+02    0.8857837670E-01    0.3153845946E-01    0.6849724177E-01    0.1282580978E-02    0.5833416583E-02
    0.2700000000E+02    0.9441835518E-01    0.3346788801E-01    0.7314705198E-01    0.1360902167E-02    0.6218086648E-02
    0.2900000000E+02    0.1001120604E+00    0.3532865666E-01    0.7769459123E-01    0.1436411089E-02    0.6593131688E-02
    0.3100000000E+02    0.1056656354E+00    0.3712386887E-01    0.8214337017E-01    0.1509234264E-02    0.6958955835E-02
    0.3300000000E+02    0.1110848705E+00    0.3885645185E-01    0.8649673858E-01    0.1579491059E-02    0.7315939999E-02
    0.3500000000E+02    0.1163752279E+00    0.4052916867E-01    0.9075789451E-01    0.1647294173E-02    0.7664443521E-02
    0.3700000000E+02    0.1215418648E+00    0.4214462944E-01    0.9492989281E-01    0.1712750093E-02    0.8004805681E-02
    0.3900000000E+02    0.1265896548E+00    0.4370530156E-01    0.9901565312E-01    0.1775959508E-02    0.8337347089E-02
    0.4100000000E+02    0.1315232067E+00    0.4521351923E-01    0.1030179673E+00    0.1837017695E-02    0.8662370959E-02
    0.4300000000E+02    0.1363468828E+00    0.4667149207E-01    0.1069395062E+00    0.1896014868E-02    0.8980164278E-02
    0.4500000000E+02    0.1410648153E+00    0.4808131328E-01    0.1107828265E+00    0.1953036509E-02    0.9290998885E-02
    0.4700000000E+02    0.1456809209E+00    0.4944496698E-01    0.1145503766E+00    0.2008163667E-02    0.9595132470E-02
    0.4900000000E+02    0.1501989154E+00    0.5076433516E-01    0.1182445022E+00    0.2061473237E-02    0.9892809485E-02
    0.1000000000E+02    0.3938389992E-01    0.1451032591E-01    0.2996029555E-01    0.5905020123E-03    0.2593427955E-02
    0.3000000000E+02    0.1029059943E+00    0.3623427039E-01    0.7993111272E-01    0.1473150773E-02    0.6777172042E-02
    0.5000000000E+02    0.1524222303E+00    0.5140797394E-01    0.1200647372E+00    0.2087469383E-02    0.1003929976E-01
    0.7000000000E+02    0.1925065753E+00    0.6234468999E-01    0.1531148075E+00    0.2527872939E-02    0.1268072065E-01
    0.9000000000E+02    0.2258746912E+00    0.7041457883E-01    0.1808854703E+00    0.2850426139E-02    0.1488010292E-01
    0.1100000000E+03    0.2542475195E+00    0.7647540738E-01    0.2046094367E+00    0.3090316538E-02    0.1675067727E-01
    0.1300000000E+03    0.2787743336E+00    0.8108811188E-01    0.2251584929E+00    0.3270611186E-02    0.1836806533E-01
    0.1500000000E+03    0.3002563920E+00    0.8463267742E-01    0.2431671861E+00    0.3406971290E-02    0.1978499250E-01
    0.1700000000E+03    0.3192727176E+00    0.8737410435E-01    0.2591088096E+00    0.3510340868E-02    0.2103956249E-01
    0.1900000000E+03    0.3362545635E+00    0.8950176682E-01    0.2733438733E+00    0.3588554031E-02    0.2216015638E-01
    0.2100000000E+03    0.3515314631E+00    0.9115383490E-01    0.2861520361E+00    0.3647334346E-02    0.2316846229E-01
    0.2300000000E+03    0.3653607954E+00    0.9243294014E-01    0.2977537371E+00    0.3690937267E-02    0.2408142054E-01
    0.2500000000E+03    0.3779473992E+00    0.9341651452E-01    0.3083252108E+00    0.3722575038E-02    0.2491251421E-01
    0.2700000000E+03    0.3894569646E+00    0.9416378446E-01    0.3180091374E+00    0.3744704782E-02    0.2567265018E-01
    0.2900000000E+03    0.4000254143E+00    0.9472060534E-01    0.3269223424E+00    0.3759228059E-02    0.2637077646E-01
    0.3100000000E+03    0.4097656274E+00    0.9512286758E-01    0.3351614595E+00    0.3767631775E-02    0.2701432457E-01
    0.3300000000E+03    0.4187723582E+00    0.9539893732E-01    0.3428071602E+00    0.3771089357E-02    0.2760953319E-01
    0.3500000000E+03    0.4271259020E+00    0.9557143207E-01    0.3499273575E+00    0.3770534502E-02    0.2816168939E-01
    0.3700000000E+03    0.4348948729E+00    0.9565853025E-01    0.3565796632E+00    0.3766715672E-02    0.2867531141E-01
    0.3900000000E+03    0.4421383413E+00    0.9567494901E-01    0.3628132953E+00    0.3760236849E-02    0.2915428933E-01
    0.4100000000E+03    0.4489075008E+00    0.9563268264E-01    0.3686705733E+00    0.3751588364E-02    0.2960199473E-01
    0.4300000000E+03    0.4552469846E+00    0.9554156592E-01    0.3741881037E+00    0.3741170439E-02    0.3002136737E-01
    0.4500000000E+03    0.4611959169E+00    0.9540970800E-01    0.3793977264E+00    0.3729311349E-02    0.3041498434E-01
    0.4700000000E+03    0.4667887619E+00    0.9524382952E-01    0.3843272784E+00    0.3716281539E-02    0.3078511593E-01
    0.4900000000E+03    0.4720560145E+00    0.9504952664E-01    0.3890012136E+00    0.3702304694E-02    0.3113377113E-01
    0.1000000000E+03    0.2406035506E+00    0.7365579304E-01    0.1931920948E+00    0.2979046857E-02    0.1585109788E-01
    0.3000000000E+03    0.4049927515E+00    0.9493913054E-01    0.3311207876E+00    0.3764115151E-02    0.2669895808E-01
    0.5000000000E+03    0.4745761299E+00    0.9494320959E-01    0.3912491684E+00    0.3695020437E-02    0.3130061077E-01
    0.7000000000E+03    0.5130999705E+00    0.9212941890E-01    0.4268944700E+00    0.3531003197E-02    0.3385353668E-01
    0.9000000000E+03    0.5373709495E+00    0.8896391981E-01    0.4512449371E+00    0.3367113225E-02    0.3546530525E-01
    0.1100000000E+04    0.5539635964E+00    0.8594436684E-01    0.4692935752E+00    0.3218960804E-02    0.3656951320E-01
    0.1300000000E+04    0.5659753516E+00    0.8317213752E-01    0.4833978345E+00    0.3087570625E-02    0.3737058997E-01
    0.1500000000E+04    0.5750484968E+00    0.8064997105E-01    0.4948352465E+00    0.2971043133E-02    0.3797700340E-01
    0.1700000000E+04    0.5821305904E+00    0.7835533411E-01    0.5043669235E+00    0.2867137955E-02    0.3845138166E-01
    0.1900000000E+04    0.5878046531E+00    0.7626120129E-01    0.5124788421E+00    0.2773862624E-02    0.3883228664E-01
    0.2100000000E+04    0.5924480983E+00    0.7434215014E-01    0.5194981605E+00    0.2689564697E-02    0.3914469890E-01
    0.2300000000E+04    0.5963155189E+00    0.7257591305E-01    0.5256545059E+00    0.2612899842E-02    0.3940548174E-01
    0.2500000000E+04    0.5995846195E+00    0.7094347163E-01    0.5311145831E+00    0.2542776524E-02    0.3962641418E-01
    0.2700000000E+04    0.6023830542E+00    0.6942871166E-01    0.5360028361E+00    0.2478304245E-02    0.3981596380E-01
    0.2900000000E+04    0.6048048008E+00    0.6801798682E-01    0.5404143608E+00    0.2418751141E-02    0.3998036890E-01
    0.3100000000E+04    0.6069205264E+00    0.6669970704E-01    0.5444232874E+00    0.2363510731E-02    0.4012432382E-01
    0.3300000000E+04    0.6087843604E+00    0.6546398437E-01    0.5480884033E+00    0.2312076229E-02    0.4025142697E-01
    0.3500000000E+04    0.6104384444E+00    0.6430233922E-01    0.5514570296E+00    0.2264020724E-02    0.4036448191E-01
    0.3700000000E+04    0.6119160631E+00    0.6320746051E-01    0.5545677611E+00    0.2218981831E-02    0.4046570460E-01
    0.3900000000E+04    0.6132438458E+00    0.6217301081E-01    0.5574524431E+00    0.2176649735E-02    0.4055686922E-01
    0.4100000000E+04    0.6144433447E+00    0.6119346810E-01    0.5601376250E+00    0.2136757788E-02    0.4063941278E-01
    0.4300000000E+04    0.6155321854E+00    0.6026399687E-01    0.5626456480E+00    0.2099075073E-02    0.4071451134E-01
    0.4500000000E+04    0.6165249195E+00    0.5938034273E-01    0.5649954698E+00    0.2063400463E-02    0.4078313657E-01
    0.4700000000E+04    0.6174336641E+00    0.5853874584E-01    0.5672033005E+00    0.2029557836E-02    0.4084609821E-01
    0.4900000000E+04    0.6182685893E+00    0.5773586940E-01    0.5692830962E+00    0.1997392204E-02    0.4090407638E-01
    0.1000000000E+04    0.5463853594E+00    0.8742566672E-01    0.4608738478E+00    0.3290878513E-02    0.3606490514E-01
    0.3000000000E+04    0.6058972073E+00    0.6734794546E-01    0.5424651672E+00    0.2390625603E-02    0.4005465613E-01
    0.5000000000E+04    0.6186611094E+00    0.5734800946E-01    0.5702788238E+00    0.1981894812E-02    0.4093138001E-01
    0.7000000000E+04    0.6241598198E+00    0.5104799589E-01    0.5857077032E+00    0.1733801989E-02    0.4131794459E-01
    0.9000000000E+04    0.6272126077E+00    0.4658290136E-01    0.5959013955E+00    0.1561914497E-02    0.4153747999E-01
    0.1100000000E+05    0.6291516755E+00    0.4319175034E-01    0.6032942627E+00    0.1433463131E-02    0.4168005822E-01
    0.1300000000E+05    0.6304912373E+00    0.4049596257E-01    0.6089787681E+00    0.1332619499E-02    0.4178072727E-01
    0.1500000000E+05    0.6314714482E+00    0.3828224343E-01    0.6135292673E+00    0.1250646559E-02    0.4185598571E-01
    0.1700000000E+05    0.6322194191E+00    0.3641965753E-01    0.6172809233E+00    0.1182263392E-02    0.4191463452E-01
    0.1900000000E+05    0.6328086921E+00    0.3482260422E-01    0.6204444327E+00    0.1124060033E-02    0.4196180521E-01
    0.2100000000E+05    0.6332847547E+00    0.3343235245E-01    0.6231598742E+00    0.1073720790E-02    0.4200069620E-01
    0.2300000000E+05    0.6336772457E+00    0.3220703469E-01    0.6255245400E+00    0.1029609258E-02    0.4203340744E-01
    0.2500000000E+05    0.6340063004E+00    0.3111586205E-01    0.6276084222E+00    0.9905311613E-03    0.4206137640E-01
    0.2700000000E+05    0.6342860747E+00    0.3013560105E-01    0.6294633487E+00    0.9555913211E-03    0.4208562127E-01
    0.2900000000E+05    0.6345268102E+00    0.2924833406E-01    0.6311286370E+00    0.9241035120E-03    0.4210688422E-01
    0.3100000000E+05    0.6347360982E+00    0.2843998361E-01    0.6326347328E+00    0.8955315018E-03    0.4212571949E-01
    0.3300000000E+05    0.6349196851E+00    0.2769931001E-01    0.6340056325E+00    0.8694492678E-03    0.4214254966E-01
    0.3500000000E+05    0.6350819996E+00    0.2701721228E-01    0.6352605426E+00    0.8455134163E-03    0.4215770286E-01
    0.3700000000E+05    0.6352265102E+00    0.2638622930E-01    0.6364150444E+00    0.8234436089E-03    0.4217143793E-01
    0.3900000000E+05    0.6353559716E+00    0.2580017669E-01    0.6374819303E+00    0.8030083839E-03    0.4218396193E-01
    0.4100000000E+05    0.6354725990E+00    0.2525387761E-01    0.6384718155E+00    0.7840146943E-03    0.4219544258E-01
    0.4300000000E+05    0.6355781944E+00    0.2474296012E-01    0.6393935930E+00    0.7663000646E-03    0.4220601729E-01
    0.4500000000E+05    0.6356742381E+00    0.2426370232E-01    0.6402547777E+00    0.7497266217E-03    0.4221579973E-01
    0.4700000000E+05    0.6357619575E+00    0.2381291260E-01    0.6410617693E+00    0.7341764948E-03    0.4222488485E-01
    0.4900000000E+05    0.6358423790E+00    0.2338783580E-01    0.6418200574E+00    0.7195482246E-03    0.4223335256E-01
    0.1000000000E+05    0.6282795918E+00    0.4478213147E-01    0.5998622137E+00    0.1493481890E-02    0.4161554803E-01
    0.3000000000E+05    0.6346349899E+00    0.2883505389E-01    0.6318999554E+00    0.9094818710E-03    0.4211657633E-01
    0.5000000000E+05    0.6358801286E+00    0.2318417952E-01    0.6421824442E+00    0.7125518584E-03    0.4223737650E-01
    0.7000000000E+05    0.6364044764E+00    0.2001683753E-01    0.6477442431E+00    0.6047871900E-03    0.4229755427E-01
    0.9000000000E+05    0.6366908992E+00    0.1791244324E-01    0.6513651552E+00    0.5343379360E-03    0.4233560769E-01
    0.1100000000E+06    0.6368701357E+00    0.1638031245E-01    0.6539656431E+00    0.4836724467E-03    0.4236275316E-01
    0.1300000000E+06    0.6369921497E+00    0.1519866952E-01    0.6559512674E+00    0.4449822384E-03    0.4238357095E-01
    0.1500000000E+06    0.6370801181E+00    0.1425039446E-01    0.6575324327E+00    0.4141899251E-03    0.4240032090E-01
    0.1700000000E+06    0.6371462401E+00    0.1346692170E-01    0.6588306774E+00    0.3889303704E-03    0.4241426369E-01
    0.1900000000E+06    0.6371975384E+00    0.1280503923E-01    0.6599217917E+00    0.3677245716E-03    0.4242616621E-01
    0.2100000000E+06    0.6372383362E+00    0.1223595789E-01    0.6608558335E+00    0.3495938143E-03    0.4243652607E-01
    0.2300000000E+06    0.6372714372E+00    0.1173964598E-01    0.6616673812E+00    0.3338611590E-03    0.4244568268E-01
    0.2500000000E+06    0.6372987375E+00    0.1130166968E-01    0.6623811959E+00    0.3200414443E-03    0.4245387695E-01
    0.2700000000E+06    0.6373215638E+00    0.1091132565E-01    0.6630155402E+00    0.3077766403E-03    0.4246128551E-01
    0.2900000000E+06    0.6373408718E+00    0.1056048355E-01    0.6635842208E+00    0.2967959896E-03    0.4246804140E-01
    0.3100000000E+06    0.6373573665E+00    0.1024283999E-01    0.6640978971E+00    0.2868904312E-03    0.4247424714E-01
    0.3300000000E+06    0.6373715790E+00    0.9953421236E-02    0.6645649480E+00    0.2778956279E-03    0.4247998329E-01
    0.3500000000E+06    0.6373839169E+00    0.9688242213E-02    0.6649920641E+00    0.2696803729E-03    0.4248531421E-01
    0.3700000000E+06    0.6373946978E+00    0.9444066797E-02    0.6653846617E+00    0.2621384693E-03    0.4249029211E-01
    0.3900000000E+06    0.6374041726E+00    0.9218235616E-02    0.6657471792E+00    0.2551829180E-03    0.4249495987E-01
    0.4100000000E+06    0.6374125424E+00    0.9008539974E-02    0.6660832932E+00    0.2487416746E-03    0.4249935309E-01
    0.4300000000E+06    0.6374199698E+00    0.8813127947E-02    0.6663960791E+00    0.2427544998E-03    0.4250350170E-01
    0.4500000000E+06    0.6374265877E+00    0.8630433378E-02    0.6666881318E+00    0.2371705833E-03    0.4250743102E-01
    0.4700000000E+06    0.6374325059E+00    0.8459121437E-02    0.6669616584E+00    0.2319467284E-03    0.4251116270E-01
    0.4900000000E+06    0.6374378155E+00    0.8298046361E-02    0.6672185496E+00    0.2270459453E-03    0.4251471537E-01
    0.1000000000E+06    0.6367898497E+00    0.1709222126E-01    0.6527609995E+00    0.5071461162E-03    0.4235017733E-01
    0.3000000000E+06    0.6373494342E+00    0.1039784938E-01    0.6638473654E+00    0.2917199867E-03    0.4247120756E-01
    0.5000000000E+06    0.6374402666E+00    0.8221032984E-02    0.6673412754E+00    0.2247065676E-03    0.4251642970E-01
    0.7000000000E+06    0.6374707123E+00    0.7036054518E-02    0.6692215766E+00    0.1890363598E-03    0.4254430957E-01
    0.9000000000E+06    0.6374829825E+00    0.6261368982E-02    0.6704427562E+00    0.1660733434E-03    0.4256445731E-01
    0.1100000000E+07    0.6374878521E+00    0.5703305365E-02    0.6713185537E+00    0.1497253253E-03    0.4258022845E-01
    0.1300000000E+07    0.6374891943E+00    0.5276184483E-02    0.6719866622E+00    0.1373323432E-03    0.4259318434E-01
    0.1500000000E+07    0.6374886929E+00    0.4935416522E-02    0.6725183393E+00    0.1275242634E-03    0.4260417760E-01
    0.1700000000E+07    0.6374871743E+00    0.4655178950E-02    0.6729546760E+00    0.1195143453E-03    0.4261372460E-01
    0.1900000000E+07    0.6374850796E+00    0.4419334854E-02    0.6733212640E+00    0.1128144997E-03    0.4262216165E-01
    0.2100000000E+07    0.6374826591E+00    0.4217206689E-02    0.6736349901E+00    0.1071038078E-03    0.4262972003E-01
    0.2300000000E+07    0.6374800610E+00    0.4041407063E-02    0.6739075103E+00    0.1021614856E-03    0.4263656555E-01
    0.2500000000E+07    0.6374773757E+00    0.3886638608E-02    0.6741471662E+00    0.9783001379E-04    0.4264282114E-01
    0.2700000000E+07    0.6374746600E+00    0.3748989345E-02    0.6743601071E+00    0.9399360338E-04    0.4264858046E-01
    0.2900000000E+07    0.6374719497E+00    0.3625498473E-02    0.6745509801E+00    0.9056498876E-04    0.4265391652E-01
    0.3100000000E+07    0.6374692675E+00    0.3513877840E-02    0.6747233716E+00    0.8747699261E-04    0.4265888729E-01
    0.3300000000E+07    0.6374666280E+00    0.3412327112E-02    0.6748800999E+00    0.8467695084E-04    0.4266353963E-01
    0.3500000000E+07    0.6374640398E+00    0.3319407512E-02    0.6750234148E+00    0.8212291823E-04    0.4266791191E-01
    0.3700000000E+07    0.6374615083E+00    0.3233953376E-02    0.6751551372E+00    0.7978101947E-04    0.4267203595E-01
    0.3900000000E+07    0.6374590360E+00    0.3155008808E-02    0.6752767591E+00    0.7762355845E-04    0.4267593845E-01
    0.4100000000E+07    0.6374566242E+00    0.3081781442E-02    0.6753895159E+00    0.7562764196E-04    0.4267964202E-01
    0.4300000000E+07    0.6374542728E+00    0.3013608084E-02    0.6754944410E+00    0.7377416018E-04    0.4268316598E-01
    0.4500000000E+07    0.6374519810E+00    0.2949928798E-02    0.6755924062E+00    0.7204701971E-04    0.4268652695E-01
    0.4700000000E+07    0.6374497476E+00    0.2890267080E-02    0.6756841530E+00    0.7043255832E-04    0.4268973936E-01
    0.4900000000E+07    0.6374475710E+00    0.2834214498E-02    0.6757703164E+00    0.6891909270E-04    0.4269281580E-01
    0.1000000000E+07    0.6374860220E+00    0.5962003424E-02    0.6709129707E+00    0.1572824754E-03    0.4257276874E-01
    0.3000000000E+07    0.6374706040E+00    0.3568326627E-02    0.6746392946E+00    0.8898199376E-04    0.4265644441E-01
    0.5000000000E+07    0.6374465034E+00    0.2807429598E-02    0.6758114784E+00    0.6819703475E-04    0.4269430654E-01
    0.7000000000E+07    0.6374276816E+00    0.2396508467E-02    0.6764420389E+00    0.5721844802E-04    0.4271907646E-01
    0.9000000000E+07    0.6374125708E+00    0.2129071553E-02    0.6768514809E+00    0.5018160543E-04    0.4273752124E-01
    0.1100000000E+08    0.6374000088E+00    0.1936993728E-02    0.6771450864E+00    0.4518642827E-04    0.4275222471E-01
    0.1300000000E+08    0.6373892774E+00    0.1790305785E-02    0.6773690465E+00    0.4140775081E-04    0.4276445273E-01
    0.1500000000E+08    0.6373799179E+00    0.1673471736E-02    0.6775472611E+00    0.3842211781E-04    0.4277492063E-01
    0.1700000000E+08    0.6373716221E+00    0.1577520844E-02    0.6776935106E+00    0.3598705918E-04    0.4278407240E-01
    0.1900000000E+08    0.6373641745E+00    0.1496860108E-02    0.6778163766E+00    0.3395248046E-04    0.4279220266E-01
    0.2100000000E+08    0.6373574185E+00    0.1427795707E-02    0.6779215212E+00    0.3221987271E-04    0.4279951697E-01
    0.2300000000E+08    0.6373512371E+00    0.1367776060E-02    0.6780128526E+00    0.3072156674E-04    0.4280616443E-01
    0.2500000000E+08    0.6373455404E+00    0.1314973939E-02    0.6780931674E+00    0.2940934597E-04    0.4281225670E-01
    0.2700000000E+08    0.6373402581E+00    0.1268041558E-02    0.6781645273E+00    0.2824780717E-04    0.4281787952E-01
