  Pressure (Pa) 22mC5-400 (mol/kg) 2mC6-400 (mol/kg) 3mC6-400 (mol/kg) 33mC5-400 (mol/kg) 23mC5-400 (mol/kg)
    0.1000000000E+01    0.4223181447E-02    0.2389733842E-02    0.5305738587E-03    0.3891137937E-03    0.1853866619E-03
    0.3000000000E+01    0.1244258578E-01    0.7044422794E-02    0.1578668224E-02    0.1146860528E-02    0.5462048218E-03
    0.5000000000E+01    0.2037473305E-01    0.1154060798E-01    0.2609750324E-02    0.1878583629E-02    0.8944228037E-03
    0.7000000000E+01    0.2803673431E-01    0.1588707635E-01    0.3624275756E-02    0.2585717714E-02    0.1230791027E-02
    0.9000000000E+01    0.3544433330E-01    0.2009193405E-01    0.4622683626E-02    0.3269586718E-02    0.1555999955E-02
    0.1100000000E+02    0.4261204016E-01    0.2416267301E-01    0.5605397295E-02    0.3931414696E-02    0.1870685954E-02
    0.1300000000E+02    0.4955324974E-01    0.2810622980E-01    0.6572825086E-02    0.4572335369E-02    0.2175436482E-02
    0.1500000000E+02    0.5628034669E-01    0.3192903780E-01    0.7525360947E-02    0.5193400595E-02    0.2470794700E-02
    0.1700000000E+02    0.6280479889E-01    0.3563707349E-01    0.8463385089E-02    0.5795587882E-02    0.2757263565E-02
    0.1900000000E+02    0.6913724081E-01    0.3923589774E-01    0.9387264582E-02    0.6379807087E-02    0.3035309483E-02
    0.2100000000E+02    0.7528754788E-01    0.4273069259E-01    0.1029735392E-01    0.6946906387E-02    0.3305365578E-02
    0.2300000000E+02    0.8126490321E-01    0.4612629418E-01    0.1119399557E-01    0.7497677628E-02    0.3567834610E-02
    0.2500000000E+02    0.8707785727E-01    0.4942722221E-01    0.1207752048E-01    0.8032861107E-02    0.3823091598E-02
    0.2700000000E+02    0.9273438166E-01    0.5263770646E-01    0.1294824853E-01    0.8553149881E-02    0.4071486171E-02
    0.2900000000E+02    0.9824191742E-01    0.5576171056E-01    0.1380648907E-01    0.9059193627E-02    0.4313344695E-02
    0.3100000000E+02    0.1036074186E+00    0.5880295352E-01    0.1465254126E-01    0.9551602138E-02    0.4548972176E-02
    0.3300000000E+02    0.1088373919E+00    0.6176492906E-01    0.1548669458E-01    0.1003094847E-01    0.4778653994E-02
    0.3500000000E+02    0.1139379316E+00    0.6465092318E-01    0.1630922916E-01    0.1049777179E-01    0.5002657464E-02
    0.3700000000E+02    0.1189147530E+00    0.6746403005E-01    0.1712041618E-01    0.1095257997E-01    0.5221233249E-02
    0.3900000000E+02    0.1237732204E+00    0.7020716640E-01    0.1792051822E-01    0.1139585191E-01    0.5434616650E-02
    0.4100000000E+02    0.1285183749E+00    0.7288308469E-01    0.1870978963E-01    0.1182803970E-01    0.5643028770E-02
    0.4300000000E+02    0.1331549579E+00    0.7549438500E-01    0.1948847681E-01    0.1224957054E-01    0.5846677581E-02
    0.4500000000E+02    0.1376874337E+00    0.7804352595E-01    0.2025681855E-01    0.1266084850E-01    0.6045758892E-02
    0.4700000000E+02    0.1421200092E+00    0.8053283463E-01    0.2101504632E-01    0.1306225619E-01    0.6240457235E-02
    0.4900000000E+02    0.1464566529E+00    0.8296451568E-01    0.2176338454E-01    0.1345415619E-01    0.6430946671E-02
    0.1000000000E+02    0.3905731122E-01    0.2214362246E-01    0.5115976371E-02    0.3603182965E-02    0.1714620515E-02
    0.3000000000E+02    0.1009420056E+00    0.5729245376E-01    0.1423102039E-01    0.9307065645E-02    0.4431919038E-02
    0.5000000000E+02    0.1485901792E+00    0.8415940340E-01    0.2213391334E-01    0.1364664897E-01    0.6524664765E-02
    0.7000000000E+02    0.1870318045E+00    0.1054866769E+00    0.2907494945E-01    0.1707224914E-01    0.8213480090E-02
    0.9000000000E+02    0.2190877733E+00    0.1228810602E+00    0.3523858226E-01    0.1984856902E-01    0.9622101576E-02
    0.1100000000E+03    0.2464722832E+00    0.1373612843E+00    0.4076389663E-01    0.2214388479E-01    0.1082572547E-01
    0.1300000000E+03    0.2702946258E+00    0.1496117916E+00    0.4575786275E-01    0.2407149706E-01    0.1187301513E-01
    0.1500000000E+03    0.2913100065E+00    0.1601130999E+00    0.5030418227E-01    0.2571107960E-01    0.1279710205E-01
    0.1700000000E+03    0.3100545131E+00    0.1692143335E+00    0.5446935055E-01    0.2712058724E-01    0.1362150591E-01
    0.1900000000E+03    0.3269222222E+00    0.1771762128E+00    0.5830690864E-01    0.2834333069E-01    0.1436351672E-01
    0.2100000000E+03    0.3422114953E+00    0.1841978657E+00    0.6186048737E-01    0.2941239911E-01    0.1503622559E-01
    0.2300000000E+03    0.3561539697E+00    0.1904342612E+00    0.6516602692E-01    0.3035354172E-01    0.1564979650E-01
    0.2500000000E+03    0.3689333845E+00    0.1960079428E+00    0.6825342191E-01    0.3118711109E-01    0.1621229214E-01
    0.2700000000E+03    0.3806981994E+00    0.2010171575E+00    0.7114775894E-01    0.3192941187E-01    0.1673022740E-01
    0.2900000000E+03    0.3915702909E+00    0.2055416278E+00    0.7387026003E-01    0.3259366007E-01    0.1720895096E-01
    0.3100000000E+03    0.4016510989E+00    0.2096467379E+00    0.7643901076E-01    0.3319067972E-01    0.1765291484E-01
    0.3300000000E+03    0.4110260678E+00    0.2133866253E+00    0.7886952849E-01    0.3372941809E-01    0.1806586929E-01
    0.3500000000E+03    0.4197679218E+00    0.2168065015E+00    0.8117521048E-01    0.3421733292E-01    0.1845100647E-01
    0.3700000000E+03    0.4279391247E+00    0.2199444188E+00    0.8336769045E-01    0.3466068742E-01    0.1881106831E-01
    0.3900000000E+03    0.4355937582E+00    0.2228326324E+00    0.8545712502E-01    0.3506477799E-01    0.1914842898E-01
    0.4100000000E+03    0.4427789791E+00    0.2254986623E+00    0.8745242550E-01    0.3543411177E-01    0.1946515878E-01
    0.4300000000E+03    0.4495361636E+00    0.2279661309E+00    0.8936144695E-01    0.3577254677E-01    0.1976307435E-01
    0.4500000000E+03    0.4559018196E+00    0.2302554276E+00    0.9119114353E-01    0.3608340322E-01    0.2004377868E-01
    0.4700000000E+03    0.4619083205E+00    0.2323842435E+00    0.9294769683E-01    0.3636955292E-01    0.2030869335E-01
    0.4900000000E+03    0.4675845032E+00    0.2343680026E+00    0.9463662275E-01    0.3663349154E-01    0.2055908470E-01
    0.1000000000E+03    0.2332841660E+00    0.1304367411E+00    0.3807371125E-01    0.2104829542E-01    0.1024603777E-01
    0.3000000000E+03    0.3967039332E+00    0.2076429860E+00    0.7517282992E-01    0.3289997533E-01    0.1743502891E-01
    0.5000000000E+03    0.4703068925E+00    0.2353097737E+00    0.9545728944E-01    0.3675782344E-01    0.2067919282E-01
    0.7000000000E+03    0.5124409600E+00    0.2490638028E+00    0.1092846859E+00    0.3848416602E-01    0.2253972777E-01
    0.9000000000E+03    0.5394409143E+00    0.2569758343E+00    0.1197908548E+00    0.3936481534E-01    0.2373419068E-01
    0.1100000000E+04    0.5580559922E+00    0.2618896522E+00    0.1282953696E+00    0.3983438644E-01    0.2455927287E-01
    0.1300000000E+04    0.5715845381E+00    0.2650679865E+00    0.1354669180E+00    0.4007798973E-01    0.2516006459E-01
    0.1500000000E+04    0.5818175184E+00    0.2671586878E+00    0.1416879173E+00    0.4018696969E-01    0.2561539989E-01
    0.1700000000E+04    0.5898045117E+00    0.2685285270E+00    0.1471965418E+00    0.4021120765E-01    0.2597150855E-01
    0.1900000000E+04    0.5961979753E+00    0.2694004603E+00    0.1521508428E+00    0.4018001603E-01    0.2625714728E-01
    0.2100000000E+04    0.6014231366E+00    0.2699175053E+00    0.1566609673E+00    0.4011159594E-01    0.2649106982E-01
    0.2300000000E+04    0.6057681058E+00    0.2701753372E+00    0.1608067247E+00    0.4001774048E-01    0.2668599094E-01
    0.2500000000E+04    0.6094345404E+00    0.2702401550E+00    0.1646478021E+00    0.3990635162E-01    0.2685081587E-01
    0.2700000000E+04    0.6125675367E+00    0.2701590445E+00    0.1682300229E+00    0.3978286813E-01    0.2699195635E-01
    0.2900000000E+04    0.6152740018E+00    0.2699662767E+00    0.1715893509E+00    0.3965111539E-01    0.2711413965E-01
    0.3100000000E+04    0.6176343445E+00    0.2696872846E+00    0.1747545463E+00    0.3951383144E-01    0.2722092370E-01
    0.3300000000E+04    0.6197101457E+00    0.2693412574E+00    0.1777489838E+00    0.3937300382E-01    0.2731503518E-01
    0.3500000000E+04    0.6215493257E+00    0.2689428816E+00    0.1805919295E+00    0.3923009128E-01    0.2739859731E-01
    0.3700000000E+04    0.6231897071E+00    0.2685035371E+00    0.1832994605E+00    0.3908617353E-01    0.2747328707E-01
    0.3900000000E+04    0.6246615244E+00    0.2680321367E+00    0.1858851396E+00    0.3894205436E-01    0.2754044590E-01
    0.4100000000E+04    0.6259892242E+00    0.2675357264E+00    0.1883605197E+00    0.3879833417E-01    0.2760115920E-01
    0.4300000000E+04    0.6271927787E+00    0.2670199225E+00    0.1907355278E+00    0.3865546166E-01    0.2765631432E-01
    0.4500000000E+04    0.6282886587E+00    0.2664892331E+00    0.1930187603E+00    0.3851377135E-01    0.2770664353E-01
    0.4700000000E+04    0.6292905645E+00    0.2659472997E+00    0.1952177146E+00    0.3837351110E-01    0.2775275640E-01
    0.4900000000E+04    0.6302099818E+00    0.2653970792E+00    0.1973389708E+00    0.3823486247E-01    0.2779516427E-01
    0.1000000000E+04    0.5495412131E+00    0.2597078649E+00    0.1242422398E+00    0.3963621612E-01    0.2418167394E-01
    0.3000000000E+04    0.6164932184E+00    0.2698362367E+00    0.1731946451E+00    0.3958302604E-01    0.2716926977E-01
    0.5000000000E+04    0.6306418484E+00    0.2651196330E+00    0.1983723045E+00    0.3816618499E-01    0.2781511654E-01
    0.7000000000E+04    0.6366640212E+00    0.2595319044E+00    0.2160718537E+00    0.3689260659E-01    0.2809617926E-01
    0.9000000000E+04    0.6399821998E+00    0.2542750933E+00    0.2299114122E+00    0.3580023146E-01    0.2825446294E-01
    0.1100000000E+05    0.6420791592E+00    0.2494909917E+00    0.2413476415E+00    0.3485502367E-01    0.2835666601E-01
    0.1300000000E+05    0.6435226036E+00    0.2451489985E+00    0.2511265513E+00    0.3402536861E-01    0.2842852151E-01
    0.1500000000E+05    0.6445760505E+00    0.2411910911E+00    0.2596859326E+00    0.3328743715E-01    0.2848206497E-01
    0.1700000000E+05    0.6453783141E+00    0.2375618209E+00    0.2673065338E+00    0.3262364290E-01    0.2852368419E-01
    0.1900000000E+05    0.6460094026E+00    0.2342140409E+00    0.2741800501E+00    0.3202085142E-01    0.2855708845E-01
    0.2100000000E+05    0.6465186502E+00    0.2311088759E+00    0.2804436470E+00    0.3146906628E-01    0.2858458196E-01
    0.2300000000E+05    0.6469381191E+00    0.2282144444E+00    0.2861991071E+00    0.3096053096E-01    0.2860767329E-01
    0.2500000000E+05    0.6472895438E+00    0.2255045028E+00    0.2915241866E+00    0.3048911805E-01    0.2862739261E-01
    0.2700000000E+05    0.6475881765E+00    0.2229572945E+00    0.2964797184E+00    0.3004990823E-01    0.2864446812E-01
    0.2900000000E+05    0.6478450340E+00    0.2205546330E+00    0.3011142505E+00    0.2963889497E-01    0.2865942961E-01
    0.3100000000E+05    0.6480682714E+00    0.2182811868E+00    0.3054671847E+00    0.2925277305E-01    0.2867267211E-01
    0.3300000000E+05    0.6482640538E+00    0.2161239259E+00    0.3095709648E+00    0.2888878466E-01    0.2868449640E-01
    0.3500000000E+05    0.6484371281E+00    0.2140716903E+00    0.3134526431E+00    0.2854460514E-01    0.2869513570E-01
    0.3700000000E+05    0.6485912083E+00    0.2121148526E+00    0.3171350251E+00    0.2821825694E-01    0.2870477378E-01
    0.3900000000E+05    0.6487292413E+00    0.2102450520E+00    0.3206375245E+00    0.2790804393E-01    0.2871355752E-01
    0.4100000000E+05    0.6488535957E+00    0.2084549825E+00    0.3239768108E+00    0.2761250044E-01    0.2872160577E-01
    0.4300000000E+05    0.6489661964E+00    0.2067382233E+00    0.3271673086E+00    0.2733035134E-01    0.2872901579E-01
    0.4500000000E+05    0.6490686240E+00    0.2050891016E+00    0.3302215876E+00    0.2706048038E-01    0.2873586802E-01
    0.4700000000E+05    0.6491621885E+00    0.2035025808E+00    0.3331506709E+00    0.2680190489E-01    0.2874222956E-01
    0.4900000000E+05    0.6492479845E+00    0.2019741689E+00    0.3359642805E+00    0.2655375523E-01    0.2874815688E-01
    0.1000000000E+05    0.6411371414E+00    0.2518245216E+00    0.2358733335E+00    0.3531139610E-01    0.2831048495E-01
    0.3000000000E+05    0.6479604310E+00    0.2194026207E+00    0.3033237473E+00    0.2944290628E-01    0.2866624509E-01
    0.5000000000E+05    0.6492882632E+00    0.2012304799E+00    0.3373305150E+00    0.2643334507E-01    0.2875097296E-01
    0.7000000000E+05    0.6498484742E+00    0.1886196418E+00    0.3602532080E+00    0.2442296407E-01    0.2879304104E-01
    0.9000000000E+05    0.6501556358E+00    0.1789923544E+00    0.3774949930E+00    0.2292521663E-01    0.2881960274E-01
    0.1100000000E+06    0.6503487352E+00    0.1712317488E+00    0.3912643673E+00    0.2173926225E-01    0.2883853511E-01
    0.1300000000E+06    0.6504808593E+00    0.1647501527E+00    0.4026890101E+00    0.2076258290E-01    0.2885304728E-01
    0.1500000000E+06    0.6505766402E+00    0.1591995113E+00    0.4124243021E+00    0.1993578651E-01    0.2886472022E-01
    0.1700000000E+06    0.6506490522E+00    0.1543564559E+00    0.4208853242E+00    0.1922141085E-01    0.2887443498E-01
    0.1900000000E+06    0.6507055717E+00    0.1500690322E+00    0.4283516798E+00    0.1859432956E-01    0.2888272713E-01
    0.2100000000E+06    0.6507508062E+00    0.1462291763E+00    0.4350206841E+00    0.1803688672E-01    0.2888994398E-01
    0.2300000000E+06    0.6507877480E+00    0.1427573026E+00    0.4410367511E+00    0.1753621335E-01    0.2889632232E-01
    0.2500000000E+06    0.6508184236E+00    0.1395931158E+00    0.4465087266E+00    0.1708264823E-01    0.2890203014E-01
    0.2700000000E+06    0.6508442531E+00    0.1366898543E+00    0.4515206575E+00    0.1666875928E-01    0.2890719061E-01
    0.2900000000E+06    0.6508662608E+00    0.1340105312E+00    0.4561387716E+00    0.1628871089E-01    0.2891189645E-01
    0.3100000000E+06    0.6508852040E+00    0.1315253964E+00    0.4604161644E+00    0.1593784040E-01    0.2891621911E-01
    0.3300000000E+06    0.6509016538E+00    0.1292101710E+00    0.4643960415E+00    0.1561236575E-01    0.2892021473E-01
    0.3500000000E+06    0.6509160494E+00    0.1270447890E+00    0.4681140194E+00    0.1530917872E-01    0.2892392815E-01
    0.3700000000E+06    0.6509287335E+00    0.1250124807E+00    0.4715997951E+00    0.1502569516E-01    0.2892739573E-01
    0.3900000000E+06    0.6509399776E+00    0.1230990917E+00    0.4748783812E+00    0.1475974456E-01    0.2893064733E-01
    0.4100000000E+06    0.6509499994E+00    0.1212925695E+00    0.4779710356E+00    0.1450948706E-01    0.2893370778E-01
    0.4300000000E+06    0.6509589755E+00    0.1195825695E+00    0.4808959722E+00    0.1427335028E-01    0.2893659789E-01
    0.4500000000E+06    0.6509670503E+00    0.1179601489E+00    0.4836689111E+00    0.1404998035E-01    0.2893933532E-01
    0.4700000000E+06    0.6509743434E+00    0.1164175263E+00    0.4863035106E+00    0.1383820371E-01    0.2894193513E-01
    0.4900000000E+06    0.6509809545E+00    0.1149478904E+00    0.4888117096E+00    0.1363699682E-01    0.2894441029E-01
    0.1000000000E+06    0.6502621232E+00    0.1749231255E+00    0.3847279615E+00    0.2230106847E-01    0.2882976563E-01
    0.3000000000E+06    0.6508760762E+00    0.1327453192E+00    0.4583171566E+00    0.1610988267E-01    0.2891410186E-01
    0.5000000000E+06    0.6509840309E+00    0.1142385408E+00    0.4900217384E+00    0.1354007212E-01    0.2894560470E-01
    0.7000000000E+06    0.6510244311E+00    0.1027445816E+00    0.5095754743E+00    0.1198696735E-01    0.2896503196E-01
    0.9000000000E+06    0.6510436766E+00    0.9458731279E-01    0.5233949040E+00    0.1090472105E-01    0.2897907515E-01
    0.1100000000E+07    0.6510539031E+00    0.8835860664E-01    0.5339163060E+00    0.1008965939E-01    0.2899007044E-01
    0.1300000000E+07    0.6510595892E+00    0.8337505404E-01    0.5423157475E+00    0.9444703231E-02    0.2899910492E-01
    0.1500000000E+07    0.6510627391E+00    0.7925573334E-01    0.5492462659E+00    0.8916486714E-02    0.2900677224E-01
    0.1700000000E+07    0.6510643690E+00    0.7576781102E-01    0.5551058665E+00    0.8472755417E-02    0.2901343198E-01
    0.1900000000E+07    0.6510650414E+00    0.7275921504E-01    0.5601538978E+00    0.8092641224E-02    0.2901931836E-01
    0.2100000000E+07    0.6510650888E+00    0.7012551461E-01    0.5645681164E+00    0.7761930142E-02    0.2902459246E-01
    0.2300000000E+07    0.6510647176E+00    0.6779211830E-01    0.5684752801E+00    0.7470542204E-02    0.2902936975E-01
    0.2500000000E+07    0.6510640612E+00    0.6570403082E-01    0.5719687136E+00    0.7211093001E-02    0.2903373589E-01
    0.2700000000E+07    0.6510632086E+00    0.6381963049E-01    0.5751189592E+00    0.6978026017E-02    0.2903775611E-01
    0.2900000000E+07    0.6510622207E+00    0.6210671820E-01    0.5779805288E+00    0.6767065191E-02    0.2904148128E-01
    0.3100000000E+07    0.6510611401E+00    0.6053991436E-01    0.5805963464E+00    0.6574856320E-02    0.2904495180E-01
    0.3300000000E+07    0.6510599969E+00    0.5909888972E-01    0.5830007633E+00    0.6398724596E-02    0.2904820031E-01
    0.3500000000E+07    0.6510588130E+00    0.5776713014E-01    0.5852216614E+00    0.6236506158E-02    0.2905125355E-01
    0.3700000000E+07    0.6510576043E+00    0.5653105401E-01    0.5872819539E+00    0.6086428254E-02    0.2905413369E-01
    0.3900000000E+07    0.6510563824E+00    0.5537936861E-01    0.5892006792E+00    0.5947022219E-02    0.2905685935E-01
    0.4100000000E+07    0.6510551561E+00    0.5430259221E-01    0.5909938122E+00    0.5817059107E-02    0.2905944628E-01
    0.4300000000E+07    0.6510539315E+00    0.5329269349E-01    0.5926748758E+00    0.5695501305E-02    0.2906190794E-01
    0.4500000000E+07    0.6510527136E+00    0.5234281556E-01    0.5942554090E+00    0.5581465624E-02    0.2906425592E-01
    0.4700000000E+07    0.6510515058E+00    0.5144706194E-01    0.5957453293E+00    0.5474194774E-02    0.2906650029E-01
    0.4900000000E+07    0.6510503107E+00    0.5060032868E-01    0.5971532169E+00    0.5373035048E-02    0.2906864981E-01
    0.1000000000E+07    0.6510495494E+00    0.9128454619E-01    0.5289771318E+00    0.1047130451E-01    0.2898486939E-01
    0.3000000000E+07    0.6510616898E+00    0.6130642512E-01    0.5793168369E+00    0.6668797599E-02    0.2904324618E-01
    0.5000000000E+07    0.6510497185E+00    0.5019393306E-01    0.5978287705E+00    0.5324566479E-02    0.2906969145E-01
    0.7000000000E+07    0.6510387771E+00    0.4381073386E-01    0.6084247209E+00    0.4570630589E-02    0.2908700454E-01
    0.9000000000E+07    0.6510295166E+00    0.3950054241E-01    0.6155632572E+00    0.4069763251E-02    0.2909990358E-01
    0.1100000000E+08    0.6510216105E+00    0.3632520544E-01    0.6208134841E+00    0.3705318170E-02    0.2911019074E-01
    0.1300000000E+08    0.6510147475E+00    0.3385376911E-01    0.6248945037E+00    0.3424490451E-02    0.2911874923E-01
    0.1500000000E+08    0.6510086975E+00    0.3185575565E-01    0.6281902258E+00    0.3199359067E-02    0.2912607826E-01
    0.1700000000E+08    0.6510032942E+00    0.3019484786E-01    0.6309274004E+00    0.3013563509E-02    0.2913248775E-01
    0.1900000000E+08    0.6509984155E+00    0.2878439678E-01    0.6332499932E+00    0.2856786517E-02    0.2913818340E-01
    0.2100000000E+08    0.6509939703E+00    0.2756625125E-01    0.6352545267E+00    0.2722151659E-02    0.2914330873E-01
    0.2300000000E+08    0.6509898887E+00    0.2649969201E-01    0.6370085313E+00    0.2604873155E-02    0.2914796791E-01
    0.2500000000E+08    0.6509861165E+00    0.2555521489E-01    0.6385609009E+00    0.2501502287E-02    0.2915223889E-01
    0.2700000000E+08    0.6509826103E+00    0.2471083228E-01    0.6399480488E+00    0.2409481675E-02    0.2915618159E-01
