  Pressure (Pa) 22mC5-400 (mol/kg) 2mC6-400 (mol/kg) 3mC6-400 (mol/kg) 33mC5-400 (mol/kg) 23mC5-400 (mol/kg)
    0.1000000000E+01    0.4228425566E-02    0.7973953447E-03    0.1592803851E-02    0.1298391481E-03    0.5568504064E-03
    0.3000000000E+01    0.1248755297E-01    0.2355181176E-02    0.4745562283E-02    0.3834456074E-03    0.1644534781E-02
    0.5000000000E+01    0.2049382405E-01    0.3865601779E-02    0.7855305268E-02    0.6292773696E-03    0.2698948043E-02
    0.7000000000E+01    0.2825943093E-01    0.5330892129E-02    0.1092294946E-01    0.8676979887E-03    0.3721694054E-02
    0.9000000000E+01    0.3579578268E-01    0.6753144566E-02    0.1394938538E-01    0.1099047957E-02    0.4714273682E-02
    0.1100000000E+02    0.4311356699E-01    0.8134320067E-02    0.1693547832E-01    0.1323646524E-02    0.5678092905E-02
    0.1300000000E+02    0.5022280607E-01    0.9476258469E-02    0.1988206925E-01    0.1541793348E-02    0.6614470170E-02
    0.1500000000E+02    0.5713290755E-01    0.1078068775E-01    0.2278997566E-01    0.1753769992E-02    0.7524643084E-02
    0.1700000000E+02    0.6385271071E-01    0.1204923249E-01    0.2565999238E-01    0.1959841293E-02    0.8409774496E-02
    0.1900000000E+02    0.7039052874E-01    0.1328342155E-01    0.2849289238E-01    0.2160256595E-02    0.9270958056E-02
    0.2100000000E+02    0.7675418724E-01    0.1448469508E-01    0.3128942749E-01    0.2355250891E-02    0.1010922327E-01
    0.2300000000E+02    0.8295105940E-01    0.1565441096E-01    0.3405032913E-01    0.2545045850E-02    0.1092554015E-01
    0.2500000000E+02    0.8898809825E-01    0.1679385066E-01    0.3677630900E-01    0.2729850766E-02    0.1172082342E-01
    0.2700000000E+02    0.9487186616E-01    0.1790422456E-01    0.3946805977E-01    0.2909863428E-02    0.1249593643E-01
    0.2900000000E+02    0.1006085619E+00    0.1898667695E-01    0.4212625567E-01    0.3085270906E-02    0.1325169470E-01
    0.3100000000E+02    0.1062040456E+00    0.2004229047E-01    0.4475155313E-01    0.3256250289E-02    0.1398886919E-01
    0.3300000000E+02    0.1116638616E+00    0.2107209031E-01    0.4734459135E-01    0.3422969350E-02    0.1470818934E-01
    0.3500000000E+02    0.1169932592E+00    0.2207704803E-01    0.4990599288E-01    0.3585587162E-02    0.1541034577E-01
    0.3700000000E+02    0.1221972126E+00    0.2305808506E-01    0.5243636415E-01    0.3744254669E-02    0.1609599291E-01
    0.3900000000E+02    0.1272804384E+00    0.2401607594E-01    0.5493629600E-01    0.3899115211E-02    0.1676575130E-01
    0.4100000000E+02    0.1322474122E+00    0.2495185135E-01    0.5740636416E-01    0.4050305001E-02    0.1742020980E-01
    0.4300000000E+02    0.1371023840E+00    0.2586620084E-01    0.5984712976E-01    0.4197953578E-02    0.1805992755E-01
    0.4500000000E+02    0.1418493921E+00    0.2675987541E-01    0.6225913977E-01    0.4342184218E-02    0.1868543588E-01
    0.4700000000E+02    0.1464922765E+00    0.2763358987E-01    0.6464292745E-01    0.4483114316E-02    0.1929724002E-01
    0.4900000000E+02    0.1510346906E+00    0.2848802504E-01    0.6699901278E-01    0.4620855745E-02    0.1989582066E-01
    0.1000000000E+02    0.3948135440E-01    0.7448749218E-02    0.1544742160E-01    0.1212171996E-02    0.5199693971E-02
    0.3000000000E+02    0.1034236016E+00    0.1951777319E-01    0.4344297636E-01    0.3171303413E-02    0.1362255839E-01
    0.5000000000E+02    0.1532693149E+00    0.2890821686E-01    0.6816682604E-01    0.4688564238E-02    0.2019029605E-01
    0.7000000000E+02    0.1934498970E+00    0.3644251970E-01    0.9018587332E-01    0.5898803351E-02    0.2548593255E-01
    0.9000000000E+02    0.2266757836E+00    0.4262897619E-01    0.1099418586E+00    0.6885785166E-02    0.2986609810E-01
    0.1100000000E+03    0.2547029568E+00    0.4780054158E-01    0.1277842107E+00    0.7704636170E-02    0.3356185565E-01
    0.1300000000E+03    0.2787233287E+00    0.5218563340E-01    0.1439930538E+00    0.8393325494E-02    0.3673005538E-01
    0.1500000000E+03    0.2995776256E+00    0.5594692483E-01    0.1587956499E+00    0.8978978185E-02    0.3948134089E-01
    0.1700000000E+03    0.3178781937E+00    0.5920388513E-01    0.1723783637E+00    0.9481559103E-02    0.4189630557E-01
    0.1900000000E+03    0.3340832688E+00    0.6204653283E-01    0.1848955130E+00    0.9916131027E-02    0.4403526411E-01
    0.2100000000E+03    0.3485437449E+00    0.6454418062E-01    0.1964760110E+00    0.1029429722E-01    0.4594440588E-01
    0.2300000000E+03    0.3615336709E+00    0.6675119460E-01    0.2072284179E+00    0.1062515588E-01    0.4765980761E-01
    0.2500000000E+03    0.3732707544E+00    0.6871090384E-01    0.2172448310E+00    0.1091595084E-01    0.4921013121E-01
    0.2700000000E+03    0.3839305212E+00    0.7045832475E-01    0.2266039126E+00    0.1117252680E-01    0.5061848708E-01
    0.2900000000E+03    0.3936563309E+00    0.7202210370E-01    0.2353732709E+00    0.1139965513E-01    0.5190375192E-01
    0.3100000000E+03    0.4025666112E+00    0.7342593049E-01    0.2436113512E+00    0.1160127158E-01    0.5308152087E-01
    0.3300000000E+03    0.4107601854E+00    0.7468958547E-01    0.2513689497E+00    0.1178065287E-01    0.5416480842E-01
    0.3500000000E+03    0.4183202603E+00    0.7582972774E-01    0.2586904356E+00    0.1194054980E-01    0.5516457341E-01
    0.3700000000E+03    0.4253174601E+00    0.7686049700E-01    0.2656147459E+00    0.1208328913E-01    0.5609011818E-01
    0.3900000000E+03    0.4318121643E+00    0.7779397926E-01    0.2721761997E+00    0.1221085246E-01    0.5694939636E-01
    0.4100000000E+03    0.4378563335E+00    0.7864057132E-01    0.2784051697E+00    0.1232493793E-01    0.5774925311E-01
    0.4300000000E+03    0.4434949504E+00    0.7940926914E-01    0.2843286394E+00    0.1242700917E-01    0.5849561484E-01
    0.4500000000E+03    0.4487671698E+00    0.8010789833E-01    0.2899706683E+00    0.1251833426E-01    0.5919364055E-01
    0.4700000000E+03    0.4537072448E+00    0.8074329986E-01    0.2953527813E+00    0.1260001725E-01    0.5984784376E-01
    0.4900000000E+03    0.4583452783E+00    0.8132148117E-01    0.3004942986E+00    0.1267302365E-01    0.6046219146E-01
    0.1000000000E+03    0.2412545730E+00    0.4532545393E-01    0.1190833253E+00    0.7313542818E-02    0.3178839037E-01
    0.3000000000E+03    0.3982068285E+00    0.7274269351E-01    0.2395553823E+00    0.1150343384E-01    0.5250520636E-01
    0.5000000000E+03    0.4605594558E+00    0.8159079454E-01    0.3029803377E+00    0.1270654221E-01    0.6075553001E-01
    0.7000000000E+03    0.4940383788E+00    0.8497835405E-01    0.3434948885E+00    0.1308100413E-01    0.6519587503E-01
    0.9000000000E+03    0.5148246203E+00    0.8611755034E-01    0.3722615439E+00    0.1313412589E-01    0.6795932743E-01
    0.1100000000E+04    0.5289357142E+00    0.8618173199E-01    0.3940886568E+00    0.1304344637E-01    0.6983983190E-01
    0.1300000000E+04    0.5391185837E+00    0.8569045501E-01    0.4114184038E+00    0.1288445212E-01    0.7120011177E-01
    0.1500000000E+04    0.5468013036E+00    0.8490193165E-01    0.4256363709E+00    0.1269315316E-01    0.7222889317E-01
    0.1700000000E+04    0.5527976477E+00    0.8395465830E-01    0.4375939742E+00    0.1248802241E-01    0.7303380634E-01
    0.1900000000E+04    0.5576043448E+00    0.8292691340E-01    0.4478469181E+00    0.1227897285E-01    0.7368060181E-01
    0.2100000000E+04    0.5615413071E+00    0.8186454579E-01    0.4567754318E+00    0.1207144828E-01    0.7421165947E-01
    0.2300000000E+04    0.5648236398E+00    0.8079501521E-01    0.4646497397E+00    0.1186844136E-01    0.7465549802E-01
    0.2500000000E+04    0.5676011879E+00    0.7973493111E-01    0.4716679636E+00    0.1167155158E-01    0.7503199999E-01
    0.2700000000E+04    0.5699814709E+00    0.7869430095E-01    0.4779791905E+00    0.1148156661E-01    0.7535544336E-01
    0.2900000000E+04    0.5720436016E+00    0.7767901985E-01    0.4836981104E+00    0.1129879420E-01    0.7563634241E-01
    0.3100000000E+04    0.5738470622E+00    0.7669237699E-01    0.4889146377E+00    0.1112325709E-01    0.7588260887E-01
    0.3300000000E+04    0.5754374227E+00    0.7573599167E-01    0.4937004292E+00    0.1095481036E-01    0.7610030895E-01
    0.3500000000E+04    0.5768501745E+00    0.7481040756E-01    0.4981134173E+00    0.1079321316E-01    0.7629417102E-01
    0.3700000000E+04    0.5781133640E+00    0.7391547685E-01    0.5022010357E+00    0.1063817305E-01    0.7646793471E-01
    0.3900000000E+04    0.5792494438E+00    0.7305061203E-01    0.5060025615E+00    0.1048937366E-01    0.7662459617E-01
    0.4100000000E+04    0.5802765984E+00    0.7221495264E-01    0.5095508465E+00    0.1034649181E-01    0.7676658400E-01
    0.4300000000E+04    0.5812097098E+00    0.7140747667E-01    0.5128736185E+00    0.1020920802E-01    0.7689588739E-01
    0.4500000000E+04    0.5820610739E+00    0.7062707509E-01    0.5159944728E+00    0.1007721285E-01    0.7701415119E-01
    0.4700000000E+04    0.5828409374E+00    0.6987260177E-01    0.5189336373E+00    0.9950210471E-02    0.7712274725E-01
    0.4900000000E+04    0.5835579072E+00    0.6914290676E-01    0.5217085717E+00    0.9827920564E-02    0.7722282883E-01
    0.1000000000E+04    0.5224988024E+00    0.8624277216E-01    0.3838557301E+00    0.1310070325E-01    0.6898146430E-01
    0.3000000000E+04    0.5729745435E+00    0.7718198653E-01    0.4863643275E+00    0.1121012736E-01    0.7576338922E-01
    0.5000000000E+04    0.5838951272E+00    0.6878699626E-01    0.5230392702E+00    0.9768459618E-02    0.7726998781E-01
    0.7000000000E+04    0.5886299458E+00    0.6271676992E-01    0.5438468624E+00    0.8771058997E-02    0.7793972551E-01
    0.9000000000E+04    0.5912674524E+00    0.5811567072E-01    0.5578024142E+00    0.8033354534E-02    0.7832198582E-01
    0.1100000000E+05    0.5929456616E+00    0.5447380730E-01    0.5680358835E+00    0.7459239151E-02    0.7857107786E-01
    0.1300000000E+05    0.5941059566E+00    0.5149478737E-01    0.5759720989E+00    0.6995636152E-02    0.7874737289E-01
    0.1500000000E+05    0.5949551833E+00    0.4899602475E-01    0.5823687893E+00    0.6610803852E-02    0.7887940428E-01
    0.1700000000E+05    0.5956030958E+00    0.4685857807E-01    0.5876723608E+00    0.6284481959E-02    0.7898243950E-01
    0.1900000000E+05    0.5961133129E+00    0.4500127256E-01    0.5921657254E+00    0.6003054078E-02    0.7906540196E-01
    0.2100000000E+05    0.5965252401E+00    0.4336655161E-01    0.5960382940E+00    0.5756983231E-02    0.7913386446E-01
    0.2300000000E+05    0.5968645810E+00    0.4191229727E-01    0.5994224299E+00    0.5539361213E-02    0.7919149181E-01
    0.2500000000E+05    0.5971488122E+00    0.4060686560E-01    0.6024138711E+00    0.5345042613E-02    0.7924079606E-01
    0.2700000000E+05    0.5973902283E+00    0.3942594553E-01    0.6050838522E+00    0.5170104105E-02    0.7928355866E-01
    0.2900000000E+05    0.5975977283E+00    0.3835049927E-01    0.6074866462E+00    0.5011493830E-02    0.7932107943E-01
    0.3100000000E+05    0.5977779114E+00    0.3736536995E-01    0.6096644443E+00    0.4866796565E-02    0.7935432987E-01
    0.3300000000E+05    0.5979357733E+00    0.3645831498E-01    0.6116506181E+00    0.4734072015E-02    0.7938405133E-01
    0.3500000000E+05    0.5980751657E+00    0.3561931911E-01    0.6134719643E+00    0.4611740727E-02    0.7941081983E-01
    0.3700000000E+05    0.5981991048E+00    0.3484009621E-01    0.6151502868E+00    0.4498501877E-02    0.7943509001E-01
    0.3900000000E+05    0.5983099865E+00    0.3411372127E-01    0.6167035354E+00    0.4393272889E-02    0.7945722580E-01
    0.4100000000E+05    0.5984097375E+00    0.3343435416E-01    0.6181466429E+00    0.4295144361E-02    0.7947752212E-01
    0.4300000000E+05    0.5984999248E+00    0.3279702919E-01    0.6194921485E+00    0.4203345880E-02    0.7949622067E-01
    0.4500000000E+05    0.5985818357E+00    0.3219749266E-01    0.6207506714E+00    0.4117219769E-02    0.7951352154E-01
    0.4700000000E+05    0.5986565372E+00    0.3163207605E-01    0.6219312735E+00    0.4036200655E-02    0.7952959187E-01
    0.4900000000E+05    0.5987249217E+00    0.3109759574E-01    0.6230417427E+00    0.3959799404E-02    0.7954457241E-01
    0.1000000000E+05    0.5921906559E+00    0.5619686992E-01    0.5632729961E+00    0.7729836204E-02    0.7845829035E-01
    0.3000000000E+05    0.5976908909E+00    0.3784746930E-01    0.6086014075E+00    0.4937536948E-02    0.7933818760E-01
    0.5000000000E+05    0.5987569846E+00    0.3084107444E-01    0.6235728182E+00    0.3923195273E-02    0.7955169208E-01
    0.7000000000E+05    0.5991990752E+00    0.2681493647E-01    0.6317538723E+00    0.3354305225E-02    0.7965822210E-01
    0.9000000000E+05    0.5994365049E+00    0.2410315782E-01    0.6371094325E+00    0.2977369120E-02    0.7972563436E-01
    0.1100000000E+06    0.5995824112E+00    0.2211110303E-01    0.6409691880E+00    0.2703896961E-02    0.7977374165E-01
    0.1300000000E+06    0.5996798405E+00    0.2056486544E-01    0.6439234919E+00    0.2493744918E-02    0.7981064371E-01
    0.1500000000E+06    0.5997486645E+00    0.1931792508E-01    0.6462802197E+00    0.2325688897E-02    0.7984033963E-01
    0.1700000000E+06    0.5997992894E+00    0.1828369009E-01    0.6482178964E+00    0.2187304609E-02    0.7986506136E-01
    0.1900000000E+06    0.5998376743E+00    0.1740718596E-01    0.6498481778E+00    0.2070767452E-02    0.7988616714E-01
    0.2100000000E+06    0.5998674674E+00    0.1665156999E-01    0.6512449845E+00    0.1970869965E-02    0.7990453850E-01
    0.2300000000E+06    0.5998910218E+00    0.1599108117E-01    0.6524594770E+00    0.1883993316E-02    0.7992077682E-01
    0.2500000000E+06    0.5999099193E+00    0.1540708067E-01    0.6535283495E+00    0.1807533536E-02    0.7993530901E-01
    0.2700000000E+06    0.5999252609E+00    0.1488569775E-01    0.6544787029E+00    0.1739562415E-02    0.7994844813E-01
    0.2900000000E+06    0.5999378344E+00    0.1441636351E-01    0.6553310497E+00    0.1678617404E-02    0.7996043000E-01
    0.3100000000E+06    0.5999482177E+00    0.1399086161E-01    0.6561012424E+00    0.1623566251E-02    0.7997143635E-01
    0.3300000000E+06    0.5999568434E+00    0.1360269318E-01    0.6568017534E+00    0.1573516845E-02    0.7998161000E-01
    0.3500000000E+06    0.5999640415E+00    0.1324663984E-01    0.6574425497E+00    0.1527755429E-02    0.7999106507E-01
    0.3700000000E+06    0.5999700672E+00    0.1291845563E-01    0.6580317055E+00    0.1485703206E-02    0.7999989410E-01
    0.3900000000E+06    0.5999751212E+00    0.1261464507E-01    0.6585758417E+00    0.1446885196E-02    0.8000817312E-01
    0.4100000000E+06    0.5999793629E+00    0.1233230033E-01    0.6590804456E+00    0.1410907448E-02    0.8001596528E-01
    0.4300000000E+06    0.5999829206E+00    0.1206897962E-01    0.6595501096E+00    0.1377440084E-02    0.8002332363E-01
    0.4500000000E+06    0.5999858982E+00    0.1182261509E-01    0.6599887106E+00    0.1346204495E-02    0.8003029308E-01
    0.4700000000E+06    0.5999883812E+00    0.1159144204E-01    0.6603995472E+00    0.1316963523E-02    0.8003691201E-01
    0.4900000000E+06    0.5999904398E+00    0.1137394395E-01    0.6607854465E+00    0.1289513857E-02    0.8004321346E-01
    0.1000000000E+06    0.5995173911E+00    0.2303853848E-01    0.6391798499E+00    0.2830843764E-02    0.7975145300E-01
    0.3000000000E+06    0.5999432700E+00    0.1419857407E-01    0.6557255684E+00    0.1650415648E-02    0.7996604541E-01
    0.5000000000E+06    0.5999913286E+00    0.1126990611E-01    0.6609698202E+00    0.1276404987E-02    0.8004625422E-01
    0.7000000000E+06    0.5999969305E+00    0.9665287047E-02    0.6637957792E+00    0.1076059766E-02    0.8009570664E-01
    0.9000000000E+06    0.5999918269E+00    0.8612441387E-02    0.6656320026E+00    0.9466274234E-03    0.8013144522E-01
    0.1100000000E+07    0.5999833789E+00    0.7852167238E-02    0.6669491328E+00    0.8542638314E-03    0.8015942121E-01
    0.1300000000E+07    0.5999739395E+00    0.7269261826E-02    0.6679539628E+00    0.7841258030E-03    0.8018240387E-01
    0.1500000000E+07    0.5999643877E+00    0.6803578030E-02    0.6687535842E+00    0.7285440471E-03    0.8020190544E-01
    0.1700000000E+07    0.5999550743E+00    0.6420200340E-02    0.6694097789E+00    0.6831046301E-03    0.8021884176E-01
    0.1900000000E+07    0.5999461362E+00    0.6097268366E-02    0.6699610364E+00    0.6450642054E-03    0.8023380937E-01
    0.2100000000E+07    0.5999376178E+00    0.5820295255E-02    0.6704327592E+00    0.6126163603E-03    0.8024721846E-01
    0.2300000000E+07    0.5999295214E+00    0.5579245267E-02    0.6708424836E+00    0.5845167983E-03    0.8025936312E-01
    0.2500000000E+07    0.5999218304E+00    0.5366914111E-02    0.6712027608E+00    0.5598768393E-03    0.8027046139E-01
    0.2700000000E+07    0.5999145210E+00    0.5177976573E-02    0.6715228438E+00    0.5380426413E-03    0.8028067942E-01
    0.2900000000E+07    0.5999075664E+00    0.5008398913E-02    0.6718097255E+00    0.5185210379E-03    0.8029014665E-01
    0.3100000000E+07    0.5999009401E+00    0.4855061508E-02    0.6720688028E+00    0.5009321207E-03    0.8029896597E-01
    0.3300000000E+07    0.5998946170E+00    0.4715508217E-02    0.6723043166E+00    0.4849778709E-03    0.8030722045E-01
    0.3500000000E+07    0.5998885736E+00    0.4587775001E-02    0.6725196528E+00    0.4704207912E-03    0.8031497815E-01
    0.3700000000E+07    0.5998827886E+00    0.4470269787E-02    0.6727175513E+00    0.4570689786E-03    0.8032229552E-01
    0.3900000000E+07    0.5998772424E+00    0.4361686374E-02    0.6729002572E+00    0.4447654611E-03    0.8032921993E-01
    0.4100000000E+07    0.5998719174E+00    0.4260941529E-02    0.6730696296E+00    0.4333804323E-03    0.8033579146E-01
    0.4300000000E+07    0.5998667976E+00    0.4167128237E-02    0.6732272235E+00    0.4228054946E-03    0.8034204439E-01
    0.4500000000E+07    0.5998618686E+00    0.4079480409E-02    0.6733743506E+00    0.4129493274E-03    0.8034800820E-01
    0.4700000000E+07    0.5998571171E+00    0.3997345877E-02    0.6735121265E+00    0.4037343787E-03    0.8035370848E-01
    0.4900000000E+07    0.5998525315E+00    0.3920165454E-02    0.6736415066E+00    0.3950943089E-03    0.8035916757E-01
    0.1000000000E+07    0.5999878198E+00    0.8204791670E-02    0.6663391526E+00    0.8969828470E-03    0.8014618854E-01
    0.3000000000E+07    0.5999042138E+00    0.4929866926E-02    0.6719424516E+00    0.5095052504E-03    0.8029463171E-01
    0.5000000000E+07    0.5998502974E+00    0.3883279602E-02    0.6737033102E+00    0.3909716868E-03    0.8036181288E-01
    0.7000000000E+07    0.5998121617E+00    0.3316995616E-02    0.6746497222E+00    0.3282460104E-03    0.8040576999E-01
    0.9000000000E+07    0.5997827404E+00    0.2948045788E-02    0.6752638330E+00    0.2879988364E-03    0.8043850631E-01
    0.1100000000E+08    0.5997588055E+00    0.2682867339E-02    0.6757039528E+00    0.2594087367E-03    0.8046460515E-01
    0.1300000000E+08    0.5997386360E+00    0.2480245685E-02    0.6760395095E+00    0.2377701306E-03    0.8048631205E-01
    0.1500000000E+08    0.5997212094E+00    0.2318795316E-02    0.6763064128E+00    0.2206660557E-03    0.8050489599E-01
    0.1700000000E+08    0.5997058695E+00    0.2186159201E-02    0.6765253607E+00    0.2067116236E-03    0.8052114463E-01
    0.1900000000E+08    0.5996921700E+00    0.2074628791E-02    0.6767092390E+00    0.1950490981E-03    0.8053558066E-01
    0.2100000000E+08    0.5996797942E+00    0.1979110764E-02    0.6768665471E+00    0.1851152887E-03    0.8054856877E-01
    0.2300000000E+08    0.5996685088E+00    0.1896085462E-02    0.6770031502E+00    0.1765231782E-03    0.8056037352E-01
    0.2500000000E+08    0.5996581371E+00    0.1823031580E-02    0.6771232444E+00    0.1689969173E-03    0.8057119299E-01
    0.2700000000E+08    0.5996485424E+00    0.1758088846E-02    0.6772299222E+00    0.1623339070E-03    0.8058117931E-01
