  Pressure (Pa) 22mC5-400 (mol/kg) 2mC6-400 (mol/kg) 3mC6-400 (mol/kg) 33mC5-400 (mol/kg) 23mC5-400 (mol/kg)
    0.1000000000E+01    0.4228156989E-02    0.7978336717E-03    0.1062616160E-02    0.1948642350E-03    0.5568150540E-03
    0.3000000000E+01    0.1248523261E-01    0.2359082068E-02    0.3170345868E-02    0.5761073758E-03    0.1644229353E-02
    0.5000000000E+01    0.2048763325E-01    0.3876316249E-02    0.5255077585E-02    0.9464949510E-03    0.2698133140E-02
    0.7000000000E+01    0.2824776979E-01    0.5351656816E-02    0.7317209571E-02    0.1306544637E-02    0.3720159064E-02
    0.9000000000E+01    0.3577724718E-01    0.6787084034E-02    0.9357130813E-02    0.1656740074E-02    0.4711833769E-02
    0.1100000000E+02    0.4308692857E-01    0.8184449263E-02    0.1137522130E-01    0.1997533631E-02    0.5674586323E-02
    0.1300000000E+02    0.5018699344E-01    0.9545485289E-02    0.1337185226E-01    0.2329348914E-02    0.6609755872E-02
    0.1500000000E+02    0.5708699042E-01    0.1087181569E-01    0.1534738647E-01    0.2652583026E-02    0.7518598579E-02
    0.1700000000E+02    0.6379588530E-01    0.1216496335E-01    0.1730217842E-01    0.2967608632E-02    0.8402293942E-02
    0.1900000000E+02    0.7032210475E-01    0.1342635818E-01    0.1923657459E-01    0.3274775827E-02    0.9261950544E-02
    0.2100000000E+02    0.7667357617E-01    0.1465734412E-01    0.2115091371E-01    0.3574413838E-02    0.1009861130E-01
    0.2300000000E+02    0.8285776416E-01    0.1585918560E-01    0.2304552689E-01    0.3866832578E-02    0.1091325824E-01
    0.2500000000E+02    0.8888170373E-01    0.1703307337E-01    0.2492073791E-01    0.4152324057E-02    0.1170681688E-01
    0.2700000000E+02    0.9475203085E-01    0.1818012983E-01    0.2677686340E-01    0.4431163681E-02    0.1248016027E-01
    0.2900000000E+02    0.1004750103E+00    0.1930141390E-01    0.2861421301E-01    0.4703611432E-02    0.1323411261E-01
    0.3100000000E+02    0.1060565614E+00    0.2039792556E-01    0.3043308966E-01    0.4969912952E-02    0.1396945266E-01
    0.3300000000E+02    0.1115022814E+00    0.2147060991E-01    0.3223378966E-01    0.5230300539E-02    0.1468691682E-01
    0.3500000000E+02    0.1168174674E+00    0.2252036093E-01    0.3401660292E-01    0.5484994057E-02    0.1538720199E-01
    0.3700000000E+02    0.1220071360E+00    0.2354802498E-01    0.3578181314E-01    0.5734201776E-02    0.1607096820E-01
    0.3900000000E+02    0.1270760419E+00    0.2455440396E-01    0.3752969795E-01    0.5978121143E-02    0.1673884100E-01
    0.4100000000E+02    0.1320286946E+00    0.2554025825E-01    0.3926052906E-01    0.6216939495E-02    0.1739141371E-01
    0.4300000000E+02    0.1368693745E+00    0.2650630943E-01    0.4097457246E-01    0.6450834711E-02    0.1802924948E-01
    0.4500000000E+02    0.1416021469E+00    0.2745324277E-01    0.4267208855E-01    0.6679975821E-02    0.1865288320E-01
    0.4700000000E+02    0.1462308758E+00    0.2838170953E-01    0.4435333228E-01    0.6904523560E-02    0.1926282325E-01
    0.4900000000E+02    0.1507592361E+00    0.2929232909E-01    0.4601855328E-01    0.7124630892E-02    0.1985955314E-01
    0.1000000000E+02    0.3945891078E-01    0.7490413433E-02    0.1036888149E-01    0.1828284966E-02    0.5196739595E-02
    0.3000000000E+02    0.1032831073E+00    0.1985270597E-01    0.2952594179E-01    0.4837515651E-02    0.1360406219E-01
    0.5000000000E+02    0.1529868775E+00    0.2974113151E-01    0.4684523186E-01    0.7233065198E-02    0.2015310894E-01
    0.7000000000E+02    0.1930366278E+00    0.3790941828E-01    0.6259462531E-01    0.9200601249E-02    0.2543151414E-01
    0.9000000000E+02    0.2261528647E+00    0.4481689085E-01    0.7699166352E-01    0.1085394308E-01    0.2979723497E-01
    0.1100000000E+03    0.2540925884E+00    0.5076191829E-01    0.9021489868E-01    0.1226743512E-01    0.3348146944E-01
    0.1300000000E+03    0.2780455890E+00    0.5594855499E-01    0.1024122959E+00    0.1349216064E-01    0.3664078915E-01
    0.1500000000E+03    0.2988496115E+00    0.6052234263E-01    0.1137075482E+00    0.1456468721E-01    0.3938544568E-01
    0.1700000000E+03    0.3171140347E+00    0.6459074689E-01    0.1242048851E+00    0.1551208293E-01    0.4179564211E-01
    0.1900000000E+03    0.3332944488E+00    0.6823543626E-01    0.1339927797E+00    0.1635494626E-01    0.4393134497E-01
    0.2100000000E+03    0.3477395002E+00    0.7151998967E-01    0.1431468364E+00    0.1710931851E-01    0.4583844784E-01
    0.2300000000E+03    0.3607213749E+00    0.7449492146E-01    0.1517320647E+00    0.1778793755E-01    0.4755278220E-01
    0.2500000000E+03    0.3724562562E+00    0.7720106710E-01    0.1598046864E+00    0.1840108692E-01    0.4910280931E-01
    0.2700000000E+03    0.3831184324E+00    0.7967193119E-01    0.1674135826E+00    0.1895718759E-01    0.5051147658E-01
    0.2900000000E+03    0.3928502621E+00    0.8193535791E-01    0.1746014644E+00    0.1946322070E-01    0.5179752892E-01
    0.3100000000E+03    0.4017693654E+00    0.8401474624E-01    0.1814058245E+00    0.1992503622E-01    0.5297645505E-01
    0.3300000000E+03    0.4099739146E+00    0.8592995214E-01    0.1878597179E+00    0.2034758282E-01    0.5406118374E-01
    0.3500000000E+03    0.4175465928E+00    0.8769797016E-01    0.1939924059E+00    0.2073508182E-01    0.5506260480E-01
    0.3700000000E+03    0.4245576028E+00    0.8933345680E-01    0.1998298903E+00    0.2109116113E-01    0.5598996504E-01
    0.3900000000E+03    0.4310669853E+00    0.9084913815E-01    0.2053953598E+00    0.2141895950E-01    0.5685117345E-01
    0.4100000000E+03    0.4371264292E+00    0.9225613152E-01    0.2107095646E+00    0.2172120896E-01    0.5765303936E-01
    0.4300000000E+03    0.4427806995E+00    0.9356420217E-01    0.2157911318E+00    0.2200030049E-01    0.5840146046E-01
    0.4500000000E+03    0.4480687770E+00    0.9478197041E-01    0.2206568339E+00    0.2225833708E-01    0.5910157283E-01
    0.4700000000E+03    0.4530247760E+00    0.9591708032E-01    0.2253218165E+00    0.2249717681E-01    0.5975787170E-01
    0.4900000000E+03    0.4576786899E+00    0.9697633835E-01    0.2297997931E+00    0.2271846825E-01    0.6037430956E-01
    0.1000000000E+03    0.2406852502E+00    0.4789526607E-01    0.8374012432E-01    0.1158705922E-01    0.3171341306E-01
    0.3000000000E+03    0.3974048647E+00    0.8299674172E-01    0.1780494228E+00    0.1969932751E-01    0.5239952153E-01
    0.5000000000E+03    0.4599007634E+00    0.9747944956E-01    0.2319725899E+00    0.2282299857E-01    0.6066868745E-01
    0.7000000000E+03    0.4935225371E+00    0.1047430517E+00    0.2680992508E+00    0.2427608534E-01    0.6512784365E-01
    0.9000000000E+03    0.5144165885E+00    0.1086230413E+00    0.2946127520E+00    0.2497416019E-01    0.6790550069E-01
    0.1100000000E+04    0.5286065792E+00    0.1106869953E+00    0.3152492095E+00    0.2528014787E-01    0.6979640424E-01
    0.1300000000E+04    0.5388478418E+00    0.1116932470E+00    0.3319800131E+00    0.2536531908E-01    0.7116438300E-01
    0.1500000000E+04    0.5465746653E+00    0.1120491423E+00    0.3459546657E+00    0.2531967617E-01    0.7219898075E-01
    0.1700000000E+04    0.5526050290E+00    0.1119900614E+00    0.3578944193E+00    0.2519414425E-01    0.7300838141E-01
    0.1900000000E+04    0.5574384855E+00    0.1116595791E+00    0.3682779584E+00    0.2501913125E-01    0.7365870741E-01
    0.2100000000E+04    0.5613968685E+00    0.1111489917E+00    0.3774373968E+00    0.2481354311E-01    0.7419259178E-01
    0.2300000000E+04    0.5646966170E+00    0.1105182822E+00    0.3856115920E+00    0.2458950122E-01    0.7463872896E-01
    0.2500000000E+04    0.5674885205E+00    0.1098078985E+00    0.3929775103E+00    0.2435495955E-01    0.7501712594E-01
    0.2700000000E+04    0.5698807812E+00    0.1090456861E+00    0.3996695740E+00    0.2411522659E-01    0.7534215073E-01
    0.2900000000E+04    0.5719530144E+00    0.1082511315E+00    0.4057920793E+00    0.2387388550E-01    0.7562438382E-01
    0.3100000000E+04    0.5737650787E+00    0.1074380440E+00    0.4114274390E+00    0.2363336889E-01    0.7587178658E-01
    0.3300000000E+04    0.5753628303E+00    0.1066163003E+00    0.4166418172E+00    0.2339532780E-01    0.7609046296E-01
    0.3500000000E+04    0.5767819812E+00    0.1057930058E+00    0.4214890771E+00    0.2316087435E-01    0.7628517044E-01
    0.3700000000E+04    0.5780507503E+00    0.1049732844E+00    0.4260136111E+00    0.2293074448E-01    0.7645967137E-01
    0.3900000000E+04    0.5791917267E+00    0.1041608263E+00    0.4302524088E+00    0.2270540906E-01    0.7661697992E-01
    0.4100000000E+04    0.5802232034E+00    0.1033582727E+00    0.4342365950E+00    0.2248515100E-01    0.7675953902E-01
    0.4300000000E+04    0.5811601508E+00    0.1025674911E+00    0.4379925915E+00    0.2227011928E-01    0.7688934949E-01
    0.4500000000E+04    0.5820149360E+00    0.1017897744E+00    0.4415430076E+00    0.2206036743E-01    0.7700806559E-01
    0.4700000000E+04    0.5827978646E+00    0.1010259861E+00    0.4449073306E+00    0.2185588109E-01    0.7711706695E-01
    0.4900000000E+04    0.5835175920E+00    0.1002766678E+00    0.4481024688E+00    0.2165659790E-01    0.7721751325E-01
    0.1000000000E+04    0.5221332642E+00    0.1098231498E+00    0.3055161592E+00    0.2516278330E-01    0.6893323807E-01
    0.3000000000E+04    0.5728884259E+00    0.1078462107E+00    0.4086661891E+00    0.2375340595E-01    0.7575202091E-01
    0.5000000000E+04    0.5838560885E+00    0.9990753640E-01    0.4496412799E+00    0.2155887854E-01    0.7726484106E-01
    0.7000000000E+04    0.5886072997E+00    0.9328436067E-01    0.4743011203E+00    0.1984630612E-01    0.7793674857E-01
    0.9000000000E+04    0.5912525191E+00    0.8790697021E-01    0.4915383411E+00    0.1849933368E-01    0.7832003166E-01
    0.1100000000E+05    0.5929350121E+00    0.8346059918E-01    0.5045820526E+00    0.1740819326E-01    0.7856969300E-01
    0.1300000000E+05    0.5940979516E+00    0.7970745306E-01    0.5149548721E+00    0.1650096920E-01    0.7874634036E-01
    0.1500000000E+05    0.5949489350E+00    0.7648224624E-01    0.5234905042E+00    0.1573059885E-01    0.7887860650E-01
    0.1700000000E+05    0.5955980794E+00    0.7366907971E-01    0.5306924823E+00    0.1506522863E-01    0.7898180687E-01
    0.1900000000E+05    0.5961091968E+00    0.7118468611E-01    0.5368868876E+00    0.1448252070E-01    0.7906489050E-01
    0.2100000000E+05    0.5965218039E+00    0.6896769280E-01    0.5422962221E+00    0.1396630602E-01    0.7913344491E-01
    0.2300000000E+05    0.5968616722E+00    0.6697178691E-01    0.5470786265E+00    0.1350455654E-01    0.7919114387E-01
    0.2500000000E+05    0.5971463216E+00    0.6516128179E-01    0.5513502345E+00    0.1308811255E-01    0.7924050520E-01
    0.2700000000E+05    0.5973880756E+00    0.6350816904E-01    0.5551986530E+00    0.1270985644E-01    0.7928331418E-01
    0.2900000000E+05    0.5975958531E+00    0.6199010883E-01    0.5586914706E+00    0.1236415990E-01    0.7932087324E-01
    0.3100000000E+05    0.5977762670E+00    0.6058902728E-01    0.5618818366E+00    0.1204650384E-01    0.7935415575E-01
    0.3300000000E+05    0.5979343234E+00    0.5929011640E-01    0.5648122373E+00    0.1175321073E-01    0.7938390441E-01
    0.3500000000E+05    0.5980738812E+00    0.5808110702E-01    0.5675171239E+00    0.1148125210E-01    0.7941069622E-01
    0.3700000000E+05    0.5981979625E+00    0.5695173087E-01    0.5700247840E+00    0.1122810741E-01    0.7943498659E-01
    0.3900000000E+05    0.5983089674E+00    0.5589331622E-01    0.5723587041E+00    0.1099165883E-01    0.7945714000E-01
    0.4100000000E+05    0.5984088260E+00    0.5489847953E-01    0.5745385780E+00    0.1077011158E-01    0.7947745184E-01
    0.4300000000E+05    0.5984991079E+00    0.5396088728E-01    0.5765810665E+00    0.1056193282E-01    0.7949616415E-01
    0.4500000000E+05    0.5985811024E+00    0.5307506971E-01    0.5785003784E+00    0.1036580414E-01    0.7951347730E-01
    0.4700000000E+05    0.5986558784E+00    0.5223627370E-01    0.5803087190E+00    0.1018058420E-01    0.7952955864E-01
    0.4900000000E+05    0.5987243294E+00    0.5144034524E-01    0.5820166431E+00    0.1000527910E-01    0.7954454914E-01
    0.1000000000E+05    0.5921781435E+00    0.8558426032E-01    0.4984663646E+00    0.1792700937E-01    0.7845665776E-01
    0.3000000000E+05    0.5976891362E+00    0.6127593816E-01    0.5603215899E+00    0.1220207382E-01    0.7933799813E-01
    0.5000000000E+05    0.5987564229E+00    0.5105729838E-01    0.5828358658E+00    0.9921068383E-02    0.7955167343E-01
    0.7000000000E+05    0.5991989020E+00    0.4495646009E-01    0.5956581772E+00    0.8593694381E-02    0.7965826488E-01
    0.9000000000E+05    0.5994365140E+00    0.4075290179E-01    0.6042649412E+00    0.7694681382E-02    0.7972570964E-01
    0.1100000000E+06    0.5995825241E+00    0.3761641000E-01    0.6105765331E+00    0.7032507657E-02    0.7977383797E-01
    0.1300000000E+06    0.5996800203E+00    0.3515339474E-01    0.6154706761E+00    0.6517894985E-02    0.7981075536E-01
    0.1500000000E+06    0.5997488909E+00    0.3314896214E-01    0.6194149059E+00    0.6102718703E-02    0.7984046334E-01
    0.1700000000E+06    0.5997995505E+00    0.3147411248E-01    0.6226848187E+00    0.5758386788E-02    0.7986519507E-01
    0.1900000000E+06    0.5998379624E+00    0.3004591916E-01    0.6254550849E+00    0.5466677760E-02    0.7988630943E-01
    0.2100000000E+06    0.5998677772E+00    0.2880823163E-01    0.6278426266E+00    0.5215345512E-02    0.7990468836E-01
    0.2300000000E+06    0.5998913495E+00    0.2772144579E-01    0.6299291279E+00    0.4995809165E-02    0.7992093347E-01
    0.2500000000E+06    0.5999102624E+00    0.2675669201E-01    0.6317736515E+00    0.4801850166E-02    0.7993547186E-01
    0.2700000000E+06    0.5999256172E+00    0.2589234545E-01    0.6334201298E+00    0.4628835050E-02    0.7994861669E-01
    0.2900000000E+06    0.5999382023E+00    0.2511183383E-01    0.6349020242E+00    0.4473229997E-02    0.7996060387E-01
    0.3100000000E+06    0.5999485959E+00    0.2440220743E-01    0.6362453399E+00    0.4332285828E-02    0.7997161520E-01
    0.3300000000E+06    0.5999572309E+00    0.2375317605E-01    0.6374706411E+00    0.4203826880E-02    0.7998179355E-01
    0.3500000000E+06    0.5999644374E+00    0.2315644236E-01    0.6385944364E+00    0.4086105497E-02    0.7999125308E-01
    0.3700000000E+06    0.5999704709E+00    0.2260522944E-01    0.6396301562E+00    0.3977699315E-02    0.8000008634E-01
    0.3900000000E+06    0.5999755320E+00    0.2209393869E-01    0.6405888551E+00    0.3877437187E-02    0.8000836940E-01
    0.4100000000E+06    0.5999797803E+00    0.2161789768E-01    0.6414797280E+00    0.3784344768E-02    0.8001616545E-01
    0.4300000000E+06    0.5999833442E+00    0.2117317116E-01    0.6423104953E+00    0.3697603864E-02    0.8002352752E-01
    0.4500000000E+06    0.5999863276E+00    0.2075641728E-01    0.6430876947E+00    0.3616521605E-02    0.8003050055E-01
    0.4700000000E+06    0.5999888160E+00    0.2036477680E-01    0.6438169045E+00    0.3540506758E-02    0.8003712295E-01
    0.4900000000E+06    0.5999908797E+00    0.1999578660E-01    0.6445029184E+00    0.3469051294E-02    0.8004342775E-01
    0.1000000000E+06    0.5995174584E+00    0.3908178741E-01    0.6076390441E+00    0.7340938782E-02    0.7975153975E-01
    0.3000000000E+06    0.5999436431E+00    0.2474885650E-01    0.6355896103E+00    0.4401072765E-02    0.7996622181E-01
    0.5000000000E+06    0.5999917711E+00    0.1981910687E-01    0.6448310446E+00    0.3434893690E-02    0.8004647015E-01
    0.7000000000E+06    0.5999974125E+00    0.1707955907E-01    0.6498899452E+00    0.2910156899E-02    0.8009595098E-01
    0.9000000000E+06    0.5999923372E+00    0.1526719275E-01    0.6532069151E+00    0.2568426560E-02    0.8013171248E-01
    0.1100000000E+07    0.5999839117E+00    0.1395113254E-01    0.6556006777E+00    0.2323237776E-02    0.8015970799E-01
    0.1300000000E+07    0.5999744909E+00    0.1293794073E-01    0.6574349855E+00    0.2136301567E-02    0.8018270779E-01
    0.1500000000E+07    0.5999649553E+00    0.1212590384E-01    0.6588996940E+00    0.1987699102E-02    0.8020222475E-01
    0.1700000000E+07    0.5999556561E+00    0.1145565723E-01    0.6601049830E+00    0.1865906828E-02    0.8021917508E-01
    0.1900000000E+07    0.5999467308E+00    0.1088987292E-01    0.6611198167E+00    0.1763732998E-02    0.8023415561E-01
    0.2100000000E+07    0.5999382240E+00    0.1040372607E-01    0.6619898862E+00    0.1676425957E-02    0.8024757669E-01
    0.2300000000E+07    0.5999301382E+00    0.9979968075E-02    0.6627468357E+00    0.1600703288E-02    0.8025973259E-01
    0.2500000000E+07    0.5999224571E+00    0.9606185102E-02    0.6634133764E+00    0.1534214920E-02    0.8027084145E-01
    0.2700000000E+07    0.5999151568E+00    0.9273180780E-02    0.6640062919E+00    0.1475228104E-02    0.8028106948E-01
    0.2900000000E+07    0.5999082108E+00    0.8973975368E-02    0.6645382927E+00    0.1422433434E-02    0.8029054623E-01
    0.3100000000E+07    0.5999015926E+00    0.8703161440E-02    0.6650192069E+00    0.1374820523E-02    0.8029937462E-01
    0.3300000000E+07    0.5998952771E+00    0.8456474940E-02    0.6654567707E+00    0.1331595579E-02    0.8030763778E-01
    0.3500000000E+07    0.5998892410E+00    0.8230501308E-02    0.6658571692E+00    0.1292125151E-02    0.8031540380E-01
    0.3700000000E+07    0.5998834628E+00    0.8022469085E-02    0.6662254150E+00    0.1255896761E-02    0.8032272918E-01
    0.3900000000E+07    0.5998779232E+00    0.7830101760E-02    0.6665656202E+00    0.1222490737E-02    0.8032966130E-01
    0.4100000000E+07    0.5998726045E+00    0.7651509375E-02    0.6668811941E+00    0.1191559674E-02    0.8033624028E-01
    0.4300000000E+07    0.5998674907E+00    0.7485107827E-02    0.6671749910E+00    0.1162813182E-02    0.8034250040E-01
    0.4500000000E+07    0.5998625674E+00    0.7329557898E-02    0.6674494213E+00    0.1136006401E-02    0.8034847119E-01
    0.4700000000E+07    0.5998578216E+00    0.7183718520E-02    0.6677065367E+00    0.1110931214E-02    0.8035417824E-01
    0.4900000000E+07    0.5998532412E+00    0.7046610519E-02    0.6679480960E+00    0.1087409455E-02    0.8035964389E-01
    0.1000000000E+07    0.5999883419E+00    0.1456230152E-01    0.6544905916E+00    0.2436778307E-02    0.8014646591E-01
    0.3000000000E+07    0.5999048623E+00    0.8835308808E-02    0.6647846104E+00    0.1398033188E-02    0.8029503588E-01
    0.5000000000E+07    0.5998510098E+00    0.6981061932E-02    0.6680635247E+00    0.1076182289E-02    0.8036229243E-01
    0.7000000000E+07    0.5998129186E+00    0.5972927652E-02    0.6698341510E+00    0.9050624437E-03    0.8040630621E-01
    0.9000000000E+07    0.5997835320E+00    0.5314272888E-02    0.6709860742E+00    0.7949676067E-03    0.8043908897E-01
    0.1100000000E+08    0.5997596257E+00    0.4839983160E-02    0.6718130362E+00    0.7166170962E-03    0.8046522763E-01
    0.1300000000E+08    0.5997394807E+00    0.4477079902E-02    0.6724442949E+00    0.6572371319E-03    0.8048696966E-01
    0.1500000000E+08    0.5997220755E+00    0.4187605886E-02    0.6729468615E+00    0.6102516058E-03    0.8050558521E-01
    0.1700000000E+08    0.5997067547E+00    0.3949589051E-02    0.6733594276E+00    0.5718859535E-03    0.8052186270E-01
    0.1900000000E+08    0.5996930726E+00    0.3749303181E-02    0.6737061137E+00    0.5397991577E-03    0.8053632535E-01
    0.2100000000E+08    0.5996807127E+00    0.3577668195E-02    0.6740028477E+00    0.5124523634E-03    0.8054933822E-01
    0.2300000000E+08    0.5996694418E+00    0.3428403242E-02    0.6742606304E+00    0.4887870819E-03    0.8056116617E-01
    0.2500000000E+08    0.5996590837E+00    0.3297005223E-02    0.6744873383E+00    0.4680482513E-03    0.8057200751E-01
    0.2700000000E+08    0.5996495017E+00    0.3180149202E-02    0.6746887804E+00    0.4496809182E-03    0.8058201453E-01
