  Pressure (Pa) 22mC5-400 (mol/kg) 2mC6-400 (mol/kg) 3mC6-400 (mol/kg) 33mC5-400 (mol/kg) 23mC5-400 (mol/kg)
    0.1000000000E+01    0.4220794333E-02    0.3181203695E-02    0.1059382452E-02    0.3237444836E-03    0.9264095548E-04
    0.3000000000E+01    0.1242217841E-01    0.9347938694E-02    0.3141787498E-02    0.9512014138E-03    0.2726546473E-03
    0.5000000000E+01    0.2032083327E-01    0.1526707622E-01    0.5177218414E-02    0.1553305418E-02    0.4460287528E-03
    0.7000000000E+01    0.2793618979E-01    0.2095341574E-01    0.7167402819E-02    0.2131566326E-02    0.6131893679E-03
    0.9000000000E+01    0.3528600522E-01    0.2642055628E-01    0.9113982892E-02    0.2687371860E-02    0.7745258915E-03
    0.1100000000E+02    0.4238653951E-01    0.3168101913E-01    0.1101852063E-01    0.3222000089E-02    0.9303948915E-03
    0.1300000000E+02    0.4925270992E-01    0.3674635546E-01    0.1288250273E-01    0.3736630359E-02    0.1081123495E-02
    0.1500000000E+02    0.5589822690E-01    0.4162724117E-01    0.1470734509E-01    0.4232352932E-02    0.1227012366E-02
    0.1700000000E+02    0.6233571385E-01    0.4633356063E-01    0.1649439701E-01    0.4710177486E-02    0.1368338333E-02
    0.1900000000E+02    0.6857681300E-01    0.5087448077E-01    0.1824494512E-01    0.5171040648E-02    0.1505356712E-02
    0.2100000000E+02    0.7463227911E-01    0.5525851694E-01    0.1996021696E-01    0.5615812682E-02    0.1638303354E-02
    0.2300000000E+02    0.8051206271E-01    0.5949359142E-01    0.2164138442E-01    0.6045303441E-02    0.1767396479E-02
    0.2500000000E+02    0.8622538417E-01    0.6358708571E-01    0.2328956682E-01    0.6460267675E-02    0.1892838296E-02
    0.2700000000E+02    0.9178079977E-01    0.6754588720E-01    0.2490583391E-01    0.6861409783E-02    0.2014816447E-02
    0.2900000000E+02    0.9718626067E-01    0.7137643103E-01    0.2649120856E-01    0.7249388068E-02    0.2133505310E-02
    0.3100000000E+02    0.1024491658E+00    0.7508473773E-01    0.2804666936E-01    0.7624818556E-02    0.2249067150E-02
    0.3300000000E+02    0.1075764092E+00    0.7867644696E-01    0.2957315297E-01    0.7988278440E-02    0.2361653163E-02
    0.3500000000E+02    0.1125744228E+00    0.8215684807E-01    0.3107155642E-01    0.8340309184E-02    0.2471404409E-02
    0.3700000000E+02    0.1174492147E+00    0.8553090765E-01    0.3254273914E-01    0.8681419321E-02    0.2578452653E-02
    0.3900000000E+02    0.1222064038E+00    0.8880329443E-01    0.3398752497E-01    0.9012086997E-02    0.2682921127E-02
    0.4100000000E+02    0.1268512508E+00    0.9197840193E-01    0.3540670400E-01    0.9332762268E-02    0.2784925213E-02
    0.4300000000E+02    0.1313886874E+00    0.9506036899E-01    0.3680103426E-01    0.9643869194E-02    0.2884573065E-02
    0.4500000000E+02    0.1358233408E+00    0.9805309845E-01    0.3817124338E-01    0.9945807738E-02    0.2981966172E-02
    0.4700000000E+02    0.1401595580E+00    0.1009602742E+00    0.3951803012E-01    0.1023895551E-01    0.3077199871E-02
    0.4900000000E+02    0.1444014263E+00    0.1037853766E+00    0.4084206577E-01    0.1052366933E-01    0.3170363809E-02
    0.1000000000E+02    0.3886647038E-01    0.2907587890E-01    0.1007141243E-01    0.2957257233E-02    0.8531227332E-03
    0.3000000000E+02    0.9983509051E-01    0.7324550299E-01    0.2727261869E-01    0.7438634839E-02    0.2191667410E-02
    0.5000000000E+02    0.1464881909E+00    0.1051681859E+00    0.4149575454E-01    0.1066296969E-01    0.3216196182E-02
    0.7000000000E+02    0.1840943903E+00    0.1292274367E+00    0.5351944235E-01    0.1307922871E-01    0.4042258627E-02
    0.9000000000E+02    0.2155164001E+00    0.1479196035E+00    0.6386777866E-01    0.1494362650E-01    0.4732642707E-02
    0.1100000000E+03    0.2424547379E+00    0.1627828109E+00    0.7290715447E-01    0.1641431264E-01    0.5324647876E-02
    0.1300000000E+03    0.2659914172E+00    0.1748209446E+00    0.8090187013E-01    0.1759466382E-01    0.5842008249E-02
    0.1500000000E+03    0.2868537196E+00    0.1847186272E+00    0.8804768262E-01    0.1855527027E-01    0.6300677481E-02
    0.1700000000E+03    0.3055529267E+00    0.1929592111E+00    0.9449288672E-01    0.1934602144E-01    0.6711871461E-02
    0.1900000000E+03    0.3224621571E+00    0.1998936670E+00    0.1003520313E+00    0.2000317194E-01    0.7083775519E-02
    0.2100000000E+03    0.3378624187E+00    0.2057828378E+00    0.1057151150E+00    0.2055368138E-01    0.7422554525E-02
    0.2300000000E+03    0.3519710957E+00    0.2108244266E+00    0.1106539128E+00    0.2101798962E-01    0.7732977735E-02
    0.2500000000E+03    0.3649602538E+00    0.2151708216E+00    0.1152264315E+00    0.2141185213E-01    0.8018820300E-02
    0.2700000000E+03    0.3769687955E+00    0.2189412109E+00    0.1194801089E+00    0.2174758883E-01    0.8283129909E-02
    0.2900000000E+03    0.3881107713E+00    0.2222300189E+00    0.1234541551E+00    0.2203495477E-01    0.8528409080E-02
    0.3100000000E+03    0.3984812083E+00    0.2251129070E+00    0.1271812926E+00    0.2228176015E-01    0.8756743026E-02
    0.3300000000E+03    0.4081602951E+00    0.2276511226E+00    0.1306890695E+00    0.2249432013E-01    0.8969891447E-02
    0.3500000000E+03    0.4172164491E+00    0.2298947013E+00    0.1340008629E+00    0.2267778643E-01    0.9169355813E-02
    0.3700000000E+03    0.4257086077E+00    0.2318848618E+00    0.1371366554E+00    0.2283639553E-01    0.9356429625E-02
    0.3900000000E+03    0.4336879699E+00    0.2336558184E+00    0.1401136432E+00    0.2297365675E-01    0.9532236617E-02
    0.4100000000E+03    0.4411993413E+00    0.2352361703E+00    0.1429467161E+00    0.2309249646E-01    0.9697760252E-02
    0.4300000000E+03    0.4482821870E+00    0.2366499777E+00    0.1456488406E+00    0.2319536996E-01    0.9853866838E-02
    0.4500000000E+03    0.4549714689E+00    0.2379176035E+00    0.1482313685E+00    0.2328434894E-01    0.1000132387E-01
    0.4700000000E+03    0.4612983174E+00    0.2390563773E+00    0.1507042870E+00    0.2336119064E-01    0.1014081479E-01
    0.4900000000E+03    0.4672905782E+00    0.2400811240E+00    0.1530764229E+00    0.2342739283E-01    0.1027295094E-01
    0.1000000000E+03    0.2294678412E+00    0.1557577279E+00    0.6853264601E-01    0.1572076227E-01    0.5039227641E-02
    0.3000000000E+03    0.3933871130E+00    0.2237180793E+00    0.1253467575E+00    0.2216300216E-01    0.8644577482E-02
    0.5000000000E+03    0.4701691538E+00    0.2405547911E+00    0.1542271807E+00    0.2345691225E-01    0.1033643478E-01
    0.7000000000E+03    0.5150906222E+00    0.2463523140E+00    0.1734586736E+00    0.2371922779E-01    0.1132793629E-01
    0.9000000000E+03    0.5442145868E+00    0.2483595031E+00    0.1879141030E+00    0.2366823441E-01    0.1197185936E-01
    0.1100000000E+04    0.5644191693E+00    0.2487243939E+00    0.1995380946E+00    0.2350290269E-01    0.1241936299E-01
    0.1300000000E+04    0.5791496944E+00    0.2482748479E+00    0.2092904377E+00    0.2329319232E-01    0.1274621260E-01
    0.1500000000E+04    0.5903079754E+00    0.2473880814E+00    0.2177124012E+00    0.2306759608E-01    0.1299425628E-01
    0.1700000000E+04    0.5990208894E+00    0.2462567295E+00    0.2251385747E+00    0.2283884132E-01    0.1318830526E-01
    0.1900000000E+04    0.6059941681E+00    0.2449873938E+00    0.2317901337E+00    0.2261291064E-01    0.1334390746E-01
    0.2100000000E+04    0.6116900796E+00    0.2436425627E+00    0.2378209477E+00    0.2239264497E-01    0.1347125322E-01
    0.2300000000E+04    0.6164228979E+00    0.2422604125E+00    0.2433424500E+00    0.2217933005E-01    0.1357727468E-01
    0.2500000000E+04    0.6204130912E+00    0.2408649510E+00    0.2484379969E+00    0.2197344976E-01    0.1366683782E-01
    0.2700000000E+04    0.6238195225E+00    0.2394715605E+00    0.2531716244E+00    0.2177506528E-01    0.1374345105E-01
    0.2900000000E+04    0.6267593448E+00    0.2380901875E+00    0.2575936330E+00    0.2158401470E-01    0.1380970329E-01
    0.3100000000E+04    0.6293207142E+00    0.2367272572E+00    0.2617442860E+00    0.2140002167E-01    0.1386754385E-01
    0.3300000000E+04    0.6315711558E+00    0.2353868646E+00    0.2656563380E+00    0.2122275599E-01    0.1391846680E-01
    0.3500000000E+04    0.6335632112E+00    0.2340715359E+00    0.2693568114E+00    0.2105186768E-01    0.1396363542E-01
    0.3700000000E+04    0.6353383411E+00    0.2327827284E+00    0.2728682746E+00    0.2088700626E-01    0.1400396824E-01
    0.3900000000E+04    0.6369296764E+00    0.2315211651E+00    0.2762097809E+00    0.2072783142E-01    0.1404019975E-01
    0.4100000000E+04    0.6383639935E+00    0.2302870620E+00    0.2793975712E+00    0.2057401857E-01    0.1407292390E-01
    0.4300000000E+04    0.6396631567E+00    0.2290802861E+00    0.2824456083E+00    0.2042526160E-01    0.1410262605E-01
    0.4500000000E+04    0.6408451873E+00    0.2279004646E+00    0.2853659891E+00    0.2028127376E-01    0.1412970648E-01
    0.4700000000E+04    0.6419250663E+00    0.2267470634E+00    0.2881692678E+00    0.2014178754E-01    0.1415449817E-01
    0.4900000000E+04    0.6429153454E+00    0.2256194412E+00    0.2908647101E+00    0.2000655404E-01    0.1417728028E-01
    0.1000000000E+04    0.5551665358E+00    0.2486796629E+00    0.1940063387E+00    0.2359399789E-01    0.1221433126E-01
    0.3000000000E+04    0.6280827088E+00    0.2374061170E+00    0.2597006796E+00    0.2149115586E-01    0.1383957267E-01
    0.5000000000E+04    0.6433802611E+00    0.2250650778E+00    0.2921745872E+00    0.1994045912E-01    0.1418799288E-01
    0.7000000000E+04    0.6498459572E+00    0.2151491449E+00    0.3142768198E+00    0.1879387462E-01    0.1433844353E-01
    0.9000000000E+04    0.6533929149E+00    0.2070060915E+00    0.3310988352E+00    0.1789128329E-01    0.1442274456E-01
    0.1100000000E+05    0.6556280100E+00    0.2001332210E+00    0.3446826429E+00    0.1715007994E-01    0.1447698807E-01
    0.1300000000E+05    0.6571635117E+00    0.1942029821E+00    0.3560663634E+00    0.1652318436E-01    0.1451502805E-01
    0.1500000000E+05    0.6582825922E+00    0.1889969745E+00    0.3658539161E+00    0.1598136493E-01    0.1454331898E-01
    0.1700000000E+05    0.6591339991E+00    0.1843637584E+00    0.3744290398E+00    0.1550526052E-01    0.1456527605E-01
    0.1900000000E+05    0.6598032748E+00    0.1801944363E+00    0.3820513383E+00    0.1508139706E-01    0.1458287755E-01
    0.2100000000E+05    0.6603430703E+00    0.1764082255E+00    0.3889048826E+00    0.1470002562E-01    0.1459734993E-01
    0.2300000000E+05    0.6607875526E+00    0.1729436034E+00    0.3951250531E+00    0.1435386817E-01    0.1460949476E-01
    0.2500000000E+05    0.6611598546E+00    0.1697526610E+00    0.4008143854E+00    0.1403734972E-01    0.1461985864E-01
    0.2700000000E+05    0.6614761925E+00    0.1667973753E+00    0.4060524338E+00    0.1374610687E-01    0.1462882749E-01
    0.2900000000E+05    0.6617482693E+00    0.1640470709E+00    0.4109021781E+00    0.1347666163E-01    0.1463668174E-01
    0.3100000000E+05    0.6619847413E+00    0.1614766466E+00    0.4154143380E+00    0.1322619786E-01    0.1464363033E-01
    0.3300000000E+05    0.6621921485E+00    0.1590653046E+00    0.4196303649E+00    0.1299240408E-01    0.1464983219E-01
    0.3500000000E+05    0.6623755232E+00    0.1567956225E+00    0.4235845724E+00    0.1277336019E-01    0.1465541046E-01
    0.3700000000E+05    0.6625388010E+00    0.1546528619E+00    0.4273056862E+00    0.1256745428E-01    0.1466046213E-01
    0.3900000000E+05    0.6626851034E+00    0.1526244457E+00    0.4308179947E+00    0.1237332038E-01    0.1466506464E-01
    0.4100000000E+05    0.6628169383E+00    0.1506995563E+00    0.4341422168E+00    0.1218979112E-01    0.1466928063E-01
    0.4300000000E+05    0.6629363430E+00    0.1488688229E+00    0.4372961685E+00    0.1201586127E-01    0.1467316136E-01
    0.4500000000E+05    0.6630449902E+00    0.1471240754E+00    0.4402952792E+00    0.1185065921E-01    0.1467674917E-01
    0.4700000000E+05    0.6631442656E+00    0.1454581485E+00    0.4431529995E+00    0.1169342443E-01    0.1468007938E-01
    0.4900000000E+05    0.6632353270E+00    0.1438647239E+00    0.4458811243E+00    0.1154348955E-01    0.1468318170E-01
    0.1000000000E+05    0.6546245767E+00    0.2034345747E+00    0.3382165464E+00    0.1750400650E-01    0.1445249726E-01
    0.3000000000E+05    0.6618705059E+00    0.1627407622E+00    0.4131976765E+00    0.1334921185E-01    0.1464025834E-01
    0.5000000000E+05    0.6632780883E+00    0.1430934251E+00    0.4471998867E+00    0.1147107287E-01    0.1468465542E-01
    0.7000000000E+05    0.6638738598E+00    0.1303976303E+00    0.4687536645E+00    0.1029371076E-01    0.1470665658E-01
    0.9000000000E+05    0.6642019158E+00    0.1211629486E+00    0.4842713281E+00    0.9454227852E-02    0.1472053549E-01
    0.1100000000E+06    0.6644091271E+00    0.1139867198E+00    0.4962500515E+00    0.8811483152E-02    0.1473042277E-01
    0.1300000000E+06    0.6645516170E+00    0.1081671870E+00    0.5059178863E+00    0.8296372120E-02    0.1473799905E-01
    0.1500000000E+06    0.6646554498E+00    0.1033044688E+00    0.5139667808E+00    0.7870148523E-02    0.1474409160E-01
    0.1700000000E+06    0.6647343699E+00    0.9914989658E-01    0.5208235557E+00    0.7509026973E-02    0.1474916119E-01
    0.1900000000E+06    0.6647963076E+00    0.9553876034E-01    0.5267691790E+00    0.7197421137E-02    0.1475348779E-01
    0.2100000000E+06    0.6648461571E+00    0.9235660961E-01    0.5319979247E+00    0.6924599729E-02    0.1475725291E-01
    0.2300000000E+06    0.6648871015E+00    0.8952086503E-01    0.5366494013E+00    0.6682881649E-02    0.1476058025E-01
    0.2500000000E+06    0.6649212997E+00    0.8697010180E-01    0.5408271014E+00    0.6466593952E-02    0.1476355758E-01
    0.2700000000E+06    0.6649502672E+00    0.8465746757E-01    0.5446097357E+00    0.6271437066E-02    0.1476624921E-01
    0.2900000000E+06    0.6649750987E+00    0.8254646255E-01    0.5480584685E+00    0.6094080773E-02    0.1476870356E-01
    0.3100000000E+06    0.6649966049E+00    0.8060813534E-01    0.5512217073E+00    0.5931897495E-02    0.1477095794E-01
    0.3300000000E+06    0.6650153982E+00    0.7881916222E-01    0.5541383731E+00    0.5782780692E-02    0.1477304167E-01
    0.3500000000E+06    0.6650319502E+00    0.7716049682E-01    0.5568401930E+00    0.5645017878E-02    0.1477497814E-01
    0.3700000000E+06    0.6650466300E+00    0.7561639913E-01    0.5593533446E+00    0.5517199773E-02    0.1477678633E-01
    0.3900000000E+06    0.6650597299E+00    0.7417372309E-01    0.5616996599E+00    0.5398153959E-02    0.1477848185E-01
    0.4100000000E+06    0.6650714851E+00    0.7282138496E-01    0.5638975212E+00    0.5286895573E-02    0.1478007763E-01
    0.4300000000E+06    0.6650820864E+00    0.7154995997E-01    0.5659625406E+00    0.5182590072E-02    0.1478158455E-01
    0.4500000000E+06    0.6650916905E+00    0.7035137235E-01    0.5679080804E+00    0.5084524699E-02    0.1478301181E-01
    0.4700000000E+06    0.6651004272E+00    0.6921865376E-01    0.5697456585E+00    0.4992086352E-02    0.1478436728E-01
    0.4900000000E+06    0.6651084048E+00    0.6814575307E-01    0.5714852669E+00    0.4904744198E-02    0.1478565773E-01
    0.1000000000E+06    0.6643160607E+00    0.1173712168E+00    0.4906087509E+00    0.9113577439E-02    0.1472584348E-01
    0.3000000000E+06    0.6649862253E+00    0.8155728580E-01    0.5496731505E+00    0.6011234678E-02    0.1476985376E-01
    0.5000000000E+06    0.6651121379E+00    0.6763005635E-01    0.5723211012E+00    0.4862837351E-02    0.1478628044E-01
    0.7000000000E+06    0.6651629939E+00    0.5946580947E-01    0.5855264148E+00    0.4206004985E-02    0.1479640774E-01
    0.9000000000E+06    0.6651895646E+00    0.5388397005E-01    0.5945259803E+00    0.3764376197E-02    0.1480372706E-01
    0.1100000000E+07    0.6652054132E+00    0.4973575997E-01    0.6011992584E+00    0.3440313430E-02    0.1480945702E-01
    0.1300000000E+07    0.6652156552E+00    0.4648574731E-01    0.6064188190E+00    0.3189004645E-02    0.1481416462E-01
    0.1500000000E+07    0.6652226321E+00    0.4384452221E-01    0.6106549930E+00    0.2986515335E-02    0.1481815944E-01
    0.1700000000E+07    0.6652275599E+00    0.4163949030E-01    0.6141876752E+00    0.2818710334E-02    0.1482162899E-01
    0.1900000000E+07    0.6652311290E+00    0.3976020449E-01    0.6171956720E+00    0.2676618670E-02    0.1482469539E-01
    0.2100000000E+07    0.6652337584E+00    0.3813212569E-01    0.6197994870E+00    0.2554229223E-02    0.1482744264E-01
    0.2300000000E+07    0.6652357160E+00    0.3670280897E-01    0.6220838038E+00    0.2447339338E-02    0.1482993095E-01
    0.2500000000E+07    0.6652371803E+00    0.3543409589E-01    0.6241101736E+00    0.2352908500E-02    0.1483220496E-01
    0.2700000000E+07    0.6652382743E+00    0.3429744535E-01    0.6259245925E+00    0.2268674168E-02    0.1483429868E-01
    0.2900000000E+07    0.6652390852E+00    0.3327100981E-01    0.6275622408E+00    0.2192912528E-02    0.1483623864E-01
    0.3100000000E+07    0.6652396764E+00    0.3233773294E-01    0.6290505640E+00    0.2124283602E-02    0.1483804588E-01
    0.3300000000E+07    0.6652400948E+00    0.3148407122E-01    0.6304113407E+00    0.2061727634E-02    0.1483973744E-01
    0.3500000000E+07    0.6652403759E+00    0.3069911048E-01    0.6316621106E+00    0.2004393786E-02    0.1484132723E-01
    0.3700000000E+07    0.6652405467E+00    0.2997394069E-01    0.6328171851E+00    0.1951589872E-02    0.1484282683E-01
    0.3900000000E+07    0.6652406284E+00    0.2930120386E-01    0.6338883765E+00    0.1902746148E-02    0.1484424594E-01
    0.4100000000E+07    0.6652406375E+00    0.2867476116E-01    0.6348855353E+00    0.1857388739E-02    0.1484559276E-01
    0.4300000000E+07    0.6652405871E+00    0.2808944358E-01    0.6358169521E+00    0.1815119794E-02    0.1484687431E-01
    0.4500000000E+07    0.6652404877E+00    0.2754086242E-01    0.6366896632E+00    0.1775602458E-02    0.1484809663E-01
    0.4700000000E+07    0.6652403480E+00    0.2702526339E-01    0.6375096854E+00    0.1738549327E-02    0.1484926497E-01
    0.4900000000E+07    0.6652401748E+00    0.2653941270E-01    0.6382821994E+00    0.1703713467E-02    0.1485038389E-01
    0.1000000000E+07    0.6651984114E+00    0.5167231381E-01    0.5980854666E+00    0.3591147832E-02    0.1480674669E-01
    0.3000000000E+07    0.6652394050E+00    0.3279364347E-01    0.6283235933E+00    0.2157778318E-02    0.1483715770E-01
    0.5000000000E+07    0.6652400775E+00    0.2630675229E-01    0.6386520673E+00    0.1687059143E-02    0.1485092610E-01
    0.7000000000E+07    0.6652373301E+00    0.2269671894E-01    0.6443853315E+00    0.1431036030E-02    0.1485993668E-01
    0.9000000000E+07    0.6652341419E+00    0.2030542670E-01    0.6481769255E+00    0.1264090002E-02    0.1486664811E-01
    0.1100000000E+08    0.6652310616E+00    0.1856714492E-01    0.6509298902E+00    0.1144181955E-02    0.1487199933E-01
    0.1300000000E+08    0.6652282034E+00    0.1722772561E-01    0.6530492292E+00    0.1052682565E-02    0.1487645044E-01
    0.1500000000E+08    0.6652255763E+00    0.1615343423E-01    0.6547477949E+00    0.9798930788E-03    0.1488026146E-01
    0.1700000000E+08    0.6652231616E+00    0.1526616192E-01    0.6561497841E+00    0.9201985018E-03    0.1488359379E-01
    0.1900000000E+08    0.6652209352E+00    0.1451676228E-01    0.6573332791E+00    0.8700922624E-03    0.1488655456E-01
    0.2100000000E+08    0.6652188739E+00    0.1387253105E-01    0.6583502037E+00    0.8272561482E-03    0.1488921851E-01
    0.2300000000E+08    0.6652169574E+00    0.1331073240E-01    0.6592366339E+00    0.7900878781E-03    0.1489163985E-01
    0.2500000000E+08    0.6652151680E+00    0.1281499514E-01    0.6600185330E+00    0.7574397167E-03    0.1489385919E-01
    0.2700000000E+08    0.6652134908E+00    0.1237318559E-01    0.6607151351E+00    0.7284650320E-03    0.1489590772E-01
