  Pressure (Pa) 22mC5-400 (mol/kg) 2mC6-400 (mol/kg) 3mC6-400 (mol/kg) 33mC5-400 (mol/kg) 23mC5-400 (mol/kg)
    0.1000000000E+01    0.4230462617E-02    0.7960720143E-03    0.3177919537E-02    0.1944413251E-03    0.1857061370E-03
    0.3000000000E+01    0.1250533418E-01    0.2343467963E-02    0.9423231829E-02    0.5723596138E-03    0.5489580616E-03
    0.5000000000E+01    0.2054175393E-01    0.3833600535E-02    0.1552552815E-01    0.9362438199E-03    0.9017513453E-03
    0.7000000000E+01    0.2835063898E-01    0.5269197698E-02    0.2148981715E-01    0.1286758881E-02    0.1244564706E-02
    0.9000000000E+01    0.3594223932E-01    0.6652824218E-02    0.2732087457E-01    0.1624530090E-02    0.1577847612E-02
    0.1100000000E+02    0.4332618785E-01    0.7986893475E-02    0.3302325671E-01    0.1950145962E-02    0.1902022474E-02
    0.1300000000E+02    0.5051154593E-01    0.9273678275E-02    0.3860131286E-01    0.2264160859E-02    0.2217486645E-02
    0.1500000000E+02    0.5750684504E-01    0.1051532075E-01    0.4405919698E-01    0.2567097394E-02    0.2524614245E-02
    0.1700000000E+02    0.6432012486E-01    0.1171384146E-01    0.4940087857E-01    0.2859448634E-02    0.2823757828E-02
    0.1900000000E+02    0.7095896811E-01    0.1287114771E-01    0.5463015281E-01    0.3141680127E-02    0.3115249916E-02
    0.2100000000E+02    0.7743053255E-01    0.1398904124E-01    0.5975065005E-01    0.3414231761E-02    0.3399404393E-02
    0.2300000000E+02    0.8374158026E-01    0.1506922529E-01    0.6476584468E-01    0.3677519480E-02    0.3676517800E-02
    0.2500000000E+02    0.8989850465E-01    0.1611331109E-01    0.6967906346E-01    0.3931936861E-02    0.3946870506E-02
    0.2700000000E+02    0.9590735520E-01    0.1712282389E-01    0.7449349328E-01    0.4177856572E-02    0.4210727803E-02
    0.2900000000E+02    0.1017738603E+00    0.1809920846E-01    0.7921218844E-01    0.4415631716E-02    0.4468340906E-02
    0.3100000000E+02    0.1075034483E+00    0.1904383427E-01    0.8383807752E-01    0.4645597074E-02    0.4719947871E-02
    0.3300000000E+02    0.1131012671E+00    0.1995800017E-01    0.8837396979E-01    0.4868070257E-02    0.4965774450E-02
    0.3500000000E+02    0.1185722016E+00    0.2084293884E-01    0.9282256124E-01    0.5083352772E-02    0.5206034880E-02
    0.3700000000E+02    0.1239208909E+00    0.2169982080E-01    0.9718644025E-01    0.5291731004E-02    0.5440932606E-02
    0.3900000000E+02    0.1291517433E+00    0.2252975824E-01    0.1014680929E+00    0.5493477142E-02    0.5670660954E-02
    0.4100000000E+02    0.1342689505E+00    0.2333380851E-01    0.1056699081E+00    0.5688850022E-02    0.5895403759E-02
    0.4300000000E+02    0.1392765011E+00    0.2411297735E-01    0.1097941821E+00    0.5878095921E-02    0.6115335941E-02
    0.4500000000E+02    0.1441781924E+00    0.2486822196E-01    0.1138431231E+00    0.6061449296E-02    0.6330624041E-02
    0.4700000000E+02    0.1489776423E+00    0.2560045382E-01    0.1178188555E+00    0.6239133466E-02    0.6541426719E-02
    0.4900000000E+02    0.1536782992E+00    0.2631054131E-01    0.1217234236E+00    0.6411361249E-02    0.6747895222E-02
    0.1000000000E+02    0.3965959084E-01    0.7325908280E-02    0.3018787351E-01    0.1788822024E-02    0.1741048149E-02
    0.3000000000E+02    0.1046554409E+00    0.1857540843E-01    0.8153655543E-01    0.4531570378E-02    0.4594880767E-02
    0.5000000000E+02    0.1559926141E+00    0.2665754111E-01    0.1236496391E+00    0.6495492780E-02    0.6849549501E-02
    0.7000000000E+02    0.1978163430E+00    0.3261681114E-01    0.1588797325E+00    0.7936273238E-02    0.8686846577E-02
    0.9000000000E+02    0.2327096780E+00    0.3709976507E-01    0.1888374895E+00    0.9012636750E-02    0.1022006139E-01
    0.1100000000E+03    0.2623703275E+00    0.4052511748E-01    0.2146633910E+00    0.9827675119E-02    0.1152365819E-01
    0.1300000000E+03    0.2879638377E+00    0.4317412655E-01    0.2371881109E+00    0.1045082967E-01    0.1264876299E-01
    0.1500000000E+03    0.3103199525E+00    0.4524150738E-01    0.2570313646E+00    0.1093029728E-01    0.1363177432E-01
    0.1700000000E+03    0.3300476717E+00    0.4686552570E-01    0.2746651302E+00    0.1130037869E-01    0.1449940900E-01
    0.1900000000E+03    0.3476057265E+00    0.4814651233E-01    0.2904553835E+00    0.1158601012E-01    0.1527179285E-01
    0.2100000000E+03    0.3633474231E+00    0.4915864666E-01    0.3046904157E+00    0.1180565457E-01    0.1596442741E-01
    0.2300000000E+03    0.3775501361E+00    0.4995767745E-01    0.3176005149E+00    0.1197320132E-01    0.1658948351E-01
    0.2500000000E+03    0.3904352780E+00    0.5058611091E-01    0.3293719382E+00    0.1209924556E-01    0.1715667707E-01
    0.2700000000E+03    0.4021821719E+00    0.5107677474E-01    0.3401570205E+00    0.1219196995E-01    0.1767387765E-01
    0.2900000000E+03    0.4129379122E+00    0.5145531482E-01    0.3500816120E+00    0.1225776357E-01    0.1814754087E-01
    0.3100000000E+03    0.4228245185E+00    0.5174197476E-01    0.3592506360E+00    0.1230166434E-01    0.1858302229E-01
    0.3300000000E+03    0.4319442217E+00    0.5195288439E-01    0.3677522972E+00    0.1232767996E-01    0.1898480924E-01
    0.3500000000E+03    0.4403834364E+00    0.5210100574E-01    0.3756613118E+00    0.1233902415E-01    0.1935669509E-01
    0.3700000000E+03    0.4482157899E+00    0.5219683656E-01    0.3830414123E+00    0.1233829262E-01    0.1970191210E-01
    0.3900000000E+03    0.4555044644E+00    0.5224893974E-01    0.3899473125E+00    0.1232759577E-01    0.2002323422E-01
    0.4100000000E+03    0.4623040303E+00    0.5226434579E-01    0.3964262632E+00    0.1230865971E-01    0.2032305747E-01
    0.4300000000E+03    0.4686618978E+00    0.5224886202E-01    0.4025192951E+00    0.1228290392E-01    0.2060346363E-01
    0.4500000000E+03    0.4746194773E+00    0.5220731214E-01    0.4082622201E+00    0.1225150161E-01    0.2086627120E-01
    0.4700000000E+03    0.4802131171E+00    0.5214372351E-01    0.4136864442E+00    0.1221542679E-01    0.2111307646E-01
    0.4900000000E+03    0.4854748663E+00    0.5206147460E-01    0.4188196323E+00    0.1217549147E-01    0.2134528702E-01
    0.1000000000E+03    0.2481115935E+00    0.3892457100E-01    0.2022091227E+00    0.9447870529E-02    0.1089694352E-01
    0.3000000000E+03    0.4179830558E+00    0.5160903775E-01    0.3547547072E+00    0.1228217905E-01    0.1836975578E-01
    0.5000000000E+03    0.4879902783E+00    0.5201426021E-01    0.4212848469E+00    0.1215429297E-01    0.2145631443E-01
    0.7000000000E+03    0.5263019261E+00    0.5058666444E-01    0.4599831123E+00    0.1164433520E-01    0.2314907695E-01
    0.9000000000E+03    0.5503524806E+00    0.4885315620E-01    0.4858619919E+00    0.1110755853E-01    0.2421401480E-01
    0.1100000000E+04    0.5667918144E+00    0.4715423214E-01    0.5046572913E+00    0.1061158926E-01    0.2494351274E-01
    0.1300000000E+04    0.5787082533E+00    0.4557366709E-01    0.5190731010E+00    0.1016654789E-01    0.2547346181E-01
    0.1500000000E+04    0.5877267190E+00    0.4412539435E-01    0.5305660844E+00    0.9769156948E-02    0.2587541386E-01
    0.1700000000E+04    0.5947811299E+00    0.4280266977E-01    0.5399971542E+00    0.9413388126E-02    0.2619052319E-01
    0.1900000000E+04    0.6004451558E+00    0.4159315398E-01    0.5479111267E+00    0.9093281759E-02    0.2644408779E-01
    0.2100000000E+04    0.6050900185E+00    0.4048389116E-01    0.5546713877E+00    0.8803640635E-02    0.2665248993E-01
    0.2300000000E+04    0.6089662355E+00    0.3946292825E-01    0.5605306293E+00    0.8540108095E-02    0.2682679323E-01
    0.2500000000E+04    0.6122488184E+00    0.3851974272E-01    0.5656706264E+00    0.8299075544E-02    0.2697473240E-01
    0.2700000000E+04    0.6150636298E+00    0.3764524282E-01    0.5702258644E+00    0.8077557188E-02    0.2710187406E-01
    0.2900000000E+04    0.6175034483E+00    0.3683162527E-01    0.5742982252E+00    0.7873073509E-02    0.2721232465E-01
    0.3100000000E+04    0.6196381347E+00    0.3607219916E-01    0.5779664668E+00    0.7683553654E-02    0.2730917851E-01
    0.3300000000E+04    0.6215212760E+00    0.3536121647E-01    0.5812925447E+00    0.7507256776E-02    0.2739481095E-01
    0.3500000000E+04    0.6231946492E+00    0.3469372268E-01    0.5843259451E+00    0.7342709596E-02    0.2747107514E-01
    0.3700000000E+04    0.6246912967E+00    0.3406542986E-01    0.5871067279E+00    0.7188657009E-02    0.2753943789E-01
    0.3900000000E+04    0.6260376894E+00    0.3347261075E-01    0.5896677112E+00    0.7044022960E-02    0.2760107517E-01
    0.4100000000E+04    0.6272552789E+00    0.3291201104E-01    0.5920360671E+00    0.6907879320E-02    0.2765694068E-01
    0.4300000000E+04    0.6283616309E+00    0.3238077682E-01    0.5942345093E+00    0.6779420980E-02    0.2770781593E-01
    0.4500000000E+04    0.6293712646E+00    0.3187639466E-01    0.5962821891E+00    0.6657945806E-02    0.2775434738E-01
    0.4700000000E+04    0.6302962845E+00    0.3139664186E-01    0.5981953811E+00    0.6542838388E-02    0.2779707439E-01
    0.4900000000E+04    0.6311468613E+00    0.3093954507E-01    0.5999880145E+00    0.6433556789E-02    0.2783645047E-01
    0.1000000000E+04    0.5592818991E+00    0.4799146221E-01    0.4959347427E+00    0.1085329303E-01    0.2461006294E-01
    0.3000000000E+04    0.6186052630E+00    0.3644551778E-01    0.5761786532E+00    0.7776558838E-02    0.2726228853E-01
    0.5000000000E+04    0.6315469760E+00    0.3071893558E-01    0.6008429376E+00    0.6380948691E-02    0.2785500428E-01
    0.7000000000E+04    0.6371692449E+00    0.2715587181E-01    0.6138090046E+00    0.5543021611E-02    0.2811844839E-01
    0.9000000000E+04    0.6403061271E+00    0.2465550184E-01    0.6220770464E+00    0.4967731641E-02    0.2826873949E-01
    0.1100000000E+05    0.6423053286E+00    0.2277130702E-01    0.6279194679E+00    0.4540947002E-02    0.2836663021E-01
    0.1300000000E+05    0.6436898957E+00    0.2128290773E-01    0.6323217290E+00    0.4207883966E-02    0.2843588686E-01
    0.1500000000E+05    0.6447050502E+00    0.2006705561E-01    0.6357883534E+00    0.3938491503E-02    0.2848773898E-01
    0.1700000000E+05    0.6454809604E+00    0.1904858510E-01    0.6386074764E+00    0.3714709590E-02    0.2852819337E-01
    0.1900000000E+05    0.6460931080E+00    0.1817863727E-01    0.6409569923E+00    0.3524936274E-02    0.2856075978E-01
    0.2100000000E+05    0.6465882662E+00    0.1742385925E-01    0.6429533589E+00    0.3361328794E-02    0.2858762951E-01
    0.2300000000E+05    0.6469969582E+00    0.1676058172E-01    0.6446763824E+00    0.3218367750E-02    0.2861024328E-01
    0.2500000000E+05    0.6473399472E+00    0.1617146859E-01    0.6461827980E+00    0.3092039910E-02    0.2862958839E-01
    0.2700000000E+05    0.6476318470E+00    0.1564348549E-01    0.6475141745E+00    0.2979347240E-02    0.2864636489E-01
    0.2900000000E+05    0.6478832408E+00    0.1516661340E-01    0.6487017474E+00    0.2877998545E-02    0.2866108344E-01
    0.3100000000E+05    0.6481019803E+00    0.1473300435E-01    0.6497694957E+00    0.2786208461E-02    0.2867412569E-01
    0.3300000000E+05    0.6482940136E+00    0.1433640966E-01    0.6507361700E+00    0.2702562224E-02    0.2868578281E-01
    0.3500000000E+05    0.6484639280E+00    0.1397178255E-01    0.6516166692E+00    0.2625922197E-02    0.2869628100E-01
    0.3700000000E+05    0.6486153189E+00    0.1363499538E-01    0.6524229994E+00    0.2555361698E-02    0.2870579879E-01
    0.3900000000E+05    0.6487510431E+00    0.1332263429E-01    0.6531649567E+00    0.2490117191E-02    0.2871447908E-01
    0.4100000000E+05    0.6488733996E+00    0.1303184746E-01    0.6538506226E+00    0.2429553090E-02    0.2872243763E-01
    0.4300000000E+05    0.6489842594E+00    0.1276023110E-01    0.6544867311E+00    0.2373135429E-02    0.2872976934E-01
    0.4500000000E+05    0.6490851601E+00    0.1250574249E-01    0.6550789435E+00    0.2320411868E-02    0.2873655273E-01
    0.4700000000E+05    0.6491773775E+00    0.1226663289E-01    0.6556320584E+00    0.2270996309E-02    0.2874285340E-01
    0.4900000000E+05    0.6492619786E+00    0.1204139516E-01    0.6561501729E+00    0.2224556916E-02    0.2874872661E-01
    0.1000000000E+05    0.6414055037E+00    0.2365332998E-01    0.6252235175E+00    0.4740015426E-02    0.2832231070E-01
    0.3000000000E+05    0.6479962834E+00    0.1494482369E-01    0.6492493238E+00    0.2831004529E-02    0.2866779413E-01
    0.5000000000E+05    0.6493017097E+00    0.1193356292E-01    0.6563972254E+00    0.2202362057E-02    0.2875151785E-01
    0.7000000000E+05    0.6498552155E+00    0.1026321439E-01    0.6601434889E+00    0.1861819528E-02    0.2879327772E-01
    0.9000000000E+05    0.6501594437E+00    0.9160405000E-02    0.6625360068E+00    0.1640558656E-02    0.2881969944E-01
    0.1100000000E+06    0.6503509769E+00    0.8361001927E-02    0.6642313040E+00    0.1482110908E-02    0.2883855337E-01
    0.1300000000E+06    0.6504821539E+00    0.7746492150E-02    0.6655126586E+00    0.1361500816E-02    0.2885301528E-01
    0.1500000000E+06    0.6505773106E+00    0.7254619726E-02    0.6665248049E+00    0.1265753034E-02    0.2886465289E-01
    0.1700000000E+06    0.6506492845E+00    0.6849087582E-02    0.6673503566E+00    0.1187370707E-02    0.2887434108E-01
    0.1900000000E+06    0.6507054809E+00    0.6507096031E-02    0.6680403342E+00    0.1121680717E-02    0.2888261219E-01
    0.2100000000E+06    0.6507504680E+00    0.6213497097E-02    0.6686281637E+00    0.1065598877E-02    0.2888981172E-01
    0.2300000000E+06    0.6507872143E+00    0.5957775400E-02    0.6691367754E+00    0.1016996782E-02    0.2889617535E-01
    0.2500000000E+06    0.6508177312E+00    0.5732369474E-02    0.6695824906E+00    0.9743519825E-03    0.2890187039E-01
    0.2700000000E+06    0.6508434291E+00    0.5531682085E-02    0.6699772837E+00    0.9365428940E-03    0.2890701952E-01
    0.2900000000E+06    0.6508653258E+00    0.5351468245E-02    0.6703301646E+00    0.9027226132E-03    0.2891171515E-01
    0.3100000000E+06    0.6508841736E+00    0.5188441485E-02    0.6706480600E+00    0.8722381060E-03    0.2891602850E-01
    0.3300000000E+06    0.6509005404E+00    0.5040011897E-02    0.6709363938E+00    0.8445766696E-03    0.2892001554E-01
    0.3500000000E+06    0.6509148629E+00    0.4904106783E-02    0.6711994817E+00    0.8193294170E-03    0.2892372098E-01
    0.3700000000E+06    0.6509274820E+00    0.4779044766E-02    0.6714408065E+00    0.7961657396E-03    0.2892718110E-01
    0.3900000000E+06    0.6509386677E+00    0.4663445471E-02    0.6716632134E+00    0.7748150470E-03    0.2893042567E-01
    0.4100000000E+06    0.6509486366E+00    0.4556163479E-02    0.6718690530E+00    0.7550534566E-03    0.2893347946E-01
    0.4300000000E+06    0.6509575644E+00    0.4456239193E-02    0.6720602863E+00    0.7366939199E-03    0.2893636324E-01
    0.4500000000E+06    0.6509655949E+00    0.4362861714E-02    0.6722385643E+00    0.7195787854E-03    0.2893909462E-01
    0.4700000000E+06    0.6509728470E+00    0.4275340418E-02    0.6724052878E+00    0.7035741170E-03    0.2894168863E-01
    0.4900000000E+06    0.6509794201E+00    0.4193082904E-02    0.6725616545E+00    0.6885652990E-03    0.2894415823E-01
    0.1000000000E+06    0.6502650406E+00    0.8732078530E-02    0.6634483854E+00    0.1555449761E-02    0.2882981824E-01
    0.3000000000E+06    0.6508750917E+00    0.5267982257E-02    0.6704931166E+00    0.8870982278E-03    0.2891391581E-01
    0.5000000000E+06    0.6509824785E+00    0.4153765463E-02    0.6726362819E+00    0.6814029377E-03    0.2894534994E-01
    0.7000000000E+06    0.6510226078E+00    0.3549748178E-02    0.6737735802E+00    0.5723595114E-03    0.2896473103E-01
    0.9000000000E+06    0.6510416743E+00    0.3155830292E-02    0.6745059918E+00    0.5023288056E-03    0.2897873761E-01
    0.1100000000E+07    0.6510517650E+00    0.2872533193E-02    0.6750281692E+00    0.4525528434E-03    0.2898970190E-01
    0.1300000000E+07    0.6510573407E+00    0.2655975002E-02    0.6754247455E+00    0.4148643917E-03    0.2899870916E-01
    0.1500000000E+07    0.6510603969E+00    0.2483365283E-02    0.6757392243E+00    0.3850648938E-03    0.2900635206E-01
    0.1700000000E+07    0.6510619449E+00    0.2341526520E-02    0.6759965611E+00    0.3607471618E-03    0.2901298955E-01
    0.1900000000E+07    0.6510625445E+00    0.2222234206E-02    0.6762122324E+00    0.3404195999E-03    0.2901885541E-01
    0.2100000000E+07    0.6510625261E+00    0.2120051948E-02    0.6763964145E+00    0.3231024640E-03    0.2902411042E-01
    0.2300000000E+07    0.6510620948E+00    0.2031221800E-02    0.6765561104E+00    0.3081222841E-03    0.2902886984E-01
    0.2500000000E+07    0.6510613831E+00    0.1953051032E-02    0.6766963185E+00    0.2949989190E-03    0.2903321914E-01
    0.2700000000E+07    0.6510604791E+00    0.1883552436E-02    0.6768207154E+00    0.2833796510E-03    0.2903722342E-01
    0.2900000000E+07    0.6510594432E+00    0.1821222853E-02    0.6769320733E+00    0.2729987997E-03    0.2904093343E-01
    0.3100000000E+07    0.6510583175E+00    0.1764901221E-02    0.6770325283E+00    0.2636519456E-03    0.2904438949E-01
    0.3300000000E+07    0.6510571319E+00    0.1713674434E-02    0.6771237557E+00    0.2551789048E-03    0.2904762416E-01
    0.3500000000E+07    0.6510559078E+00    0.1666813071E-02    0.6772070912E+00    0.2474521478E-03    0.2905066412E-01
    0.3700000000E+07    0.6510546609E+00    0.1623726399E-02    0.6772836142E+00    0.2403687193E-03    0.2905353150E-01
    0.3900000000E+07    0.6510534027E+00    0.1583930161E-02    0.6773542079E+00    0.2338444725E-03    0.2905624485E-01
    0.4100000000E+07    0.6510521416E+00    0.1547023076E-02    0.6774196028E+00    0.2278098747E-03    0.2905881990E-01
    0.4300000000E+07    0.6510508839E+00    0.1512669380E-02    0.6774804094E+00    0.2222069014E-03    0.2906127007E-01
    0.4500000000E+07    0.6510496341E+00    0.1480585668E-02    0.6775371420E+00    0.2169867000E-03    0.2906360692E-01
    0.4700000000E+07    0.6510483957E+00    0.1450530822E-02    0.6775902376E+00    0.2121078084E-03    0.2906584049E-01
    0.4900000000E+07    0.6510471711E+00    0.1422298225E-02    0.6776400704E+00    0.2075347786E-03    0.2906797953E-01
    0.1000000000E+07    0.6510474753E+00    0.3003810373E-02    0.6747866727E+00    0.4755542140E-03    0.2898451579E-01
    0.3000000000E+07    0.6510588895E+00    0.1792373056E-02    0.6769835498E+00    0.2682070148E-03    0.2904269101E-01
    0.5000000000E+07    0.6510465646E+00    0.1408808604E-02    0.6776638656E+00    0.2053532592E-03    0.2906901603E-01
    0.7000000000E+07    0.6510353796E+00    0.1201971893E-02    0.6780274841E+00    0.1722020616E-03    0.2908623862E-01
    0.9000000000E+07    0.6510259309E+00    0.1067473497E-02    0.6782626565E+00    0.1509712936E-03    0.2909906352E-01
    0.1100000000E+08    0.6510178705E+00    0.9709307642E-03    0.6784308193E+00    0.1359089965E-03    0.2910928713E-01
    0.1300000000E+08    0.6510108761E+00    0.8972337821E-03    0.6785588143E+00    0.1245196866E-03    0.2911778958E-01
    0.1500000000E+08    0.6510047114E+00    0.8385552785E-03    0.6786604872E+00    0.1155236395E-03    0.2912506821E-01
    0.1700000000E+08    0.6509992061E+00    0.7903781549E-03    0.6787438020E+00    0.1081884773E-03    0.2913143174E-01
    0.1900000000E+08    0.6509942354E+00    0.7498873677E-03    0.6788137086E+00    0.1020610344E-03    0.2913708500E-01
    0.2100000000E+08    0.6509897062E+00    0.7152244344E-03    0.6788734675E+00    0.9684399642E-04    0.2914217091E-01
    0.2300000000E+08    0.6509855474E+00    0.6851059639E-03    0.6789253260E+00    0.9233318838E-04    0.2914679315E-01
    0.2500000000E+08    0.6509817036E+00    0.6586131411E-03    0.6789708903E+00    0.8838316555E-04    0.2915102936E-01
    0.2700000000E+08    0.6509781307E+00    0.6350683912E-03    0.6790113429E+00    0.8488715809E-04    0.2915493915E-01
