  Pressure (Pa) 22mC5-400 (mol/kg) 2mC6-400 (mol/kg) 3mC6-400 (mol/kg) 33mC5-400 (mol/kg) 23mC5-400 (mol/kg)
    0.1000000000E+01    0.4224919442E-02    0.1594862960E-02    0.5312098070E-03    0.1947643191E-03    0.5563888923E-03
    0.3000000000E+01    0.1245734475E-01    0.4711257299E-02    0.1584302124E-02    0.5752492023E-03    0.1640558395E-02
    0.5000000000E+01    0.2041344052E-01    0.7734312822E-02    0.2625157011E-02    0.9442181232E-03    0.2688366812E-02
    0.7000000000E+01    0.2810840658E-01    0.1066899967E-01    0.3654007805E-02    0.1302278920E-02    0.3701813809E-02
    0.9000000000E+01    0.3555632440E-01    0.1351991781E-01    0.4671081819E-02    0.1649994420E-02    0.4682751938E-02
    0.1100000000E+02    0.4277025768E-01    0.1629133122E-01    0.5676600547E-02    0.1987886589E-02    0.5632899871E-02
    0.1300000000E+02    0.4976234243E-01    0.1898719838E-01    0.6670779840E-02    0.2316440227E-02    0.6553854246E-02
    0.1500000000E+02    0.5654386768E-01    0.2161119948E-01    0.7653830093E-02    0.2636106280E-02    0.7447100282E-02
    0.1700000000E+02    0.6312534794E-01    0.2416676086E-01    0.8625956416E-02    0.2947304792E-02    0.8314021313E-02
    0.1900000000E+02    0.6951658842E-01    0.2665707686E-01    0.9587358799E-02    0.3250427572E-02    0.9155907366E-02
    0.2100000000E+02    0.7572674385E-01    0.2908512951E-01    0.1053823227E-01    0.3545840570E-02    0.9973962896E-02
    0.2300000000E+02    0.8176437148E-01    0.3145370620E-01    0.1147876706E-01    0.3833886034E-02    0.1076931376E-01
    0.2500000000E+02    0.8763747914E-01    0.3376541569E-01    0.1240914874E-01    0.4114884447E-02    0.1154301354E-01
    0.2700000000E+02    0.9335356864E-01    0.3602270254E-01    0.1332955836E-01    0.4389136274E-02    0.1229604924E-01
    0.2900000000E+02    0.9891967524E-01    0.3822786009E-01    0.1424017259E-01    0.4656923554E-02    0.1302934650E-01
    0.3100000000E+02    0.1043424034E+00    0.4038304235E-01    0.1514116388E-01    0.4918511325E-02    0.1374377427E-01
    0.3300000000E+02    0.1096279595E+00    0.4249027471E-01    0.1603270054E-01    0.5174148939E-02    0.1444014916E-01
    0.3500000000E+02    0.1147821814E+00    0.4455146368E-01    0.1691494690E-01    0.5424071238E-02    0.1511923925E-01
    0.3700000000E+02    0.1198105655E+00    0.4656840578E-01    0.1778806340E-01    0.5668499633E-02    0.1578176775E-01
    0.3900000000E+02    0.1247182916E+00    0.4854279562E-01    0.1865220674E-01    0.5907643092E-02    0.1642841619E-01
    0.4100000000E+02    0.1295102454E+00    0.5047623327E-01    0.1950752995E-01    0.6141699032E-02    0.1705982741E-01
    0.4300000000E+02    0.1341910394E+00    0.5237023103E-01    0.2035418255E-01    0.6370854139E-02    0.1767660832E-01
    0.4500000000E+02    0.1387650317E+00    0.5422621958E-01    0.2119231057E-01    0.6595285121E-02    0.1827933235E-01
    0.4700000000E+02    0.1432363437E+00    0.5604555364E-01    0.2202205675E-01    0.6815159394E-02    0.1886854176E-01
    0.4900000000E+02    0.1476088756E+00    0.5782951717E-01    0.2284356055E-01    0.7030635713E-02    0.1944474979E-01
    0.1000000000E+02    0.3919175985E-01    0.1491530837E-01    0.5175271973E-02    0.1820137290E-02    0.5161572159E-02
    0.3000000000E+02    0.1016485648E+00    0.3931156864E-01    0.1469186049E-01    0.4788476440E-02    0.1338886685E-01
    0.5000000000E+02    0.1497592613E+00    0.5870861805E-01    0.2325126429E-01    0.7136772025E-02    0.1972813120E-01
    0.7000000000E+02    0.1883825701E+00    0.7469892823E-01    0.3100426404E-01    0.9061457231E-02    0.2481865626E-01
    0.9000000000E+02    0.2203365132E+00    0.8821996989E-01    0.3807094705E-01    0.1067878805E-01    0.2903125196E-01
    0.1100000000E+03    0.2473763244E+00    0.9986840015E-01    0.4454819326E-01    0.1206310666E-01    0.3259689573E-01
    0.1300000000E+03    0.2706590997E+00    0.1100475321E+00    0.5051506506E-01    0.1326485776E-01    0.3566786316E-01
    0.1500000000E+03    0.2909836705E+00    0.1190431534E+00    0.5603675640E-01    0.1431988714E-01    0.3834928798E-01
    0.1700000000E+03    0.3089229784E+00    0.1270655034E+00    0.6116753213E-01    0.1525461219E-01    0.4071657919E-01
    0.1900000000E+03    0.3249012625E+00    0.1342739822E+00    0.6595294715E-01    0.1608907934E-01    0.4282557743E-01
    0.2100000000E+03    0.3392412058E+00    0.1407924606E+00    0.7043154359E-01    0.1683886702E-01    0.4471875872E-01
    0.2300000000E+03    0.3521939033E+00    0.1467191847E+00    0.7463616422E-01    0.1751632235E-01    0.4642917783E-01
    0.2500000000E+03    0.3639585795E+00    0.1521334235E+00    0.7859497985E-01    0.1813139444E-01    0.4798306297E-01
    0.2700000000E+03    0.3746959632E+00    0.1571000733E+00    0.8233230112E-01    0.1869221369E-01    0.4940157583E-01
    0.2900000000E+03    0.3845376057E+00    0.1616729330E+00    0.8586922571E-01    0.1920550525E-01    0.5070203782E-01
    0.3100000000E+03    0.3935925303E+00    0.1658970906E+00    0.8922415893E-01    0.1967689096E-01    0.5189880515E-01
    0.3300000000E+03    0.4019520803E+00    0.1698106954E+00    0.9241323554E-01    0.2011111428E-01    0.5300390682E-01
    0.3500000000E+03    0.4096935215E+00    0.1734463008E+00    0.9545066425E-01    0.2051221066E-01    0.5402751870E-01
    0.3700000000E+03    0.4168827652E+00    0.1768318945E+00    0.9834901092E-01    0.2088363871E-01    0.5497832203E-01
    0.3900000000E+03    0.4235764607E+00    0.1799917027E+00    0.1011194328E+00    0.2122838253E-01    0.5586377864E-01
    0.4100000000E+03    0.4298236231E+00    0.1829468242E+00    0.1037718738E+00    0.2154903232E-01    0.5669034534E-01
    0.4300000000E+03    0.4356669182E+00    0.1857157363E+00    0.1063152274E+00    0.2184784892E-01    0.5746364296E-01
    0.4500000000E+03    0.4411436873E+00    0.1883147030E+00    0.1087574743E+00    0.2212681561E-01    0.5818859126E-01
    0.4700000000E+03    0.4462867729E+00    0.1907581068E+00    0.1111057985E+00    0.2238768032E-01    0.5886951763E-01
    0.4900000000E+03    0.4511251913E+00    0.1930587206E+00    0.1133666861E+00    0.2263199022E-01    0.5951024559E-01
    0.1000000000E+03    0.2343878695E+00    0.9424963579E-01    0.4137794283E-01    0.1139649730E-01    0.3088404436E-01
    0.3000000000E+03    0.3891573316E+00    0.1638260701E+00    0.8756838397E-01    0.1944612150E-01    0.5131258318E-01
    0.5000000000E+03    0.4534383094E+00    0.1941590890E+00    0.1144661983E+00    0.2274837282E-01    0.5981661038E-01
    0.7000000000E+03    0.4886464992E+00    0.2108768563E+00    0.1330346986E+00    0.2447162486E-01    0.6448470713E-01
    0.9000000000E+03    0.5106773732E+00    0.2211230280E+00    0.1471095278E+00    0.2546922664E-01    0.6741216428E-01
    0.1100000000E+04    0.5256693708E+00    0.2277900023E+00    0.1584186662E+00    0.2607659089E-01    0.6940878537E-01
    0.1300000000E+04    0.5364870406E+00    0.2322841034E+00    0.1678704205E+00    0.2645299452E-01    0.7085276465E-01
    0.1500000000E+04    0.5446385463E+00    0.2353718046E+00    0.1759950372E+00    0.2668355193E-01    0.7194337042E-01
    0.1700000000E+04    0.5509894916E+00    0.2375054442E+00    0.1831265675E+00    0.2681762384E-01    0.7279505846E-01
    0.1900000000E+04    0.5560703270E+00    0.2389682509E+00    0.1894880081E+00    0.2688561809E-01    0.7347802152E-01
    0.2100000000E+04    0.5602233510E+00    0.2399459112E+00    0.1952351502E+00    0.2690715872E-01    0.7403758922E-01
    0.2300000000E+04    0.5636788868E+00    0.2405647294E+00    0.2004808992E+00    0.2689538670E-01    0.7450428587E-01
    0.2500000000E+04    0.5665973691E+00    0.2409132504E+00    0.2053095855E+00    0.2685936936E-01    0.7489938987E-01
    0.2700000000E+04    0.5690938503E+00    0.2410551311E+00    0.2097858062E+00    0.2680551985E-01    0.7523817233E-01
    0.2900000000E+04    0.5712529106E+00    0.2410371213E+00    0.2139601122E+00    0.2673846867E-01    0.7553186840E-01
    0.3100000000E+04    0.5731380735E+00    0.2408941853E+00    0.2178727956E+00    0.2666161791E-01    0.7578892276E-01
    0.3300000000E+04    0.5747979463E+00    0.2406528882E+00    0.2215564867E+00    0.2657750414E-01    0.7601580218E-01
    0.3500000000E+04    0.5762703371E+00    0.2403336915E+00    0.2250379810E+00    0.2648804245E-01    0.7621754064E-01
    0.3700000000E+04    0.5775850844E+00    0.2399525456E+00    0.2283395544E+00    0.2639469407E-01    0.7639811411E-01
    0.3900000000E+04    0.5787660437E+00    0.2395220157E+00    0.2314799282E+00    0.2629858393E-01    0.7656070387E-01
    0.4100000000E+04    0.5798325104E+00    0.2390520930E+00    0.2344749896E+00    0.2620058448E-01    0.7670788508E-01
    0.4300000000E+04    0.5808002556E+00    0.2385507870E+00    0.2373383397E+00    0.2610137645E-01    0.7684176423E-01
    0.4500000000E+04    0.5816822931E+00    0.2380245656E+00    0.2400817137E+00    0.2600149349E-01    0.7696408092E-01
    0.4700000000E+04    0.5824894550E+00    0.2374786852E+00    0.2427153104E+00    0.2590135537E-01    0.7707628424E-01
    0.4900000000E+04    0.5832308286E+00    0.2369174419E+00    0.2452480504E+00    0.2580129297E-01    0.7717959088E-01
    0.1000000000E+04    0.5188292054E+00    0.2247950840E+00    0.1530409407E+00    0.2580928934E-01    0.6849725842E-01
    0.3000000000E+04    0.5722263976E+00    0.2409794430E+00    0.2159469622E+00    0.2670109273E-01    0.7566453267E-01
    0.5000000000E+04    0.5835792922E+00    0.2366321875E+00    0.2464790893E+00    0.2575137403E-01    0.7722823584E-01
    0.7000000000E+04    0.5884549918E+00    0.2307086695E+00    0.2672982002E+00    0.2479674176E-01    0.7791659962E-01
    0.9000000000E+04    0.5911558502E+00    0.2250041545E+00    0.2832472877E+00    0.2395343926E-01    0.7830724280E-01
    0.1100000000E+05    0.5928680492E+00    0.2197843021E+00    0.2962236213E+00    0.2321587559E-01    0.7856083643E-01
    0.1300000000E+05    0.5940487446E+00    0.2150475743E+00    0.3071803099E+00    0.2256600061E-01    0.7873983598E-01
    0.1500000000E+05    0.5949112054E+00    0.2107401280E+00    0.3166685677E+00    0.2198758154E-01    0.7887362383E-01
    0.1700000000E+05    0.5955682081E+00    0.2068035963E+00    0.3250377723E+00    0.2146775661E-01    0.7897786709E-01
    0.1900000000E+05    0.5960849487E+00    0.2031861379E+00    0.3325241684E+00    0.2099655387E-01    0.7906169779E-01
    0.2100000000E+05    0.5965017226E+00    0.1998441108E+00    0.3392953926E+00    0.2056621148E-01    0.7913080646E-01
    0.2300000000E+05    0.5968447673E+00    0.1967413189E+00    0.3454749295E+00    0.2017061865E-01    0.7918892855E-01
    0.2500000000E+05    0.5971318957E+00    0.1938477746E+00    0.3511564978E+00    0.1980490022E-01    0.7923862060E-01
    0.2700000000E+05    0.5973756228E+00    0.1911385246E+00    0.3564129842E+00    0.1946511525E-01    0.7928169329E-01
    0.2900000000E+05    0.5975849977E+00    0.1885926674E+00    0.3613022400E+00    0.1914803835E-01    0.7931946625E-01
    0.3100000000E+05    0.5977667237E+00    0.1861925666E+00    0.3658709811E+00    0.1885099953E-01    0.7935292484E-01
    0.3300000000E+05    0.5979258717E+00    0.1839232300E+00    0.3701574935E+00    0.1857176551E-01    0.7938282033E-01
    0.3500000000E+05    0.5980663479E+00    0.1817718211E+00    0.3741935596E+00    0.1830845060E-01    0.7940973599E-01
    0.3700000000E+05    0.5981912096E+00    0.1797272740E+00    0.3780058617E+00    0.1805944889E-01    0.7943413188E-01
    0.3900000000E+05    0.5983028836E+00    0.1777799878E+00    0.3816170232E+00    0.1782338209E-01    0.7945637603E-01
    0.4100000000E+05    0.5984033204E+00    0.1759215827E+00    0.3850463974E+00    0.1759905875E-01    0.7947676654E-01
    0.4300000000E+05    0.5984941056E+00    0.1741447036E+00    0.3883106709E+00    0.1738544232E-01    0.7949554756E-01
    0.4500000000E+05    0.5985765410E+00    0.1724428617E+00    0.3914243348E+00    0.1718162551E-01    0.7951292112E-01
    0.4700000000E+05    0.5986517057E+00    0.1708103044E+00    0.3944000550E+00    0.1698680989E-01    0.7952905593E-01
    0.4900000000E+05    0.5987205013E+00    0.1692419090E+00    0.3972489673E+00    0.1680028925E-01    0.7954409401E-01
    0.1000000000E+05    0.5920983899E+00    0.2223314352E+00    0.2900343832E+00    0.2357255868E-01    0.7844610770E-01
    0.3000000000E+05    0.5976789680E+00    0.1873753902E+00    0.3636241100E+00    0.1899716283E-01    0.7933668330E-01
    0.5000000000E+05    0.5987527526E+00    0.1684803214E+00    0.3986289916E+00    0.1670994066E-01    0.7955124015E-01
    0.7000000000E+05    0.5991971615E+00    0.1557231221E+00    0.4214574371E+00    0.1521728540E-01    0.7965810500E-01
    0.9000000000E+05    0.5994356198E+00    0.1461867484E+00    0.4382255747E+00    0.1412568539E-01    0.7972567755E-01
    0.1100000000E+06    0.5995820861E+00    0.1386286383E+00    0.4513701257E+00    0.1327439914E-01    0.7977388046E-01
    0.1300000000E+06    0.5996798621E+00    0.1324049282E+00    0.4621111291E+00    0.1258230101E-01    0.7981084793E-01
    0.1500000000E+06    0.5997489207E+00    0.1271394146E+00    0.4711462541E+00    0.1200289252E-01    0.7984059286E-01
    0.1700000000E+06    0.5997997151E+00    0.1225935595E+00    0.4789112744E+00    0.1150713252E-01    0.7986535374E-01
    0.1900000000E+06    0.5998382286E+00    0.1186068390E+00    0.4856961797E+00    0.1107571893E-01    0.7988649223E-01
    0.2100000000E+06    0.5998681234E+00    0.1150662126E+00    0.4917034033E+00    0.1069520159E-01    0.7990489181E-01
    0.2300000000E+06    0.5998917605E+00    0.1118891746E+00    0.4970796594E+00    0.1035585271E-01    0.7992115510E-01
    0.2500000000E+06    0.5999107273E+00    0.1090137330E+00    0.5019345430E+00    0.1005042163E-01    0.7993570979E-01
    0.2700000000E+06    0.5999261279E+00    0.1063921767E+00    0.5063519869E+00    0.9773367943E-02    0.7994886946E-01
    0.2900000000E+06    0.5999387528E+00    0.1039870361E+00    0.5103976287E+00    0.9520368650E-02    0.7996087033E-01
    0.3100000000E+06    0.5999491813E+00    0.1017683727E+00    0.5141237209E+00    0.9287989953E-02    0.7997189441E-01
    0.3300000000E+06    0.5999578474E+00    0.9971190570E-01    0.5175725032E+00    0.9073462040E-02    0.7998208471E-01
    0.3500000000E+06    0.5999650819E+00    0.9779768536E-01    0.5207785815E+00    0.8874520488E-02    0.7999155551E-01
    0.3700000000E+06    0.5999711408E+00    0.9600913110E-01    0.5237706427E+00    0.8689292028E-02    0.8000039949E-01
    0.3900000000E+06    0.5999762253E+00    0.9433232171E-01    0.5265727163E+00    0.8516210647E-02    0.8000869275E-01
    0.4100000000E+06    0.5999804951E+00    0.9275546199E-01    0.5292051190E+00    0.8353954857E-02    0.8001649855E-01
    0.4300000000E+06    0.5999840789E+00    0.9126847596E-01    0.5316851724E+00    0.8201400092E-02    0.8002386999E-01
    0.4500000000E+06    0.5999870810E+00    0.8986269236E-01    0.5340277566E+00    0.8057582042E-02    0.8003085204E-01
    0.4700000000E+06    0.5999895869E+00    0.8853059852E-01    0.5362457423E+00    0.7921668079E-02    0.8003748314E-01
    0.4900000000E+06    0.5999916671E+00    0.8726564544E-01    0.5383503321E+00    0.7792934725E-02    0.8004379634E-01
    0.1000000000E+06    0.5995168230E+00    0.1422092696E+00    0.4451575353E+00    0.1367619775E-01    0.7975154917E-01
    0.3000000000E+06    0.5999442116E+00    0.1028560272E+00    0.5122977756E+00    0.9401788284E-02    0.7996649476E-01
    0.5000000000E+06    0.5999925664E+00    0.8665652464E-01    0.5393632164E+00    0.7731060040E-02    0.8004684284E-01
    0.7000000000E+06    0.5999983328E+00    0.7691602035E-01    0.5555131293E+00    0.6751914614E-02    0.8009639507E-01
    0.9000000000E+06    0.5999933463E+00    0.7014966345E-01    0.5666817466E+00    0.6083423393E-02    0.8013221440E-01
    0.1100000000E+07    0.5999849905E+00    0.6506386038E-01    0.5750506160E+00    0.5587509335E-02    0.8016025933E-01
    0.1300000000E+07    0.5999756278E+00    0.6104462776E-01    0.5816491600E+00    0.5199708039E-02    0.8018330269E-01
    0.1500000000E+07    0.5999661421E+00    0.5775559270E-01    0.5870390612E+00    0.4885148093E-02    0.8020285881E-01
    0.1700000000E+07    0.5999568868E+00    0.5499401113E-01    0.5915578258E+00    0.4623027580E-02    0.8021984488E-01
    0.1900000000E+07    0.5999480008E+00    0.5262900879E-01    0.5954227865E+00    0.4400035339E-02    0.8023485838E-01
    0.2100000000E+07    0.5999395296E+00    0.5057161162E-01    0.5987813981E+00    0.4207190010E-02    0.8024831015E-01
    0.2300000000E+07    0.5999314763E+00    0.4875882363E-01    0.6017378854E+00    0.4038174770E-02    0.8026049478E-01
    0.2500000000E+07    0.5999238253E+00    0.4714455751E-01    0.6043683866E+00    0.3888395724E-02    0.8027163072E-01
    0.2700000000E+07    0.5999165529E+00    0.4569417422E-01    0.6067300536E+00    0.3754418650E-02    0.8028188438E-01
    0.2900000000E+07    0.5999096330E+00    0.4438104346E-01    0.6088667748E+00    0.3633616262E-02    0.8029138550E-01
    0.3100000000E+07    0.5999030393E+00    0.4318429385E-01    0.6108129126E+00    0.3523938712E-02    0.8030023713E-01
    0.3300000000E+07    0.5998967469E+00    0.4208729385E-01    0.6125958239E+00    0.3423759356E-02    0.8030852251E-01
    0.3500000000E+07    0.5998907326E+00    0.4107659743E-01    0.6142376073E+00    0.3331768212E-02    0.8031630986E-01
    0.3700000000E+07    0.5998849753E+00    0.4014119504E-01    0.6157563436E+00    0.3246896549E-02    0.8032365575E-01
    0.3900000000E+07    0.5998794554E+00    0.3927196995E-01    0.6171669941E+00    0.3168262392E-02    0.8033060763E-01
    0.4100000000E+07    0.5998741556E+00    0.3846129667E-01    0.6184820650E+00    0.3095130394E-02    0.8033720568E-01
    0.4300000000E+07    0.5998690599E+00    0.3770273923E-01    0.6197121052E+00    0.3026881792E-02    0.8034348425E-01
    0.4500000000E+07    0.5998641539E+00    0.3699082116E-01    0.6208660859E+00    0.2962991587E-02    0.8034947290E-01
    0.4700000000E+07    0.5998594247E+00    0.3632084793E-01    0.6219516932E+00    0.2903010962E-02    0.8035519728E-01
    0.4900000000E+07    0.5998548604E+00    0.3568876804E-01    0.6229755572E+00    0.2846553588E-02    0.8036067977E-01
    0.1000000000E+07    0.5999893877E+00    0.6744425488E-01    0.5711363020E+00    0.5818907563E-02    0.8014699340E-01
    0.3000000000E+07    0.5999062970E+00    0.4376924570E-01    0.6098618161E+00    0.3577497034E-02    0.8029588689E-01
    0.5000000000E+07    0.5998526367E+00    0.3538582036E-01    0.6234661638E+00    0.2819539772E-02    0.8036333654E-01
    0.7000000000E+07    0.5998146777E+00    0.3066331342E-01    0.6311039615E+00    0.2402392753E-02    0.8040749545E-01
    0.9000000000E+07    0.5997853929E+00    0.2751231136E-01    0.6361893746E+00    0.2128455156E-02    0.8044039698E-01
    0.1100000000E+08    0.5997615698E+00    0.2521026239E-01    0.6398989939E+00    0.1930739409E-02    0.8046663736E-01
    0.1300000000E+08    0.5997414956E+00    0.2342977741E-01    0.6427647414E+00    0.1779315885E-02    0.8048846906E-01
    0.1500000000E+08    0.5997241521E+00    0.2199751566E-01    0.6450677868E+00    0.1658510266E-02    0.8050716522E-01
    0.1700000000E+08    0.5997088861E+00    0.2081175323E-01    0.6469729190E+00    0.1559206581E-02    0.8052351621E-01
    0.1900000000E+08    0.5996952534E+00    0.1980823950E-01    0.6485841108E+00    0.1475690956E-02    0.8053804661E-01
    0.2100000000E+08    0.5996829384E+00    0.1894408320E-01    0.6499707079E+00    0.1404174392E-02    0.8055112249E-01
    0.2300000000E+08    0.5996717090E+00    0.1818938610E-01    0.6511810115E+00    0.1342031265E-02    0.8056300944E-01
    0.2500000000E+08    0.5996613893E+00    0.1752256951E-01    0.6522498588E+00    0.1287376602E-02    0.8057390634E-01
    0.2700000000E+08    0.5996518429E+00    0.1692760758E-01    0.6532031063E+00    0.1238817224E-02    0.8058396595E-01
