  Pressure (Pa) 22mC5-400 (mol/kg) 2mC6-400 (mol/kg) 3mC6-400 (mol/kg) 33mC5-400 (mol/kg) 23mC5-400 (mol/kg)
    0.1000000000E+01    0.4750686124E-02    0.1594182363E-02    0.5311273059E-03    0.3244672390E-03    0.2780571133E-03
    0.3000000000E+01    0.1399420611E-01    0.4705368423E-02    0.1583569586E-02    0.9575372439E-03    0.8190915858E-03
    0.5000000000E+01    0.2291087720E-01    0.7718572547E-02    0.2623149326E-02    0.1570457756E-02    0.1341011029E-02
    0.7000000000E+01    0.3151963883E-01    0.1063928856E-01    0.3650124867E-02    0.2164348707E-02    0.1844922842E-02
    0.9000000000E+01    0.3983796351E-01    0.1347257959E-01    0.4664747531E-02    0.2740242733E-02    0.2331848663E-02
    0.1100000000E+02    0.4788199565E-01    0.1622311987E-01    0.5667261861E-02    0.3299093634E-02    0.2802732483E-02
    0.1300000000E+02    0.5566667508E-01    0.1889523184E-01    0.6657905844E-02    0.3841783880E-02    0.3258447866E-02
    0.1500000000E+02    0.6320584705E-01    0.2149291910E-01    0.7636911137E-02    0.4369131268E-02    0.3699804383E-02
    0.1700000000E+02    0.7051236056E-01    0.2401989568E-01    0.8604503275E-02    0.4881894857E-02    0.4127553360E-02
    0.1900000000E+02    0.7759815630E-01    0.2647961228E-01    0.9560901873E-02    0.5380780262E-02    0.4542393011E-02
    0.2100000000E+02    0.8447434548E-01    0.2887527959E-01    0.1050632082E-01    0.5866444381E-02    0.4944973059E-02
    0.2300000000E+02    0.9115128065E-01    0.3120988925E-01    0.1144096847E-01    0.6339499639E-02    0.5335898867E-02
    0.2500000000E+02    0.9763861947E-01    0.3348623268E-01    0.1236504783E-01    0.6800517782E-02    0.5715735170E-02
    0.2700000000E+02    0.1039453821E+00    0.3570691792E-01    0.1327875669E-01    0.7250033305E-02    0.6085009431E-02
    0.2900000000E+02    0.1100800033E+00    0.3787438486E-01    0.1418228784E-01    0.7688546523E-02    0.6444214876E-02
    0.3100000000E+02    0.1160503788E+00    0.3999091896E-01    0.1507582923E-01    0.8116526351E-02    0.6793813233E-02
    0.3300000000E+02    0.1218639085E+00    0.4205866367E-01    0.1595956407E-01    0.8534412813E-02    0.7134237221E-02
    0.3500000000E+02    0.1275275346E+00    0.4407963158E-01    0.1683367102E-01    0.8942619314E-02    0.7465892804E-02
    0.3700000000E+02    0.1330477767E+00    0.4605571466E-01    0.1769832433E-01    0.9341534697E-02    0.7789161234E-02
    0.3900000000E+02    0.1384307637E+00    0.4798869343E-01    0.1855369397E-01    0.9731525113E-02    0.8104400923E-02
    0.4100000000E+02    0.1436822628E+00    0.4988024538E-01    0.1939994576E-01    0.1011293572E-01    0.8411949133E-02
    0.4300000000E+02    0.1488077061E+00    0.5173195261E-01    0.2023724150E-01    0.1048609224E-01    0.8712123533E-02
    0.4500000000E+02    0.1538122149E+00    0.5354530876E-01    0.2106573908E-01    0.1085130234E-01    0.9005223608E-02
    0.4700000000E+02    0.1587006216E+00    0.5532172541E-01    0.2188559263E-01    0.1120885697E-01    0.9291531960E-02
    0.4900000000E+02    0.1634774900E+00    0.5706253783E-01    0.2269695259E-01    0.1155903148E-01    0.9571315488E-02
    0.1000000000E+02    0.4389330553E-01    0.1485791558E-01    0.5167503213E-02    0.3021741830E-02    0.2569239653E-02
    0.3000000000E+02    0.1130852481E+00    0.3893888136E-01    0.1463029570E-01    0.7903824960E-02    0.6620187243E-02
    0.5000000000E+02    0.1658254548E+00    0.5791999020E-01    0.2309949351E-01    0.1173143326E-01    0.9708839827E-02
    0.7000000000E+02    0.2078611340E+00    0.7347415727E-01    0.3073842067E-01    0.1484868710E-01    0.1217128685E-01
    0.9000000000E+02    0.2424563712E+00    0.8656763224E-01    0.3767577323E-01    0.1745545252E-01    0.1419842179E-01
    0.1100000000E+03    0.2716134777E+00    0.9780746087E-01    0.4401439921E-01    0.1967790137E-01    0.1590735358E-01
    0.1300000000E+03    0.2966376548E+00    0.1076002484E+00    0.4983752725E-01    0.2160086430E-01    0.1737442419E-01
    0.1500000000E+03    0.3184224329E+00    0.1162321951E+00    0.5521327049E-01    0.2328420915E-01    0.1865190002E-01
    0.1700000000E+03    0.3376046096E+00    0.1239127689E+00    0.6019793937E-01    0.2477181976E-01    0.1977703244E-01
    0.1900000000E+03    0.3546534112E+00    0.1308001359E+00    0.6483851609E-01    0.2609684953E-01    0.2077727205E-01
    0.2100000000E+03    0.3699243817E+00    0.1370167882E+00    0.6917452889E-01    0.2728496525E-01    0.2167342022E-01
    0.2300000000E+03    0.3836933440E+00    0.1426595919E+00    0.7323948965E-01    0.2835644214E-01    0.2248161534E-01
    0.2500000000E+03    0.3961785938E+00    0.1478064982E+00    0.7706200948E-01    0.2932756875E-01    0.2321463080E-01
    0.2700000000E+03    0.4075558707E+00    0.1525211732E+00    0.8066667364E-01    0.3021161962E-01    0.2388275065E-01
    0.2900000000E+03    0.4179687429E+00    0.1568562808E+00    0.8407473443E-01    0.3101954722E-01    0.2449437692E-01
    0.3100000000E+03    0.4275359915E+00    0.1608558683E+00    0.8730466483E-01    0.3176048564E-01    0.2505646161E-01
    0.3300000000E+03    0.4363569789E+00    0.1645571339E+00    0.9037260473E-01    0.3244212482E-01    0.2557482064E-01
    0.3500000000E+03    0.4445156294E+00    0.1679917621E+00    0.9329272325E-01    0.3307099345E-01    0.2605436668E-01
    0.3700000000E+03    0.4520834326E+00    0.1711869478E+00    0.9607751510E-01    0.3365267612E-01    0.2649928486E-01
    0.3900000000E+03    0.4591217466E+00    0.1741661927E+00    0.9873804468E-01    0.3419198232E-01    0.2691316751E-01
    0.4100000000E+03    0.4656835898E+00    0.1769499334E+00    0.1012841483E+00    0.3469307954E-01    0.2729911890E-01
    0.4300000000E+03    0.4718150511E+00    0.1795560411E+00    0.1037246030E+00    0.3515959929E-01    0.2765983786E-01
    0.4500000000E+03    0.4775564156E+00    0.1820002239E+00    0.1060672676E+00    0.3559472233E-01    0.2799768350E-01
    0.4700000000E+03    0.4829430696E+00    0.1842963543E+00    0.1083192020E+00    0.3600124779E-01    0.2831472826E-01
    0.4900000000E+03    0.4880062376E+00    0.1864567363E+00    0.1104867682E+00    0.3638164982E-01    0.2861280098E-01
    0.1000000000E+03    0.2576209911E+00    0.9239032243E-01    0.4091432508E-01    0.1860868695E-01    0.1508718264E-01
    0.3000000000E+03    0.4228514571E+00    0.1588955466E+00    0.8571090711E-01    0.3139787930E-01    0.2478122490E-01
    0.5000000000E+03    0.4904252848E+00    0.1874894931E+00    0.1115407318E+00    0.3656275047E-01    0.2875523655E-01
    0.7000000000E+03    0.5271212598E+00    0.2031362543E+00    0.1293312900E+00    0.3923503856E-01    0.3091830106E-01
    0.9000000000E+03    0.5499608497E+00    0.2126844324E+00    0.1428196614E+00    0.4077264729E-01    0.3226773026E-01
    0.1100000000E+04    0.5654487257E+00    0.2188800899E+00    0.1536702918E+00    0.4170393382E-01    0.3318496419E-01
    0.1300000000E+04    0.5765972416E+00    0.2230491854E+00    0.1627524845E+00    0.4227805405E-01    0.3384679366E-01
    0.1500000000E+04    0.5849835687E+00    0.2259106597E+00    0.1705718009E+00    0.4262745770E-01    0.3434585455E-01
    0.1700000000E+04    0.5915091760E+00    0.2278871169E+00    0.1774460306E+00    0.4282864217E-01    0.3473513712E-01
    0.1900000000E+04    0.5967247537E+00    0.2292423466E+00    0.1835870464E+00    0.4292857588E-01    0.3504703784E-01
    0.2100000000E+04    0.6009847908E+00    0.2301488661E+00    0.1891427745E+00    0.4295748689E-01    0.3530242750E-01
    0.2300000000E+04    0.6045273489E+00    0.2307237913E+00    0.1942203972E+00    0.4293556973E-01    0.3551533338E-01
    0.2500000000E+04    0.6075179925E+00    0.2310490964E+00    0.1988999765E+00    0.4287673068E-01    0.3569551887E-01
    0.2700000000E+04    0.6100752997E+00    0.2311836396E+00    0.2032428563E+00    0.4279078798E-01    0.3584998221E-01
    0.2900000000E+04    0.6122863491E+00    0.2311706021E+00    0.2072970615E+00    0.4268481956E-01    0.3598386676E-01
    0.3100000000E+04    0.6142164821E+00    0.2310422534E+00    0.2111008897E+00    0.4256401818E-01    0.3610103512E-01
    0.3300000000E+04    0.6159156582E+00    0.2308230953E+00    0.2146853735E+00    0.4243225047E-01    0.3620444304E-01
    0.3500000000E+04    0.6174227125E+00    0.2305319908E+00    0.2180760122E+00    0.4229243205E-01    0.3629638997E-01
    0.3700000000E+04    0.6187682761E+00    0.2301836389E+00    0.2212940170E+00    0.4214678496E-01    0.3637869111E-01
    0.3900000000E+04    0.6199768265E+00    0.2297896162E+00    0.2243572259E+00    0.4199701784E-01    0.3645279822E-01
    0.4100000000E+04    0.6210681536E+00    0.2293591262E+00    0.2272807868E+00    0.4184445435E-01    0.3651988596E-01
    0.4300000000E+04    0.6220584265E+00    0.2288995469E+00    0.2300776757E+00    0.4169012608E-01    0.3658091492E-01
    0.4500000000E+04    0.6229609831E+00    0.2284168361E+00    0.2327590961E+00    0.4153484076E-01    0.3663667814E-01
    0.4700000000E+04    0.6237869217E+00    0.2279158363E+00    0.2353347904E+00    0.4137923297E-01    0.3668783604E-01
    0.4900000000E+04    0.6245455510E+00    0.2274005062E+00    0.2378132858E+00    0.4122380223E-01    0.3673494300E-01
    0.1000000000E+04    0.5583877535E+00    0.2160985464E+00    0.1485086944E+00    0.4129465336E-01    0.3276652430E-01
    0.3000000000E+04    0.6132831050E+00    0.2311191571E+00    0.2092281860E+00    0.4262600534E-01    0.3604433788E-01
    0.5000000000E+04    0.6249021309E+00    0.2271385073E+00    0.2390184653E+00    0.4114627969E-01    0.3675712676E-01
    0.7000000000E+04    0.6298925810E+00    0.2216886786E+00    0.2594490067E+00    0.3966488227E-01    0.3707126449E-01
    0.9000000000E+04    0.6326593328E+00    0.2164270252E+00    0.2751600377E+00    0.3835630023E-01    0.3724985171E-01
    0.1100000000E+05    0.6344152607E+00    0.2116022730E+00    0.2879788668E+00    0.3721092857E-01    0.3736600913E-01
    0.1300000000E+05    0.6356276256E+00    0.2072159975E+00    0.2988269522E+00    0.3620073970E-01    0.3744816019E-01
    0.1500000000E+05    0.6365143996E+00    0.2032206654E+00    0.3082387668E+00    0.3530069730E-01    0.3750968115E-01
    0.1700000000E+05    0.6371908597E+00    0.1995639283E+00    0.3165538777E+00    0.3449100515E-01    0.3755770786E-01
    0.1900000000E+05    0.6377236617E+00    0.1961990161E+00    0.3240023488E+00    0.3375632605E-01    0.3759640198E-01
    0.2100000000E+05    0.6381540150E+00    0.1930864213E+00    0.3307477066E+00    0.3308472395E-01    0.3762835842E-01
    0.2300000000E+05    0.6385087607E+00    0.1901932987E+00    0.3369105861E+00    0.3246680065E-01    0.3765528165E-01
    0.2500000000E+05    0.6388061279E+00    0.1874923856E+00    0.3425826637E+00    0.3189505625E-01    0.3767833898E-01
    0.2700000000E+05    0.6390589293E+00    0.1849609606E+00    0.3478353222E+00    0.3136342587E-01    0.3769835772E-01
    0.2900000000E+05    0.6392764322E+00    0.1825799659E+00    0.3527252800E+00    0.3086694371E-01    0.3771594122E-01
    0.3100000000E+05    0.6394655050E+00    0.1803333012E+00    0.3572983838E+00    0.3040149723E-01    0.3773154032E-01
    0.3300000000E+05    0.6396313453E+00    0.1782072652E+00    0.3615922415E+00    0.2996364493E-01    0.3774549898E-01
    0.3500000000E+05    0.6397779590E+00    0.1761901146E+00    0.3656380995E+00    0.2955047957E-01    0.3775808442E-01
    0.3700000000E+05    0.6399084824E+00    0.1742717165E+00    0.3694622106E+00    0.2915952411E-01    0.3776950756E-01
    0.3900000000E+05    0.6400254063E+00    0.1724432716E+00    0.3730868515E+00    0.2878865150E-01    0.3777993725E-01
    0.4100000000E+05    0.6401307337E+00    0.1706970933E+00    0.3765310917E+00    0.2843602228E-01    0.3778951033E-01
    0.4300000000E+05    0.6402260934E+00    0.1690264298E+00    0.3798113848E+00    0.2810003524E-01    0.3779833898E-01
    0.4500000000E+05    0.6403128235E+00    0.1674253198E+00    0.3829420283E+00    0.2777928834E-01    0.3780651606E-01
    0.4700000000E+05    0.6403920336E+00    0.1658884749E+00    0.3859355266E+00    0.2747254712E-01    0.3781411917E-01
    0.4900000000E+05    0.6404646511E+00    0.1644111822E+00    0.3888028802E+00    0.2717871921E-01    0.3782121368E-01
    0.1000000000E+05    0.6336256851E+00    0.2139577884E+00    0.2818607907E+00    0.3776495779E-01    0.3731343008E-01
    0.3000000000E+05    0.6393741649E+00    0.1814407492E+00    0.3550489200E+00    0.3063057004E-01    0.3772396523E-01
    0.5000000000E+05    0.6404987367E+00    0.1636935327E+00    0.3901923374E+00    0.2703634000E-01    0.3782458789E-01
    0.7000000000E+05    0.6409721388E+00    0.1516430925E+00    0.4132242306E+00    0.2467904399E-01    0.3787529422E-01
    0.9000000000E+05    0.6412306989E+00    0.1425988328E+00    0.4301989418E+00    0.2294890508E-01    0.3790763600E-01
    0.1100000000E+06    0.6413924947E+00    0.1354086136E+00    0.4435394093E+00    0.2159586562E-01    0.3793086278E-01
    0.1300000000E+06    0.6415026391E+00    0.1294730785E+00    0.4544627494E+00    0.2049332586E-01    0.3794877186E-01
    0.1500000000E+06    0.6415820550E+00    0.1244409216E+00    0.4636667775E+00    0.1956853320E-01    0.3796324560E-01
    0.1700000000E+06    0.6416417539E+00    0.1200888013E+00    0.4715883065E+00    0.1877594732E-01    0.3797533850E-01
    0.1900000000E+06    0.6416880745E+00    0.1162660777E+00    0.4785185589E+00    0.1808524087E-01    0.3798569448E-01
    0.2100000000E+06    0.6417249182E+00    0.1128664589E+00    0.4846611597E+00    0.1747524441E-01    0.3799473276E-01
    0.2300000000E+06    0.6417548156E+00    0.1098122272E+00    0.4901638995E+00    0.1693062338E-01    0.3800274020E-01
    0.2500000000E+06    0.6417794776E+00    0.1070448948E+00    0.4951373207E+00    0.1643993203E-01    0.3800992095E-01
    0.2700000000E+06    0.6418001016E+00    0.1045193826E+00    0.4996661806E+00    0.1599441320E-01    0.3801642512E-01
    0.2900000000E+06    0.6418175501E+00    0.1022002411E+00    0.5038168326E+00    0.1558722589E-01    0.3802236603E-01
    0.3100000000E+06    0.6418324592E+00    0.1000591116E+00    0.5076421508E+00    0.1521293035E-01    0.3802783119E-01
    0.3300000000E+06    0.6418453083E+00    0.9807296868E-01    0.5111849162E+00    0.1486713426E-01    0.3803288951E-01
    0.3500000000E+06    0.6418564651E+00    0.9622287413E-01    0.5144802076E+00    0.1454624336E-01    0.3803759618E-01
    0.3700000000E+06    0.6418662163E+00    0.9449307287E-01    0.5175571269E+00    0.1424728167E-01    0.3804199599E-01
    0.3900000000E+06    0.6418747884E+00    0.9287032471E-01    0.5204400690E+00    0.1396775925E-01    0.3804612583E-01
    0.4100000000E+06    0.6418823628E+00    0.9134340180E-01    0.5231496734E+00    0.1370557333E-01    0.3805001639E-01
    0.4300000000E+06    0.6418890862E+00    0.8990270511E-01    0.5257035488E+00    0.1345893319E-01    0.3805369346E-01
    0.4500000000E+06    0.6418950787E+00    0.8853996751E-01    0.5281168309E+00    0.1322630220E-01    0.3805717893E-01
    0.4700000000E+06    0.6419004392E+00    0.8724802129E-01    0.5304026192E+00    0.1300635272E-01    0.3806049152E-01
    0.4900000000E+06    0.6419052502E+00    0.8602061388E-01    0.5325723215E+00    0.1279793040E-01    0.3806364736E-01
    0.1000000000E+06    0.6413200209E+00    0.1388174045E+00    0.4372304922E+00    0.2223490715E-01    0.3792008524E-01
    0.3000000000E+06    0.6418252890E+00    0.1011089724E+00    0.5057672800E+00    0.1539626239E-01    0.3802515340E-01
    0.5000000000E+06    0.6419074717E+00    0.8542937163E-01    0.5336168118E+00    0.1269772148E-01    0.3806517094E-01
    0.7000000000E+06    0.6419351181E+00    0.7595699912E-01    0.5502941162E+00    0.1110912529E-01    0.3809001224E-01
    0.9000000000E+06    0.6419463334E+00    0.6935720861E-01    0.5618529398E+00    0.1002144710E-01    0.3810803094E-01
    0.1100000000E+07    0.6419508495E+00    0.6438597327E-01    0.5705275714E+00    0.9212909683E-02    0.3812216906E-01
    0.1300000000E+07    0.6419521671E+00    0.6045083359E-01    0.5773751116E+00    0.8579645012E-02    0.3813380284E-01
    0.1500000000E+07    0.6419518091E+00    0.5722638286E-01    0.5829734773E+00    0.8065333330E-02    0.3814368662E-01
    0.1700000000E+07    0.6419505238E+00    0.5451609087E-01    0.5876704645E+00    0.7636314675E-02    0.3815227850E-01
    0.1900000000E+07    0.6419487111E+00    0.5219288391E-01    0.5916903130E+00    0.7271016512E-02    0.3815987751E-01
    0.2100000000E+07    0.6419465980E+00    0.5017025063E-01    0.5951853234E+00    0.6954864182E-02    0.3816668961E-01
    0.2300000000E+07    0.6419443192E+00    0.4838686487E-01    0.5982632420E+00    0.6677595339E-02    0.3817286269E-01
    0.2500000000E+07    0.6419419572E+00    0.4679781368E-01    0.6010028403E+00    0.6431739309E-02    0.3817850651E-01
    0.2700000000E+07    0.6419395639E+00    0.4536930920E-01    0.6034632872E+00    0.6211706401E-02    0.3818370480E-01
    0.2900000000E+07    0.6419371720E+00    0.4407535388E-01    0.6056900472E+00    0.6013216972E-02    0.3818852285E-01
    0.3100000000E+07    0.6419348026E+00    0.4289555701E-01    0.6077187360E+00    0.5832929614E-02    0.3819301259E-01
    0.3300000000E+07    0.6419324689E+00    0.4181365894E-01    0.6095777220E+00    0.5668191071E-02    0.3819721599E-01
    0.3500000000E+07    0.6419301791E+00    0.4081650619E-01    0.6112899309E+00    0.5516863345E-02    0.3820116745E-01
    0.3700000000E+07    0.6419279383E+00    0.3989332255E-01    0.6128741277E+00    0.5377201235E-02    0.3820489550E-01
    0.3900000000E+07    0.6419257490E+00    0.3903517982E-01    0.6143458457E+00    0.5247763792E-02    0.3820842411E-01
    0.4100000000E+07    0.6419236125E+00    0.3823460656E-01    0.6157180734E+00    0.5127349062E-02    0.3821177357E-01
    0.4300000000E+07    0.6419215289E+00    0.3748529392E-01    0.6170017701E+00    0.5014945224E-02    0.3821496123E-01
    0.4500000000E+07    0.6419194976E+00    0.3678187136E-01    0.6182062587E+00    0.4909693432E-02    0.3821800204E-01
    0.4700000000E+07    0.6419175176E+00    0.3611973329E-01    0.6193395288E+00    0.4810859192E-02    0.3822090895E-01
    0.4900000000E+07    0.6419155876E+00    0.3549490348E-01    0.6204084739E+00    0.4717810045E-02    0.3822369328E-01
    0.1000000000E+07    0.6419491394E+00    0.6671387990E-01    0.5664688354E+00    0.9590357584E-02    0.3811547835E-01
    0.3000000000E+07    0.6419359835E+00    0.4347228493E-01    0.6067272319E+00    0.5920977667E-02    0.3819080594E-01
    0.5000000000E+07    0.6419146409E+00    0.3519538187E-01    0.6209207261E+00    0.4673280729E-02    0.3822504264E-01
    0.7000000000E+07    0.6418979403E+00    0.3052220645E-01    0.6288990024E+00    0.3985081202E-02    0.3824747819E-01
    0.9000000000E+07    0.6418845255E+00    0.2739988151E-01    0.6342144725E+00    0.3532550742E-02    0.3826420205E-01
    0.1100000000E+08    0.6418733715E+00    0.2511665502E-01    0.6380933895E+00    0.3205639701E-02    0.3827754383E-01
    0.1300000000E+08    0.6418638428E+00    0.2334950343E-01    0.6410906702E+00    0.2955101894E-02    0.3828864617E-01
    0.1500000000E+08    0.6418555325E+00    0.2192719641E-01    0.6434998339E+00    0.2755117923E-02    0.3829815530E-01
    0.1700000000E+08    0.6418481673E+00    0.2074915789E-01    0.6454929904E+00    0.2590658649E-02    0.3830647254E-01
    0.1900000000E+08    0.6418415558E+00    0.1975181623E-01    0.6471787716E+00    0.2452297329E-02    0.3831386435E-01
    0.2100000000E+08    0.6418355588E+00    0.1889270804E-01    0.6486296516E+00    0.2333779305E-02    0.3832051668E-01
    0.2300000000E+08    0.6418300723E+00    0.1814221837E-01    0.6498961224E+00    0.2230768256E-02    0.3832656450E-01
    0.2500000000E+08    0.6418250167E+00    0.1747896365E-01    0.6510146082E+00    0.2140149778E-02    0.3833210887E-01
    0.2700000000E+08    0.6418203292E+00    0.1688705690E-01    0.6520121478E+00    0.2059621187E-02    0.3833722745E-01
