  Pressure (Pa) 22mC5-400 (mol/kg) 2mC6-400 (mol/kg) 3mC6-400 (mol/kg) 33mC5-400 (mol/kg) 23mC5-400 (mol/kg)
    0.1000000000E+01    0.5274402102E-02    0.1593531898E-02    0.5312098067E-03    0.1945988599E-03    0.3704524628E-03
    0.3000000000E+01    0.1551329242E-01    0.4699851784E-02    0.1584302121E-02    0.5738300995E-03    0.1089608317E-02
    0.5000000000E+01    0.2536071614E-01    0.7704122795E-02    0.2625157005E-02    0.9404582572E-03    0.1781291580E-02
    0.7000000000E+01    0.3484085602E-01    0.1061256664E-01    0.3654007793E-02    0.1295244061E-02    0.2447198994E-02
    0.9000000000E+01    0.4397590339E-01    0.1343087780E-01    0.4671081800E-02    0.1638884182E-02    0.3088887592E-02
    0.1100000000E+02    0.5278625830E-01    0.1616427831E-01    0.5676600518E-02    0.1972017875E-02    0.3707788739E-02
    0.1300000000E+02    0.6129070615E-01    0.1881756589E-01    0.6670779801E-02    0.2295232818E-02    0.4305220523E-02
    0.1500000000E+02    0.6950657402E-01    0.2139515639E-01    0.7653830043E-02    0.2609070253E-02    0.4882398717E-02
    0.1700000000E+02    0.7744986928E-01    0.2390112128E-01    0.8625956353E-02    0.2914029542E-02    0.5440446509E-02
    0.1900000000E+02    0.8513540275E-01    0.2633922089E-01    0.9587358722E-02    0.3210572188E-02    0.5980403139E-02
    0.2100000000E+02    0.9257689849E-01    0.2871293383E-01    0.1053823218E-01    0.3499125409E-02    0.6503231600E-02
    0.2300000000E+02    0.9978709173E-01    0.3102548328E-01    0.1147876696E-01    0.3780085324E-02    0.7009825507E-02
    0.2500000000E+02    0.1067778165E+00    0.3327986029E-01    0.1240914862E-01    0.4053819780E-02    0.7501015250E-02
    0.2700000000E+02    0.1135600840E+00    0.3547884465E-01    0.1332955821E-01    0.4320670883E-02    0.7977573492E-02
    0.2900000000E+02    0.1201441535E+00    0.3762502360E-01    0.1424017243E-01    0.4580957269E-02    0.8440220125E-02
    0.3100000000E+02    0.1265395953E+00    0.3972080851E-01    0.1514116370E-01    0.4834976126E-02    0.8889626711E-02
    0.3300000000E+02    0.1327553478E+00    0.4176844994E-01    0.1603270034E-01    0.5083005023E-02    0.9326420490E-02
    0.3500000000E+02    0.1387997698E+00    0.4377005113E-01    0.1691494667E-01    0.5325303548E-02    0.9751188001E-02
    0.3700000000E+02    0.1446806861E+00    0.4572758021E-01    0.1778806315E-01    0.5562114788E-02    0.1016447835E-01
    0.3900000000E+02    0.1504054305E+00    0.4764288115E-01    0.1865220647E-01    0.5793666662E-02    0.1056680618E-01
    0.4100000000E+02    0.1559808837E+00    0.4951768373E-01    0.1950752966E-01    0.6020173127E-02    0.1095865433E-01
    0.4300000000E+02    0.1614135083E+00    0.5135361253E-01    0.2035418223E-01    0.6241835276E-02    0.1134047631E-01
    0.4500000000E+02    0.1667093800E+00    0.5315219509E-01    0.2119231024E-01    0.6458842324E-02    0.1171269850E-01
    0.4700000000E+02    0.1718742169E+00    0.5491486930E-01    0.2202205639E-01    0.6671372511E-02    0.1207572217E-01
    0.4900000000E+02    0.1769134056E+00    0.5664299018E-01    0.2284356017E-01    0.6879593921E-02    0.1242992532E-01
    0.1000000000E+02    0.4842045740E-01    0.1480788261E-01    0.5175271950E-02    0.1806726457E-02    0.3401101697E-02
    0.3000000000E+02    0.1233648800E+00    0.3867907104E-01    0.1469186032E-01    0.4708732351E-02    0.8666538227E-02
    0.5000000000E+02    0.1793874804E+00    0.5749449541E-01    0.2325126389E-01    0.6982138769E-02    0.1260383139E-01
    0.7000000000E+02    0.2233643903E+00    0.7298582594E-01    0.3100426337E-01    0.8841047683E-02    0.1569550697E-01
    0.9000000000E+02    0.2591012201E+00    0.8611563848E-01    0.3807094608E-01    0.1040531680E-01    0.1820864180E-01
    0.1100000000E+03    0.2888899185E+00    0.9747244576E-01    0.4454819198E-01    0.1174867032E-01    0.2030409652E-01
    0.1300000000E+03    0.3142045683E+00    0.1074432725E+00    0.5051506347E-01    0.1291980963E-01    0.2208533756E-01
    0.1500000000E+03    0.3360441599E+00    0.1162974537E+00    0.5603675449E-01    0.1395272090E-01    0.2362248967E-01
    0.1700000000E+03    0.3551149920E+00    0.1242309334E+00    0.6116752989E-01    0.1487215811E-01    0.2496513579E-01
    0.1900000000E+03    0.3719340460E+00    0.1313913791E+00    0.6595294459E-01    0.1569677170E-01    0.2614957147E-01
    0.2100000000E+03    0.3868907377E+00    0.1378932741E+00    0.7043154072E-01    0.1644100070E-01    0.2720313858E-01
    0.2300000000E+03    0.4002854948E+00    0.1438274442E+00    0.7463616104E-01    0.1711627413E-01    0.2814693272E-01
    0.2500000000E+03    0.4123548022E+00    0.1492673283E+00    0.7859497637E-01    0.1773180581E-01    0.2899756098E-01
    0.2700000000E+03    0.4232880153E+00    0.1542732551E+00    0.8233229733E-01    0.1829513875E-01    0.2976832197E-01
    0.2900000000E+03    0.4332389811E+00    0.1588954506E+00    0.8586922164E-01    0.1881252928E-01    0.3047002151E-01
    0.3100000000E+03    0.4423342798E+00    0.1631762105E+00    0.8922415457E-01    0.1928922514E-01    0.3111155109E-01
    0.3300000000E+03    0.4506792037E+00    0.1671515047E+00    0.9241323090E-01    0.1972967116E-01    0.3170030752E-01
    0.3500000000E+03    0.4583621814E+00    0.1708521872E+00    0.9545065934E-01    0.2013766446E-01    0.3224250355E-01
    0.3700000000E+03    0.4654581108E+00    0.1743049241E+00    0.9834900574E-01    0.2051647351E-01    0.3274340174E-01
    0.3900000000E+03    0.4720309099E+00    0.1775329168E+00    0.1011194274E+00    0.2086893074E-01    0.3320749365E-01
    0.4100000000E+03    0.4781354967E+00    0.1805564731E+00    0.1037718681E+00    0.2119750566E-01    0.3363863872E-01
    0.4300000000E+03    0.4838193449E+00    0.1833934637E+00    0.1063152215E+00    0.2150436318E-01    0.3404017356E-01
    0.4500000000E+03    0.4891237215E+00    0.1860596917E+00    0.1087574681E+00    0.2179141063E-01    0.3441499881E-01
    0.4700000000E+03    0.4940846793E+00    0.1885691931E+00    0.1111057920E+00    0.2206033611E-01    0.3476564888E-01
    0.4900000000E+03    0.4987338632E+00    0.1909344856E+00    0.1133666795E+00    0.2231263989E-01    0.3509434848E-01
    0.1000000000E+03    0.2746328812E+00    0.9198800539E-01    0.4137794171E-01    0.1110113105E-01    0.1930112481E-01
    0.3000000000E+03    0.4378865672E+00    0.1610761294E+00    0.8756837976E-01    0.1905566945E-01    0.3079781429E-01
    0.5000000000E+03    0.5009503878E+00    0.1920666015E+00    0.1144661916E+00    0.2243298263E-01    0.3525108894E-01
    0.7000000000E+03    0.5342041698E+00    0.2093239235E+00    0.1330346898E+00    0.2422674497E-01    0.3760560259E-01
    0.9000000000E+03    0.5545654169E+00    0.2199448311E+00    0.1471095174E+00    0.2527662162E-01    0.3905117058E-01
    0.1100000000E+04    0.5682398958E+00    0.2268714264E+00    0.1584186544E+00    0.2592187211E-01    0.4002466770E-01
    0.1300000000E+04    0.5780243320E+00    0.2315498733E+00    0.1678704074E+00    0.2632613282E-01    0.4072316169E-01
    0.1500000000E+04    0.5853563159E+00    0.2347722143E+00    0.1759950230E+00    0.2657762728E-01    0.4124804372E-01
    0.1700000000E+04    0.5910471013E+00    0.2370068187E+00    0.1831265523E+00    0.2672778656E-01    0.4165658278E-01
    0.1900000000E+04    0.5955877649E+00    0.2385471307E+00    0.1894879920E+00    0.2680839480E-01    0.4198347743E-01
    0.2100000000E+04    0.5992923187E+00    0.2395855170E+00    0.1952351333E+00    0.2684000604E-01    0.4225093556E-01
    0.2300000000E+04    0.6023705942E+00    0.2402527707E+00    0.2004808814E+00    0.2683640311E-01    0.4247381089E-01
    0.2500000000E+04    0.6049679736E+00    0.2406405314E+00    0.2053095669E+00    0.2680710611E-01    0.4266240436E-01
    0.2700000000E+04    0.6071882791E+00    0.2408146406E+00    0.2097857869E+00    0.2675885418E-01    0.4282407912E-01
    0.2900000000E+04    0.6091075822E+00    0.2408234231E+00    0.2139600922E+00    0.2669651708E-01    0.4296423522E-01
    0.3100000000E+04    0.6107828646E+00    0.2407030011E+00    0.2178727750E+00    0.2662367553E-01    0.4308692143E-01
    0.3300000000E+04    0.6122576339E+00    0.2404808056E+00    0.2215564654E+00    0.2654300169E-01    0.4319523204E-01
    0.3500000000E+04    0.6135656729E+00    0.2401779558E+00    0.2250379591E+00    0.2645651497E-01    0.4329157195E-01
    0.3700000000E+04    0.6147336048E+00    0.2398109087E+00    0.2283395320E+00    0.2636575797E-01    0.4337783822E-01
    0.3900000000E+04    0.6157826898E+00    0.2393926250E+00    0.2314799051E+00    0.2627191983E-01    0.4345554718E-01
    0.4100000000E+04    0.6167301070E+00    0.2389334078E+00    0.2344749660E+00    0.2617592421E-01    0.4352592527E-01
    0.4300000000E+04    0.6175898868E+00    0.2384415157E+00    0.2373383155E+00    0.2607849315E-01    0.4358997507E-01
    0.4500000000E+04    0.6183735989E+00    0.2379236171E+00    0.2400816891E+00    0.2598019386E-01    0.4364852413E-01
    0.4700000000E+04    0.6190908678E+00    0.2373851316E+00    0.2427152853E+00    0.2588147364E-01    0.4370226152E-01
    0.4900000000E+04    0.6197497644E+00    0.2368304888E+00    0.2452480248E+00    0.2578268613E-01    0.4375176564E-01
    0.1000000000E+04    0.5620181029E+00    0.2237582128E+00    0.1530409296E+00    0.2563712579E-01    0.3958140176E-01
    0.3000000000E+04    0.6099727420E+00    0.2407774767E+00    0.2159469419E+00    0.2666122453E-01    0.4302754991E-01
    0.5000000000E+04    0.6200594959E+00    0.2365482720E+00    0.2464790633E+00    0.2573335706E-01    0.4377508606E-01
    0.7000000000E+04    0.6243967152E+00    0.2306626009E+00    0.2672981698E+00    0.2478628267E-01    0.4410599045E-01
    0.9000000000E+04    0.6268037248E+00    0.2249749358E+00    0.2832472536E+00    0.2394652259E-01    0.4429487302E-01
    0.1100000000E+05    0.6283323588E+00    0.2197640578E+00    0.2962235839E+00    0.2321092095E-01    0.4441816388E-01
    0.1300000000E+05    0.6293882189E+00    0.2150326847E+00    0.3071802695E+00    0.2256225434E-01    0.4450563589E-01
    0.1500000000E+05    0.6301606871E+00    0.2107286946E+00    0.3166685246E+00    0.2198463628E-01    0.4457132898E-01
    0.1700000000E+05    0.6307499989E+00    0.2067945264E+00    0.3250377267E+00    0.2146537183E-01    0.4462274707E-01
    0.1900000000E+05    0.6312141502E+00    0.2031787572E+00    0.3325241204E+00    0.2099457788E-01    0.4466427401E-01
    0.2100000000E+05    0.6315890158E+00    0.1998379804E+00    0.3392953425E+00    0.2056454358E-01    0.4469864751E-01
    0.2300000000E+05    0.6318979724E+00    0.1967361406E+00    0.3454748773E+00    0.2016918922E-01    0.4472766847E-01
    0.2500000000E+05    0.6321569023E+00    0.1938433385E+00    0.3511564436E+00    0.1980365946E-01    0.4475257194E-01
    0.2700000000E+05    0.6323769717E+00    0.1911346785E+00    0.3564129281E+00    0.1946402656E-01    0.4477423435E-01
    0.2900000000E+05    0.6325662593E+00    0.1885892984E+00    0.3613021821E+00    0.1914707420E-01    0.4479329563E-01
    0.3100000000E+05    0.6327307535E+00    0.1861895890E+00    0.3658709215E+00    0.1885013875E-01    0.4481023453E-01
    0.3300000000E+05    0.6328749871E+00    0.1839205776E+00    0.3701574323E+00    0.1857099158E-01    0.4482541668E-01
    0.3500000000E+05    0.6330024535E+00    0.1817694419E+00    0.3741934969E+00    0.1830775038E-01    0.4483912647E-01
    0.3700000000E+05    0.6331158885E+00    0.1797251266E+00    0.3780057974E+00    0.1805881184E-01    0.4485158858E-01
    0.3900000000E+05    0.6332174650E+00    0.1777780389E+00    0.3816169575E+00    0.1782279960E-01    0.4486298303E-01
    0.4100000000E+05    0.6333089303E+00    0.1759198050E+00    0.3850463302E+00    0.1759852377E-01    0.4487345589E-01
    0.4300000000E+05    0.6333917053E+00    0.1741430747E+00    0.3883106024E+00    0.1738494895E-01    0.4488312699E-01
    0.4500000000E+05    0.6334669575E+00    0.1724413630E+00    0.3914242650E+00    0.1718116884E-01    0.4489209561E-01
    0.4700000000E+05    0.6335356548E+00    0.1708089202E+00    0.3943999839E+00    0.1698638576E-01    0.4490044480E-01
    0.4900000000E+05    0.6335986064E+00    0.1692406261E+00    0.3972488950E+00    0.1679989410E-01    0.4490824458E-01
    0.1000000000E+05    0.6276448922E+00    0.2223073290E+00    0.2900343474E+00    0.2356675145E-01    0.4436230528E-01
    0.3000000000E+05    0.6326512939E+00    0.1873722262E+00    0.3636240513E+00    0.1899625269E-01    0.4480200531E-01
    0.5000000000E+05    0.6336281449E+00    0.1684790848E+00    0.3986289187E+00    0.1670955884E-01    0.4491195739E-01
    0.7000000000E+05    0.6340374770E+00    0.1557224467E+00    0.4214573539E+00    0.1521706946E-01    0.4496802147E-01
    0.9000000000E+05    0.6342598846E+00    0.1461863125E+00    0.4382254833E+00    0.1412554388E-01    0.4500407814E-01
    0.1100000000E+06    0.6343982837E+00    0.1386283272E+00    0.4513700275E+00    0.1327429787E-01    0.4503013473E-01
    0.1300000000E+06    0.6344919469E+00    0.1324046907E+00    0.4621110253E+00    0.1258222415E-01    0.4505032402E-01
    0.1500000000E+06    0.6345590632E+00    0.1271392243E+00    0.4711461453E+00    0.1200283169E-01    0.4506670486E-01
    0.1700000000E+06    0.6346091904E+00    0.1225934015E+00    0.4789111614E+00    0.1150708282E-01    0.4508043558E-01
    0.1900000000E+06    0.6346478218E+00    0.1186067040E+00    0.4856960629E+00    0.1107567732E-01    0.4509222613E-01
    0.2100000000E+06    0.6346783326E+00    0.1150660948E+00    0.4917032832E+00    0.1069516608E-01    0.4510254027E-01
    0.2300000000E+06    0.6347029085E+00    0.1118890700E+00    0.4970795362E+00    0.1035582190E-01    0.4511169628E-01
    0.2500000000E+06    0.6347230245E+00    0.1090136388E+00    0.5019344171E+00    0.1005039454E-01    0.4511992129E-01
    0.2700000000E+06    0.6347397110E+00    0.1063920908E+00    0.5063518585E+00    0.9773343855E-02    0.4512738268E-01
    0.2900000000E+06    0.6347537090E+00    0.1039869570E+00    0.5103974981E+00    0.9520347023E-02    0.4513420712E-01
    0.3100000000E+06    0.6347655638E+00    0.1017682992E+00    0.5141235882E+00    0.9287970374E-02    0.4514049263E-01
    0.3300000000E+06    0.6347756856E+00    0.9971183703E-01    0.5175723686E+00    0.9073444186E-02    0.4514631653E-01
    0.3500000000E+06    0.6347843886E+00    0.9779762077E-01    0.5207784452E+00    0.8874504102E-02    0.4515174084E-01
    0.3700000000E+06    0.6347919170E+00    0.9600907004E-01    0.5237705047E+00    0.8689276906E-02    0.4515681600E-01
    0.3900000000E+06    0.6347984635E+00    0.9433226372E-01    0.5265725769E+00    0.8516196619E-02    0.4516158359E-01
    0.4100000000E+06    0.6348041822E+00    0.9275540670E-01    0.5292049782E+00    0.8353941786E-02    0.4516607827E-01
    0.4300000000E+06    0.6348091973E+00    0.9126842306E-01    0.5316850303E+00    0.8201387863E-02    0.4517032919E-01
    0.4500000000E+06    0.6348136104E+00    0.8986264160E-01    0.5340276133E+00    0.8057570559E-02    0.4517436113E-01
    0.4700000000E+06    0.6348175049E+00    0.8853054968E-01    0.5362455979E+00    0.7921657260E-02    0.4517819531E-01
    0.4900000000E+06    0.6348209502E+00    0.8726559833E-01    0.5383501867E+00    0.7792924502E-02    0.4518185001E-01
    0.1000000000E+06    0.6343363880E+00    0.1422089051E+00    0.4451574403E+00    0.1367607908E-01    0.4501802658E-01
    0.3000000000E+06    0.6347598760E+00    0.1028559511E+00    0.5122976440E+00    0.9401767727E-02    0.4513741199E-01
    0.5000000000E+06    0.6348225229E+00    0.8665647834E-01    0.5393630705E+00    0.7731050091E-02    0.4518361511E-01
    0.7000000000E+06    0.6348404886E+00    0.7691598489E-01    0.5555129763E+00    0.6751908176E-02    0.4521245106E-01
    0.9000000000E+06    0.6348456063E+00    0.7014963391E-01    0.5666815899E+00    0.6083418642E-02    0.4523342609E-01
    0.1100000000E+07    0.6348457861E+00    0.6506383475E-01    0.5750504575E+00    0.5587505566E-02    0.4524991250E-01
    0.1300000000E+07    0.6348437866E+00    0.6104460501E-01    0.5816490009E+00    0.5199704915E-02    0.4526349475E-01
    0.1500000000E+07    0.6348407652E+00    0.5775557222E-01    0.5870389024E+00    0.4885145427E-02    0.4527504390E-01
    0.1700000000E+07    0.6348372667E+00    0.5499399251E-01    0.5915576677E+00    0.4623025257E-02    0.4528509013E-01
    0.1900000000E+07    0.6348335676E+00    0.5262899174E-01    0.5954226296E+00    0.4400033286E-02    0.4529398006E-01
    0.2100000000E+07    0.6348298147E+00    0.5057159593E-01    0.5987812428E+00    0.4207188175E-02    0.4530195278E-01
    0.2300000000E+07    0.6348260883E+00    0.4875880913E-01    0.6017377318E+00    0.4038173116E-02    0.4530918015E-01
    0.2500000000E+07    0.6348224323E+00    0.4714454408E-01    0.6043682348E+00    0.3888394224E-02    0.4531578983E-01
    0.2700000000E+07    0.6348188700E+00    0.4569416175E-01    0.6067299039E+00    0.3754417281E-02    0.4532187927E-01
    0.2900000000E+07    0.6348154130E+00    0.4438103185E-01    0.6088666272E+00    0.3633615009E-02    0.4532752454E-01
    0.3100000000E+07    0.6348120659E+00    0.4318428304E-01    0.6108127671E+00    0.3523937560E-02    0.4533278615E-01
    0.3300000000E+07    0.6348088291E+00    0.4208728376E-01    0.6125956807E+00    0.3423758295E-02    0.4533771303E-01
    0.3500000000E+07    0.6348057007E+00    0.4107658803E-01    0.6142374664E+00    0.3331767233E-02    0.4534234530E-01
    0.3700000000E+07    0.6348026771E+00    0.4014118626E-01    0.6157562050E+00    0.3246895644E-02    0.4534671627E-01
    0.3900000000E+07    0.6347997543E+00    0.3927196176E-01    0.6171668579E+00    0.3168261555E-02    0.4535085392E-01
    0.4100000000E+07    0.6347969277E+00    0.3846128903E-01    0.6184819312E+00    0.3095129619E-02    0.4535478195E-01
    0.4300000000E+07    0.6347941927E+00    0.3770273210E-01    0.6197119738E+00    0.3026881074E-02    0.4535852060E-01
    0.4500000000E+07    0.6347915447E+00    0.3699081452E-01    0.6208659569E+00    0.2962990922E-02    0.4536208736E-01
    0.4700000000E+07    0.6347889793E+00    0.3632084175E-01    0.6219515665E+00    0.2903010346E-02    0.4536549735E-01
    0.4900000000E+07    0.6347864921E+00    0.3568876229E-01    0.6229754330E+00    0.2846553017E-02    0.4536876382E-01
    0.1000000000E+07    0.6348460834E+00    0.6744422747E-01    0.5711361442E+00    0.5818903361E-02    0.4524210763E-01
    0.3000000000E+07    0.6348137256E+00    0.4376923450E-01    0.6098616695E+00    0.3577495833E-02    0.4533020001E-01
    0.5000000000E+07    0.6347852766E+00    0.3538581482E-01    0.6234660408E+00    0.2819539223E-02    0.4537034692E-01
    0.7000000000E+07    0.6347642112E+00    0.3066331119E-01    0.6311038621E+00    0.2402392530E-02    0.4539667676E-01
    0.9000000000E+07    0.6347476488E+00    0.2751231139E-01    0.6361892977E+00    0.2128455140E-02    0.4541631189E-01
    0.1100000000E+08    0.6347340345E+00    0.2521026410E-01    0.6398989383E+00    0.1930739539E-02    0.4543198055E-01
    0.1300000000E+08    0.6347224869E+00    0.2342978043E-01    0.6427647057E+00    0.1779316124E-02    0.4544502184E-01
    0.1500000000E+08    0.6347124649E+00    0.2199751975E-01    0.6450677701E+00    0.1658510591E-02    0.4545619343E-01
    0.1700000000E+08    0.6347036143E+00    0.2081175821E-01    0.6469729203E+00    0.1559206976E-02    0.4546596600E-01
    0.1900000000E+08    0.6346956907E+00    0.1980824523E-01    0.6485841293E+00    0.1475691409E-02    0.4547465214E-01
    0.2100000000E+08    0.6346885188E+00    0.1894408958E-01    0.6499707428E+00    0.1404174895E-02    0.4548247005E-01
    0.2300000000E+08    0.6346819688E+00    0.1818939305E-01    0.6511810622E+00    0.1342031810E-02    0.4548957812E-01
    0.2500000000E+08    0.6346759416E+00    0.1752257697E-01    0.6522499247E+00    0.1287377184E-02    0.4549609496E-01
    0.2700000000E+08    0.6346703600E+00    0.1692761548E-01    0.6532031869E+00    0.1238817839E-02    0.4550211173E-01
