  Pressure (Pa) 22mC5-400 (mol/kg) 2mC6-400 (mol/kg) 3mC6-400 (mol/kg) 33mC5-400 (mol/kg) 23mC5-400 (mol/kg)
    0.1000000000E+01    0.5268502710E-02    0.3178576519E-02    0.1059546455E-02    0.1940827831E-03    0.9250955966E-04
    0.3000000000E+01    0.1546324247E-01    0.9325615280E-02    0.3143226401E-02    0.5693264108E-03    0.2715234997E-03
    0.5000000000E+01    0.2522951481E-01    0.1520846019E-01    0.5181116119E-02    0.9283172536E-03    0.4430197315E-03
    0.7000000000E+01    0.3459792014E-01    0.2084468912E-01    0.7174855026E-02    0.1272131225E-02    0.6075350611E-03
    0.9000000000E+01    0.4359613680E-01    0.2625027349E-01    0.9126003601E-02    0.1601746295E-02    0.7655550396E-03
    0.1100000000E+02    0.5224926118E-01    0.3143976298E-01    0.1103604812E-01    0.1918053726E-02    0.9175199283E-03
    0.1300000000E+02    0.6058010161E-01    0.3642644495E-01    0.1290640504E-01    0.2221867775E-02    0.1063829854E-02
    0.1500000000E+02    0.6860943333E-01    0.4122248268E-01    0.1473842509E-01    0.2513934110E-02    0.1204849282E-02
    0.1700000000E+02    0.7635622011E-01    0.4583903559E-01    0.1653339708E-01    0.2794937126E-02    0.1340910898E-02
    0.1900000000E+02    0.8383780773E-01    0.5028636406E-01    0.1829255140E-01    0.3065506328E-02    0.1472319011E-02
    0.2100000000E+02    0.9107009327E-01    0.5457392131E-01    0.2001706337E-01    0.3326221924E-02    0.1599352513E-02
    0.2300000000E+02    0.9806767364E-01    0.5871043391E-01    0.2170805627E-01    0.3577619731E-02    0.1722267492E-02
    0.2500000000E+02    0.1048439763E+00    0.6270397277E-01    0.2336660424E-01    0.3820195498E-02    0.1841299517E-02
    0.2700000000E+02    0.1114113745E+00    0.6656201579E-01    0.2499373494E-01    0.4054408726E-02    0.1956665670E-02
    0.2900000000E+02    0.1177812895E+00    0.7029150332E-01    0.2659043206E-01    0.4280686043E-02    0.2068566327E-02
    0.3100000000E+02    0.1239642806E+00    0.7389888736E-01    0.2815763771E-01    0.4499424208E-02    0.2177186745E-02
    0.3300000000E+02    0.1299701256E+00    0.7739017541E-01    0.2969625454E-01    0.4710992778E-02    0.2282698474E-02
    0.3500000000E+02    0.1358078926E+00    0.8077096945E-01    0.3120714785E-01    0.4915736496E-02    0.2385260610E-02
    0.3700000000E+02    0.1414860034E+00    0.8404650098E-01    0.3269114753E-01    0.5113977416E-02    0.2485020915E-02
    0.3900000000E+02    0.1470122908E+00    0.8722166219E-01    0.3414904983E-01    0.5306016814E-02    0.2582116814E-02
    0.4100000000E+02    0.1523940499E+00    0.9030103418E-01    0.3558161909E-01    0.5492136904E-02    0.2676676301E-02
    0.4300000000E+02    0.1576380836E+00    0.9328891213E-01    0.3698958933E-01    0.5672602378E-02    0.2768818735E-02
    0.4500000000E+02    0.1627507443E+00    0.9618932817E-01    0.3837366575E-01    0.5847661804E-02    0.2858655571E-02
    0.4700000000E+02    0.1677379708E+00    0.9900607196E-01    0.3973452614E-01    0.6017548875E-02    0.2946291010E-02
    0.4900000000E+02    0.1726053222E+00    0.1017427093E+00    0.4107282224E-01    0.6182483555E-02    0.3031822588E-02
    0.1000000000E+02    0.4796435954E-01    0.2887117177E-01    0.1008607375E-01    0.1761510874E-02    0.8422684770E-03
    0.3000000000E+02    0.1208955220E+00    0.7211007287E-01    0.2737766401E-01    0.4390973814E-02    0.2123275538E-02
    0.5000000000E+02    0.1749956855E+00    0.1030820454E+00    0.4173370553E-01    0.6263158988E-02    0.3073828220E-02
    0.7000000000E+02    0.2176158587E+00    0.1263842250E+00    0.5390725400E-01    0.7661190191E-02    0.3822900302E-02
    0.9000000000E+02    0.2525690249E+00    0.1445282630E+00    0.6440950479E-01    0.8740260095E-02    0.4437395567E-02
    0.1100000000E+03    0.2820506693E+00    0.1590225985E+00    0.7360029920E-01    0.9593819174E-02    0.4955839026E-02
    0.1300000000E+03    0.3074290973E+00    0.1708357330E+00    0.8174069653E-01    0.1028198772E-01    0.5402242177E-02
    0.1500000000E+03    0.3296118055E+00    0.1806210303E+00    0.8902498040E-01    0.1084538034E-01    0.5792530938E-02
    0.1700000000E+03    0.3492315115E+00    0.1888363888E+00    0.9560092854E-01    0.1131248458E-01    0.6137809650E-02
    0.1900000000E+03    0.3667476994E+00    0.1958126175E+00    0.1015830887E+00    0.1170388706E-01    0.6446142833E-02
    0.2100000000E+03    0.3825054323E+00    0.2017947307E+00    0.1070617300E+00    0.1203483157E-01    0.6723587146E-02
    0.2300000000E+03    0.3967711516E+00    0.2069680199E+00    0.1121090326E+00    0.1231683756E-01    0.6974819551E-02
    0.2500000000E+03    0.4097554129E+00    0.2114751276E+00    0.1167834643E+00    0.1255876203E-01    0.7203536286E-02
    0.2700000000E+03    0.4216278700E+00    0.2154275709E+00    0.1211329374E+00    0.1276751755E-01    0.7412715785E-02
    0.2900000000E+03    0.4325274738E+00    0.2189137235E+00    0.1251971251E+00    0.1294857036E-01    0.7604797645E-02
    0.3100000000E+03    0.4425696161E+00    0.2220044672E+00    0.1290091892E+00    0.1310629345E-01    0.7781807992E-02
    0.3300000000E+03    0.4518512630E+00    0.2247572714E+00    0.1325970871E+00    0.1324422185E-01    0.7945449557E-02
    0.3500000000E+03    0.4604547278E+00    0.2272191882E+00    0.1359845736E+00    0.1336524010E-01    0.8097167882E-02
    0.3700000000E+03    0.4684505007E+00    0.2294290840E+00    0.1391919775E+00    0.1347172212E-01    0.8238200986E-02
    0.3900000000E+03    0.4758994103E+00    0.2314193255E+00    0.1422368107E+00    0.1356563689E-01    0.8369617287E-02
    0.4100000000E+03    0.4828543016E+00    0.2332170689E+00    0.1451342504E+00    0.1364862928E-01    0.8492345054E-02
    0.4300000000E+03    0.4893613569E+00    0.2348452561E+00    0.1478975246E+00    0.1372208251E-01    0.8607195588E-02
    0.4500000000E+03    0.4954611504E+00    0.2363233932E+00    0.1505382225E+00    0.1378716694E-01    0.8714881732E-02
    0.4700000000E+03    0.5011894986E+00    0.2376681634E+00    0.1530665474E+00    0.1384487848E-01    0.8816032793E-02
    0.4900000000E+03    0.5065781548E+00    0.2388939152E+00    0.1554915227E+00    0.1389606914E-01    0.8911206731E-02
    0.1000000000E+03    0.2678944105E+00    0.1521618024E+00    0.6915065067E-01    0.9190895330E-02    0.4706879903E-02
    0.3000000000E+03    0.4376492850E+00    0.2205046547E+00    0.1271328163E+00    0.1303011001E-01    0.7695073628E-02
    0.5000000000E+03    0.5091540527E+00    0.2394661025E+00    0.1566677940E+00    0.1391945215E-01    0.8956709635E-02
    0.7000000000E+03    0.5482915763E+00    0.2469369234E+00    0.1763105928E+00    0.1417767441E-01    0.9648818537E-02
    0.9000000000E+03    0.5726351247E+00    0.2501107157E+00    0.1910509087E+00    0.1422215672E-01    0.1008030713E-01
    0.1100000000E+04    0.5890845786E+00    0.2512787368E+00    0.2028856321E+00    0.1417714403E-01    0.1037256592E-01
    0.1300000000E+04    0.6008734176E+00    0.2513872961E+00    0.2128011791E+00    0.1409048244E-01    0.1058252802E-01
    0.1500000000E+04    0.6097019170E+00    0.2508933018E+00    0.2213538395E+00    0.1398370433E-01    0.1074015468E-01
    0.1700000000E+04    0.6165424776E+00    0.2500412658E+00    0.2288873573E+00    0.1386752534E-01    0.1086259457E-01
    0.1900000000E+04    0.6219883461E+00    0.2489717888E+00    0.2356288315E+00    0.1374764225E-01    0.1096031815E-01
    0.2100000000E+04    0.6264205432E+00    0.2477700538E+00    0.2417361497E+00    0.1362721242E-01    0.1104005562E-01
    0.2300000000E+04    0.6300942536E+00    0.2464897084E+00    0.2473235783E+00    0.1350802360E-01    0.1110631809E-01
    0.2500000000E+04    0.6331864343E+00    0.2451655308E+00    0.2524765352E+00    0.1339108897E-01    0.1116223632E-01
    0.2700000000E+04    0.6358234501E+00    0.2438205488E+00    0.2572605965E+00    0.1327696794E-01    0.1121004784E-01
    0.2900000000E+04    0.6380978287E+00    0.2424702340E+00    0.2617272400E+00    0.1316594733E-01    0.1125139236E-01
    0.3100000000E+04    0.6400788050E+00    0.2411250695E+00    0.2659176462E+00    0.1305814757E-01    0.1128749784E-01
    0.3300000000E+04    0.6418191738E+00    0.2397921740E+00    0.2698652963E+00    0.1295358673E-01    0.1131930145E-01
    0.3500000000E+04    0.6433598678E+00    0.2384763565E+00    0.2735977973E+00    0.1285222014E-01    0.1134753041E-01
    0.3700000000E+04    0.6447330945E+00    0.2371808180E+00    0.2771381936E+00    0.1275396535E-01    0.1137275739E-01
    0.3900000000E+04    0.6459645314E+00    0.2359076271E+00    0.2805059306E+00    0.1265871799E-01    0.1139543936E-01
    0.4100000000E+04    0.6470748929E+00    0.2346580484E+00    0.2837175759E+00    0.1256636201E-01    0.1141594527E-01
    0.4300000000E+04    0.6480810687E+00    0.2334327722E+00    0.2867873666E+00    0.1247677624E-01    0.1143457622E-01
    0.4500000000E+04    0.6489969637E+00    0.2322320780E+00    0.2897276324E+00    0.1238983870E-01    0.1145158030E-01
    0.4700000000E+04    0.6498341264E+00    0.2310559505E+00    0.2925491256E+00    0.1230542925E-01    0.1146716374E-01
    0.4900000000E+04    0.6506022260E+00    0.2299041651E+00    0.2952612828E+00    0.1222343127E-01    0.1148149936E-01
    0.1000000000E+04    0.5815937465E+00    0.2508694695E+00    0.1972557405E+00    0.1420692461E-01    0.1023938892E-01
    0.3000000000E+04    0.6391213694E+00    0.2417964986E+00    0.2638547241E+00    0.1311164187E-01    0.1127003569E-01
    0.5000000000E+04    0.6509629767E+00    0.2293372885E+00    0.2965790019E+00    0.1218330135E-01    0.1148824573E-01
    0.7000000000E+04    0.6559923971E+00    0.2191497168E+00    0.3187865645E+00    0.1148294210E-01    0.1158346775E-01
    0.9000000000E+04    0.6587647685E+00    0.2107476133E+00    0.3356557380E+00    0.1092808485E-01    0.1163736049E-01
    0.1100000000E+05    0.6605184400E+00    0.2036474810E+00    0.3492575467E+00    0.1047127329E-01    0.1167234051E-01
    0.1300000000E+05    0.6617268209E+00    0.1975200152E+00    0.3606428302E+00    0.1008449217E-01    0.1169705859E-01
    0.1500000000E+05    0.6626096055E+00    0.1921420599E+00    0.3704220034E+00    0.9750062783E-02    0.1171556660E-01
    0.1700000000E+05    0.6632825486E+00    0.1873576999E+00    0.3789824664E+00    0.9456172174E-02    0.1173001908E-01
    0.1900000000E+05    0.6638123953E+00    0.1830543695E+00    0.3865860328E+00    0.9194555787E-02    0.1174166963E-01
    0.2100000000E+05    0.6642403210E+00    0.1791483765E+00    0.3934181766E+00    0.8959213819E-02    0.1175129856E-01
    0.2300000000E+05    0.6645930991E+00    0.1755758997E+00    0.3996152029E+00    0.8745657161E-02    0.1175941782E-01
    0.2500000000E+05    0.6648888883E+00    0.1722872033E+00    0.4052802751E+00    0.8550441922E-02    0.1176637766E-01
    0.2700000000E+05    0.6651404374E+00    0.1692427985E+00    0.4104933829E+00    0.8370869861E-02    0.1177242617E-01
    0.2900000000E+05    0.6653569596E+00    0.1664108220E+00    0.4153178140E+00    0.8204788684E-02    0.1177774421E-01
    0.3100000000E+05    0.6655452779E+00    0.1637651996E+00    0.4198045078E+00    0.8050454816E-02    0.1178246684E-01
    0.3300000000E+05    0.6657105528E+00    0.1612843287E+00    0.4239950749E+00    0.7906436641E-02    0.1178669713E-01
    0.3500000000E+05    0.6658567592E+00    0.1589501152E+00    0.4279239437E+00    0.7771544696E-02    0.1179051511E-01
    0.3700000000E+05    0.6659870083E+00    0.1567472553E+00    0.4316199235E+00    0.7644780306E-02    0.1179398397E-01
    0.3900000000E+05    0.6661037700E+00    0.1546626918E+00    0.4351073632E+00    0.7525297117E-02    0.1179715429E-01
    0.4100000000E+05    0.6662090300E+00    0.1526851970E+00    0.4384070252E+00    0.7412371823E-02    0.1180006706E-01
    0.4300000000E+05    0.6663044026E+00    0.1508050472E+00    0.4415367557E+00    0.7305381589E-02    0.1180275590E-01
    0.4500000000E+05    0.6663912140E+00    0.1490137668E+00    0.4445120054E+00    0.7203786406E-02    0.1180524864E-01
    0.4700000000E+05    0.6664705635E+00    0.1473039243E+00    0.4473462383E+00    0.7107115141E-02    0.1180756855E-01
    0.4900000000E+05    0.6665433701E+00    0.1456689686E+00    0.4500512576E+00    0.7014954400E-02    0.1180973522E-01
    0.1000000000E+05    0.6597304182E+00    0.2070584513E+00    0.3427850891E+00    0.1068949187E-01    0.1165651234E-01
    0.3000000000E+05    0.6654542893E+00    0.1650661588E+00    0.4176005873E+00    0.8126249199E-02    0.1178017288E-01
    0.5000000000E+05    0.6665775667E+00    0.1448777335E+00    0.4513586117E+00    0.6970449829E-02    0.1181076639E-01
    0.7000000000E+05    0.6670545298E+00    0.1318695873E+00    0.4727039156E+00    0.6247641471E-02    0.1182632316E-01
    0.9000000000E+05    0.6673176043E+00    0.1224266453E+00    0.4880459341E+00    0.5733176108E-02    0.1183631567E-01
    0.1100000000E+06    0.6674839460E+00    0.1150996915E+00    0.4998745615E+00    0.5339818344E-02    0.1184353168E-01
    0.1300000000E+06    0.6675984158E+00    0.1091650894E+00    0.5094121132E+00    0.5024919949E-02    0.1184912028E-01
    0.1500000000E+06    0.6676818760E+00    0.1042111442E+00    0.5173463610E+00    0.4764599286E-02    0.1185365324E-01
    0.1700000000E+06    0.6677453387E+00    0.9998218085E-01    0.5241010744E+00    0.4544212331E-02    0.1185745196E-01
    0.1900000000E+06    0.6677951626E+00    0.9630904060E-01    0.5299549500E+00    0.4354172332E-02    0.1186071335E-01
    0.2100000000E+06    0.6678352742E+00    0.9307429762E-01    0.5351005351E+00    0.4187884420E-02    0.1186356594E-01
    0.2300000000E+06    0.6678682284E+00    0.9019329944E-01    0.5396760998E+00    0.4040631817E-02    0.1186609794E-01
    0.2500000000E+06    0.6678957589E+00    0.8760312807E-01    0.5437840797E+00    0.3908933304E-02    0.1186837226E-01
    0.2700000000E+06    0.6679190830E+00    0.8525582571E-01    0.5475023385E+00    0.3790152078E-02    0.1187043525E-01
    0.2900000000E+06    0.6679390803E+00    0.8311405504E-01    0.5508913512E+00    0.3682246978E-02    0.1187232201E-01
    0.3100000000E+06    0.6679564023E+00    0.8114821747E-01    0.5539989580E+00    0.3583608343E-02    0.1187405965E-01
    0.3300000000E+06    0.6679715414E+00    0.7933448057E-01    0.5568636075E+00    0.3492946324E-02    0.1187566959E-01
    0.3500000000E+06    0.6679848768E+00    0.7765339212E-01    0.5595166296E+00    0.3409212822E-02    0.1187716900E-01
    0.3700000000E+06    0.6679967051E+00    0.7608888400E-01    0.5619838650E+00    0.3331545667E-02    0.1187857182E-01
    0.3900000000E+06    0.6680072618E+00    0.7462754184E-01    0.5642868574E+00    0.3259227874E-02    0.1187988958E-01
    0.4100000000E+06    0.6680167357E+00    0.7325806013E-01    0.5664437411E+00    0.3191657377E-02    0.1188113185E-01
    0.4300000000E+06    0.6680252807E+00    0.7197082916E-01    0.5684699126E+00    0.3128324174E-02    0.1188230671E-01
    0.4500000000E+06    0.6680330226E+00    0.7075761751E-01    0.5703785465E+00    0.3068792832E-02    0.1188342101E-01
    0.4700000000E+06    0.6680400659E+00    0.6961132489E-01    0.5721809959E+00    0.3012688910E-02    0.1188448061E-01
    0.4900000000E+06    0.6680464979E+00    0.6852578754E-01    0.5738871074E+00    0.2959688306E-02    0.1188549059E-01
    0.1000000000E+06    0.6674092183E+00    0.1185540604E+00    0.4943055153E+00    0.5524639756E-02    0.1184017899E-01
    0.3000000000E+06    0.6679480418E+00    0.8211075076E-01    0.5524777376E+00    0.3631856418E-02    0.1187320802E-01
    0.5000000000E+06    0.6680495080E+00    0.6800409321E-01    0.5747067645E+00    0.2934262114E-02    0.1188597837E-01
    0.7000000000E+06    0.6680905289E+00    0.5975147273E-01    0.5876494777E+00    0.2536043749E-02    0.1189394603E-01
    0.9000000000E+06    0.6681119774E+00    0.5411629735E-01    0.5964627538E+00    0.2268619241E-02    0.1189974049E-01
    0.1100000000E+07    0.6681247803E+00    0.4993214895E-01    0.6029942454E+00    0.2072552262E-02    0.1190429422E-01
    0.1300000000E+07    0.6681330605E+00    0.4665616925E-01    0.6081008346E+00    0.1920601127E-02    0.1190804530E-01
    0.1500000000E+07    0.6681387059E+00    0.4399525055E-01    0.6122440394E+00    0.1798230545E-02    0.1191123452E-01
    0.1700000000E+07    0.6681426973E+00    0.4177474065E-01    0.6156983476E+00    0.1696863130E-02    0.1191400844E-01
    0.1900000000E+07    0.6681455916E+00    0.3988295230E-01    0.6186390285E+00    0.1611058712E-02    0.1191646285E-01
    0.2100000000E+07    0.6681477267E+00    0.3824455271E-01    0.6211841562E+00    0.1537174011E-02    0.1191866385E-01
    0.2300000000E+07    0.6681493190E+00    0.3680656449E-01    0.6234166799E+00    0.1472663018E-02    0.1192065891E-01
    0.2500000000E+07    0.6681505126E+00    0.3553045820E-01    0.6253968733E+00    0.1415684504E-02    0.1192248334E-01
    0.2700000000E+07    0.6681514067E+00    0.3438742603E-01    0.6271697671E+00    0.1364868837E-02    0.1192416404E-01
    0.2900000000E+07    0.6681520718E+00    0.3335542362E-01    0.6287697961E+00    0.1319172834E-02    0.1192572205E-01
    0.3100000000E+07    0.6681525591E+00    0.3241724613E-01    0.6302238188E+00    0.1277785825E-02    0.1192717408E-01
    0.3300000000E+07    0.6681529065E+00    0.3155923577E-01    0.6315531449E+00    0.1240066833E-02    0.1192853365E-01
    0.3500000000E+07    0.6681531427E+00    0.3077038904E-01    0.6327749337E+00    0.1205501363E-02    0.1192981185E-01
    0.3700000000E+07    0.6681532895E+00    0.3004172495E-01    0.6339031844E+00    0.1173670945E-02    0.1193101788E-01
    0.3900000000E+07    0.6681533639E+00    0.2936582850E-01    0.6349494502E+00    0.1144231200E-02    0.1193215947E-01
    0.4100000000E+07    0.6681533794E+00    0.2873651443E-01    0.6359233643E+00    0.1116895749E-02    0.1193324317E-01
    0.4300000000E+07    0.6681533467E+00    0.2814857557E-01    0.6368330340E+00    0.1091424197E-02    0.1193427457E-01
    0.4500000000E+07    0.6681532741E+00    0.2759759160E-01    0.6376853389E+00    0.1067613039E-02    0.1193525850E-01
    0.4700000000E+07    0.6681531687E+00    0.2707978168E-01    0.6384861616E+00    0.1045288666E-02    0.1193619914E-01
    0.4900000000E+07    0.6681530361E+00    0.2659188970E-01    0.6392405667E+00    0.1024301941E-02    0.1193710015E-01
    0.1000000000E+07    0.6681191229E+00    0.5188508918E-01    0.5999469892E+00    0.2163793667E-02    0.1190213850E-01
    0.3000000000E+07    0.6681523351E+00    0.3287553150E-01    0.6295136151E+00    0.1297984162E-02    0.1192646040E-01
    0.5000000000E+07    0.6681529610E+00    0.2635826619E-01    0.6396017571E+00    0.1014269209E-02    0.1193753681E-01
    0.7000000000E+07    0.6681508037E+00    0.2273447945E-01    0.6451999827E+00    0.8600872120E-03    0.1194479778E-01
    0.9000000000E+07    0.6681482777E+00    0.2033529835E-01    0.6489018385E+00    0.7595987287E-03    0.1195021061E-01
    0.1100000000E+08    0.6681458310E+00    0.1859188610E-01    0.6515895150E+00    0.6874476827E-03    0.1195452868E-01
    0.1300000000E+08    0.6681435579E+00    0.1724885738E-01    0.6536585580E+00    0.6324043555E-03    0.1195812175E-01
    0.1500000000E+08    0.6681414671E+00    0.1617188571E-01    0.6553168149E+00    0.5886248183E-03    0.1196119895E-01
    0.1700000000E+08    0.6681395447E+00    0.1528254287E-01    0.6566855482E+00    0.5527268745E-03    0.1196389023E-01
    0.1900000000E+08    0.6681377717E+00    0.1453149475E-01    0.6578409896E+00    0.5225988805E-03    0.1196628184E-01
    0.2100000000E+08    0.6681361300E+00    0.1388591945E-01    0.6588338294E+00    0.4968451124E-03    0.1196843400E-01
    0.2300000000E+08    0.6681346034E+00    0.1332300359E-01    0.6596992853E+00    0.4745010589E-03    0.1197039042E-01
    0.2500000000E+08    0.6681331780E+00    0.1282632277E-01    0.6604627018E+00    0.4548759331E-03    0.1197218382E-01
    0.2700000000E+08    0.6681318420E+00    0.1238370560E-01    0.6611428545E+00    0.4374602411E-03    0.1197383935E-01
