  Pressure (Pa) 2mC6-400 (mol/kg) 3mC6-400 (mol/kg) 33mC5-400 (mol/kg) 23mC5-400 (mol/kg) C7-400 (mol/kg)
    0.1000000000E+01    0.7923654867E-03    0.5240270935E-02    0.2580944916E-03    0.1868544511E-03    0.5102202106E-02
    0.3000000000E+01    0.2312361755E-02    0.1522098445E-01    0.7534297335E-03    0.5591027697E-03    0.1482225270E-01
    0.5000000000E+01    0.3752944410E-02    0.2458713066E-01    0.1223195214E-02    0.9294201212E-03    0.2394668757E-01
    0.7000000000E+01    0.5121488937E-02    0.3339435947E-01    0.1669779433E-02    0.1297826036E-02    0.3252935753E-01
    0.9000000000E+01    0.6424477318E-02    0.4169178117E-01    0.2095280506E-02    0.1664339772E-02    0.4061779003E-01
    0.1100000000E+02    0.7667628184E-02    0.4952290028E-01    0.2501548550E-02    0.2028980317E-02    0.4825409172E-01
    0.1300000000E+02    0.8856005003E-02    0.5692639384E-01    0.2890220896E-02    0.2391766395E-02    0.5547570073E-01
    0.1500000000E+02    0.9994106498E-02    0.6393676350E-01    0.3262751517E-02    0.2752716474E-02    0.6231601690E-01
    0.1700000000E+02    0.1108594258E-01    0.7058488464E-01    0.3620435741E-02    0.3111848763E-02    0.6880493267E-01
    0.1900000000E+02    0.1213509845E-01    0.7689847108E-01    0.3964431094E-02    0.3469181223E-02    0.7496928231E-01
    0.2100000000E+02    0.1314478892E-01    0.8290247005E-01    0.4295774977E-02    0.3824731569E-02    0.8083322372E-01
    0.2300000000E+02    0.1411790466E-01    0.8861939941E-01    0.4615399705E-02    0.4178517275E-02    0.8641856452E-01
    0.2500000000E+02    0.1505705179E-01    0.9406963669E-01    0.4924145361E-02    0.4530555576E-02    0.9174504150E-01
    0.2700000000E+02    0.1596458576E-01    0.9927166778E-01    0.5222770824E-02    0.4880863476E-02    0.9683056109E-01
    0.2900000000E+02    0.1684264060E-01    0.1042423018E+00    0.5511963269E-02    0.5229457746E-02    0.1016914071E+00
    0.3100000000E+02    0.1769315417E-01    0.1089968571E+00    0.5792346368E-02    0.5576354936E-02    0.1063424209E+00
    0.3300000000E+02    0.1851789012E-01    0.1135493233E+00    0.6064487408E-02    0.5921571371E-02    0.1107971577E+00
    0.3500000000E+02    0.1931845685E-01    0.1179125028E+00    0.6328903473E-02    0.6265123160E-02    0.1150680233E+00
    0.3700000000E+02    0.2009632422E-01    0.1220981337E+00    0.6586066847E-02    0.6607026196E-02    0.1191663938E+00
    0.3900000000E+02    0.2085283808E-01    0.1261169988E+00    0.6836409728E-02    0.6947296165E-02    0.1231027203E+00
    0.4100000000E+02    0.2158923302E-01    0.1299790207E+00    0.7080328379E-02    0.7285948541E-02    0.1268866213E+00
    0.4300000000E+02    0.2230664363E-01    0.1336933465E+00    0.7318186763E-02    0.7622998599E-02    0.1305269641E+00
    0.4500000000E+02    0.2300611439E-01    0.1372684218E+00    0.7550319762E-02    0.7958461412E-02    0.1340319370E+00
    0.4700000000E+02    0.2368860847E-01    0.1407120570E+00    0.7777036017E-02    0.8292351854E-02    0.1374091133E+00
    0.4900000000E+02    0.2435501546E-01    0.1440314859E+00    0.7998620440E-02    0.8624684610E-02    0.1406655079E+00
    0.1000000000E+02    0.7053201755E-02    0.4566310628E-01    0.2300711707E-02    0.1846893017E-02    0.4449001584E-01
    0.3000000000E+02    0.1727122597E-01    0.1066456855E+00    0.5653219286E-02    0.5403117451E-02    0.1040422674E+00
    0.5000000000E+02    0.2468244590E-01    0.1456467391E+00    0.8107571318E-02    0.8790271391E-02    0.1422504641E+00
    0.7000000000E+02    0.3055680111E-01    0.1728267595E+00    0.1007162715E-01    0.1202366996E-01    0.1689625018E+00
    0.9000000000E+02    0.3546800628E-01    0.1929049227E+00    0.1172863918E-01    0.1511676060E-01    0.1887571295E+00
    0.1100000000E+03    0.3971457606E-01    0.2083750546E+00    0.1317349138E-01    0.1808140328E-01    0.2040564510E+00
    0.1300000000E+03    0.4346899136E-01    0.2206808489E+00    0.1446079022E-01    0.2092810128E-01    0.2162640708E+00
    0.1500000000E+03    0.4683943125E-01    0.2307169782E+00    0.1562468883E-01    0.2366619267E-01    0.2262507023E+00
    0.1700000000E+03    0.4989838962E-01    0.2390679986E+00    0.1668803937E-01    0.2630401002E-01    0.2345858250E+00
    0.1900000000E+03    0.5269715557E-01    0.2461323525E+00    0.1766700512E-01    0.2884901428E-01    0.2416579984E+00
    0.2100000000E+03    0.5527367556E-01    0.2521911962E+00    0.1857355446E-01    0.3130790778E-01    0.2477416830E+00
    0.2300000000E+03    0.5765707985E-01    0.2574487390E+00    0.1941689103E-01    0.3368672985E-01    0.2530364272E+00
    0.2500000000E+03    0.5987042150E-01    0.2620569757E+00    0.2020431601E-01    0.3599093828E-01    0.2576909067E+00
    0.2700000000E+03    0.6193240741E-01    0.2661314364E+00    0.2094177123E-01    0.3822547894E-01    0.2618182439E+00
    0.2900000000E+03    0.6385853466E-01    0.2697615484E+00    0.2163419470E-01    0.4039484553E-01    0.2655060904E+00
    0.3100000000E+03    0.6566186242E-01    0.2730176457E+00    0.2228576153E-01    0.4250313112E-01    0.2688234538E+00
    0.3300000000E+03    0.6735355251E-01    0.2759558296E+00    0.2290005236E-01    0.4455407270E-01    0.2718254331E+00
    0.3500000000E+03    0.6894325841E-01    0.2786214130E+00    0.2348017442E-01    0.4655108986E-01    0.2745565762E+00
    0.3700000000E+03    0.7043941227E-01    0.2810514070E+00    0.2402885082E-01    0.4849731848E-01    0.2770533063E+00
    0.3900000000E+03    0.7184944147E-01    0.2832763486E+00    0.2454848784E-01    0.5039564021E-01    0.2793457057E+00
    0.4100000000E+03    0.7317993521E-01    0.2853216645E+00    0.2504122681E-01    0.5224870829E-01    0.2814588475E+00
    0.4300000000E+03    0.7443677511E-01    0.2872087028E+00    0.2550898480E-01    0.5405897024E-01    0.2834138040E+00
    0.4500000000E+03    0.7562523922E-01    0.2889555237E+00    0.2595348703E-01    0.5582868786E-01    0.2852284201E+00
    0.4700000000E+03    0.7675008601E-01    0.2905775125E+00    0.2637629311E-01    0.5755995498E-01    0.2869179128E+00
    0.4900000000E+03    0.7781562314E-01    0.2920878602E+00    0.2677881855E-01    0.5925471310E-01    0.2884953417E+00
    0.1000000000E+03    0.3766159491E-01    0.2011088650E+00    0.1247353644E-01    0.1661445210E-01    0.1968645829E+00
    0.3000000000E+03    0.6477481154E-01    0.2714325549E+00    0.2196484907E-01    0.4145638202E-01    0.2672073576E+00
    0.5000000000E+03    0.7832738766E-01    0.2928047858E+00    0.2697288345E-01    0.6008896984E-01    0.2892456166E+00
    0.7000000000E+03    0.8623497820E-01    0.3033648389E+00    0.3004961191E-01    0.7523373908E-01    0.3004356491E+00
    0.9000000000E+03    0.9110376553E-01    0.3097214266E+00    0.3206051409E-01    0.8816916700E-01    0.3073451771E+00
    0.1100000000E+04    0.9415610915E-01    0.3139898479E+00    0.3341955339E-01    0.9958602435E-01    0.3120985305E+00
    0.1300000000E+04    0.9604842043E-01    0.3170634904E+00    0.3435259801E-01    0.1098955332E+00    0.3156017626E+00
    0.1500000000E+04    0.9716406432E-01    0.3193870459E+00    0.3499350976E-01    0.1193605970E+00    0.3183101117E+00
    0.1700000000E+04    0.9774091053E-01    0.3212076240E+00    0.3542654350E-01    0.1281587509E+00    0.3204788367E+00
    0.1900000000E+04    0.9793359551E-01    0.3226738825E+00    0.3570726492E-01    0.1364151903E+00    0.3222628437E+00
    0.2100000000E+04    0.9784646311E-01    0.3238807925E+00    0.3587372175E-01    0.1442213583E+00    0.3237619380E+00
    0.2300000000E+04    0.9755210383E-01    0.3248919584E+00    0.3595278586E-01    0.1516460155E+00    0.3250435164E+00
    0.2500000000E+04    0.9710232015E-01    0.3257516299E+00    0.3596393612E-01    0.1587421444E+00    0.3261548481E+00
    0.2700000000E+04    0.9653488415E-01    0.3264915730E+00    0.3592160874E-01    0.1655514292E+00    0.3271301367E+00
    0.2900000000E+04    0.9587784878E-01    0.3271352000E+00    0.3583670917E-01    0.1721072588E+00    0.3279947879E+00
    0.3100000000E+04    0.9515238147E-01    0.3277001572E+00    0.3571761388E-01    0.1784367989E+00    0.3287680979E+00
    0.3300000000E+04    0.9437467491E-01    0.3282000045E+00    0.3557085156E-01    0.1845624580E+00    0.3294650062E+00
    0.3500000000E+04    0.9355726510E-01    0.3286453380E+00    0.3540157686E-01    0.1905029468E+00    0.3300972742E+00
    0.3700000000E+04    0.9270995879E-01    0.3290445614E+00    0.3521390668E-01    0.1962740593E+00    0.3306742983E+00
    0.3900000000E+04    0.9184049772E-01    0.3294044270E+00    0.3501116300E-01    0.2018892581E+00    0.3312036834E+00
    0.4100000000E+04    0.9095504200E-01    0.3297304244E+00    0.3479605123E-01    0.2073601206E+00    0.3316916564E+00
    0.4300000000E+04    0.9005852699E-01    0.3300270632E+00    0.3457079304E-01    0.2126966830E+00    0.3321433692E+00
    0.4500000000E+04    0.8915493014E-01    0.3302980834E+00    0.3433722661E-01    0.2179077095E+00    0.3325631244E+00
    0.4700000000E+04    0.8824747292E-01    0.3305466135E+00    0.3409688318E-01    0.2230009055E+00    0.3329545461E+00
    0.4900000000E+04    0.8733877528E-01    0.3307752908E+00    0.3385104619E-01    0.2279830874E+00    0.3333207106E+00
    0.1000000000E+04    0.9280734612E-01    0.3120454555E+00    0.3280450878E-01    0.9403718197E-01    0.3099193491E+00
    0.3000000000E+04    0.9552255823E-01    0.3274265843E+00    0.3578099100E-01    0.1752988170E+00    0.3283918408E+00
    0.5000000000E+04    0.8688464549E-01    0.3308828979E+00    0.3372641249E-01    0.2304344694E+00    0.3334951584E+00
    0.7000000000E+04    0.7808622954E-01    0.3323926917E+00    0.3113471536E-01    0.2748131390E+00    0.3361336731E+00
    0.9000000000E+04    0.7016763087E-01    0.3332227793E+00    0.2859265513E-01    0.3123251382E+00    0.3378206296E+00
    0.1100000000E+05    0.6320649231E-01    0.3337369356E+00    0.2623368243E-01    0.3447112671E+00    0.3390225802E+00
    0.1300000000E+05    0.5711781865E-01    0.3340792565E+00    0.2408670532E-01    0.3729916259E+00    0.3399368399E+00
    0.1500000000E+05    0.5179167428E-01    0.3343182382E+00    0.2214851374E-01    0.3978649205E+00    0.3406632827E+00
    0.1700000000E+05    0.4712366982E-01    0.3344905671E+00    0.2040489279E-01    0.4198559995E+00    0.3412587710E+00
    0.1900000000E+05    0.4302168179E-01    0.3346176297E+00    0.1883816566E-01    0.4393810185E+00    0.3417584887E+00
    0.2100000000E+05    0.3940638403E-01    0.3347127100E+00    0.1743023734E-01    0.4567805350E+00    0.3421855957E+00
    0.2300000000E+05    0.3621010222E-01    0.3347844767E+00    0.1616388647E-01    0.4723384961E+00    0.3425560801E+00
    0.2500000000E+05    0.3337529989E-01    0.3348388147E+00    0.1502329248E-01    0.4862943659E+00    0.3428814024E+00
    0.2700000000E+05    0.3085309871E-01    0.3348798504E+00    0.1399420289E-01    0.4988515845E+00    0.3431700306E+00
    0.2900000000E+05    0.2860195262E-01    0.3349105566E+00    0.1306392585E-01    0.5101838726E+00    0.3434283797E+00
    0.3100000000E+05    0.2658650100E-01    0.3349331238E+00    0.1222123893E-01    0.5204401498E+00    0.3436614116E+00
    0.3300000000E+05    0.2477659282E-01    0.3349491987E+00    0.1145626131E-01    0.5297484871E+00    0.3438730331E+00
    0.3500000000E+05    0.2314646361E-01    0.3349600397E+00    0.1076031464E-01    0.5382193432E+00    0.3440663665E+00
    0.3700000000E+05    0.2167404475E-01    0.3349666231E+00    0.1012578556E-01    0.5459482444E+00    0.3442439408E+00
    0.3900000000E+05    0.2034038497E-01    0.3349697163E+00    0.9545996947E-02    0.5530180206E+00    0.3444078282E+00
    0.4100000000E+05    0.1912916683E-01    0.3349699291E+00    0.9015090559E-02    0.5595006791E+00    0.3445597440E+00
    0.4300000000E+05    0.1802630222E-01    0.3349677515E+00    0.8527922285E-02    0.5654589799E+00    0.3447011212E+00
    0.4500000000E+05    0.1701959421E-01    0.3349635806E+00    0.8079969687E-02    0.5709477637E+00    0.3448331669E+00
    0.4700000000E+05    0.1609845379E-01    0.3349577411E+00    0.7667251103E-02    0.5760150738E+00    0.3449569056E+00
    0.4900000000E+05    0.1525366240E-01    0.3349505002E+00    0.7286255231E-02    0.5807031053E+00    0.3450732130E+00
    0.1000000000E+05    0.6657141421E-01    0.3335077075E+00    0.2738729934E-01    0.3290849295E+00    0.3384665580E+00
    0.3000000000E+05    0.2756676120E-01    0.3349227440E+00    0.1263228100E-01    0.5154380605E+00    0.3435477950E+00
    0.5000000000E+05    0.1485734176E-01    0.3349464250E+00    0.7106669447E-02    0.5829166791E+00    0.3451288194E+00
    0.7000000000E+05    0.9448058792E-02    0.3348291656E+00    0.4594300523E-02    0.6142671929E+00    0.3459880874E+00
    0.9000000000E+05    0.6676957193E-02    0.3346888240E+00    0.3253516473E-02    0.6314994412E+00    0.3465616591E+00
    0.1100000000E+06    0.5066915085E-02    0.3345498457E+00    0.2452674907E-02    0.6421145991E+00    0.3469877498E+00
    0.1300000000E+06    0.4044312055E-02    0.3344183389E+00    0.1934107230E-02    0.6491995924E+00    0.3473252712E+00
    0.1500000000E+06    0.3350662137E-02    0.3342955134E+00    0.1577549320E-02    0.6542148617E+00    0.3476041684E+00
    0.1700000000E+06    0.2855858090E-02    0.3341811008E+00    0.1320816839E-02    0.6579272863E+00    0.3478415610E+00
    0.1900000000E+06    0.2488618009E-02    0.3340744005E+00    0.1129102776E-02    0.6607731115E+00    0.3480480924E+00
    0.2100000000E+06    0.2207192203E-02    0.3339746322E+00    0.9816604655E-03    0.6630166510E+00    0.3482308075E+00
    0.2300000000E+06    0.1985775048E-02    0.3338810556E+00    0.8654783005E-03    0.6648263963E+00    0.3483946006E+00
    0.2500000000E+06    0.1807693363E-02    0.3337930072E+00    0.7720459745E-03    0.6663143351E+00    0.3485430054E+00
    0.2700000000E+06    0.1661767616E-02    0.3337099054E+00    0.6955979261E-03    0.6675575422E+00    0.3486786547E+00
    0.2900000000E+06    0.1540262197E-02    0.3336312449E+00    0.6321095322E-03    0.6686106543E+00    0.3488035608E+00
    0.3100000000E+06    0.1437677826E-02    0.3335565877E+00    0.5786982390E-03    0.6695133964E+00    0.3489192965E+00
    0.3300000000E+06    0.1350012188E-02    0.3334855534E+00    0.5332528244E-03    0.6702952924E+00    0.3490271134E+00
    0.3500000000E+06    0.1274291913E-02    0.3334178109E+00    0.4941964069E-03    0.6709787099E+00    0.3491280237E+00
    0.3700000000E+06    0.1208267547E-02    0.3333530711E+00    0.4603306353E-03    0.6715808842E+00    0.3492228578E+00
    0.3900000000E+06    0.1150209574E-02    0.3332910800E+00    0.4307306786E-03    0.6721152972E+00    0.3493123050E+00
    0.4100000000E+06    0.1098768847E-02    0.3332316139E+00    0.4046728742E-03    0.6725926369E+00    0.3493969436E+00
    0.4300000000E+06    0.1052879135E-02    0.3331744751E+00    0.3815838842E-03    0.6730214797E+00    0.3494772638E+00
    0.4500000000E+06    0.1011687792E-02    0.3331194875E+00    0.3610043252E-03    0.6734087829E+00    0.3495536846E+00
    0.4700000000E+06    0.9745056251E-03    0.3330664944E+00    0.3425623298E-03    0.6737602464E+00    0.3496265669E+00
    0.4900000000E+06    0.9407700724E-03    0.3330153553E+00    0.3259540436E-03    0.6740805826E+00    0.3496962235E+00
    0.1000000000E+06    0.5773716846E-02    0.3346185955E+00    0.2806461868E-02    0.6373850791E+00    0.3467884660E+00
    0.3000000000E+06    0.1486883630E-02    0.3335934409E+00    0.6042910065E-03    0.6690787792E+00    0.3488624904E+00
    0.5000000000E+06    0.9250467100E-03    0.3329904410E+00    0.3182575191E-03    0.6742303316E+00    0.3497299290E+00
    0.7000000000E+06    0.7126790514E-03    0.3325646540E+00    0.2179917035E-03    0.6762722072E+00    0.3502859795E+00
    0.9000000000E+06    0.5989793102E-03    0.3322347950E+00    0.1684026081E-03    0.6773631537E+00    0.3506960339E+00
    0.1100000000E+07    0.5266793684E-03    0.3319651974E+00    0.1390744385E-03    0.6780423952E+00    0.3510210335E+00
    0.1300000000E+07    0.4758224398E-03    0.3317370373E+00    0.1197201083E-03    0.6785066888E+00    0.3512902794E+00
    0.1500000000E+07    0.4376244817E-03    0.3315391539E+00    0.1059699039E-03    0.6788446731E+00    0.3515201344E+00
    0.1700000000E+07    0.4075942722E-03    0.3313643782E+00    0.9567126025E-04    0.6791021110E+00    0.3517206714E+00
    0.1900000000E+07    0.3831825326E-03    0.3312078285E+00    0.8764674459E-04    0.6793050091E+00    0.3518985339E+00
    0.2100000000E+07    0.3628264389E-03    0.3310660285E+00    0.8119996238E-04    0.6794692409E+00    0.3520583351E+00
    0.2300000000E+07    0.3455096647E-03    0.3309364138E+00    0.7589328862E-04    0.6796050467E+00    0.3522034093E+00
    0.2500000000E+07    0.3305397419E-03    0.3308170380E+00    0.7143807196E-04    0.6797193308E+00    0.3523362452E+00
    0.2700000000E+07    0.3174267343E-03    0.3307063885E+00    0.6763624112E-04    0.6798169192E+00    0.3524587491E+00
    0.2900000000E+07    0.3058130561E-03    0.3306032659E+00    0.6434733326E-04    0.6799012883E+00    0.3525724140E+00
    0.3100000000E+07    0.2954308299E-03    0.3305067033E+00    0.6146893071E-04    0.6799750064E+00    0.3526784310E+00
    0.3300000000E+07    0.2860748903E-03    0.3304159095E+00    0.5892455865E-04    0.6800400131E+00    0.3527777653E+00
    0.3500000000E+07    0.2775850844E-03    0.3303302288E+00    0.5665592668E-04    0.6800978007E+00    0.3528712104E+00
    0.3700000000E+07    0.2698343136E-03    0.3302491116E+00    0.5461779954E-04    0.6801495366E+00    0.3529594262E+00
    0.3900000000E+07    0.2627202408E-03    0.3301720929E+00    0.5277451363E-04    0.6801961477E+00    0.3530429675E+00
    0.4100000000E+07    0.2561594060E-03    0.3300987755E+00    0.5109755457E-04    0.6802383789E+00    0.3531223052E+00
    0.4300000000E+07    0.2500829661E-03    0.3300288174E+00    0.4956383696E-04    0.6802768364E+00    0.3531978426E+00
    0.4500000000E+07    0.2444335538E-03    0.3299619221E+00    0.4815445948E-04    0.6803120183E+00    0.3532699274E+00
    0.4700000000E+07    0.2391629254E-03    0.3298978309E+00    0.4685378892E-04    0.6803443381E+00    0.3533388618E+00
    0.4900000000E+07    0.2342301716E-03    0.3298363165E+00    0.4564877561E-04    0.6803741418E+00    0.3534049098E+00
    0.1000000000E+07    0.5593052171E-03    0.3320938854E+00    0.1520641785E-03    0.6777380842E+00    0.3508669071E+00
    0.3000000000E+07    0.3004820621E-03    0.3305542177E+00    0.6286209961E-04    0.6799393452E+00    0.3526263136E+00
    0.5000000000E+07    0.2318793737E-03    0.3298064621E+00    0.4507863863E-04    0.6803881930E+00    0.3534369251E+00
    0.7000000000E+07    0.1962808030E-03    0.3293063272E+00    0.3675913454E-04    0.6805887087E+00    0.3539697828E+00
    0.9000000000E+07    0.1735205796E-03    0.3289295553E+00    0.3173092440E-04    0.6807045852E+00    0.3543674658E+00
    0.1100000000E+08    0.1573392595E-03    0.3286269983E+00    0.2828331105E-04    0.6807810267E+00    0.3546848940E+00
    0.1300000000E+08    0.1450638543E-03    0.3283740906E+00    0.2573436007E-04    0.6808357148E+00    0.3549490999E+00
    0.1500000000E+08    0.1353331326E-03    0.3281567642E+00    0.2375283168E-04    0.6808770475E+00    0.3551754043E+00
    0.1700000000E+08    0.1273704054E-03    0.3279662027E+00    0.2215620932E-04    0.6809095488E+00    0.3553733362E+00
    0.1900000000E+08    0.1206955589E-03    0.3277965124E+00    0.2083467829E-04    0.6809358821E+00    0.3555492283E+00
    0.2100000000E+08    0.1149935557E-03    0.3276435570E+00    0.1971772695E-04    0.6809577231E+00    0.3557075039E+00
    0.2300000000E+08    0.1100478809E-03    0.3275043213E+00    0.1875775342E-04    0.6809761820E+00    0.3558513749E+00
    0.2500000000E+08    0.1057041206E-03    0.3273765392E+00    0.1792131610E-04    0.6809920248E+00    0.3559832476E+00
    0.2700000000E+08    0.1018487635E-03    0.3272584640E+00    0.1718414665E-04    0.6810057985E+00    0.3561049715E+00
