  Pressure (Pa) 2mC6-400 (mol/kg) 3mC6-400 (mol/kg) 33mC5-400 (mol/kg) 23mC5-400 (mol/kg) C7-400 (mol/kg)
    0.1000000000E+01    0.7887870020E-03    0.2085152898E-02    0.1927063087E-03    0.4669729278E-03    0.1184321974E-01
    0.3000000000E+01    0.2282522694E-02    0.5996875513E-02    0.5578667479E-03    0.1396298444E-02    0.3406795123E-01
    0.5000000000E+01    0.3675922421E-02    0.9598237292E-02    0.8988060083E-03    0.2319527315E-02    0.5453799308E-01
    0.7000000000E+01    0.4980818772E-02    0.1292497978E-01    0.1218397541E-02    0.3236734966E-02    0.7345510073E-01
    0.9000000000E+01    0.6207236680E-02    0.1600755085E-01    0.1519074206E-02    0.4147995541E-02    0.9099117092E-01
    0.1100000000E+02    0.7363722863E-02    0.1887205011E-01    0.1802908730E-02    0.5053381932E-02    0.1072935719E+00
    0.1300000000E+02    0.8457606214E-02    0.2154097874E-01    0.2071677270E-02    0.5952965806E-02    0.1224893709E+00
    0.1500000000E+02    0.9495205371E-02    0.2403383930E-01    0.2326910078E-02    0.6846817626E-02    0.1366887164E+00
    0.1700000000E+02    0.1048199553E-01    0.2636761937E-01    0.2569932200E-02    0.7735006682E-02    0.1499875655E+00
    0.1900000000E+02    0.1142274348E-01    0.2855718460E-01    0.2801896417E-02    0.8617601114E-02    0.1624699005E+00
    0.2100000000E+02    0.1232161772E-01    0.3061560016E-01    0.3023810086E-02    0.9494667933E-02    0.1742095422E+00
    0.2300000000E+02    0.1318227875E-01    0.3255439557E-01    0.3236557162E-02    0.1036627305E-01    0.1852716431E+00
    0.2500000000E+02    0.1400795367E-01    0.3438378401E-01    0.3440916365E-02    0.1123248129E-01    0.1957139251E+00
    0.2700000000E+02    0.1480149807E-01    0.3611284515E-01    0.3637576260E-02    0.1209335643E-01    0.2055877109E+00
    0.2900000000E+02    0.1556544775E-01    0.3774967830E-01    0.3827147843E-02    0.1294896119E-01    0.2149387877E+00
    0.3100000000E+02    0.1630206199E-01    0.3930153138E-01    0.4010175088E-02    0.1379935730E-01    0.2238081350E+00
    0.3300000000E+02    0.1701336017E-01    0.4077491003E-01    0.4187143842E-02    0.1464460549E-01    0.2322325405E+00
    0.3500000000E+02    0.1770115269E-01    0.4217567037E-01    0.4358489347E-02    0.1548476549E-01    0.2402451236E+00
    0.3700000000E+02    0.1836706728E-01    0.4350909817E-01    0.4524602642E-02    0.1631989610E-01    0.2478757821E+00
    0.3900000000E+02    0.1901257145E-01    0.4477997673E-01    0.4685836018E-02    0.1715005519E-01    0.2551515751E+00
    0.4100000000E+02    0.1963899177E-01    0.4599264528E-01    0.4842507698E-02    0.1797529968E-01    0.2620970530E+00
    0.4300000000E+02    0.2024753045E-01    0.4715104938E-01    0.4994905862E-02    0.1879568563E-01    0.2687345419E+00
    0.4500000000E+02    0.2083927963E-01    0.4825878467E-01    0.5143292112E-02    0.1961126819E-01    0.2750843908E+00
    0.4700000000E+02    0.2141523374E-01    0.4931913486E-01    0.5287904485E-02    0.2042210166E-01    0.2811651854E+00
    0.4900000000E+02    0.2197630032E-01    0.5033510487E-01    0.5428960058E-02    0.2122823949E-01    0.2869939362E+00
    0.1000000000E+02    0.6793737296E-02    0.1746557646E-01    0.1662979424E-02    0.4601418502E-02    0.9928820579E-01
    0.3000000000E+02    0.1593704035E-01    0.3853580451E-01    0.3919447874E-02    0.1337480651E-01    0.2194312866E+00
    0.5000000000E+02    0.2225151296E-01    0.5082731735E-01    0.5498216716E-02    0.2162956402E-01    0.2898187209E+00
    0.7000000000E+02    0.2714236245E-01    0.5890221694E-01    0.6736764867E-02    0.2942195400E-01    0.3362569354E+00
    0.9000000000E+02    0.3116799593E-01    0.6462358685E-01    0.7768231529E-02    0.3680011762E-01    0.3692996870E+00
    0.1100000000E+03    0.3459877442E-01    0.6889554638E-01    0.8656710294E-02    0.4380549974E-01    0.3940756277E+00
    0.1300000000E+03    0.3758547431E-01    0.7221048379E-01    0.9437818148E-02    0.5047398357E-01    0.4133817048E+00
    0.1500000000E+03    0.4022168241E-01    0.7485976582E-01    0.1013363564E-01    0.5683680159E-01    0.4288752677E+00
    0.1700000000E+03    0.4257049216E-01    0.7702697764E-01    0.1075906221E-01    0.6292127256E-01    0.4416020216E+00
    0.1900000000E+03    0.4467724614E-01    0.7883362913E-01    0.1132483268E-01    0.6875140221E-01    0.4522550425E+00
    0.2100000000E+03    0.4657617492E-01    0.8036339807E-01    0.1183908059E-01    0.7434837621E-01    0.4613122750E+00
    0.2300000000E+03    0.4829411739E-01    0.8167582216E-01    0.1230821039E-01    0.7973096722E-01    0.4691142514E+00
    0.2500000000E+03    0.4985273949E-01    0.8281443855E-01    0.1273741561E-01    0.8491587326E-01    0.4759103309E+00
    0.2700000000E+03    0.5126993089E-01    0.8381183367E-01    0.1313100420E-01    0.8991800026E-01    0.4818874100E+00
    0.2900000000E+03    0.5256072650E-01    0.8469289122E-01    0.1349261292E-01    0.9475069958E-01    0.4871884042E+00
    0.3100000000E+03    0.5373794021E-01    0.8547694714E-01    0.1382535462E-01    0.9942596840E-01    0.4919245198E+00
    0.3300000000E+03    0.5481261660E-01    0.8617925824E-01    0.1413192331E-01    0.1039546198E+00    0.4961836240E+00
    0.3500000000E+03    0.5579436308E-01    0.8681202697E-01    0.1441467157E-01    0.1083464277E+00    0.5000360903E+00
    0.3700000000E+03    0.5669160081E-01    0.8738513148E-01    0.1467566908E-01    0.1126102507E+00    0.5035389663E+00
    0.3900000000E+03    0.5751175862E-01    0.8790665544E-01    0.1491674801E-01    0.1167541390E+00    0.5067390004E+00
    0.4100000000E+03    0.5826142594E-01    0.8838327904E-01    0.1513953892E-01    0.1207854256E+00    0.5096748777E+00
    0.4300000000E+03    0.5894647549E-01    0.8882057173E-01    0.1534549962E-01    0.1247108066E+00    0.5123788956E+00
    0.4500000000E+03    0.5957216298E-01    0.8922321460E-01    0.1553593873E-01    0.1285364099E+00    0.5148782369E+00
    0.4700000000E+03    0.6014320940E-01    0.8959517119E-01    0.1571203519E-01    0.1322678555E+00    0.5171959492E+00
    0.4900000000E+03    0.6066386943E-01    0.8993982032E-01    0.1587485449E-01    0.1359103083E+00    0.5193517068E+00
    0.1000000000E+03    0.3294650828E-01    0.6690363820E-01    0.8227688937E-02    0.4034704495E-01    0.3825103263E+00
    0.3000000000E+03    0.5316280370E-01    0.8509600897E-01    0.1366241497E-01    0.9710731104E-01    0.4896211114E+00
    0.5000000000E+03    0.6090652098E-01    0.9010282671E-01    0.1595159057E-01    0.1376996633E+00    0.5203742286E+00
    0.7000000000E+03    0.6387698411E-01    0.9245520935E-01    0.1698181389E-01    0.1697911172E+00    0.5353962715E+00
    0.9000000000E+03    0.6456652857E-01    0.9381896265E-01    0.1738487439E-01    0.1966562361E+00    0.5444361876E+00
    0.1100000000E+04    0.6406099312E-01    0.9470593499E-01    0.1744319775E-01    0.2199594576E+00    0.5505333653E+00
    0.1300000000E+04    0.6289992411E-01    0.9532646885E-01    0.1730074700E-01    0.2406523186E+00    0.5549540819E+00
    0.1500000000E+04    0.6137509667E-01    0.9578307004E-01    0.1703755439E-01    0.2593274336E+00    0.5583236461E+00
    0.1700000000E+04    0.5965392374E-01    0.9613170289E-01    0.1670098570E-01    0.2763789485E+00    0.5609878842E+00
    0.1900000000E+04    0.5783659696E-01    0.9640552062E-01    0.1632041431E-01    0.2920830931E+00    0.5631542749E+00
    0.2100000000E+04    0.5598484721E-01    0.9662541268E-01    0.1591470809E-01    0.3066419255E+00    0.5649551926E+00
    0.2300000000E+04    0.5413739308E-01    0.9680519303E-01    0.1549630786E-01    0.3202086177E+00    0.5664792660E+00
    0.2500000000E+04    0.5231868462E-01    0.9695435938E-01    0.1507357016E-01    0.3329028342E+00    0.5677881860E+00
    0.2700000000E+04    0.5054406979E-01    0.9707965457E-01    0.1465217372E-01    0.3448204898E+00    0.5689262892E+00
    0.2900000000E+04    0.4882295869E-01    0.9718599598E-01    0.1423599554E-01    0.3560401671E+00    0.5699263065E+00
    0.3100000000E+04    0.4716082115E-01    0.9727705262E-01    0.1382767426E-01    0.3666274694E+00    0.5708129593E+00
    0.3300000000E+04    0.4556048031E-01    0.9735561644E-01    0.1342898244E-01    0.3766380555E+00    0.5716052897E+00
    0.3500000000E+04    0.4402296890E-01    0.9742384868E-01    0.1304107835E-01    0.3861198046E+00    0.5723182187E+00
    0.3700000000E+04    0.4254810642E-01    0.9748344767E-01    0.1266467988E-01    0.3951143970E+00    0.5729636151E+00
    0.3900000000E+04    0.4113489415E-01    0.9753576588E-01    0.1230018674E-01    0.4036584881E+00    0.5735510462E+00
    0.4100000000E+04    0.3978178905E-01    0.9758189321E-01    0.1194776775E-01    0.4117845991E+00    0.5740883161E+00
    0.4300000000E+04    0.3848689534E-01    0.9762271732E-01    0.1160742391E-01    0.4195218011E+00    0.5745818589E+00
    0.4500000000E+04    0.3724809963E-01    0.9765896818E-01    0.1127903463E-01    0.4268962514E+00    0.5750370300E+00
    0.4700000000E+04    0.3606316657E-01    0.9769125130E-01    0.1096239183E-01    0.4339316176E+00    0.5754583261E+00
    0.4900000000E+04    0.3492980664E-01    0.9772007295E-01    0.1065722533E-01    0.4406494193E+00    0.5758495528E+00
    0.1000000000E+04    0.6442141650E-01    0.9430517867E-01    0.1744607799E-01    0.2086824442E+00    0.5477514362E+00
    0.3000000000E+04    0.4798429145E-01    0.9723324320E-01    0.1403072512E-01    0.3614091821E+00    0.5703825014E+00
    0.5000000000E+04    0.3438174842E-01    0.9773332166E-01    0.1050884908E-01    0.4438954405E+00    0.5760349230E+00
    0.7000000000E+04    0.2559825576E-01    0.9789160558E-01    0.8058149314E-02    0.4961370053E+00    0.5787473910E+00
    0.9000000000E+04    0.1979651874E-01    0.9794479240E-01    0.6359771242E-02    0.5315315953E+00    0.5803747751E+00
    0.1100000000E+05    0.1581388839E-01    0.9795523356E-01    0.5152098530E-02    0.5566889800E+00    0.5814733431E+00
    0.1300000000E+05    0.1297770111E-01    0.9794566360E-01    0.4268102025E-02    0.5752657394E+00    0.5822720107E+00
    0.1500000000E+05    0.1089159964E-01    0.9792600955E-01    0.3603294506E-02    0.5894205576E+00    0.5828832124E+00
    0.1700000000E+05    0.9313831672E-02    0.9790113058E-01    0.3091170204E-02    0.6004921486E+00    0.5833689166E+00
    0.1900000000E+05    0.8091567143E-02    0.9787359577E-01    0.2688278878E-02    0.6093454282E+00    0.5837661954E+00
    0.2100000000E+05    0.7124905008E-02    0.9784483734E-01    0.2365450337E-02    0.6165591621E+00    0.5840986398E+00
    0.2300000000E+05    0.6346539597E-02    0.9781568256E-01    0.2102588140E-02    0.6225326097E+00    0.5843820068E+00
    0.2500000000E+05    0.5709885149E-02    0.9778661930E-01    0.1885513895E-02    0.6275486249E+00    0.5846272407E+00
    0.2700000000E+05    0.5181912737E-02    0.9775793708E-01    0.1704006347E-02    0.6318123373E+00    0.5848421918E+00
    0.2900000000E+05    0.4738697796E-02    0.9772980586E-01    0.1550552030E-02    0.6354756173E+00    0.5850326463E+00
    0.3100000000E+05    0.4362575233E-02    0.9770232180E-01    0.1419530029E-02    0.6386529893E+00    0.5852029683E+00
    0.3300000000E+05    0.4040275534E-02    0.9767553474E-01    0.1306668004E-02    0.6414322439E+00    0.5853565160E+00
    0.3500000000E+05    0.3761675458E-02    0.9764946512E-01    0.1208671646E-02    0.6438816768E+00    0.5854959184E+00
    0.3700000000E+05    0.3518943121E-02    0.9762411476E-01    0.1122967434E-02    0.6460551278E+00    0.5856232656E+00
    0.3900000000E+05    0.3305941841E-02    0.9759947362E-01    0.1047520898E-02    0.6479955540E+00    0.5857402417E+00
    0.4100000000E+05    0.3117807190E-02    0.9757552436E-01    0.9807061648E-03    0.6497376055E+00    0.5858482203E+00
    0.4300000000E+05    0.2950642180E-02    0.9755224524E-01    0.9212109045E-03    0.6513095121E+00    0.5859483340E+00
    0.4500000000E+05    0.2801294367E-02    0.9752961204E-01    0.8679661405E-03    0.6527344839E+00    0.5860415256E+00
    0.4700000000E+05    0.2667190691E-02    0.9750759943E-01    0.8200937529E-03    0.6540317639E+00    0.5861285871E+00
    0.4900000000E+05    0.2546213580E-02    0.9748618175E-01    0.7768667621E-03    0.6552174304E+00    0.5862101892E+00
    0.1000000000E+05    0.1762830688E-01    0.9795347955E-01    0.5706869043E-02    0.5451147907E+00    0.5809718365E+00
    0.3000000000E+05    0.4543165344E-02    0.9771597897E-01    0.1482530606E-02    0.6371190262E+00    0.5851200942E+00
    0.5000000000E+05    0.2490086683E-02    0.9747568804E-01    0.7568018115E-03    0.6557727223E+00    0.5862491251E+00
    0.7000000000E+05    0.1755483954E-02    0.9729133321E-01    0.4945368867E-03    0.6633966220E+00    0.5868443560E+00
    0.9000000000E+05    0.1389685100E-02    0.9714353129E-01    0.3658455082E-03    0.6674915083E+00    0.5872342216E+00
    0.1100000000E+06    0.1172017808E-02    0.9702045292E-01    0.2911575052E-03    0.6700369219E+00    0.5875190243E+00
    0.1300000000E+06    0.1027355820E-02    0.9691506566E-01    0.2429533904E-03    0.6717698827E+00    0.5877411593E+00
    0.1500000000E+06    0.9237641911E-03    0.9682293068E-01    0.2094789672E-03    0.6730252607E+00    0.5879221205E+00
    0.1700000000E+06    0.8455195661E-03    0.9674108417E-01    0.1849575534E-03    0.6739765438E+00    0.5880741683E+00
    0.1900000000E+06    0.7840245134E-03    0.9666745376E-01    0.1662497793E-03    0.6747224132E+00    0.5882049004E+00
    0.2100000000E+06    0.7341929381E-03    0.9660053514E-01    0.1515151206E-03    0.6753230734E+00    0.5883193247E+00
    0.2300000000E+06    0.6928258189E-03    0.9653920242E-01    0.1396085944E-03    0.6758173127E+00    0.5884209034E+00
    0.2500000000E+06    0.6578099261E-03    0.9648259118E-01    0.1297831168E-03    0.6762312377E+00    0.5885121224E+00
    0.2700000000E+06    0.6276921816E-03    0.9643002342E-01    0.1215317395E-03    0.6765830599E+00    0.5885948229E+00
    0.2900000000E+06    0.6014395378E-03    0.9638095759E-01    0.1144989952E-03    0.6768858686E+00    0.5886704042E+00
    0.3100000000E+06    0.5782965813E-03    0.9633495423E-01    0.1084285975E-03    0.6771493124E+00    0.5887399531E+00
    0.3300000000E+06    0.5576974574E-03    0.9629165188E-01    0.1031312937E-03    0.6773806599E+00    0.5888043294E+00
    0.3500000000E+06    0.5392093950E-03    0.9625074959E-01    0.9846439656E-04    0.6775854912E+00    0.5888642244E+00
    0.3700000000E+06    0.5224953509E-03    0.9621199417E-01    0.9431834992E-04    0.6777681610E+00    0.5889202018E+00
    0.3900000000E+06    0.5072886181E-03    0.9617517055E-01    0.9060767088E-04    0.6779321177E+00    0.5889727270E+00
    0.4100000000E+06    0.4933751491E-03    0.9614009448E-01    0.8726469819E-04    0.6780801277E+00    0.5890221883E+00
    0.4300000000E+06    0.4805809863E-03    0.9610660696E-01    0.8423518579E-04    0.6782144363E+00    0.5890689131E+00
    0.4500000000E+06    0.4687631516E-03    0.9607456975E-01    0.8147513804E-04    0.6783368845E+00    0.5891131796E+00
    0.4700000000E+06    0.4578029320E-03    0.9604386197E-01    0.7894849818E-04    0.6784489969E+00    0.5891552265E+00
    0.4900000000E+06    0.4476008514E-03    0.9601437724E-01    0.7662543385E-04    0.6785520463E+00    0.5891952597E+00
    0.1000000000E+06    0.1268600340E-02    0.9707942070E-01    0.3240416038E-03    0.6688975663E+00    0.5873863896E+00
    0.3000000000E+06    0.5895183792E-03    0.9635759729E-01    0.1113566197E-03    0.6770220105E+00    0.5887058744E+00
    0.5000000000E+06    0.4427573290E-03    0.9600006371E-01    0.7553229789E-04    0.6786005140E+00    0.5892145779E+00
    0.7000000000E+06    0.3707523927E-03    0.9575997669E-01    0.6002551335E-04    0.6792827773E+00    0.5895285246E+00
    0.9000000000E+06    0.3258689088E-03    0.9557885504E-01    0.5105748934E-04    0.6796671177E+00    0.5897547445E+00
    0.1100000000E+07    0.2944098592E-03    0.9543333001E-01    0.4507959628E-04    0.6799153866E+00    0.5899311935E+00
    0.1300000000E+07    0.2707588438E-03    0.9531166358E-01    0.4074537463E-04    0.6800898457E+00    0.5900756398E+00
    0.1500000000E+07    0.2521265960E-03    0.9520711451E-01    0.3742374730E-04    0.6802196483E+00    0.5901978083E+00
    0.1700000000E+07    0.2369484051E-03    0.9511545030E-01    0.3477626884E-04    0.6803203030E+00    0.5903035911E+00
    0.1900000000E+07    0.2242687533E-03    0.9503383806E-01    0.3260357905E-04    0.6804008389E+00    0.5903968247E+00
    0.2100000000E+07    0.2134663599E-03    0.9496028795E-01    0.3077983262E-04    0.6804668786E+00    0.5904801443E+00
    0.2300000000E+07    0.2041172554E-03    0.9489334849E-01    0.2922125216E-04    0.6805221115E+00    0.5905554372E+00
    0.2500000000E+07    0.1959207759E-03    0.9483192826E-01    0.2786966471E-04    0.6805690621E+00    0.5906241005E+00
    0.2700000000E+07    0.1886569139E-03    0.9477518578E-01    0.2668326960E-04    0.6806095179E+00    0.5906871973E+00
    0.2900000000E+07    0.1821604333E-03    0.9472245856E-01    0.2563116660E-04    0.6806447812E+00    0.5907455549E+00
    0.3100000000E+07    0.1763044734E-03    0.9467321564E-01    0.2468996140E-04    0.6806758242E+00    0.5907998296E+00
    0.3300000000E+07    0.1709897850E-03    0.9462702496E-01    0.2384157775E-04    0.6807033878E+00    0.5908505507E+00
    0.3500000000E+07    0.1661374436E-03    0.9458353014E-01    0.2307180050E-04    0.6807280469E+00    0.5908981511E+00
    0.3700000000E+07    0.1616837859E-03    0.9454243385E-01    0.2236927804E-04    0.6807502549E+00    0.5909429897E+00
    0.3900000000E+07    0.1575768089E-03    0.9450348539E-01    0.2172482216E-04    0.6807703740E+00    0.5909853667E+00
    0.4100000000E+07    0.1537735560E-03    0.9446647143E-01    0.2113090614E-04    0.6807886975E+00    0.5910255365E+00
    0.4300000000E+07    0.1502381873E-03    0.9443120895E-01    0.2058129810E-04    0.6808054655E+00    0.5910637156E+00
    0.4500000000E+07    0.1469405295E-03    0.9439753972E-01    0.2007078839E-04    0.6808208765E+00    0.5911000908E+00
    0.4700000000E+07    0.1438549723E-03    0.9436532604E-01    0.1959498403E-04    0.6808350959E+00    0.5911348234E+00
    0.4900000000E+07    0.1409596172E-03    0.9433444735E-01    0.1915015140E-04    0.6808482629E+00    0.5911680544E+00
    0.1000000000E+07    0.3089100478E-03    0.9550253924E-01    0.4780418692E-04    0.6798032057E+00    0.5898478122E+00
    0.3000000000E+07    0.1791591399E-03    0.9469743058E-01    0.2514793636E-04    0.6806607794E+00    0.5907731670E+00
    0.5000000000E+07    0.1395772702E-03    0.9431947493E-01    0.1893833248E-04    0.6808544895E+00    0.5911841460E+00
    0.7000000000E+07    0.1184666740E-03    0.9406990326E-01    0.1574855526E-04    0.6809448015E+00    0.5914504921E+00
    0.9000000000E+07    0.1048242116E-03    0.9388330509E-01    0.1373260799E-04    0.6809984588E+00    0.5916476137E+00
    0.1100000000E+08    0.9507336873E-04    0.9373423940E-01    0.1231417618E-04    0.6810345949E+00    0.5918040516E+00
    0.1300000000E+08    0.8765397046E-04    0.9361011981E-01    0.1124786008E-04    0.6810608786E+00    0.5919337012E+00
    0.1500000000E+08    0.8176185162E-04    0.9350379042E-01    0.1040930998E-04    0.6810810195E+00    0.5920443764E+00
    0.1700000000E+08    0.7693466624E-04    0.9341079110E-01    0.9727960543E-05    0.6810970455E+00    0.5921409082E+00
    0.1900000000E+08    0.7288513677E-04    0.9332815335E-01    0.9160426437E-05    0.6811101655E+00    0.5922264919E+00
    0.2100000000E+08    0.6942406837E-04    0.9325380137E-01    0.8678386129E-05    0.6811211482E+00    0.5923033507E+00
    0.2300000000E+08    0.6642108288E-04    0.9318622657E-01    0.8262469943E-05    0.6811305076E+00    0.5923730934E+00
    0.2500000000E+08    0.6378300759E-04    0.9312429807E-01    0.7898927082E-05    0.6811386014E+00    0.5924369219E+00
    0.2700000000E+08    0.6144124230E-04    0.9306714625E-01    0.7577692676E-05    0.6811456871E+00    0.5924957576E+00
