  Pressure (Pa) 2mC6-400 (mol/kg) 3mC6-400 (mol/kg) 33mC5-400 (mol/kg) 23mC5-400 (mol/kg) C7-400 (mol/kg)
    0.1000000000E+01    0.7886271910E-03    0.4168161964E-02    0.1284460672E-03    0.2802787038E-03    0.1014613920E-01
    0.3000000000E+01    0.2281333895E-02    0.1197603196E-01    0.3717283252E-03    0.8386274367E-03    0.2915818329E-01
    0.5000000000E+01    0.3673224612E-02    0.1915111354E-01    0.5987939446E-03    0.1394056074E-02    0.4663696840E-01
    0.7000000000E+01    0.4976569002E-02    0.2576775447E-01    0.8116292011E-03    0.1946594019E-02    0.6276235841E-01
    0.9000000000E+01    0.6201721197E-02    0.3188907757E-01    0.1011909120E-02    0.2496270264E-02    0.7768708268E-01
    0.1100000000E+02    0.7357475566E-02    0.3756902282E-01    0.1201055395E-02    0.3043113404E-02    0.9154167027E-01
    0.1300000000E+02    0.8451346557E-02    0.4285395932E-01    0.1380281936E-02    0.3587151638E-02    0.1044383451E+00
    0.1500000000E+02    0.9489790788E-02    0.4778396919E-01    0.1550631003E-02    0.4128412778E-02    0.1164741284E+00
    0.1700000000E+02    0.1047838478E-01    0.5239387873E-01    0.1713002115E-02    0.4666924255E-02    0.1277333312E+00
    0.1900000000E+02    0.1142196828E-01    0.5671409305E-01    0.1868175360E-02    0.5202713128E-02    0.1382895713E+00
    0.2100000000E+02    0.1232476072E-01    0.6077127649E-01    0.2016830316E-02    0.5735806089E-02    0.1482074181E+00
    0.2300000000E+02    0.1319045636E-01    0.6458891122E-01    0.2159561525E-02    0.6266229465E-02    0.1575437432E+00
    0.2500000000E+02    0.1402230269E-01    0.6818775845E-01    0.2296891210E-02    0.6794009234E-02    0.1663488350E+00
    0.2700000000E+02    0.1482316522E-01    0.7158624186E-01    0.2429279814E-02    0.7319171019E-02    0.1746673260E+00
    0.2900000000E+02    0.1559558148E-01    0.7480076777E-01    0.2557134752E-02    0.7841740105E-02    0.1825389673E+00
    0.3100000000E+02    0.1634180616E-01    0.7784599424E-01    0.2680817737E-02    0.8361741438E-02    0.1899992785E+00
    0.3300000000E+02    0.1706384909E-01    0.8073505803E-01    0.2800650944E-02    0.8879199632E-02    0.1970800977E+00
    0.3500000000E+02    0.1776350727E-01    0.8347976727E-01    0.2916922201E-02    0.9394138975E-02    0.2038100463E+00
    0.3700000000E+02    0.1844239211E-01    0.8609076537E-01    0.3029889400E-02    0.9906583435E-02    0.2102149267E+00
    0.3900000000E+02    0.1910195261E-01    0.8857767142E-01    0.3139784253E-02    0.1041655667E-01    0.2163180607E+00
    0.4100000000E+02    0.1974349513E-01    0.9094920061E-01    0.3246815501E-02    0.1092408201E-01    0.2221405818E+00
    0.4300000000E+02    0.2036820050E-01    0.9321326809E-01    0.3351171664E-02    0.1142918250E-01    0.2277016862E+00
    0.4500000000E+02    0.2097713859E-01    0.9537707888E-01    0.3453023419E-02    0.1193188089E-01    0.2330188501E+00
    0.4700000000E+02    0.2157128105E-01    0.9744720583E-01    0.3552525647E-02    0.1243219961E-01    0.2381080184E+00
    0.4900000000E+02    0.2215151226E-01    0.9942965756E-01    0.3649819209E-02    0.1293016081E-01    0.2429837694E+00
    0.1000000000E+02    0.6787776306E-02    0.3478116336E-01    0.1107793687E-02    0.2770044201E-02    0.8474074026E-01
    0.3000000000E+02    0.1597183682E-01    0.7634368914E-01    0.2619476741E-02    0.8102060195E-02    0.1863184688E+00
    0.5000000000E+02    0.2243666605E-01    0.1003897434E+00    0.3697678310E-02    0.1317826419E-01    0.2453458312E+00
    0.7000000000E+02    0.2757198102E-01    0.1161063057E+00    0.4564738447E-02    0.1802175657E-01    0.2840958320E+00
    0.9000000000E+02    0.3191474931E-01    0.1272031331E+00    0.5305864858E-02    0.2265283888E-01    0.3115754198E+00
    0.1100000000E+03    0.3571775938E-01    0.1354675178E+00    0.5960889541E-02    0.2708942974E-01    0.3321301335E+00
    0.1300000000E+03    0.3911815618E-01    0.1418678668E+00    0.6551312852E-02    0.3134740842E-01    0.3481178303E+00
    0.1500000000E+03    0.4219896268E-01    0.1469750324E+00    0.7090115817E-02    0.3544090030E-01    0.3609303614E+00
    0.1700000000E+03    0.4501501875E-01    0.1511476185E+00    0.7585871308E-02    0.3938251549E-01    0.3714433005E+00
    0.1900000000E+03    0.4760516382E-01    0.1546223970E+00    0.8044662747E-02    0.4318354929E-01    0.3802355662E+00
    0.2100000000E+03    0.4999846928E-01    0.1575620914E+00    0.8471059645E-02    0.4685415152E-01    0.3877055838E+00
    0.2300000000E+03    0.5221766045E-01    0.1600822832E+00    0.8868650145E-02    0.5040347011E-01    0.3941367502E+00
    0.2500000000E+03    0.5428111249E-01    0.1622673672E+00    0.9240350037E-02    0.5383977358E-01    0.3997362865E+00
    0.2700000000E+03    0.5620407790E-01    0.1641804294E+00    0.9588591996E-02    0.5717055579E-01    0.4046593109E+00
    0.2900000000E+03    0.5799947774E-01    0.1658695892E+00    0.9915447167E-02    0.6040262599E-01    0.4090243081E+00
    0.3100000000E+03    0.5967843371E-01    0.1673722001E+00    0.1022270677E-01    0.6354218656E-01    0.4129233837E+00
    0.3300000000E+03    0.6125063972E-01    0.1687177088E+00    0.1051193903E-01    0.6659490021E-01    0.4164292497E+00
    0.3500000000E+03    0.6272463034E-01    0.1699296477E+00    0.1078453036E-01    0.6956594849E-01    0.4196000959E+00
    0.3700000000E+03    0.6410798070E-01    0.1710270525E+00    0.1104171599E-01    0.7246008272E-01    0.4224830597E+00
    0.3900000000E+03    0.6540745924E-01    0.1720254904E+00    0.1128460357E-01    0.7528166854E-01    0.4251167440E+00
    0.4100000000E+03    0.6662914735E-01    0.1729378178E+00    0.1151419154E-01    0.7803472502E-01    0.4275330747E+00
    0.4300000000E+03    0.6777853478E-01    0.1737747472E+00    0.1173138396E-01    0.8072295904E-01    0.4297586915E+00
    0.4500000000E+03    0.6886059720E-01    0.1745452778E+00    0.1193700257E-01    0.8334979564E-01    0.4318160049E+00
    0.4700000000E+03    0.6987986019E-01    0.1752570254E+00    0.1213179676E-01    0.8591840485E-01    0.4337240074E+00
    0.4900000000E+03    0.7084045263E-01    0.1759164794E+00    0.1231645196E-01    0.8843172548E-01    0.4354989053E+00
    0.1000000000E+03    0.3387342451E-01    0.1316163125E+00    0.5642523431E-02    0.2489440909E-01    0.3225405547E+00
    0.3000000000E+03    0.5885287543E-01    0.1666422143E+00    0.1007142372E-01    0.6198360413E-01    0.4110271524E+00
    0.5000000000E+03    0.7129994045E-01    0.1762283667E+00    0.1240517590E-01    0.8966851298E-01    0.4363408667E+00
    0.7000000000E+03    0.7817634805E-01    0.1807296223E+00    0.1377552631E-01    0.1120708477E+00    0.4487219285E+00
    0.9000000000E+03    0.8203351620E-01    0.1833415768E+00    0.1461030195E-01    0.1311229487E+00    0.4561926948E+00
    0.1100000000E+04    0.8410235897E-01    0.1850432809E+00    0.1511974098E-01    0.1478656032E+00    0.4612484349E+00
    0.1300000000E+04    0.8504831361E-01    0.1862364515E+00    0.1541930629E-01    0.1629163270E+00    0.4649277486E+00
    0.1500000000E+04    0.8525954039E-01    0.1871166864E+00    0.1557739463E-01    0.1766686718E+00    0.4677433627E+00
    0.1700000000E+04    0.8497566489E-01    0.1877907259E+00    0.1563690187E-01    0.1893876829E+00    0.4699788597E+00
    0.1900000000E+04    0.8435130672E-01    0.1883217915E+00    0.1562596843E-01    0.2012598802E+00    0.4718044226E+00
    0.2100000000E+04    0.8348983297E-01    0.1887497191E+00    0.1556373957E-01    0.2124213207E+00    0.4733286751E+00
    0.2300000000E+04    0.8246237051E-01    0.1891008560E+00    0.1546363789E-01    0.2229742673E+00    0.4746243795E+00
    0.2500000000E+04    0.8131903850E-01    0.1893933227E+00    0.1533531344E-01    0.2329975604E+00    0.4757422095E+00
    0.2700000000E+04    0.8009585436E-01    0.1896399886E+00    0.1518585288E-01    0.2425533267E+00    0.4767186043E+00
    0.2900000000E+04    0.7881912606E-01    0.1898502433E+00    0.1502055546E-01    0.2516914651E+00    0.4775804799E+00
    0.3100000000E+04    0.7750832812E-01    0.1900310968E+00    0.1484344558E-01    0.2604527325E+00    0.4783481774E+00
    0.3300000000E+04    0.7617803321E-01    0.1901878862E+00    0.1465762031E-01    0.2688709202E+00    0.4790373745E+00
    0.3500000000E+04    0.7483923856E-01    0.1903247459E+00    0.1446549028E-01    0.2769744219E+00    0.4796603629E+00
    0.3700000000E+04    0.7350029494E-01    0.1904449269E+00    0.1426895005E-01    0.2847873854E+00    0.4802269261E+00
    0.3900000000E+04    0.7216756874E-01    0.1905510200E+00    0.1406950084E-01    0.2923305742E+00    0.4807449554E+00
    0.4100000000E+04    0.7084592139E-01    0.1906451148E+00    0.1386834028E-01    0.2996220196E+00    0.4812208920E+00
    0.4300000000E+04    0.6953906137E-01    0.1907289144E+00    0.1366642907E-01    0.3066775238E+00    0.4816600497E+00
    0.4500000000E+04    0.6824980597E-01    0.1908038207E+00    0.1346454114E-01    0.3135110509E+00    0.4820668551E+00
    0.4700000000E+04    0.6698027834E-01    0.1908709973E+00    0.1326330183E-01    0.3201350352E+00    0.4824450275E+00
    0.4900000000E+04    0.6573205725E-01    0.1909314183E+00    0.1306321727E-01    0.3265606262E+00    0.4827977175E+00
    0.1000000000E+04    0.8324116342E-01    0.1842739865E+00    0.1489699780E-01    0.1397375080E+00    0.4589394425E+00
    0.3000000000E+04    0.7816697800E-01    0.1899439789E+00    0.1493326501E-01    0.2561169533E+00    0.4779750291E+00
    0.5000000000E+04    0.6511631003E-01    0.1909593572E+00    0.1296373934E-01    0.3297022067E+00    0.4829653621E+00
    0.7000000000E+04    0.5405320014E-01    0.1913082134E+00    0.1109977774E-01    0.3841364978E+00    0.4854650070E+00
    0.9000000000E+04    0.4524901801E-01    0.1914475050E+00    0.9525060184E-02    0.4262705135E+00    0.4870163430E+00
    0.1100000000E+05    0.3828385505E-01    0.1914991071E+00    0.8225785800E-02    0.4596553748E+00    0.4880898670E+00
    0.1300000000E+05    0.3274064967E-01    0.1915081081E+00    0.7157445187E-02    0.4865503252E+00    0.4888839312E+00
    0.1500000000E+05    0.2828748034E-01    0.1914945332E+00    0.6275944108E-02    0.5085170465E+00    0.4894986920E+00
    0.1700000000E+05    0.2467278335E-01    0.1914683828E+00    0.5544066239E-02    0.5266782956E+00    0.4899908974E+00
    0.1900000000E+05    0.2170808944E-01    0.1914350724E+00    0.4931951734E-02    0.5418600100E+00    0.4903953674E+00
    0.2100000000E+05    0.1925207081E-01    0.1913977099E+00    0.4416076923E-02    0.5546798596E+00    0.4907347519E+00
    0.2300000000E+05    0.1719811101E-01    0.1913581562E+00    0.3978005489E-02    0.5656060968E+00    0.4910244593E+00
    0.2500000000E+05    0.1546511192E-01    0.1913175601E+00    0.3603273535E-02    0.5749980500E+00    0.4912753511E+00
    0.2700000000E+05    0.1399081455E-01    0.1912766458E+00    0.3280486115E-02    0.5831345856E+00    0.4914953105E+00
    0.2900000000E+05    0.1272696554E-01    0.1912358754E+00    0.3000613596E-02    0.5902344262E+00    0.4916902001E+00
    0.3100000000E+05    0.1163581096E-01    0.1911955445E+00    0.2756452917E-02    0.5964708400E+00    0.4918644717E+00
    0.3300000000E+05    0.1068753849E-01    0.1911558406E+00    0.2542217706E-02    0.6019823833E+00    0.4920215676E+00
    0.3500000000E+05    0.9858397476E-02    0.1911168800E+00    0.2353226614E-02    0.6068808405E+00    0.4921641914E+00
    0.3700000000E+05    0.9129305921E-02    0.1910787314E+00    0.2185665708E-02    0.6112571526E+00    0.4922944972E+00
    0.3900000000E+05    0.8484809329E-02    0.1910414310E+00    0.2036406531E-02    0.6151858871E+00    0.4924142225E+00
    0.4100000000E+05    0.7912295693E-02    0.1910049933E+00    0.1902865997E-02    0.6187286397E+00    0.4925247846E+00
    0.4300000000E+05    0.7401398575E-02    0.1909694181E+00    0.1782897856E-02    0.6219366454E+00    0.4926273518E+00
    0.4500000000E+05    0.6943539349E-02    0.1909346950E+00    0.1674708066E-02    0.6248528017E+00    0.4927228959E+00
    0.4700000000E+05    0.6531573334E-02    0.1909008069E+00    0.1576788386E-02    0.6275132469E+00    0.4928122321E+00
    0.4900000000E+05    0.6159514075E-02    0.1908677327E+00    0.1487863919E-02    0.6299486023E+00    0.4928960498E+00
    0.1000000000E+05    0.4156444427E-01    0.1914805604E+00    0.8843625794E-02    0.4438946754E+00    0.4875970685E+00
    0.3000000000E+05    0.1216182604E-01    0.1912156413E+00    0.2874460062E-02    0.5934511926E+00    0.4917796780E+00
    0.5000000000E+05    0.5986841173E-02    0.1908514934E+00    0.1446429853E-02    0.6310901788E+00    0.4929360760E+00
    0.7000000000E+05    0.3743696066E-02    0.1905632309E+00    0.8974771226E-03    0.6467688163E+00    0.4935523110E+00
    0.9000000000E+05    0.2669096407E-02    0.1903291370E+00    0.6262642791E-03    0.6551142971E+00    0.4939634137E+00
    0.1100000000E+06    0.2063284488E-02    0.1901327885E+00    0.4707167477E-03    0.6602305439E+00    0.4942697881E+00
    0.1300000000E+06    0.1683252682E-02    0.1899638674E+00    0.3722903484E-03    0.6636662469E+00    0.4945133831E+00
    0.1500000000E+06    0.1426199319E-02    0.1898156889E+00    0.3055216958E-03    0.6661242693E+00    0.4947153757E+00
    0.1700000000E+06    0.1242332072E-02    0.1896837203E+00    0.2578211417E-03    0.6679664356E+00    0.4948878519E+00
    0.1900000000E+06    0.1105028416E-02    0.1895647592E+00    0.2223513296E-03    0.6693968686E+00    0.4950383287E+00
    0.2100000000E+06    0.9989383399E-03    0.1894564638E+00    0.1951224434E-03    0.6705390200E+00    0.4951717882E+00
    0.2300000000E+06    0.9146681828E-03    0.1893570715E+00    0.1736703512E-03    0.6714717461E+00    0.4952916973E+00
    0.2500000000E+06    0.8461852792E-03    0.1892652229E+00    0.1564015542E-03    0.6722476864E+00    0.4954005633E+00
    0.2700000000E+06    0.7894578148E-03    0.1891798482E+00    0.1422456071E-03    0.6729032771E+00    0.4955002577E+00
    0.2900000000E+06    0.7416993542E-03    0.1891000900E+00    0.1304600424E-03    0.6734645168E+00    0.4955922134E+00
    0.3100000000E+06    0.7009283379E-03    0.1890252511E+00    0.1205156267E-03    0.6739504413E+00    0.4956775520E+00
    0.3300000000E+06    0.6657004260E-03    0.1889547566E+00    0.1120261257E-03    0.6743753008E+00    0.4957571675E+00
    0.3500000000E+06    0.6349399974E-03    0.1888881270E+00    0.1047038132E-03    0.6747499708E+00    0.4958317840E+00
    0.3700000000E+06    0.6078307546E-03    0.1888249582E+00    0.9833043695E-04    0.6750828926E+00    0.4959019962E+00
    0.3900000000E+06    0.5837427555E-03    0.1887649064E+00    0.9273776867E-04    0.6753807168E+00    0.4959682986E+00
    0.4100000000E+06    0.5621825649E-03    0.1887076769E+00    0.8779426982E-04    0.6756487536E+00    0.4960311066E+00
    0.4300000000E+06    0.5427584664E-03    0.1886530147E+00    0.8339575939E-04    0.6758912931E+00    0.4960907726E+00
    0.4500000000E+06    0.5251557172E-03    0.1886006982E+00    0.7945876080E-04    0.6761118393E+00    0.4961475982E+00
    0.4700000000E+06    0.5091186401E-03    0.1885505333E+00    0.7591567895E-04    0.6763132817E+00    0.4962018434E+00
    0.4900000000E+06    0.4944374593E-03    0.1885023491E+00    0.7271125056E-04    0.6764980243E+00    0.4962537340E+00
    0.1000000000E+06    0.2327851719E-02    0.1902269984E+00    0.5388753678E-03    0.6579493644E+00    0.4941263550E+00
    0.3000000000E+06    0.7205409413E-03    0.1890620941E+00    0.1252845663E-03    0.6737159100E+00    0.4956356494E+00
    0.5000000000E+06    0.4875498584E-03    0.1884789517E+00    0.7122146766E-04    0.6765847762E+00    0.4962788590E+00
    0.7000000000E+06    0.3911397613E-03    0.1880859538E+00    0.5143493787E-04    0.6777963092E+00    0.4966948427E+00
    0.9000000000E+06    0.3362350248E-03    0.1877888643E+00    0.4124769469E-04    0.6784706784E+00    0.4970033397E+00
    0.1100000000E+07    0.2997926346E-03    0.1875498270E+00    0.3500888826E-04    0.6789031446E+00    0.4972488332E+00
    0.1300000000E+07    0.2733573752E-03    0.1873497693E+00    0.3076679958E-04    0.6792055803E+00    0.4974528374E+00
    0.1500000000E+07    0.2530442276E-03    0.1871777148E+00    0.2767472508E-04    0.6794298409E+00    0.4976274215E+00
    0.1700000000E+07    0.2367946719E-03    0.1870267616E+00    0.2530705784E-04    0.6796033124E+00    0.4977800430E+00
    0.1900000000E+07    0.2234049944E-03    0.1868922843E+00    0.2342652053E-04    0.6797418514E+00    0.4979156356E+00
    0.2100000000E+07    0.2121186089E-03    0.1867710311E+00    0.2189025383E-04    0.6798552902E+00    0.4980376347E+00
    0.2300000000E+07    0.2024329939E-03    0.1866606278E+00    0.2060698019E-04    0.6799500587E+00    0.4981485290E+00
    0.2500000000E+07    0.1939995372E-03    0.1865592880E+00    0.1951555663E-04    0.6800305441E+00    0.4982501796E+00
    0.2700000000E+07    0.1865677425E-03    0.1864656335E+00    0.1857341930E-04    0.6800998456E+00    0.4983440149E+00
    0.2900000000E+07    0.1799523182E-03    0.1863785787E+00    0.1774997700E-04    0.6801602170E+00    0.4984311556E+00
    0.3100000000E+07    0.1740128294E-03    0.1862972531E+00    0.1702264419E-04    0.6802133379E+00    0.4985124966E+00
    0.3300000000E+07    0.1686406134E-03    0.1862209480E+00    0.1637435886E-04    0.6802604865E+00    0.4985887645E+00
    0.3500000000E+07    0.1637500799E-03    0.1861490787E+00    0.1579197389E-04    0.6803026534E+00    0.4986605573E+00
    0.3700000000E+07    0.1592727594E-03    0.1860811571E+00    0.1526518238E-04    0.6803406189E+00    0.4987283726E+00
    0.3900000000E+07    0.1551531285E-03    0.1860167715E+00    0.1478578062E-04    0.6803750061E+00    0.4987926296E+00
    0.4100000000E+07    0.1513456165E-03    0.1859555716E+00    0.1434715059E-04    0.6804063190E+00    0.4988536842E+00
    0.4300000000E+07    0.1478124181E-03    0.1858972567E+00    0.1394388920E-04    0.6804349695E+00    0.4989118415E+00
    0.4500000000E+07    0.1445218674E-03    0.1858415667E+00    0.1357153763E-04    0.6804612983E+00    0.4989673648E+00
    0.4700000000E+07    0.1414472097E-03    0.1857882752E+00    0.1322638052E-04    0.6804855893E+00    0.4990204831E+00
    0.4900000000E+07    0.1385656612E-03    0.1857371841E+00    0.1290529478E-04    0.6805080810E+00    0.4990713967E+00
    0.1000000000E+07    0.3163973232E-03    0.1876635445E+00    0.3779671337E-04    0.6787080384E+00    0.4971323060E+00
    0.3000000000E+07    0.1769054995E-03    0.1863372473E+00    0.1737547065E-04    0.6801875960E+00    0.4984725022E+00
    0.5000000000E+07    0.1371910861E-03    0.1857124082E+00    0.1275293566E-04    0.6805187165E+00    0.4990960826E+00
    0.7000000000E+07    0.1162827029E-03    0.1852991581E+00    0.1049742337E-04    0.6806729697E+00    0.4995075519E+00
    0.9000000000E+07    0.1028391111E-03    0.1849898641E+00    0.9105510345E-05    0.6807646407E+00    0.4998153014E+00
    0.1100000000E+08    0.9325476470E-04    0.1847425947E+00    0.8139373827E-05    0.6808264077E+00    0.5000612926E+00
    0.1300000000E+08    0.8597263121E-04    0.1845365829E+00    0.7419361255E-05    0.6808713573E+00    0.5002662456E+00
    0.1500000000E+08    0.8019471802E-04    0.1843600122E+00    0.6856525401E-05    0.6809058184E+00    0.5004419302E+00
    0.1700000000E+08    0.7546387170E-04    0.1842055130E+00    0.6401186748E-05    0.6809332509E+00    0.5005956793E+00
    0.1900000000E+08    0.7149673131E-04    0.1840681777E+00    0.6023151763E-05    0.6809557179E+00    0.5007323728E+00
    0.2100000000E+08    0.6810700455E-04    0.1839445730E+00    0.5702882081E-05    0.6809745313E+00    0.5008554234E+00
    0.2300000000E+08    0.6516647789E-04    0.1838322029E+00    0.5427106115E-05    0.6809905688E+00    0.5009673111E+00
    0.2500000000E+08    0.6258361478E-04    0.1837291953E+00    0.5186453700E-05    0.6810044415E+00    0.5010698955E+00
    0.2700000000E+08    0.6029107075E-04    0.1836341106E+00    0.4974097043E-05    0.6810165889E+00    0.5011646069E+00
