  Pressure (Pa) 2mC6-400 (mol/kg) 3mC6-400 (mol/kg) 33mC5-400 (mol/kg) 23mC5-400 (mol/kg) C7-400 (mol/kg)
    0.1000000000E+01    0.7925267116E-03    0.3145307721E-02    0.4517543332E-03    0.1868183760E-03    0.6805400378E-02
    0.3000000000E+01    0.2313680209E-02    0.9142282466E-02    0.1319227557E-02    0.5587804681E-03    0.1978386086E-01
    0.5000000000E+01    0.3756273690E-02    0.1477764480E-01    0.2142418022E-02    0.9285313605E-03    0.3198351119E-01
    0.7000000000E+01    0.5127422184E-02    0.2008354891E-01    0.2925358000E-02    0.1296096702E-02    0.4347349628E-01
    0.9000000000E+01    0.6433395240E-02    0.2508843460E-01    0.3671598947E-02    0.1661501731E-02    0.5431497970E-01
    0.1100000000E+02    0.7679738016E-02    0.2981754906E-01    0.4384280491E-02    0.2024771279E-02    0.6456226421E-01
    0.1300000000E+02    0.8871372258E-02    0.3429338299E-01    0.5066187955E-02    0.2385929786E-02    0.7426372872E-01
    0.1500000000E+02    0.1001268094E-01    0.3853603723E-01    0.5719800562E-02    0.2745001300E-02    0.8346261557E-01
    0.1700000000E+02    0.1110757957E-01    0.4256353227E-01    0.6347332030E-02    0.3102009494E-02    0.9219769562E-01
    0.1900000000E+02    0.1215957654E-01    0.4639207091E-01    0.6950764925E-02    0.3456977666E-02    0.1005038325E+00
    0.2100000000E+02    0.1317182436E-01    0.5003626213E-01    0.7531879844E-02    0.3809928749E-02    0.1084124633E+00
    0.2300000000E+02    0.1414716352E-01    0.5350931255E-01    0.8092280329E-02    0.4160885319E-02    0.1159520104E+00
    0.2500000000E+02    0.1508815992E-01    0.5682319107E-01    0.8633414195E-02    0.4509869604E-02    0.1231482349E+00
    0.2700000000E+02    0.1599713717E-01    0.5998877068E-01    0.9156591885E-02    0.4856903485E-02    0.1300245415E+00
    0.2900000000E+02    0.1687620440E-01    0.6301595136E-01    0.9663002295E-02    0.5202008507E-02    0.1366022423E+00
    0.3100000000E+02    0.1772728045E-01    0.6591376664E-01    0.1015372649E-01    0.5545205885E-02    0.1429007865E+00
    0.3300000000E+02    0.1855211472E-01    0.6869047660E-01    0.1062974960E-01    0.5886516512E-02    0.1489379593E+00
    0.3500000000E+02    0.1935230552E-01    0.7135364899E-01    0.1109197121E-01    0.6225960959E-02    0.1547300572E+00
    0.3700000000E+02    0.2012931600E-01    0.7391023047E-01    0.1154121442E-01    0.6563559491E-02    0.1602920406E+00
    0.3900000000E+02    0.2088448815E-01    0.7636660914E-01    0.1197823380E-01    0.6899332062E-02    0.1656376681E+00
    0.4100000000E+02    0.2161905510E-01    0.7872866969E-01    0.1240372236E-01    0.7233298331E-02    0.1707796157E+00
    0.4300000000E+02    0.2233415199E-01    0.8100184215E-01    0.1281831770E-01    0.7565477659E-02    0.1757295809E+00
    0.4500000000E+02    0.2303082549E-01    0.8319114505E-01    0.1322260749E-01    0.7895889121E-02    0.1804983758E+00
    0.4700000000E+02    0.2371004235E-01    0.8530122376E-01    0.1361713423E-01    0.8224551509E-02    0.1850960097E+00
    0.4900000000E+02    0.2437269692E-01    0.8733638465E-01    0.1400239953E-01    0.8551483336E-02    0.1895317621E+00
    0.1000000000E+02    0.7063699256E-02    0.2748599756E-01    0.4031952863E-02    0.1843401904E-02    0.5950974418E-01
    0.3000000000E+02    0.1730512824E-01    0.6448049630E-01    0.9910261478E-02    0.5373844338E-02    0.1397852606E+00
    0.5000000000E+02    0.2469807468E-01    0.8832713151E-01    0.1419170567E-01    0.8714306000E-02    0.1916916495E+00
    0.7000000000E+02    0.3050816333E-01    0.1050419233E+00    0.1758796375E-01    0.1188421884E-01    0.2281862649E+00
    0.9000000000E+02    0.3531676067E-01    0.1174454572E+00    0.2042433026E-01    0.1490034692E-01    0.2553502586E+00
    0.1100000000E+03    0.3943085152E-01    0.1270382281E+00    0.2287184104E-01    0.1777723557E-01    0.2764219130E+00
    0.1300000000E+03    0.4303016246E-01    0.1346933161E+00    0.2503030117E-01    0.2052757209E-01    0.2932873288E+00
    0.1500000000E+03    0.4622870726E-01    0.1409539941E+00    0.2696288879E-01    0.2316247784E-01    0.3071212901E+00
    0.1700000000E+03    0.4910359898E-01    0.1461764351E+00    0.2871229323E-01    0.2569174652E-01    0.3186947516E+00
    0.1900000000E+03    0.5170976931E-01    0.1506041225E+00    0.3030892832E-01    0.2812403982E-01    0.3285352651E+00
    0.2100000000E+03    0.5408803808E-01    0.1544093086E+00    0.3177541877E-01    0.3046704930E-01    0.3370164141E+00
    0.2300000000E+03    0.5626980493E-01    0.1577173897E+00    0.3312919953E-01    0.3272763088E-01    0.3444104282E+00
    0.2500000000E+03    0.5827991687E-01    0.1606218927E+00    0.3438409966E-01    0.3491191754E-01    0.3509205485E+00
    0.2700000000E+03    0.6013849876E-01    0.1631940411E+00    0.3555135067E-01    0.3702541393E-01    0.3567017018E+00
    0.2900000000E+03    0.6186216686E-01    0.1654890624E+00    0.3664025346E-01    0.3907307649E-01    0.3618741374E+00
    0.3100000000E+03    0.6346486089E-01    0.1675504631E+00    0.3765863491E-01    0.4105938142E-01    0.3665326767E+00
    0.3300000000E+03    0.6495843184E-01    0.1694129987E+00    0.3861317003E-01    0.4298838274E-01    0.3707531425E+00
    0.3500000000E+03    0.6635306829E-01    0.1711047809E+00    0.3950961548E-01    0.4486376196E-01    0.3745969231E+00
    0.3700000000E+03    0.6765761317E-01    0.1726488019E+00    0.4035298301E-01    0.4668887092E-01    0.3781142765E+00
    0.3900000000E+03    0.6887980393E-01    0.1740640568E+00    0.4114767106E-01    0.4846676872E-01    0.3813467628E+00
    0.4100000000E+03    0.7002645828E-01    0.1753663805E+00    0.4189756660E-01    0.5020025375E-01    0.3843290624E+00
    0.4300000000E+03    0.7110362015E-01    0.1765690836E+00    0.4260612521E-01    0.5189189156E-01    0.3870903547E+00
    0.4500000000E+03    0.7211667615E-01    0.1776834392E+00    0.4327643514E-01    0.5354403924E-01    0.3896553761E+00
    0.4700000000E+03    0.7307044976E-01    0.1787190609E+00    0.4391126911E-01    0.5515886664E-01    0.3920452421E+00
    0.4900000000E+03    0.7396927832E-01    0.1796841993E+00    0.4451312680E-01    0.5673837514E-01    0.3942780919E+00
    0.1000000000E+03    0.3744735660E-01    0.1225284896E+00    0.2168932156E-01    0.1635536339E-01    0.2665079033E+00
    0.3000000000E+03    0.6267785163E-01    0.1665466161E+00    0.3715781825E-01    0.4007363601E-01    0.3642625207E+00
    0.5000000000E+03    0.7439932663E-01    0.1801426019E+00    0.4480240483E-01    0.5751546826E-01    0.3953406186E+00
    0.7000000000E+03    0.8089206212E-01    0.1869164906E+00    0.4930738801E-01    0.7158541525E-01    0.4112273883E+00
    0.9000000000E+03    0.8470648138E-01    0.1910152767E+00    0.5215825589E-01    0.8357266202E-01    0.4210731345E+00
    0.1100000000E+04    0.8697683513E-01    0.1937771676E+00    0.5402968773E-01    0.9415004804E-01    0.4278601512E+00
    0.1300000000E+04    0.8828886664E-01    0.1957706880E+00    0.5527641757E-01    0.1037091523E+00    0.4328672361E+00
    0.1500000000E+04    0.8897451764E-01    0.1972801274E+00    0.5610291786E-01    0.1124964878E+00    0.4367395035E+00
    0.1700000000E+04    0.8923480379E-01    0.1984640497E+00    0.5663511347E-01    0.1206767366E+00    0.4398398228E+00
    0.1900000000E+04    0.8919776388E-01    0.1994181398E+00    0.5695459496E-01    0.1283651455E+00    0.4423889620E+00
    0.2100000000E+04    0.8894827941E-01    0.2002036855E+00    0.5711641008E-01    0.1356454330E+00    0.4445294537E+00
    0.2300000000E+04    0.8854447690E-01    0.2008618246E+00    0.5715894831E-01    0.1425803052E+00    0.4463577109E+00
    0.2500000000E+04    0.8802724345E-01    0.2014212314E+00    0.5710973139E-01    0.1492179465E+00    0.4479414473E+00
    0.2700000000E+04    0.8742599375E-01    0.2019025252E+00    0.5698895686E-01    0.1555961922E+00    0.4493297166E+00
    0.2900000000E+04    0.8676229613E-01    0.2023209250E+00    0.5681174768E-01    0.1617453083E+00    0.4505589899E+00
    0.3100000000E+04    0.8605222473E-01    0.2026879167E+00    0.5658962598E-01    0.1676898983E+00    0.4516569891E+00
    0.3300000000E+04    0.8530792734E-01    0.2030123359E+00    0.5633150503E-01    0.1734502463E+00    0.4526451910E+00
    0.3500000000E+04    0.8453869511E-01    0.2033010941E+00    0.5604437301E-01    0.1790432841E+00    0.4535405126E+00
    0.3700000000E+04    0.8375170798E-01    0.2035596776E+00    0.5573377428E-01    0.1844833019E+00    0.4543564744E+00
    0.3900000000E+04    0.8295256349E-01    0.2037924979E+00    0.5540415455E-01    0.1897824807E+00    0.4551040229E+00
    0.4100000000E+04    0.8214565839E-01    0.2040031442E+00    0.5505911257E-01    0.1949512959E+00    0.4557921232E+00
    0.4300000000E+04    0.8133446791E-01    0.2041945666E+00    0.5470158634E-01    0.1999988293E+00    0.4564281938E+00
    0.4500000000E+04    0.8052175303E-01    0.2043692131E+00    0.5433399297E-01    0.2049330125E+00    0.4570184307E+00
    0.4700000000E+04    0.7970971607E-01    0.2045291323E+00    0.5395833479E-01    0.2097608188E+00    0.4575680533E+00
    0.4900000000E+04    0.7890011881E-01    0.2046760520E+00    0.5357628100E-01    0.2144884177E+00    0.4580814919E+00
    0.1000000000E+04    0.8598993243E-01    0.1925180842E+00    0.5318944514E-01    0.8900863827E-01    0.4247474489E+00
    0.3000000000E+04    0.8641222035E-01    0.2025102424E+00    0.5670569188E-01    0.1647418129E+00    0.4511229329E+00
    0.5000000000E+04    0.7849668790E-01    0.2047451045E+00    0.5338330214E-01    0.2168163782E+00    0.4583258475E+00
    0.7000000000E+04    0.7077808645E-01    0.2057058902E+00    0.4943060395E-01    0.2591815279E+00    0.4619979407E+00
    0.9000000000E+04    0.6390586327E-01    0.2062229604E+00    0.4559778389E-01    0.2953522678E+00    0.4643166645E+00
    0.1100000000E+05    0.5787361422E-01    0.2065349376E+00    0.4204455062E-01    0.3268889799E+00    0.4659511334E+00
    0.1300000000E+05    0.5258428173E-01    0.2067361760E+00    0.3880062903E-01    0.3546945262E+00    0.4671828880E+00
    0.1500000000E+05    0.4793672411E-01    0.2068713866E+00    0.3585750481E-01    0.3793803585E+00    0.4681536020E+00
    0.1700000000E+05    0.4384120059E-01    0.2069644207E+00    0.3319415224E-01    0.4014029133E+00    0.4689434489E+00
    0.1900000000E+05    0.4022093859E-01    0.2070291167E+00    0.3078589817E-01    0.4211238884E+00    0.4696017440E+00
    0.2100000000E+05    0.3701081193E-01    0.2070740253E+00    0.2860789310E-01    0.4388404946E+00    0.4701607704E+00
    0.2300000000E+05    0.3415560165E-01    0.2071046938E+00    0.2663655403E-01    0.4548023880E+00    0.4706427035E+00
    0.2500000000E+05    0.3160840224E-01    0.2071248651E+00    0.2485014551E-01    0.4692221352E+00    0.4710633690E+00
    0.2700000000E+05    0.2932927095E-01    0.2071371460E+00    0.2322896159E-01    0.4822822770E+00    0.4714344159E+00
    0.2900000000E+05    0.2728410563E-01    0.2071434009E+00    0.2175531344E-01    0.4941404593E+00    0.4717646402E+00
    0.3100000000E+05    0.2544371538E-01    0.2071449938E+00    0.2041342228E-01    0.5049333739E+00    0.4720608264E+00
    0.3300000000E+05    0.2378304937E-01    0.2071429414E+00    0.1918926886E-01    0.5147799062E+00    0.4723283034E+00
    0.3500000000E+05    0.2228055522E-01    0.2071380145E+00    0.1807042751E-01    0.5237837176E+00    0.4725713215E+00
    0.3700000000E+05    0.2091764351E-01    0.2071308055E+00    0.1704589987E-01    0.5320353996E+00    0.4727933172E+00
    0.3900000000E+05    0.1967823990E-01    0.2071217757E+00    0.1610595635E-01    0.5396142896E+00    0.4729971013E+00
    0.4100000000E+05    0.1854840961E-01    0.2071112882E+00    0.1524198966E-01    0.5465900129E+00    0.4731849972E+00
    0.4300000000E+05    0.1751604206E-01    0.2070996314E+00    0.1444638177E-01    0.5530237962E+00    0.4733589432E+00
    0.4500000000E+05    0.1657058544E-01    0.2070870366E+00    0.1371238486E-01    0.5589695908E+00    0.4735205699E+00
    0.4700000000E+05    0.1570282293E-01    0.2070736907E+00    0.1303401561E-01    0.5644750343E+00    0.4736712595E+00
    0.4900000000E+05    0.1490468367E-01    0.2070597454E+00    0.1240596194E-01    0.5695822762E+00    0.4738121915E+00
    0.1000000000E+05    0.6079032263E-01    0.2063969575E+00    0.4378294074E-01    0.3116341117E+00    0.4651970338E+00
    0.3000000000E+05    0.2633996824E-01    0.2071447098E+00    0.2106881377E-01    0.4996622600E+00    0.4719166260E+00
    0.5000000000E+05    0.1452947409E-01    0.2070525878E+00    0.1210930661E-01    0.5719984191E+00    0.4738793206E+00
    0.7000000000E+05    0.9355288604E-02    0.2068986029E+00    0.7915774000E-02    0.6065299591E+00    0.4748938340E+00
    0.9000000000E+05    0.6662348647E-02    0.2067463519E+00    0.5642539049E-02    0.6257392597E+00    0.4755442560E+00
    0.1100000000E+06    0.5082654660E-02    0.2066057320E+00    0.4272106220E-02    0.6376340603E+00    0.4760122946E+00
    0.1300000000E+06    0.4072914512E-02    0.2064774624E+00    0.3379377699E-02    0.6455885930E+00    0.4763737707E+00
    0.1500000000E+06    0.3384853782E-02    0.2063603662E+00    0.2762998117E-02    0.6512208881E+00    0.4766664020E+00
    0.1700000000E+06    0.2892326614E-02    0.2062529911E+00    0.2317832667E-02    0.6553874237E+00    0.4769113139E+00
    0.1900000000E+06    0.2525759807E-02    0.2061540028E+00    0.1984629579E-02    0.6585777959E+00    0.4771213936E+00
    0.2100000000E+06    0.2244202422E-02    0.2060622634E+00    0.1727894625E-02    0.6610895166E+00    0.4773050249E+00
    0.2300000000E+06    0.2022245747E-02    0.2059768235E+00    0.1525282206E-02    0.6631125628E+00    0.4774679413E+00
    0.2500000000E+06    0.1843423052E-02    0.2058968945E+00    0.1362133527E-02    0.6647733132E+00    0.4776142238E+00
    0.2700000000E+06    0.1696665711E-02    0.2058218193E+00    0.1228493823E-02    0.6661587742E+00    0.4777468737E+00
    0.2900000000E+06    0.1574298874E-02    0.2057510477E+00    0.1117400615E-02    0.6673306183E+00    0.4778681581E+00
    0.3100000000E+06    0.1470856724E-02    0.2056841152E+00    0.1023859026E-02    0.6683336702E+00    0.4779798297E+00
    0.3300000000E+06    0.1382355135E-02    0.2056206273E+00    0.9442056713E-03    0.6692012256E+00    0.4780832696E+00
    0.3500000000E+06    0.1305830201E-02    0.2055602466E+00    0.8757010891E-03    0.6699584930E+00    0.4781795847E+00
    0.3700000000E+06    0.1239036885E-02    0.2055026820E+00    0.8162612636E-03    0.6706248812E+00    0.4782696753E+00
    0.3900000000E+06    0.1180247155E-02    0.2054476814E+00    0.7642763768E-03    0.6712155596E+00    0.4783542828E+00
    0.4100000000E+06    0.1128111662E-02    0.2053950248E+00    0.7184857500E-03    0.6717425435E+00    0.4784340250E+00
    0.4300000000E+06    0.1081563022E-02    0.2053445193E+00    0.6778898508E-03    0.6722154653E+00    0.4785094221E+00
    0.4500000000E+06    0.1039746928E-02    0.2052959948E+00    0.6416872779E-03    0.6726421318E+00    0.4785809155E+00
    0.4700000000E+06    0.1001972285E-02    0.2052493003E+00    0.6092289094E-03    0.6730289329E+00    0.4786488834E+00
    0.4900000000E+06    0.9676745517E-03    0.2052043017E+00    0.5799840500E-03    0.6733811464E+00    0.4787136521E+00
    0.1000000000E+06    0.5777590335E-02    0.2066744623E+00    0.4878727952E-02    0.6323298931E+00    0.4757950227E+00
    0.3000000000E+06    0.1520489564E-02    0.2057171277E+00    0.1068690415E-02    0.6678509394E+00    0.4779251018E+00
    0.5000000000E+06    0.9516808430E-03    0.2051824004E+00    0.5664268591E-03    0.6735456857E+00    0.4787449267E+00
    0.7000000000E+06    0.7350727179E-03    0.2048100074E+00    0.3894841794E-03    0.6757814938E+00    0.4792551632E+00
    0.9000000000E+06    0.6185713811E-03    0.2045235671E+00    0.3016702323E-03    0.6769696010E+00    0.4796253273E+00
    0.1100000000E+07    0.5442627425E-03    0.2042905218E+00    0.2495933359E-03    0.6777070119E+00    0.4799155848E+00
    0.1300000000E+07    0.4918806982E-03    0.2040939357E+00    0.2151493454E-03    0.6782101622E+00    0.4801542069E+00
    0.1500000000E+07    0.4524762834E-03    0.2039238574E+00    0.1906324787E-03    0.6785760879E+00    0.4803567299E+00
    0.1700000000E+07    0.4214620640E-03    0.2037739355E+00    0.1722402244E-03    0.6788547038E+00    0.4805326035E+00
    0.1900000000E+07    0.3962285899E-03    0.2036398653E+00    0.1578894602E-03    0.6790742962E+00    0.4806880010E+00
    0.2100000000E+07    0.3751733062E-03    0.2035185927E+00    0.1463464186E-03    0.6792520920E+00    0.4808271765E+00
    0.2300000000E+07    0.3572524920E-03    0.2034078716E+00    0.1368348062E-03    0.6793991850E+00    0.4809531852E+00
    0.2500000000E+07    0.3417541141E-03    0.2033060016E+00    0.1288419992E-03    0.6795230450E+00    0.4810682947E+00
    0.2700000000E+07    0.3281738499E-03    0.2032116638E+00    0.1220158635E-03    0.6796288875E+00    0.4811742340E+00
    0.2900000000E+07    0.3161432719E-03    0.2031238146E+00    0.1161064361E-03    0.6797204662E+00    0.4812723517E+00
    0.3100000000E+07    0.3053861601E-03    0.2030416139E+00    0.1109312919E-03    0.6798005527E+00    0.4813637197E+00
    0.3300000000E+07    0.2956908126E-03    0.2029643753E+00    0.1063540989E-03    0.6798712389E+00    0.4814492039E+00
    0.3500000000E+07    0.2868918738E-03    0.2028915308E+00    0.1022708607E-03    0.6799341338E+00    0.4815295141E+00
    0.3700000000E+07    0.2788580467E-03    0.2028226047E+00    0.9860081299E-04    0.6799904957E+00    0.4816052389E+00
    0.3900000000E+07    0.2714835642E-03    0.2027571950E+00    0.9528023712E-04    0.6800413233E+00    0.4816768722E+00
    0.4100000000E+07    0.2646821336E-03    0.2026949586E+00    0.9225815479E-04    0.6800874197E+00    0.4817448321E+00
    0.4300000000E+07    0.2583825492E-03    0.2026356004E+00    0.8949326866E-04    0.6801294378E+00    0.4818094760E+00
    0.4500000000E+07    0.2525254558E-03    0.2025788647E+00    0.8695174711E-04    0.6801679147E+00    0.4818711115E+00
    0.4700000000E+07    0.2470609234E-03    0.2025245287E+00    0.8460559316E-04    0.6802032957E+00    0.4819300054E+00
    0.4900000000E+07    0.2419466020E-03    0.2024723967E+00    0.8243142491E-04    0.6802359538E+00    0.4819863907E+00
    0.1000000000E+07    0.5778179381E-03    0.2044016533E+00    0.2726743079E-03    0.6773768503E+00    0.4797782541E+00
    0.3000000000E+07    0.3106200278E-03    0.2030820542E+00    0.1134364901E-03    0.6797618020E+00    0.4813188211E+00
    0.5000000000E+07    0.2395092522E-03    0.2024471024E+00    0.8140255839E-04    0.6802513620E+00    0.4820137074E+00
    0.7000000000E+07    0.2026009683E-03    0.2020239839E+00    0.6637638558E-04    0.6804722138E+00    0.4824670469E+00
    0.9000000000E+07    0.1790083325E-03    0.2017059506E+00    0.5728454956E-04    0.6806009673E+00    0.4828039346E+00
    0.1100000000E+08    0.1622400914E-03    0.2014509708E+00    0.5104738837E-04    0.6806865605E+00    0.4830720644E+00
    0.1300000000E+08    0.1495232036E-03    0.2012380946E+00    0.4643484954E-04    0.6807482145E+00    0.4832947681E+00
    0.1500000000E+08    0.1394453536E-03    0.2010553489E+00    0.4284871915E-04    0.6807950963E+00    0.4834852125E+00
    0.1700000000E+08    0.1312007283E-03    0.2008952417E+00    0.3995910560E-04    0.6808321639E+00    0.4836515608E+00
    0.1900000000E+08    0.1242912539E-03    0.2007527708E+00    0.3756741078E-04    0.6808623472E+00    0.4837992242E+00
    0.2100000000E+08    0.1183901458E-03    0.2006244296E+00    0.3554606440E-04    0.6808874965E+00    0.4839319746E+00
    0.2300000000E+08    0.1132728441E-03    0.2005076640E+00    0.3380891979E-04    0.6809088411E+00    0.4840525465E+00
    0.2500000000E+08    0.1087792188E-03    0.2004005558E+00    0.3229544394E-04    0.6809272328E+00    0.4841629851E+00
    0.2700000000E+08    0.1047915723E-03    0.2003016276E+00    0.3096170178E-04    0.6809432810E+00    0.4842648606E+00
