  Pressure (Pa) 2mC6-400 (mol/kg) 3mC6-400 (mol/kg) 33mC5-400 (mol/kg) 23mC5-400 (mol/kg) C7-400 (mol/kg)
    0.1000000000E+01    0.7918401171E-03    0.2094886527E-02    0.4513666126E-03    0.2801890027E-03    0.8498735747E-02
    0.3000000000E+01    0.2307880981E-02    0.6078114948E-02    0.1315953711E-02    0.8378263336E-03    0.2466223882E-01
    0.5000000000E+01    0.3741120872E-02    0.9808105574E-02    0.2133866240E-02    0.1391847824E-02    0.3980310568E-01
    0.7000000000E+01    0.5099425059E-02    0.1330853528E-01    0.2909561618E-02    0.1942298844E-02    0.5401680225E-01
    0.9000000000E+01    0.6389678312E-02    0.1660021007E-01    0.3646939662E-02    0.2489223977E-02    0.6738722784E-01
    0.1100000000E+02    0.7617932076E-02    0.1970148769E-01    0.4349426432E-02    0.3032667039E-02    0.7998841718E-01
    0.1300000000E+02    0.8789526051E-02    0.2262862779E-01    0.5020043495E-02    0.3572671092E-02    0.9188595045E-01
    0.1500000000E+02    0.9909189222E-02    0.2539608357E-01    0.5661465459E-02    0.4109278465E-02    0.1031381280E+00
    0.1700000000E+02    0.1098112425E-01    0.2801674614E-01    0.6276068023E-02    0.4642530766E-02    0.1137969547E+00
    0.1900000000E+02    0.1200907835E-01    0.3050215021E-01    0.6865968316E-02    0.5172468900E-02    0.1239089682E+00
    0.2100000000E+02    0.1299640304E-01    0.3286264816E-01    0.7433058921E-02    0.5699133081E-02    0.1335159404E+00
    0.2300000000E+02    0.1394610484E-01    0.3510755787E-01    0.7979036700E-02    0.6222562850E-02    0.1426554730E+00
    0.2500000000E+02    0.1486088840E-01    0.3724528901E-01    0.8505427321E-02    0.6742797088E-02    0.1513615061E+00
    0.2700000000E+02    0.1574319329E-01    0.3928345120E-01    0.9013606222E-02    0.7259874028E-02    0.1596647542E+00
    0.2900000000E+02    0.1659522573E-01    0.4122894707E-01    0.9504816579E-02    0.7773831271E-02    0.1675930812E+00
    0.3100000000E+02    0.1741898570E-01    0.4308805263E-01    0.9980184782E-02    0.8284705799E-02    0.1751718239E+00
    0.3300000000E+02    0.1821629054E-01    0.4486648694E-01    0.1044073380E-01    0.8792533987E-02    0.1824240733E+00
    0.3500000000E+02    0.1898879531E-01    0.4656947260E-01    0.1088739478E-01    0.9297351617E-02    0.1893709180E+00
    0.3700000000E+02    0.1973801057E-01    0.4820178864E-01    0.1132101709E-01    0.9799193886E-02    0.1960316575E+00
    0.3900000000E+02    0.2046531780E-01    0.4976781667E-01    0.1174237714E-01    0.1029809543E-01    0.2024239883E+00
    0.4100000000E+02    0.2117198297E-01    0.5127158145E-01    0.1215218605E-01    0.1079409030E-01    0.2085641672E+00
    0.4300000000E+02    0.2185916845E-01    0.5271678656E-01    0.1255109637E-01    0.1128721205E-01    0.2144671553E+00
    0.4500000000E+02    0.2252794342E-01    0.5410684589E-01    0.1293970806E-01    0.1177749364E-01    0.2201467449E+00
    0.4700000000E+02    0.2317929309E-01    0.5544491148E-01    0.1331857367E-01    0.1226496755E-01    0.2256156718E+00
    0.4900000000E+02    0.2381412688E-01    0.5673389818E-01    0.1368820299E-01    0.1274966573E-01    0.2308857146E+00
    0.1000000000E+02    0.7011205991E-02    0.1817358680E-01    0.4002346853E-02    0.2761378058E-02    0.7377969492E-01
    0.3000000000E+02    0.1701052216E-01    0.4216892890E-01    0.9744414734E-02    0.8029651587E-02    0.1714246578E+00
    0.5000000000E+02    0.2412561559E-01    0.5736083845E-01    0.1386970266E-01    0.1299098376E-01    0.2334495955E+00
    0.7000000000E+02    0.2966222375E-01    0.6788298251E-01    0.1711213238E-01    0.1767903636E-01    0.2765493514E+00
    0.9000000000E+02    0.3420640594E-01    0.7562427478E-01    0.1979941598E-01    0.2212254023E-01    0.3083610004E+00
    0.1100000000E+03    0.3806374813E-01    0.8157212620E-01    0.2210169736E-01    0.2634617732E-01    0.3328809961E+00
    0.1300000000E+03    0.4141211478E-01    0.8629377268E-01    0.2411769985E-01    0.3037127884E-01    0.3524075994E+00
    0.1500000000E+03    0.4436417563E-01    0.9013874045E-01    0.2590984919E-01    0.3421638292E-01    0.3683584724E+00
    0.1700000000E+03    0.4699623119E-01    0.9333441196E-01    0.2752040018E-01    0.3789768381E-01    0.3816568375E+00
    0.1900000000E+03    0.4936278189E-01    0.9603525067E-01    0.2897955504E-01    0.4142939652E-01    0.3929305091E+00
    0.2100000000E+03    0.5150445880E-01    0.9834995939E-01    0.3030986608E-01    0.4482405500E-01    0.4026217718E+00
    0.2300000000E+03    0.5345261564E-01    0.1003573205E+00    0.3152877612E-01    0.4809275754E-01    0.4110515078E+00
    0.2500000000E+03    0.5523213100E-01    0.1021158689E+00    0.3265016409E-01    0.5124537013E-01    0.4184583812E+00
    0.2700000000E+03    0.5686319769E-01    0.1036700326E+00    0.3368532951E-01    0.5429069590E-01    0.4250237264E+00
    0.2900000000E+03    0.5836251146E-01    0.1050541597E+00    0.3464364534E-01    0.5723661718E-01    0.4308878847E+00
    0.3100000000E+03    0.5974408875E-01    0.1062952381E+00    0.3553300641E-01    0.6009021505E-01    0.4361612385E+00
    0.3300000000E+03    0.6101984665E-01    0.1074147763E+00    0.3636014731E-01    0.6285787072E-01    0.4409318511E+00
    0.3500000000E+03    0.6220002553E-01    0.1084301344E+00    0.3713087403E-01    0.6554535163E-01    0.4452708743E+00
    0.3700000000E+03    0.6329350451E-01    0.1093554833E+00    0.3785023685E-01    0.6815788510E-01    0.4492364498E+00
    0.3900000000E+03    0.6430804187E-01    0.1102025094E+00    0.3852266228E-01    0.7070022147E-01    0.4528765742E+00
    0.4100000000E+03    0.6525046177E-01    0.1109809391E+00    0.3915205564E-01    0.7317668854E-01    0.4562312358E+00
    0.4300000000E+03    0.6612680162E-01    0.1116989355E+00    0.3974188210E-01    0.7559123859E-01    0.4593340306E+00
    0.4500000000E+03    0.6694243008E-01    0.1123634025E+00    0.4029523179E-01    0.7794748922E-01    0.4622134007E+00
    0.4700000000E+03    0.6770214286E-01    0.1129802198E+00    0.4081487260E-01    0.8024875894E-01    0.4648935939E+00
    0.4900000000E+03    0.6841024119E-01    0.1135544272E+00    0.4130329370E-01    0.8249809818E-01    0.4673954157E+00
    0.1000000000E+03    0.3620779465E-01    0.7878020771E-01    0.2099138479E-01    0.2426043752E-01    0.3213616382E+00
    0.3000000000E+03    0.5906722872E-01    0.1056911250E+00    0.3509650017E-01    0.5867454239E-01    0.4335924572E+00
    0.5000000000E+03    0.6874616013E-01    0.1138269341E+00    0.4153650750E-01    0.8360418060E-01    0.4685851469E+00
    0.7000000000E+03    0.7351817215E-01    0.1178354430E+00    0.4500687823E-01    0.1035767370E+00    0.4863083484E+00
    0.9000000000E+03    0.7587771922E-01    0.1202407361E+00    0.4696735213E-01    0.1205294335E+00    0.4972219718E+00
    0.1100000000E+04    0.7690137630E-01    0.1218500782E+00    0.4806267883E-01    0.1354499945E+00    0.5047070859E+00
    0.1300000000E+04    0.7712970841E-01    0.1230043605E+00    0.4862345824E-01    0.1489040851E+00    0.5102056465E+00
    0.1500000000E+04    0.7686122390E-01    0.1238732423E+00    0.4883608974E-01    0.1612437150E+00    0.5144420988E+00
    0.1700000000E+04    0.7627231199E-01    0.1245509787E+00    0.4881310897E-01    0.1727020539E+00    0.5178225775E+00
    0.1900000000E+04    0.7547266530E-01    0.1250942515E+00    0.4862610312E-01    0.1834412631E+00    0.5205934730E+00
    0.2100000000E+04    0.7453327275E-01    0.1255392538E+00    0.4832253552E-01    0.1935786178E+00    0.5229134678E+00
    0.2300000000E+04    0.7350155595E-01    0.1259102100E+00    0.4793495019E-01    0.2032016999E+00    0.5248896618E+00
    0.2500000000E+04    0.7241001160E-01    0.1262239606E+00    0.4748628927E-01    0.2123776984E+00    0.5265971256E+00
    0.2700000000E+04    0.7128137141E-01    0.1264925856E+00    0.4699310578E-01    0.2211593501E+00    0.5280901433E+00
    0.2900000000E+04    0.7013180024E-01    0.1267249798E+00    0.4646757926E-01    0.2295888721E+00    0.5294090073E+00
    0.3100000000E+04    0.6897294223E-01    0.1269278412E+00    0.4591882164E-01    0.2377006472E+00    0.5305842970E+00
    0.3300000000E+04    0.6781326621E-01    0.1271063113E+00    0.4535374707E-01    0.2455231053E+00    0.5316396688E+00
    0.3500000000E+04    0.6665897161E-01    0.1272644033E+00    0.4477766556E-01    0.2530800738E+00    0.5325937314E+00
    0.3700000000E+04    0.6551461138E-01    0.1274052965E+00    0.4419469687E-01    0.2603917654E+00    0.5334613388E+00
    0.3900000000E+04    0.6438352810E-01    0.1275315425E+00    0.4360806459E-01    0.2674755148E+00    0.5342545029E+00
    0.4100000000E+04    0.6326816452E-01    0.1276452132E+00    0.4302030868E-01    0.2743463367E+00    0.5349830504E+00
    0.4300000000E+04    0.6217028777E-01    0.1277480082E+00    0.4243344149E-01    0.2810173540E+00    0.5356551044E+00
    0.4500000000E+04    0.6109115353E-01    0.1278413357E+00    0.4184906378E-01    0.2875001314E+00    0.5362774427E+00
    0.4700000000E+04    0.6003162747E-01    0.1279263716E+00    0.4126845222E-01    0.2938049384E+00    0.5368557696E+00
    0.4900000000E+04    0.5899227624E-01    0.1280041061E+00    0.4069262603E-01    0.2999409580E+00    0.5373949225E+00
    0.1000000000E+04    0.7651493128E-01    0.1211177315E+00    0.4759786638E-01    0.1282017437E+00    0.5012784634E+00
    0.3000000000E+04    0.6955294067E-01    0.1268297501E+00    0.4619562871E-01    0.2336825795E+00    0.5300129836E+00
    0.5000000000E+04    0.5848027875E-01    0.1280405028E+00    0.4040676844E-01    0.3029482872E+00    0.5376511240E+00
    0.7000000000E+04    0.4930686615E-01    0.1285346537E+00    0.3506569342E-01    0.3558827750E+00    0.5414644943E+00
    0.9000000000E+04    0.4195687124E-01    0.1287853303E+00    0.3051953068E-01    0.3980688749E+00    0.5438252715E+00
    0.1100000000E+05    0.3605729282E-01    0.1289261187E+00    0.2671134356E-01    0.4323713110E+00    0.5454582243E+00
    0.1300000000E+05    0.3128467374E-01    0.1290089988E+00    0.2352709323E-01    0.4606366326E+00    0.5466672803E+00
    0.1500000000E+05    0.2738819590E-01    0.1290582215E+00    0.2085650445E-01    0.4841764045E+00    0.5476048862E+00
    0.1700000000E+05    0.2417723135E-01    0.1290865236E+00    0.1860543129E-01    0.5039648021E+00    0.5483569325E+00
    0.1900000000E+05    0.2150702888E-01    0.1291011787E+00    0.1669674766E-01    0.5207425894E+00    0.5489759221E+00
    0.2100000000E+05    0.1926713954E-01    0.1291066086E+00    0.1506827213E-01    0.5350813761E+00    0.5494959444E+00
    0.2300000000E+05    0.1737269638E-01    0.1291056338E+00    0.1367014734E-01    0.5474270945E+00    0.5499401844E+00
    0.2500000000E+05    0.1575797281E-01    0.1291001239E+00    0.1246241119E-01    0.5581308690E+00    0.5503250034E+00
    0.2700000000E+05    0.1437164520E-01    0.1290913570E+00    0.1141295424E-01    0.5674715184E+00    0.5506623001E+00
    0.2900000000E+05    0.1317330335E-01    0.1290802296E+00    0.1049587232E-01    0.5756722170E+00    0.5509609470E+00
    0.3100000000E+05    0.1213086888E-01    0.1290673837E+00    0.9690163892E-02    0.5829129677E+00    0.5512277019E+00
    0.3300000000E+05    0.1121867393E-01    0.1290532876E+00    0.8978709615E-02    0.5893400214E+00    0.5514678077E+00
    0.3500000000E+05    0.1041602170E-01    0.1290382877E+00    0.8347475666E-02    0.5950730448E+00    0.5516853966E+00
    0.3700000000E+05    0.9706100170E-02    0.1290226436E+00    0.7784891705E-02    0.6002106158E+00    0.5518837716E+00
    0.3900000000E+05    0.9075156319E-02    0.1290065520E+00    0.7281364231E-02    0.6048344657E+00    0.5520656064E+00
    0.4100000000E+05    0.8511863616E-02    0.1289901629E+00    0.6828894517E-02    0.6090127778E+00    0.5522330890E+00
    0.4300000000E+05    0.8006834062E-02    0.1289735918E+00    0.6420777397E-02    0.6128027681E+00    0.5523880287E+00
    0.4500000000E+05    0.7552238957E-02    0.1289569278E+00    0.6051362665E-02    0.6162527193E+00    0.5525319347E+00
    0.4700000000E+05    0.7141512098E-02    0.1289402401E+00    0.5715865111E-02    0.6194035933E+00    0.5526660769E+00
    0.4900000000E+05    0.6769115909E-02    0.1289235827E+00    0.5410212514E-02    0.6222903180E+00    0.5527915318E+00
    0.1000000000E+05    0.3884777426E-01    0.1288652409E+00    0.2853010247E-01    0.4160741804E+00    0.5447085287E+00
    0.3000000000E+05    0.1263433332E-01    0.1290739888E+00    0.1008024707E-01    0.5794027475E+00    0.5510979532E+00
    0.5000000000E+05    0.6595796129E-02    0.1289152787E+00    0.5267469866E-02    0.6236441477E+00    0.5528512940E+00
    0.7000000000E+05    0.4310785173E-02    0.1287570043E+00    0.3354837572E-02    0.6422472661E+00    0.5537561246E+00
    0.9000000000E+05    0.3186348962E-02    0.1286174643E+00    0.2392220599E-02    0.6521057115E+00    0.5543387688E+00
    0.1100000000E+06    0.2538506523E-02    0.1284951820E+00    0.1832779823E-02    0.6581018421E+00    0.5547589365E+00
    0.1300000000E+06    0.2124217223E-02    0.1283870173E+00    0.1474920052E-02    0.6620939867E+00    0.5550833485E+00
    0.1500000000E+06    0.1839006079E-02    0.1282902727E+00    0.1229826467E-02    0.6649263272E+00    0.5553454661E+00
    0.1700000000E+06    0.1631620739E-02    0.1282028547E+00    0.1053179822E-02    0.6670324318E+00    0.5555641973E+00
    0.1900000000E+06    0.1474354740E-02    0.1281231593E+00    0.9207347372E-03    0.6686559709E+00    0.5557511666E+00
    0.2100000000E+06    0.1351073052E-02    0.1280499476E+00    0.8182563593E-03    0.6699436585E+00    0.5559139831E+00
    0.2300000000E+06    0.1251809414E-02    0.1279822493E+00    0.7369056689E-03    0.6709887690E+00    0.5560578753E+00
    0.2500000000E+06    0.1170106741E-02    0.1279192935E+00    0.6709386205E-03    0.6718532702E+00    0.5561865777E+00
    0.2700000000E+06    0.1101612904E-02    0.1278604582E+00    0.6164790118E-03    0.6725798545E+00    0.5563028434E+00
    0.2900000000E+06    0.1043295426E-02    0.1278052356E+00    0.5708267070E-03    0.6731988457E+00    0.5564087552E+00
    0.3100000000E+06    0.9929806349E-03    0.1277532057E+00    0.5320491210E-03    0.6737323488E+00    0.5565059247E+00
    0.3300000000E+06    0.9490719220E-03    0.1277040175E+00    0.4987302604E-03    0.6741968415E+00    0.5565956224E+00
    0.3500000000E+06    0.9103713329E-03    0.1276573748E+00    0.4698112226E-03    0.6746048484E+00    0.5566788663E+00
    0.3700000000E+06    0.8759630761E-03    0.1276130252E+00    0.4444857782E-03    0.6749660534E+00    0.5567564841E+00
    0.3900000000E+06    0.8451353901E-03    0.1275707523E+00    0.4221302127E-03    0.6752880575E+00    0.5568291569E+00
    0.4100000000E+06    0.8173268765E-03    0.1275303689E+00    0.4022550914E-03    0.6755769082E+00    0.5568974517E+00
    0.4300000000E+06    0.7920888500E-03    0.1274917118E+00    0.3844714075E-03    0.6758374749E+00    0.5569618454E+00
    0.4500000000E+06    0.7690584159E-03    0.1274546386E+00    0.3684663844E-03    0.6760737217E+00    0.5570227423E+00
    0.4700000000E+06    0.7479388884E-03    0.1274190233E+00    0.3539858882E-03    0.6762889074E+00    0.5570804881E+00
    0.4900000000E+06    0.7284853229E-03    0.1273847548E+00    0.3408214504E-03    0.6764857352E+00    0.5571353809E+00
    0.1000000000E+06    0.2823026769E-02    0.1285543658E+00    0.2078717970E-02    0.6554346306E+00    0.5545638480E+00
    0.3000000000E+06    0.1017248539E-02    0.1277788450E+00    0.5506769763E-03    0.6734751445E+00    0.5564583466E+00
    0.5000000000E+06    0.7193181541E-03    0.1273680943E+00    0.3346776534E-03    0.6765779862E+00    0.5571618394E+00
    0.7000000000E+06    0.5880211708E-03    0.1270864398E+00    0.2513196014E-03    0.6778534131E+00    0.5575891325E+00
    0.9000000000E+06    0.5105099940E-03    0.1268715593E+00    0.2066604282E-03    0.6785513866E+00    0.5578940284E+00
    0.1100000000E+07    0.4578868402E-03    0.1266976511E+00    0.1784553598E-03    0.6789935976E+00    0.5581302211E+00
    0.1300000000E+07    0.4191289346E-03    0.1265514989E+00    0.1588038552E-03    0.6792999866E+00    0.5583225819E+00
    0.1500000000E+07    0.3890240305E-03    0.1264254135E+00    0.1441949468E-03    0.6795254863E+00    0.5584846157E+00
    0.1700000000E+07    0.3647491324E-03    0.1263145216E+00    0.1328262578E-03    0.6796988349E+00    0.5586244535E+00
    0.1900000000E+07    0.3446249161E-03    0.1262155382E+00    0.1236741360E-03    0.6798365435E+00    0.5587473617E+00
    0.2100000000E+07    0.3275812748E-03    0.1261261422E+00    0.1161120323E-03    0.6799487837E+00    0.5588569422E+00
    0.2300000000E+07    0.3128994774E-03    0.1260446328E+00    0.1097337008E-03    0.6800421701E+00    0.5589557647E+00
    0.2500000000E+07    0.3000763133E-03    0.1259697259E+00    0.1042634091E-03    0.6801211938E+00    0.5590457253E+00
    0.2700000000E+07    0.2887474075E-03    0.1259004281E+00    0.9950692139E-04    0.6801890138E+00    0.5591282625E+00
    0.2900000000E+07    0.2786414746E-03    0.1258359551E+00    0.9532313429E-04    0.6802479182E+00    0.5592044927E+00
    0.3100000000E+07    0.2695517589E-03    0.1257756765E+00    0.9160685332E-04    0.6802996064E+00    0.5592752997E+00
    0.3300000000E+07    0.2613175141E-03    0.1257190782E+00    0.8827790379E-04    0.6803453674E+00    0.5593413946E+00
    0.3500000000E+07    0.2538115981E-03    0.1256657355E+00    0.8527400532E-04    0.6803861974E+00    0.5594033580E+00
    0.3700000000E+07    0.2469319308E-03    0.1256152931E+00    0.8254596892E-04    0.6804228788E+00    0.5594616701E+00
    0.3900000000E+07    0.2405954672E-03    0.1255674510E+00    0.8005437503E-04    0.6804560349E+00    0.5595167324E+00
    0.4100000000E+07    0.2347338549E-03    0.1255219537E+00    0.7776722314E-04    0.6804861686E+00    0.5595688840E+00
    0.4300000000E+07    0.2292902457E-03    0.1254785815E+00    0.7565823510E-04    0.6805136902E+00    0.5596184137E+00
    0.4500000000E+07    0.2242169151E-03    0.1254371444E+00    0.7370560830E-04    0.6805389382E+00    0.5596655697E+00
    0.4700000000E+07    0.2194734581E-03    0.1253974765E+00    0.7189108446E-04    0.6805621941E+00    0.5597105667E+00
    0.4900000000E+07    0.2150254039E-03    0.1253594328E+00    0.7019924421E-04    0.6805836941E+00    0.5597535918E+00
    0.1000000000E+07    0.4819812122E-03    0.1267804884E+00    0.1911526456E-03    0.6787946610E+00    0.5580187787E+00
    0.3000000000E+07    0.2739805461E-03    0.1258053260E+00    0.9341205533E-04    0.6802745757E+00    0.5592405262E+00
    0.5000000000E+07    0.2129027330E-03    0.1253409793E+00    0.6939515220E-04    0.6805938493E+00    0.5597744168E+00
    0.7000000000E+07    0.1805564681E-03    0.1250327691E+00    0.5739712645E-04    0.6807402484E+00    0.5601182939E+00
    0.9000000000E+07    0.1597106596E-03    0.1248016445E+00    0.4991013274E-04    0.6808263685E+00    0.5603718997E+00
    0.1100000000E+08    0.1448320295E-03    0.1246166401E+00    0.4468001586E-04    0.6808839622E+00    0.5605726912E+00
    0.1300000000E+08    0.1335200297E-03    0.1244623706E+00    0.4076623169E-04    0.6809256291E+00    0.5607388153E+00
    0.1500000000E+08    0.1245411524E-03    0.1243300625E+00    0.3769812974E-04    0.6809574203E+00    0.5608804416E+00
    0.1700000000E+08    0.1171875851E-03    0.1242142353E+00    0.3521089567E-04    0.6809826255E+00    0.5610038408E+00
    0.1900000000E+08    0.1110201111E-03    0.1241112348E+00    0.3314271500E-04    0.6810031967E+00    0.5611131518E+00
    0.2100000000E+08    0.1057497443E-03    0.1240185020E+00    0.3138844657E-04    0.6810203707E+00    0.5612112489E+00
    0.2300000000E+08    0.1011774777E-03    0.1239341748E+00    0.2987644227E-04    0.6810349716E+00    0.5613002097E+00
    0.2500000000E+08    0.9716116990E-04    0.1238568561E+00    0.2855598531E-04    0.6810475716E+00    0.5613815841E+00
    0.2700000000E+08    0.9359621037E-04    0.1237854704E+00    0.2739004132E-04    0.6810585810E+00    0.5614565588E+00
