  Pressure (Pa) 2mC6-400 (mol/kg) 3mC6-400 (mol/kg) 33mC5-400 (mol/kg) 23mC5-400 (mol/kg) C7-400 (mol/kg)
    0.1000000000E+01    0.7887877266E-03    0.2085311326E-02    0.1284707971E-03    0.5603266804E-03    0.1184411584E-01
    0.3000000000E+01    0.2282492373E-02    0.5998175991E-02    0.3719045393E-03    0.1675193250E-02    0.3407530796E-01
    0.5000000000E+01    0.3675749915E-02    0.9601543872E-02    0.5991713590E-03    0.2782426389E-02    0.5455670066E-01
    0.7000000000E+01    0.4980330810E-02    0.1293093153E-01    0.8121768847E-03    0.3882123331E-02    0.7348877808E-01
    0.9000000000E+01    0.6206214767E-02    0.1601661375E-01    0.1012535758E-02    0.4974379615E-02    0.9104245877E-01
    0.1100000000E+02    0.7361915954E-02    0.1888455653E-01    0.1201624580E-02    0.6059289119E-02    0.1073643553E+00
    0.1300000000E+02    0.8454740258E-02    0.2155715755E-01    0.1380623782E-02    0.7136944100E-02    0.1225809496E+00
    0.1500000000E+02    0.9490990547E-02    0.2405383905E-01    0.1550551029E-02    0.8207435227E-02    0.1368019356E+00
    0.1700000000E+02    0.1047613174E-01    0.2639152633E-01    0.1712288064E-02    0.9270851615E-02    0.1501229180E+00
    0.1900000000E+02    0.1141492453E-01    0.2858503669E-01    0.1866602465E-02    0.1032728086E-01    0.1626276053E+00
    0.2100000000E+02    0.1231153451E-01    0.3064739794E-01    0.2014165371E-02    0.1137680907E-01    0.1743896063E+00
    0.2300000000E+02    0.1316962174E-01    0.3259011080E-01    0.2155566046E-02    0.1241952089E-01    0.1854739104E+00
    0.2500000000E+02    0.1399241469E-01    0.3442336641E-01    0.2291323892E-02    0.1345549956E-01    0.1959381146E+00
    0.2700000000E+02    0.1478277177E-01    0.3615622778E-01    0.2421898436E-02    0.1448482690E-01    0.2058334465E+00
    0.2900000000E+02    0.1554323262E-01    0.3779678174E-01    0.2547697658E-02    0.1550758338E-01    0.2152056226E+00
    0.3100000000E+02    0.1627606119E-01    0.3935226712E-01    0.2669084983E-02    0.1652384812E-01    0.2240955706E+00
    0.3300000000E+02    0.1698328208E-01    0.4082918310E-01    0.2786385177E-02    0.1753369895E-01    0.2325400414E+00
    0.3500000000E+02    0.1766671135E-01    0.4223338145E-01    0.2899889335E-02    0.1853721240E-01    0.2405721294E+00
    0.3700000000E+02    0.1832798265E-01    0.4357014527E-01    0.3009859128E-02    0.1953446375E-01    0.2482217169E+00
    0.3900000000E+02    0.1896856963E-01    0.4484425650E-01    0.3116530425E-02    0.2052552705E-01    0.2555158552E+00
    0.4100000000E+02    0.1958980511E-01    0.4606005405E-01    0.3220116398E-02    0.2151047515E-01    0.2624790925E+00
    0.4300000000E+02    0.2019289760E-01    0.4722148396E-01    0.3320810199E-02    0.2248937970E-01    0.2691337575E+00
    0.4500000000E+02    0.2077894553E-01    0.4833214300E-01    0.3418787261E-02    0.2346231123E-01    0.2755002052E+00
    0.4700000000E+02    0.2134894960E-01    0.4939531648E-01    0.3514207300E-02    0.2442933910E-01    0.2815970304E+00
    0.4900000000E+02    0.2190382356E-01    0.5041401132E-01    0.3607216048E-02    0.2539053158E-01    0.2874412546E+00
    0.1000000000E+02    0.6792355896E-02    0.1747632667E-01    0.1108410978E-02    0.5517746911E-02    0.9934904585E-01
    0.3000000000E+02    0.1591296918E-01    0.3858473562E-01    0.2608921666E-02    0.1601652232E-01    0.2197084868E+00
    0.5000000000E+02    0.2217585084E-01    0.5090754997E-01    0.3652858282E-02    0.2586896058E-01    0.2902735708E+00
    0.7000000000E+02    0.2699169281E-01    0.5900442696E-01    0.4466108799E-02    0.3514702401E-01    0.3368366584E+00
    0.9000000000E+02    0.3092429432E-01    0.6474089237E-01    0.5138310941E-02    0.4391203439E-01    0.3699652281E+00
    0.1100000000E+03    0.3424824157E-01    0.6902320658E-01    0.5712880380E-02    0.5221658064E-01    0.3948000199E+00
    0.1300000000E+03    0.3711757141E-01    0.7234523667E-01    0.6214091496E-02    0.6010602984E-01    0.4141463495E+00
    0.1500000000E+03    0.3962841237E-01    0.7499933590E-01    0.6657077963E-02    0.6761973459E-01    0.4296671604E+00
    0.1700000000E+03    0.4184586328E-01    0.7716975154E-01    0.7052099331E-02    0.7479200550E-01    0.4424119187E+00
    0.1900000000E+03    0.4381686463E-01    0.7897844520E-01    0.7406572886E-02    0.8165290064E-01    0.4530762711E+00
    0.2100000000E+03    0.4557692997E-01    0.8050940872E-01    0.7726130869E-02    0.8822887069E-01    0.4621399527E+00
    0.2300000000E+03    0.4715393416E-01    0.8182240211E-01    0.8015212849E-02    0.9454328984E-01    0.4699447655E+00
    0.2500000000E+03    0.4857038307E-01    0.8296112259E-01    0.8277419422E-02    0.1006168954E+00    0.4767409846E+00
    0.2700000000E+03    0.4984484919E-01    0.8395827349E-01    0.8515735383E-02    0.1064681535E+00    0.4827161770E+00
    0.2900000000E+03    0.5099292347E-01    0.8483882513E-01    0.8732677506E-02    0.1121135663E+00    0.4880137558E+00
    0.3100000000E+03    0.5202787280E-01    0.8562217832E-01    0.8930396587E-02    0.1175679289E+00    0.4927453007E+00
    0.3300000000E+03    0.5296111058E-01    0.8632363898E-01    0.9110750542E-02    0.1228445484E+00    0.4969989622E+00
    0.3500000000E+03    0.5380254395E-01    0.8695544705E-01    0.9275358415E-02    0.1279554289E+00    0.5008453309E+00
    0.3700000000E+03    0.5456083687E-01    0.8752750955E-01    0.9425641390E-02    0.1329114296E+00    0.5043416215E+00
    0.3900000000E+03    0.5524361398E-01    0.8804793251E-01    0.9562854638E-02    0.1377224007E+00    0.5075347125E+00
    0.4100000000E+03    0.5585762153E-01    0.8852341349E-01    0.9688112551E-02    0.1423972997E+00    0.5104633905E+00
    0.4300000000E+03    0.5640885663E-01    0.8895953559E-01    0.9802409051E-02    0.1469442925E+00    0.5131600323E+00
    0.4500000000E+03    0.5690267250E-01    0.8936099055E-01    0.9906634179E-02    0.1513708404E+00    0.5156518835E+00
    0.4700000000E+03    0.5734386511E-01    0.8973175031E-01    0.1000158781E-01    0.1556837761E+00    0.5179620410E+00
    0.4900000000E+03    0.5773674539E-01    0.9007520030E-01    0.1008799110E-01    0.1598893702E+00    0.5201102183E+00
    0.1000000000E+03    0.3265089275E-01    0.6702660737E-01    0.5435993183E-02    0.4811887627E-01    0.3832080627E+00
    0.3000000000E+03    0.5152378653E-01    0.8524161273E-01    0.8833817651E-02    0.1148637646E+00    0.4904443026E+00
    0.5000000000E+03    0.5791629808E-01    0.9023760792E-01    0.1012819262E-01    0.1619537344E+00    0.5211289502E+00
    0.7000000000E+03    0.5973760970E-01    0.9257867721E-01    0.1061271014E-01    0.1987866198E+00    0.5360785558E+00
    0.9000000000E+03    0.5948168674E-01    0.9393290214E-01    0.1071018723E-01    0.2293165022E+00    0.5450557810E+00
    0.1100000000E+04    0.5820556887E-01    0.9481199605E-01    0.1060519734E-01    0.2555375546E+00    0.5510995031E+00
    0.1300000000E+04    0.5641962630E-01    0.9542595331E-01    0.1038966372E-01    0.2785869997E+00    0.5554741259E+00
    0.1500000000E+04    0.5439105189E-01    0.9587698590E-01    0.1011343724E-01    0.2991744493E+00    0.5588033446E+00
    0.1700000000E+04    0.5226728797E-01    0.9622083748E-01    0.9805197867E-02    0.3177744669E+00    0.5614317704E+00
    0.1900000000E+04    0.5013232572E-01    0.9649049827E-01    0.9482138627E-02    0.3347224005E+00    0.5635659874E+00
    0.2100000000E+04    0.4803464260E-01    0.9670673639E-01    0.9154849919E-02    0.3502660489E+00    0.5653377081E+00
    0.2300000000E+04    0.4600199975E-01    0.9688327412E-01    0.8829951998E-02    0.3645953511E+00    0.5668350644E+00
    0.2500000000E+04    0.4404969688E-01    0.9702953879E-01    0.8511591798E-02    0.3778603637E+00    0.5681193682E+00
    0.2700000000E+04    0.4218537465E-01    0.9715221835E-01    0.8202332210E-02    0.3901826372E+00    0.5692346625E+00
    0.2900000000E+04    0.4041190534E-01    0.9725618674E-01    0.7903700036E-02    0.4016626930E+00    0.5702134467E+00
    0.3100000000E+04    0.3872918158E-01    0.9734507812E-01    0.7616534063E-02    0.4123851031E+00    0.5710802562E+00
    0.3300000000E+04    0.3713524788E-01    0.9742165617E-01    0.7341211879E-02    0.4224220448E+00    0.5718539823E+00
    0.3500000000E+04    0.3562702871E-01    0.9748805888E-01    0.7077800813E-02    0.4318358547E+00    0.5725494212E+00
    0.3700000000E+04    0.3420080262E-01    0.9754596536E-01    0.6826160163E-02    0.4406809091E+00    0.5731783373E+00
    0.3900000000E+04    0.3285251339E-01    0.9759671194E-01    0.6586011384E-02    0.4490050387E+00    0.5737502094E+00
    0.4100000000E+04    0.3157797446E-01    0.9764137493E-01    0.6356986806E-02    0.4568506144E+00    0.5742727654E+00
    0.4300000000E+04    0.3037300270E-01    0.9768083043E-01    0.6138663705E-02    0.4642553967E+00    0.5747523736E+00
    0.4500000000E+04    0.2923350471E-01    0.9771579852E-01    0.5930588222E-02    0.4712532105E+00    0.5751943316E+00
    0.4700000000E+04    0.2815553115E-01    0.9774687616E-01    0.5732292183E-02    0.4778744900E+00    0.5756030849E+00
    0.4900000000E+04    0.2713530913E-01    0.9777456224E-01    0.5543304868E-02    0.4841467239E+00    0.5759823936E+00
    0.1000000000E+04    0.5893133886E-01    0.9441499489E-01    0.1067589667E-01    0.2428812112E+00    0.5483432651E+00
    0.3000000000E+04    0.3955928922E-01    0.9730232726E-01    0.7758651425E-02    0.4071138361E+00    0.5706595563E+00
    0.5000000000E+04    0.2664572874E-01    0.9778726733E-01    0.5452156257E-02    0.4871598259E+00    0.5761620260E+00
    0.7000000000E+04    0.1912653398E-01    0.9793714690E-01    0.4013091296E-02    0.5340679852E+00    0.5787843840E+00
    0.9000000000E+04    0.1448826888E-01    0.9798482252E-01    0.3084763464E-02    0.5641779248E+00    0.5803541020E+00
    0.1100000000E+05    0.1145054687E-01    0.9799130098E-01    0.2456749420E-02    0.5848012088E+00    0.5814143981E+00
    0.1300000000E+05    0.9357472070E-02    0.9797870922E-01    0.2013196843E-02    0.5996461631E+00    0.5821869479E+00
    0.1500000000E+05    0.7853680538E-02    0.9795665474E-01    0.1688271471E-02    0.6107583743E+00    0.5827799270E+00
    0.1700000000E+05    0.6735321499E-02    0.9792981067E-01    0.1442847618E-02    0.6193425013E+00    0.5832526979E+00
    0.1900000000E+05    0.5879354958E-02    0.9790062951E-01    0.1252640610E-02    0.6261467554E+00    0.5836406833E+00
    0.2100000000E+05    0.5208176153E-02    0.9787046631E-01    0.1101978206E-02    0.6316568437E+00    0.5839663987E+00
    0.2300000000E+05    0.4670948933E-02    0.9784009492E-01    0.9803939839E-03    0.6362000147E+00    0.5842448808E+00
    0.2500000000E+05    0.4233266279E-02    0.9780996496E-01    0.8806858028E-03    0.6400038479E+00    0.5844865791E+00
    0.2700000000E+05    0.3871170827E-02    0.9778033773E-01    0.7977661743E-03    0.6432309794E+00    0.5846989972E+00
    0.2900000000E+05    0.3567562649E-02    0.9775136187E-01    0.7279576310E-03    0.6460004137E+00    0.5848876735E+00
    0.3100000000E+05    0.3309967386E-02    0.9772311707E-01    0.6685472703E-03    0.6484010488E+00    0.5850567920E+00
    0.3300000000E+05    0.3089107637E-02    0.9769564026E-01    0.6174972336E-03    0.6505005137E+00    0.5852095776E+00
    0.3500000000E+05    0.2897963956E-02    0.9766894159E-01    0.5732518079E-03    0.6523510963E+00    0.5853485598E+00
    0.3700000000E+05    0.2731142839E-02    0.9764301451E-01    0.5346060022E-03    0.6539938110E+00    0.5854757534E+00
    0.3900000000E+05    0.2584442206E-02    0.9761784220E-01    0.5006141878E-03    0.6554612490E+00    0.5855927845E+00
    0.4100000000E+05    0.2454546847E-02    0.9759340165E-01    0.4705254213E-03    0.6567796130E+00    0.5857009823E+00
    0.4300000000E+05    0.2338811223E-02    0.9756966641E-01    0.4437368935E-03    0.6579701939E+00    0.5858014443E+00
    0.4500000000E+05    0.2235102092E-02    0.9754660831E-01    0.4197599133E-03    0.6590504592E+00    0.5858950860E+00
    0.4700000000E+05    0.2141682809E-02    0.9752419862E-01    0.3981947064E-03    0.6600348665E+00    0.5859826777E+00
    0.4900000000E+05    0.2057127140E-02    0.9750240881E-01    0.3787115058E-03    0.6609354796E+00    0.5860648727E+00
    0.1000000000E+05    0.1281997671E-01    0.9799138241E-01    0.2742020833E-02    0.5753901088E+00    0.5809301479E+00
    0.3000000000E+05    0.3433655321E-02    0.9773714500E-01    0.6970932376E-03    0.6472421864E+00    0.5849744571E+00
    0.5000000000E+05    0.2017796008E-02    0.9749173761E-01    0.3696631428E-03    0.6613575971E+00    0.5861041241E+00
    0.7000000000E+05    0.1494277481E-02    0.9730468786E-01    0.2507894846E-03    0.6671813680E+00    0.5867067399E+00
    0.9000000000E+05    0.1223552928E-02    0.9715516356E-01    0.1915500948E-03    0.6703403014E+00    0.5871038733E+00
    0.1100000000E+06    0.1056800601E-02    0.9703086561E-01    0.1565513160E-03    0.6723197067E+00    0.5873950304E+00
    0.1300000000E+06    0.9426088441E-03    0.9692455778E-01    0.1335550923E-03    0.6736759599E+00    0.5876226342E+00
    0.1500000000E+06    0.8587199140E-03    0.9683169679E-01    0.1173092677E-03    0.6746635224E+00    0.5878083244E+00
    0.1700000000E+06    0.7939636122E-03    0.9674925913E-01    0.1052146088E-03    0.6754150276E+00    0.5879644998E+00
    0.1900000000E+06    0.7421162055E-03    0.9667513550E-01    0.9584720418E-04    0.6760063270E+00    0.5880988706E+00
    0.2100000000E+06    0.6994289668E-03    0.9660779742E-01    0.8836514369E-04    0.6764839172E+00    0.5882165328E+00
    0.2300000000E+06    0.6635036611E-03    0.9654610237E-01    0.8224011924E-04    0.6768778808E+00    0.5883210167E+00
    0.2500000000E+06    0.6327306705E-03    0.9648917413E-01    0.7712441346E-04    0.6772085401E+00    0.5884148621E+00
    0.2700000000E+06    0.6059867027E-03    0.9643632604E-01    0.7278004173E-04    0.6774901183E+00    0.5884999526E+00
    0.2900000000E+06    0.5824621124E-03    0.9638701002E-01    0.6903871934E-04    0.6777328679E+00    0.5885777217E+00
    0.3100000000E+06    0.5615572506E-03    0.9634078162E-01    0.6577811297E-04    0.6779443669E+00    0.5886492837E+00
    0.3300000000E+06    0.5428175978E-03    0.9629727544E-01    0.6290716002E-04    0.6781303372E+00    0.5887155210E+00
    0.3500000000E+06    0.5258917016E-03    0.9625618743E-01    0.6035666813E-04    0.6782951811E+00    0.5887771438E+00
    0.3700000000E+06    0.5105030518E-03    0.9621726189E-01    0.5807310908E-04    0.6784423410E+00    0.5888347312E+00
    0.3900000000E+06    0.4964307661E-03    0.9618028167E-01    0.5601441110E-04    0.6785745475E+00    0.5888887618E+00
    0.4100000000E+06    0.4834960118E-03    0.9614506087E-01    0.5414703806E-04    0.6786939951E+00    0.5889396352E+00
    0.4300000000E+06    0.4715522589E-03    0.9611143903E-01    0.5244391922E-04    0.6788024672E+00    0.5889876883E+00
    0.4500000000E+06    0.4604781534E-03    0.9607927676E-01    0.5088295427E-04    0.6789014285E+00    0.5890332076E+00
    0.4700000000E+06    0.4501722190E-03    0.9604845215E-01    0.4944591534E-04    0.6789920934E+00    0.5890764388E+00
    0.4900000000E+06    0.4405488584E-03    0.9601885797E-01    0.4811762839E-04    0.6790754767E+00    0.5891175941E+00
    0.1000000000E+06    0.1131449109E-02    0.9709039645E-01    0.1720383288E-03    0.6714319780E+00    0.5872593367E+00
    0.3000000000E+06    0.5717134470E-03    0.9636353432E-01    0.6735462137E-04    0.6778421299E+00    0.5886142188E+00
    0.5000000000E+06    0.4359699685E-03    0.9600449224E-01    0.4749020460E-04    0.6791147105E+00    0.5891374518E+00
    0.7000000000E+06    0.3671665135E-03    0.9576361344E-01    0.3841277806E-04    0.6796680352E+00    0.5894599459E+00
    0.9000000000E+06    0.3236449532E-03    0.9558198596E-01    0.3299884438E-04    0.6799805360E+00    0.5896920169E+00
    0.1100000000E+07    0.2928921372E-03    0.9543610253E-01    0.2931827438E-04    0.6801826472E+00    0.5898728203E+00
    0.1300000000E+07    0.2696550718E-03    0.9531416526E-01    0.2661322459E-04    0.6803247545E+00    0.5900206838E+00
    0.1500000000E+07    0.2512866097E-03    0.9520940229E-01    0.2451956705E-04    0.6804305112E+00    0.5901456345E+00
    0.1700000000E+07    0.2362870488E-03    0.9511756365E-01    0.2283830274E-04    0.6805125221E+00    0.5902537447E+00
    0.1900000000E+07    0.2237340861E-03    0.9503580564E-01    0.2145046498E-04    0.6805781340E+00    0.5903489659E+00
    0.2100000000E+07    0.2130248727E-03    0.9496213135E-01    0.2028005797E-04    0.6806319261E+00    0.5904340111E+00
    0.2300000000E+07    0.2037463454E-03    0.9489508444E-01    0.1927599394E-04    0.6806769050E+00    0.5905108221E+00
    0.2500000000E+07    0.1956046337E-03    0.9483357005E-01    0.1840250904E-04    0.6807151288E+00    0.5905808358E+00
    0.2700000000E+07    0.1883841441E-03    0.9477674416E-01    0.1763372749E-04    0.6807480552E+00    0.5906451449E+00
    0.2900000000E+07    0.1819226106E-03    0.9472394237E-01    0.1695040827E-04    0.6807767466E+00    0.5907045995E+00
    0.3100000000E+07    0.1760952319E-03    0.9467463227E-01    0.1633790991E-04    0.6808019962E+00    0.5907598737E+00
    0.3300000000E+07    0.1708042232E-03    0.9462838064E-01    0.1578486895E-04    0.6808244084E+00    0.5908115108E+00
    0.3500000000E+07    0.1659717256E-03    0.9458483019E-01    0.1528231430E-04    0.6808444525E+00    0.5908599551E+00
    0.3700000000E+07    0.1615348657E-03    0.9454368286E-01    0.1482305723E-04    0.6808624983E+00    0.5909055748E+00
    0.3900000000E+07    0.1574422363E-03    0.9450468735E-01    0.1440126111E-04    0.6808788414E+00    0.5909486779E+00
    0.4100000000E+07    0.1536513377E-03    0.9446762983E-01    0.1401213157E-04    0.6808937212E+00    0.5909895248E+00
    0.4300000000E+07    0.1501266844E-03    0.9443232686E-01    0.1365168913E-04    0.6809073335E+00    0.5910283379E+00
    0.4500000000E+07    0.1468383821E-03    0.9439861987E-01    0.1331659962E-04    0.6809198402E+00    0.5910653082E+00
    0.4700000000E+07    0.1437610426E-03    0.9436637087E-01    0.1300404579E-04    0.6809313764E+00    0.5911006012E+00
    0.4900000000E+07    0.1408729453E-03    0.9433545902E-01    0.1271162876E-04    0.6809420556E+00    0.5911343611E+00
    0.1000000000E+07    0.3070902084E-03    0.9550547727E-01    0.3100302454E-04    0.6800913024E+00    0.5897874054E+00
    0.3000000000E+07    0.1789363008E-03    0.9469887995E-01    0.1663608150E-04    0.6807897601E+00    0.5907327226E+00
    0.5000000000E+07    0.1394939136E-03    0.9432047078E-01    0.1257231711E-04    0.6809471045E+00    0.5911507063E+00
    0.7000000000E+07    0.1184232127E-03    0.9407065735E-01    0.1046936382E-04    0.6810202386E+00    0.5914210163E+00
    0.9000000000E+07    0.1047975572E-03    0.9388390257E-01    0.9135901202E-05    0.6810635811E+00    0.5916207995E+00
    0.1100000000E+08    0.9505536373E-04    0.9373472449E-01    0.8195927624E-05    0.6810927096E+00    0.5917791944E+00
    0.1300000000E+08    0.8764100232E-04    0.9361051895E-01    0.7488460971E-05    0.6811138589E+00    0.5919103667E+00
    0.1500000000E+08    0.8175207430E-04    0.9350412091E-01    0.6931657002E-05    0.6811300407E+00    0.5920222738E+00
    0.1700000000E+08    0.7692703778E-04    0.9341106502E-01    0.6478967554E-05    0.6811428992E+00    0.5921198310E+00
    0.1900000000E+08    0.7287902437E-04    0.9332837951E-01    0.6101727861E-05    0.6811534136E+00    0.5922062869E+00
    0.2100000000E+08    0.6941906541E-04    0.9325398646E-01    0.5781203341E-05    0.6811622058E+00    0.5922839002E+00
    0.2300000000E+08    0.6641691611E-04    0.9318637580E-01    0.5504569060E-05    0.6811696914E+00    0.5923543048E+00
    0.2500000000E+08    0.6377948660E-04    0.9312441558E-01    0.5262713622E-05    0.6811761591E+00    0.5924187205E+00
    0.2700000000E+08    0.6143823032E-04    0.9306723543E-01    0.5048963899E-05    0.6811818167E+00    0.5924780822E+00
