  Pressure (Pa) 2mC6-400 (mol/kg) 3mC6-400 (mol/kg) 33mC5-400 (mol/kg) 23mC5-400 (mol/kg) C7-400 (mol/kg)
    0.1000000000E+01    0.7956295330E-03    0.3161772610E-02    0.2591407812E-03    0.6535431847E-03    0.3420425620E-02
    0.3000000000E+01    0.2339914950E-02    0.9282714863E-02    0.7622555818E-03    0.1952864659E-02    0.1004312618E-01
    0.5000000000E+01    0.3824833437E-02    0.1514787573E-01    0.1246206021E-02    0.3241959541E-02    0.1639039359E-01
    0.7000000000E+01    0.5254012930E-02    0.2077322225E-01    0.1712167553E-02    0.4520977086E-02    0.2247939550E-01
    0.9000000000E+01    0.6630781351E-02    0.2617341419E-01    0.2161218129E-02    0.5790063567E-02    0.2832589504E-01
    0.1100000000E+02    0.7958197140E-02    0.3136193533E-01    0.2594348134E-02    0.7049362353E-02    0.3394439180E-01
    0.1300000000E+02    0.9239076144E-02    0.3635120916E-01    0.3012469146E-02    0.8299013981E-02    0.3934824614E-01
    0.1500000000E+02    0.1047601535E-01    0.4115270123E-01    0.3416421656E-02    0.9539156221E-02    0.4454978907E-01
    0.1700000000E+02    0.1167141391E-01    0.4577700985E-01    0.3806981907E-02    0.1076992415E-01    0.4956041965E-01
    0.1900000000E+02    0.1282749174E-01    0.5023394671E-01    0.4184867958E-02    0.1199145022E-01    0.5439069160E-01
    0.2100000000E+02    0.1394630614E-01    0.5453260858E-01    0.4550745078E-02    0.1320386430E-01    0.5905039032E-01
    0.2300000000E+02    0.1502976653E-01    0.5868144139E-01    0.4905230547E-02    0.1440729378E-01    0.6354860171E-01
    0.2500000000E+02    0.1607964764E-01    0.6268829750E-01    0.5248897945E-02    0.1560186359E-01    0.6789377369E-01
    0.2700000000E+02    0.1709760133E-01    0.6656048702E-01    0.5582280995E-02    0.1678769628E-01    0.7209377132E-01
    0.2900000000E+02    0.1808516717E-01    0.7030482390E-01    0.5905876997E-02    0.1796491208E-01    0.7615592635E-01
    0.3100000000E+02    0.1904378192E-01    0.7392766744E-01    0.6220149926E-02    0.1913362893E-01    0.8008708176E-01
    0.3300000000E+02    0.1997478812E-01    0.7743495957E-01    0.6525533207E-02    0.2029396257E-01    0.8389363186E-01
    0.3500000000E+02    0.2087944180E-01    0.8083225870E-01    0.6822432228E-02    0.2144602656E-01    0.8758155864E-01
    0.3700000000E+02    0.2175891943E-01    0.8412477017E-01    0.7111226601E-02    0.2258993235E-01    0.9115646448E-01
    0.3900000000E+02    0.2261432424E-01    0.8731737391E-01    0.7392272211E-02    0.2372578934E-01    0.9462360188E-01
    0.4100000000E+02    0.2344669194E-01    0.9041464956E-01    0.7665903073E-02    0.2485370488E-01    0.9798790046E-01
    0.4300000000E+02    0.2425699588E-01    0.9342089923E-01    0.7932433014E-02    0.2597378436E-01    0.1012539914E+00
    0.4500000000E+02    0.2504615180E-01    0.9634016830E-01    0.8192157207E-02    0.2708613126E-01    0.1044262298E+00
    0.4700000000E+02    0.2581502209E-01    0.9917626428E-01    0.8445353561E-02    0.2819084717E-01    0.1075087150E+00
    0.4900000000E+02    0.2656441971E-01    0.1019327741E+00    0.8692283992E-02    0.2928803182E-01    0.1105053091E+00
    0.1000000000E+02    0.7300476941E-02    0.2879333355E-01    0.2379714477E-02    0.6420927573E-02    0.3116278340E-01
    0.3000000000E+02    0.1856800740E-01    0.7213105160E-01    0.6064151071E-02    0.1855032559E-01    0.7813746929E-01
    0.5000000000E+02    0.2693205770E-01    0.1032822488E+00    0.8813477249E-02    0.2983383061E-01    0.1119725432E+00
    0.7000000000E+02    0.3342770759E-01    0.1268203945E+00    0.1096156563E-01    0.4037740074E-01    0.1375907921E+00
    0.9000000000E+02    0.3863195242E-01    0.1452762043E+00    0.1269406795E-01    0.5026944320E-01    0.1577180764E+00
    0.1100000000E+03    0.4289534701E-01    0.1601651572E+00    0.1412354326E-01    0.5958432427E-01    0.1739878339E+00
    0.1300000000E+03    0.4644543679E-01    0.1724511359E+00    0.1532293690E-01    0.6838506846E-01    0.1874396668E+00
    0.1500000000E+03    0.4943782937E-01    0.1827770437E+00    0.1634207775E-01    0.7672545710E-01    0.1987674448E+00
    0.1700000000E+03    0.5198348778E-01    0.1915885245E+00    0.1721647653E-01    0.8465167683E-01    0.2084524600E+00
    0.1900000000E+03    0.5416428296E-01    0.1992044779E+00    0.1797232928E-01    0.9220362658E-01    0.2168393494E+00
    0.2100000000E+03    0.5604234058E-01    0.2058592963E+00    0.1862951872E-01    0.9941596305E-01    0.2241815905E+00
    0.2300000000E+03    0.5766591682E-01    0.2117292357E+00    0.1920349770E-01    0.1063189436E+00    0.2306699160E+00
    0.2500000000E+03    0.5907323683E-01    0.2169494712E+00    0.1970651767E-01    0.1129391109E+00    0.2364506997E+00
    0.2700000000E+03    0.6029508708E-01    0.2216254661E+00    0.2014845714E-01    0.1192998537E+00    0.2416382175E+00
    0.2900000000E+03    0.6135661729E-01    0.2258407547E+00    0.2053739689E-01    0.1254218676E+00    0.2463230429E+00
    0.3100000000E+03    0.6227862524E-01    0.2296623925E+00    0.2088002972E-01    0.1313235380E+00    0.2505779295E+00
    0.3300000000E+03    0.6307849335E-01    0.2331448539E+00    0.2118195888E-01    0.1370212585E+00    0.2544620191E+00
    0.3500000000E+03    0.6377088510E-01    0.2363328690E+00    0.2144791983E-01    0.1425296981E+00    0.2580239060E+00
    0.3700000000E+03    0.6436827195E-01    0.2392635240E+00    0.2168194804E-01    0.1478620261E+00    0.2613039062E+00
    0.3900000000E+03    0.6488133822E-01    0.2419678385E+00    0.2188750782E-01    0.1530301029E+00    0.2643357626E+00
    0.4100000000E+03    0.6531929668E-01    0.2444719661E+00    0.2206759279E-01    0.1580446416E+00    0.2671479433E+00
    0.4300000000E+03    0.6569013756E-01    0.2467981200E+00    0.2222480508E-01    0.1629153463E+00    0.2697646423E+00
    0.4500000000E+03    0.6600082719E-01    0.2489652935E+00    0.2236141866E-01    0.1676510312E+00    0.2722065603E+00
    0.4700000000E+03    0.6625746824E-01    0.2509898277E+00    0.2247943030E-01    0.1722597225E+00    0.2744915185E+00
    0.4900000000E+03    0.6646542998E-01    0.2528858631E+00    0.2258060115E-01    0.1767487467E+00    0.2766349479E+00
    0.1000000000E+03    0.4086490956E-01    0.1530967853E+00    0.1344144152E-01    0.5499485116E-01    0.1662599297E+00
    0.3000000000E+03    0.6183390423E-01    0.2277971179E+00    0.2071412884E-01    0.1283991778E+00    0.2485002536E+00
    0.5000000000E+03    0.6655266020E-01    0.2537896010E+00    0.2262536570E-01    0.1789505009E+00    0.2776578556E+00
    0.7000000000E+03    0.6664358841E-01    0.2674023391E+00    0.2293466461E-01    0.2180635598E+00    0.2931829499E+00
    0.9000000000E+03    0.6498468669E-01    0.2759061067E+00    0.2259742695E-01    0.2502661363E+00    0.3030297107E+00
    0.1100000000E+04    0.6262081690E-01    0.2817753194E+00    0.2197195373E-01    0.2777713750E+00    0.3099229245E+00
    0.1300000000E+04    0.6000014561E-01    0.2860956658E+00    0.2121820269E-01    0.3018212468E+00    0.3150654698E+00
    0.1500000000E+04    0.5733277695E-01    0.2894226446E+00    0.2041510143E-01    0.3231856780E+00    0.3190763992E+00
    0.1700000000E+04    0.5472137443E-01    0.2920716576E+00    0.1960397285E-01    0.3423794066E+00    0.3223091712E+00
    0.1900000000E+04    0.5221597011E-01    0.2942358316E+00    0.1880709334E-01    0.3597674783E+00    0.3249813907E+00
    0.2100000000E+04    0.4983934686E-01    0.2960404144E+00    0.1803646873E-01    0.3756211907E+00    0.3272349246E+00
    0.2300000000E+04    0.4759967896E-01    0.2975703905E+00    0.1729831171E-01    0.3901498667E+00    0.3291665287E+00
    0.2500000000E+04    0.4549718208E-01    0.2988855723E+00    0.1659546444E-01    0.4035199460E+00    0.3308446426E+00
    0.2700000000E+04    0.4352775951E-01    0.3000293467E+00    0.1592877173E-01    0.4158670168E+00    0.3323191550E+00
    0.2900000000E+04    0.4168506291E-01    0.3010339947E+00    0.1529788839E-01    0.4273037169E+00    0.3336273633E+00
    0.3100000000E+04    0.3996168042E-01    0.3019240591E+00    0.1470176763E-01    0.4379251153E+00    0.3347977580E+00
    0.3300000000E+04    0.3834982841E-01    0.3027185505E+00    0.1413896292E-01    0.4478124959E+00    0.3358525103E+00
    0.3500000000E+04    0.3684175322E-01    0.3034324361E+00    0.1360781732E-01    0.4570360971E+00    0.3368091546E+00
    0.3700000000E+04    0.3542995982E-01    0.3040776692E+00    0.1310658313E-01    0.4656571476E+00    0.3376817570E+00
    0.3900000000E+04    0.3410733604E-01    0.3046639175E+00    0.1263349749E-01    0.4737294136E+00    0.3384817445E+00
    0.4100000000E+04    0.3286721295E-01    0.3051990895E+00    0.1218682972E-01    0.4813004005E+00    0.3392185047E+00
    0.4300000000E+04    0.3170338650E-01    0.3056897206E+00    0.1176491018E-01    0.4884123030E+00    0.3398998280E+00
    0.4500000000E+04    0.3061011570E-01    0.3061412611E+00    0.1136614708E-01    0.4951027687E+00    0.3405322386E+00
    0.4700000000E+04    0.2958210707E-01    0.3065582945E+00    0.1098903529E-01    0.5014055210E+00    0.3411212456E+00
    0.4900000000E+04    0.2861449127E-01    0.3069447045E+00    0.1063215993E-01    0.5073508727E+00    0.3416715360E+00
    0.1000000000E+04    0.6385484350E-01    0.2790842207E+00    0.2230801807E-01    0.2645134501E+00    0.3067505909E+00
    0.3000000000E+04    0.4080894093E-01    0.3014920522E+00    0.1499556637E-01    0.4327109617E+00    0.3342282763E+00
    0.5000000000E+04    0.2815191836E-01    0.3071274808E+00    0.1046089351E-01    0.5101981707E+00    0.3419334399E+00
    0.7000000000E+04    0.2116819455E-01    0.3097720800E+00    0.7822210726E-02    0.5537738146E+00    0.3458671225E+00
    0.9000000000E+04    0.1693334329E-01    0.3113193864E+00    0.6172770389E-02    0.5809880897E+00    0.3483456166E+00
    0.1100000000E+05    0.1415697905E-01    0.3123365556E+00    0.5071729348E-02    0.5992885040E+00    0.3500898730E+00
    0.1300000000E+05    0.1222217690E-01    0.3130555058E+00    0.4296519763E-02    0.6122953960E+00    0.3514044797E+00
    0.1500000000E+05    0.1080750563E-01    0.3135894738E+00    0.3726861661E-02    0.6219441906E+00    0.3524425812E+00
    0.1700000000E+05    0.9732721965E-02    0.3140005750E+00    0.3293500552E-02    0.6293486261E+00    0.3532904981E+00
    0.1900000000E+05    0.8890392940E-02    0.3143258248E+00    0.2954328022E-02    0.6351885685E+00    0.3540010067E+00
    0.2100000000E+05    0.8213149612E-02    0.3145886963E+00    0.2682531541E-02    0.6398995638E+00    0.3546084041E+00
    0.2300000000E+05    0.7656908915E-02    0.3148048137E+00    0.2460356333E-02    0.6437720652E+00    0.3551360639E+00
    0.2500000000E+05    0.7191765317E-02    0.3149849893E+00    0.2275645640E-02    0.6470064302E+00    0.3556005343E+00
    0.2700000000E+05    0.6796794912E-02    0.3151369481E+00    0.2119832537E-02    0.6497449117E+00    0.3560139031E+00
    0.2900000000E+05    0.6456962034E-02    0.3152663586E+00    0.1986727087E-02    0.6520910500E+00    0.3563852337E+00
    0.3100000000E+05    0.6161208007E-02    0.3153774754E+00    0.1871757964E-02    0.6541218547E+00    0.3567214739E+00
    0.3300000000E+05    0.5901231352E-02    0.3154735544E+00    0.1771483530E-02    0.6558956993E+00    0.3570280517E+00
    0.3500000000E+05    0.5670686711E-02    0.3155571301E+00    0.1683267997E-02    0.6574575784E+00    0.3573092788E+00
    0.3700000000E+05    0.5464645267E-02    0.3156302046E+00    0.1605061711E-02    0.6588426950E+00    0.3575686294E+00
    0.3900000000E+05    0.5279222968E-02    0.3156943804E+00    0.1535248841E-02    0.6600789609E+00    0.3578089394E+00
    0.4100000000E+05    0.5111319137E-02    0.3157509549E+00    0.1472539721E-02    0.6611887742E+00    0.3580325499E+00
    0.4300000000E+05    0.4958429287E-02    0.3158009901E+00    0.1415893426E-02    0.6621903045E+00    0.3582414130E+00
    0.4500000000E+05    0.4818508832E-02    0.3158453630E+00    0.1364461192E-02    0.6630984372E+00    0.3584371720E+00
    0.4700000000E+05    0.4689872355E-02    0.3158848043E+00    0.1317544462E-02    0.6639254776E+00    0.3586212213E+00
    0.4900000000E+05    0.4571118114E-02    0.3159199275E+00    0.1274563377E-02    0.6646816817E+00    0.3587947533E+00
    0.1000000000E+05    0.1541112855E-01    0.3118756414E+00    0.5570912327E-02    0.5909711807E+00    0.3492852990E+00
    0.3000000000E+05    0.6304147668E-02    0.3153239806E+00    0.1927212645E-02    0.6531418555E+00    0.3565573707E+00
    0.5000000000E+05    0.4515071965E-02    0.3159360350E+00    0.1254393932E-02    0.6650359669E+00    0.3588779017E+00
    0.7000000000E+05    0.3707044384E-02    0.3161233831E+00    0.9730529651E-03    0.6699129863E+00    0.3601766645E+00
    0.9000000000E+05    0.3226184571E-02    0.3161761001E+00    0.8155037475E-03    0.6725474325E+00    0.3610540397E+00
    0.1100000000E+06    0.2898467022E-02    0.3161731854E+00    0.7130616275E-03    0.6741922338E+00    0.3617068118E+00
    0.1300000000E+06    0.2656533074E-02    0.3161441002E+00    0.6401811729E-03    0.6753154330E+00    0.3622219255E+00
    0.1500000000E+06    0.2468302551E-02    0.3161019162E+00    0.5851409544E-03    0.6761306824E+00    0.3626448431E+00
    0.1700000000E+06    0.2316329451E-02    0.3160531041E+00    0.5417760709E-03    0.6767491634E+00    0.3630020941E+00
    0.1900000000E+06    0.2190208517E-02    0.3160011095E+00    0.5065169845E-03    0.6772343641E+00    0.3633104101E+00
    0.2100000000E+06    0.2083297180E-02    0.3159478598E+00    0.4771439649E-03    0.6776251466E+00    0.3635809729E+00
    0.2300000000E+06    0.1991127910E-02    0.3158944670E+00    0.4521984646E-03    0.6779466189E+00    0.3638215995E+00
    0.2500000000E+06    0.1910569435E-02    0.3158415829E+00    0.4306791801E-03    0.6782157192E+00    0.3640379547E+00
    0.2700000000E+06    0.1839352364E-02    0.3157895888E+00    0.4118737674E-03    0.6784442865E+00    0.3642342661E+00
    0.2900000000E+06    0.1775785785E-02    0.3157387023E+00    0.3952602537E-03    0.6786408434E+00    0.3644137674E+00
    0.3100000000E+06    0.1718580122E-02    0.3156890405E+00    0.3804465220E-03    0.6788116807E+00    0.3645789833E+00
    0.3300000000E+06    0.1666732161E-02    0.3156406569E+00    0.3671316820E-03    0.6789615428E+00    0.3647319209E+00
    0.3500000000E+06    0.1619447968E-02    0.3155935651E+00    0.3550805729E-03    0.6790940748E+00    0.3648742002E+00
    0.3700000000E+06    0.1576089784E-02    0.3155477537E+00    0.3441064436E-03    0.6792121237E+00    0.3650071467E+00
    0.3900000000E+06    0.1536138526E-02    0.3155031956E+00    0.3340588877E-03    0.6793179451E+00    0.3651318579E+00
    0.4100000000E+06    0.1499166759E-02    0.3154598540E+00    0.3248152529E-03    0.6794133493E+00    0.3652492523E+00
    0.4300000000E+06    0.1464818839E-02    0.3154176870E+00    0.3162744018E-03    0.6794998059E+00    0.3653601054E+00
    0.4500000000E+06    0.1432796080E-02    0.3153766499E+00    0.3083521029E-03    0.6795785206E+00    0.3654650783E+00
    0.4700000000E+06    0.1402845513E-02    0.3153366969E+00    0.3009775705E-03    0.6796504915E+00    0.3655647383E+00
    0.4900000000E+06    0.1374751240E-02    0.3152977826E+00    0.2940908313E-03    0.6797165522E+00    0.3656595761E+00
    0.1000000000E+06    0.3048632189E-02    0.3161791760E+00    0.7594817200E-03    0.6734552697E+00    0.3614016633E+00
    0.3000000000E+06    0.1746456205E-02    0.3157137139E+00    0.3876490109E-03    0.6787291504E+00    0.3644980252E+00
    0.5000000000E+06    0.1361341198E-02    0.3152787009E+00    0.2908140897E-03    0.6797475898E+00    0.3657053223E+00
    0.7000000000E+06    0.1156733995E-02    0.3149416677E+00    0.2416493815E-03    0.6801816050E+00    0.3664466747E+00
    0.9000000000E+06    0.1024596496E-02    0.3146688543E+00    0.2107214194E-03    0.6804226784E+00    0.3669778478E+00
    0.1100000000E+07    0.9301379786E-03    0.3144398934E+00    0.1890092296E-03    0.6805763524E+00    0.3673900548E+00
    0.1300000000E+07    0.8582353373E-03    0.3142425882E+00    0.1727062832E-03    0.6806830131E+00    0.3677260104E+00
    0.1500000000E+07    0.8011059393E-03    0.3140691755E+00    0.1598938934E-03    0.6807614608E+00    0.3680090607E+00
    0.1700000000E+07    0.7542784931E-03    0.3139144316E+00    0.1494869251E-03    0.6808216377E+00    0.3682533231E+00
    0.1900000000E+07    0.7149756025E-03    0.3137746794E+00    0.1408197351E-03    0.6808692980E+00    0.3684679676E+00
    0.2100000000E+07    0.6813682549E-03    0.3136472338E+00    0.1334584973E-03    0.6809080047E+00    0.3686592793E+00
    0.2300000000E+07    0.6521959554E-03    0.3135300744E+00    0.1271068555E-03    0.6809400827E+00    0.3688317486E+00
    0.2500000000E+07    0.6265577809E-03    0.3134216428E+00    0.1215546037E-03    0.6809671142E+00    0.3689886930E+00
    0.2700000000E+07    0.6037902831E-03    0.3133207116E+00    0.1166479812E-03    0.6809902135E+00    0.3691326309E+00
    0.2900000000E+07    0.5833925494E-03    0.3132262963E+00    0.1122715907E-03    0.6810101886E+00    0.3692655183E+00
    0.3100000000E+07    0.5649782965E-03    0.3131375956E+00    0.1083369222E-03    0.6810276393E+00    0.3693889040E+00
    0.3300000000E+07    0.5482441742E-03    0.3130539482E+00    0.1047748093E-03    0.6810430208E+00    0.3695040349E+00
    0.3500000000E+07    0.5329481696E-03    0.3129748018E+00    0.1015303194E-03    0.6810566847E+00    0.3696119291E+00
    0.3700000000E+07    0.5188945134E-03    0.3128996905E+00    0.9855920046E-04    0.6810689068E+00    0.3697134288E+00
    0.3900000000E+07    0.5059228947E-03    0.3128282177E+00    0.9582535524E-04    0.6810799066E+00    0.3698092382E+00
    0.4100000000E+07    0.4939006000E-03    0.3127600426E+00    0.9329900778E-04    0.6810898610E+00    0.3698999520E+00
    0.4300000000E+07    0.4827166845E-03    0.3126948707E+00    0.9095534994E-04    0.6810989144E+00    0.3699860770E+00
    0.4500000000E+07    0.4722775816E-03    0.3126324453E+00    0.8877352555E-04    0.6811071854E+00    0.3700680484E+00
    0.4700000000E+07    0.4625037487E-03    0.3125725414E+00    0.8673585734E-04    0.6811147727E+00    0.3701462427E+00
    0.4900000000E+07    0.4533270729E-03    0.3125149608E+00    0.8482725078E-04    0.6811217589E+00    0.3702209879E+00
    0.1000000000E+07    0.9738519871E-03    0.3145497901E+00    0.1990159600E-03    0.6805071562E+00    0.3671955081E+00
    0.3000000000E+07    0.5739580993E-03    0.3131812759E+00    0.1102537483E-03    0.6810191982E+00    0.3693283148E+00
    0.5000000000E+07    0.4489439999E-03    0.3124869861E+00    0.8391721823E-04    0.6811250488E+00    0.3702571583E+00
    0.7000000000E+07    0.3818689488E-03    0.3120157081E+00    0.7012395975E-04    0.6811716425E+00    0.3708536689E+00
    0.9000000000E+07    0.3383905341E-03    0.3116577728E+00    0.6132648452E-04    0.6811981260E+00    0.3712926574E+00
    0.1100000000E+08    0.3072538229E-03    0.3113688022E+00    0.5510276795E-04    0.6812153237E+00    0.3716396673E+00
    0.1300000000E+08    0.2835283612E-03    0.3111263197E+00    0.5040688923E-04    0.6812274501E+00    0.3719264013E+00
    0.1500000000E+08    0.2646660104E-03    0.3109173383E+00    0.4670421188E-04    0.6812364939E+00    0.3721705995E+00
    0.1700000000E+08    0.2491989515E-03    0.3107336647E+00    0.4368951522E-04    0.6812435189E+00    0.3723831870E+00
    0.1900000000E+08    0.2362138331E-03    0.3105697937E+00    0.4117431106E-04    0.6812491469E+00    0.3725713663E+00
    0.2100000000E+08    0.2251084438E-03    0.3104218457E+00    0.3903513667E-04    0.6812537664E+00    0.3727401349E+00
    0.2300000000E+08    0.2154673890E-03    0.3102869830E+00    0.3718732393E-04    0.6812576329E+00    0.3728931011E+00
    0.2500000000E+08    0.2069935722E-03    0.3101630663E+00    0.3557063211E-04    0.6812609216E+00    0.3730329548E+00
    0.2700000000E+08    0.1994680967E-03    0.3100484430E+00    0.3414088610E-04    0.6812637567E+00    0.3731617544E+00
