  Pressure (Pa) 2mC6-400 (mol/kg) 3mC6-400 (mol/kg) 33mC5-400 (mol/kg) 23mC5-400 (mol/kg) C7-400 (mol/kg)
    0.1000000000E+01    0.7938094006E-03    0.1576298173E-02    0.4524725531E-03    0.4668540664E-03    0.6821093054E-02
    0.3000000000E+01    0.2324407717E-02    0.4602053949E-02    0.1325228519E-02    0.1395238589E-02    0.1991698476E-01
    0.5000000000E+01    0.3784005700E-02    0.7469894741E-02    0.2157916120E-02    0.2316610375E-02    0.3233267438E-01
    0.7000000000E+01    0.5178077685E-02    0.1019204795E-01    0.2953638515E-02    0.3231070140E-02    0.4412074976E-01
    0.9000000000E+01    0.6511534030E-02    0.1277950580E-01    0.3715178121E-02    0.4138716614E-02    0.5532849046E-01
    0.1100000000E+02    0.7788791842E-02    0.1524217758E-01    0.4445036912E-02    0.5039646588E-02    0.6599852188E-01
    0.1300000000E+02    0.9013835369E-02    0.1758901996E-01    0.5145470822E-02    0.5933954964E-02    0.7616937491E-01
    0.1500000000E+02    0.1019026776E-01    0.1982814891E-01    0.5818519223E-02    0.6821734800E-02    0.8587596677E-01
    0.1700000000E+02    0.1132135561E-01    0.2196693617E-01    0.6466030289E-02    0.7703077356E-02    0.9515001553E-01
    0.1900000000E+02    0.1241006742E-01    0.2401209279E-01    0.7089682897E-02    0.8578072138E-02    0.1040203989E+00
    0.2100000000E+02    0.1345910693E-01    0.2596974157E-01    0.7691005591E-02    0.9446806938E-02    0.1125134658E+00
    0.2300000000E+02    0.1447094206E-01    0.2784548029E-01    0.8271393071E-02    0.1030936788E-01    0.1206533075E+00
    0.2500000000E+02    0.1544783023E-01    0.2964443684E-01    0.8832120568E-02    0.1116583945E-01    0.1284619950E+00
    0.2700000000E+02    0.1639184037E-01    0.3137131760E-01    0.9374356411E-02    0.1201630455E-01    0.1359597870E+00
    0.2900000000E+02    0.1730487237E-01    0.3303044997E-01    0.9899173048E-02    0.1286084452E-01    0.1431653120E+00
    0.3100000000E+02    0.1818867410E-01    0.3462581980E-01    0.1040755674E-01    0.1369953919E-01    0.1500957302E+00
    0.3300000000E+02    0.1904485642E-01    0.3616110453E-01    0.1090041608E-01    0.1453246690E-01    0.1567668748E+00
    0.3500000000E+02    0.1987490648E-01    0.3763970247E-01    0.1137858961E-01    0.1535970454E-01    0.1631933788E+00
    0.3700000000E+02    0.2068019948E-01    0.3906475890E-01    0.1184285241E-01    0.1618132760E-01    0.1693887865E+00
    0.3900000000E+02    0.2146200914E-01    0.4043918916E-01    0.1229392214E-01    0.1699741018E-01    0.1753656536E+00
    0.4100000000E+02    0.2222151701E-01    0.4176569942E-01    0.1273246426E-01    0.1780802502E-01    0.1811356353E+00
    0.4300000000E+02    0.2295982074E-01    0.4304680508E-01    0.1315909675E-01    0.1861324356E-01    0.1867095666E+00
    0.4500000000E+02    0.2367794154E-01    0.4428484736E-01    0.1357439436E-01    0.1941313594E-01    0.1920975327E+00
    0.4700000000E+02    0.2437683083E-01    0.4548200815E-01    0.1397889235E-01    0.2020777104E-01    0.1973089334E+00
    0.4900000000E+02    0.2505737615E-01    0.4664032338E-01    0.1437308991E-01    0.2099721651E-01    0.2023525405E+00
    0.1000000000E+02    0.7156929237E-02    0.1402585922E-01    0.4083921223E-02    0.4590015189E-02    0.6072822167E-01
    0.3000000000E+02    0.1775032330E-01    0.3383586849E-01    0.1015536050E-01    0.1328091759E-01    0.1466638904E+00
    0.5000000000E+02    0.2539103107E-01    0.4720551320E-01    0.1456647290E-01    0.2139001395E-01    0.2048140036E+00
    0.7000000000E+02    0.3127605280E-01    0.5687118159E-01    0.1799166608E-01    0.2898910913E-01    0.2469633863E+00
    0.9000000000E+02    0.3600529994E-01    0.6420604818E-01    0.2076774449E-01    0.3613825757E-01    0.2790310063E+00
    0.1100000000E+03    0.3991676104E-01    0.6997607051E-01    0.2308391304E-01    0.4288809445E-01    0.3043212861E+00
    0.1300000000E+03    0.4321825767E-01    0.7464283150E-01    0.2505626307E-01    0.4928163107E-01    0.3248272325E+00
    0.1500000000E+03    0.4604651454E-01    0.7850142380E-01    0.2676107141E-01    0.5535565305E-01    0.3418240631E+00
    0.1700000000E+03    0.4849641733E-01    0.8174952209E-01    0.2825124632E-01    0.6114182040E-01    0.3561667320E+00
    0.1900000000E+03    0.5063669416E-01    0.8452465431E-01    0.2956511794E-01    0.6666754118E-01    0.3684505560E+00
    0.2100000000E+03    0.5251888081E-01    0.8692554873E-01    0.3073145061E-01    0.7195667144E-01    0.3791032586E+00
    0.2300000000E+03    0.5418272998E-01    0.8902497393E-01    0.3177246019E-01    0.7703008059E-01    0.3884403619E+00
    0.2500000000E+03    0.5565962829E-01    0.9087778494E-01    0.3270571597E-01    0.8190611143E-01    0.3966999144E+00
    0.2700000000E+03    0.5697484130E-01    0.9252614394E-01    0.3354538831E-01    0.8660095722E-01    0.4040650356E+00
    0.2900000000E+03    0.5814903996E-01    0.9400301068E-01    0.3430309561E-01    0.9112897269E-01    0.4106789960E+00
    0.3100000000E+03    0.5919936980E-01    0.9533453771E-01    0.3498849710E-01    0.9550293221E-01    0.4166555711E+00
    0.3300000000E+03    0.6014021958E-01    0.9654175211E-01    0.3560971861E-01    0.9973424534E-01    0.4220863138E+00
    0.3500000000E+03    0.6098378678E-01    0.9764176048E-01    0.3617366582E-01    0.1038331377E+00    0.4270457686E+00
    0.3700000000E+03    0.6174050210E-01    0.9864862790E-01    0.3668625928E-01    0.1078088038E+00    0.4315952768E+00
    0.3900000000E+03    0.6241935386E-01    0.9957402984E-01    0.3715261413E-01    0.1116695362E+00    0.4357857994E+00
    0.4100000000E+03    0.6302813992E-01    0.1004277425E+00    0.3757717972E-01    0.1154228360E+00    0.4396600425E+00
    0.4300000000E+03    0.6357366594E-01    0.1012180166E+00    0.3796384954E-01    0.1190755069E+00    0.4432540781E+00
    0.4500000000E+03    0.6406190365E-01    0.1019518662E+00    0.3831604908E-01    0.1226337366E+00    0.4465985957E+00
    0.4700000000E+03    0.6449811833E-01    0.1026352936E+00    0.3863680662E-01    0.1261031661E+00    0.4497198796E+00
    0.4900000000E+03    0.6488697275E-01    0.1032734668E+00    0.3892881109E-01    0.1294889509E+00    0.4526405790E+00
    0.1000000000E+03    0.3804811288E-01    0.6725277214E-01    0.2197485527E-01    0.3956024111E-01    0.2923770110E+00
    0.3000000000E+03    0.5868873201E-01    0.9468552335E-01    0.3465429490E-01    0.9333446663E-01    0.4137407831E+00
    0.5000000000E+03    0.6506495355E-01    0.1035770054E+00    0.3906479028E-01    0.1311519677E+00    0.4540319471E+00
    0.7000000000E+03    0.6693672426E-01    0.1080966827E+00    0.4073905165E-01    0.1609810697E+00    0.4749514695E+00
    0.9000000000E+03    0.6687491098E-01    0.1108656791E+00    0.4117761425E-01    0.1860199762E+00    0.4880220662E+00
    0.1100000000E+04    0.6587884013E-01    0.1127482836E+00    0.4098095097E-01    0.2078383122E+00    0.4970749950E+00
    0.1300000000E+04    0.6440908872E-01    0.1141166422E+00    0.4043449101E-01    0.2273140373E+00    0.5037727257E+00
    0.1500000000E+04    0.6270078671E-01    0.1151586520E+00    0.3968906857E-01    0.2449860045E+00    0.5089608261E+00
    0.1700000000E+04    0.6088236459E-01    0.1159799043E+00    0.3883042103E-01    0.2612088774E+00    0.5131178341E+00
    0.1900000000E+04    0.5902721962E-01    0.1166445093E+00    0.3790991636E-01    0.2762292531E+00    0.5165362844E+00
    0.2100000000E+04    0.5717849501E-01    0.1171937435E+00    0.3695953655E-01    0.2902263765E+00    0.5194057754E+00
    0.2300000000E+04    0.5536187033E-01    0.1176554358E+00    0.3599974830E-01    0.3033354176E+00    0.5218549666E+00
    0.2500000000E+04    0.5359255607E-01    0.1180490600E+00    0.3504388859E-01    0.3156615127E+00    0.5239744638E+00
    0.2700000000E+04    0.5187930081E-01    0.1183886679E+00    0.3410072853E-01    0.3272886213E+00    0.5258300555E+00
    0.2900000000E+04    0.5022677643E-01    0.1186846637E+00    0.3317603357E-01    0.3382853224E+00    0.5274707526E+00
    0.3100000000E+04    0.4863704341E-01    0.1189449216E+00    0.3227354539E-01    0.3487087322E+00    0.5289338735E+00
    0.3300000000E+04    0.4711047527E-01    0.1191755148E+00    0.3139561814E-01    0.3586072255E+00    0.5302483743E+00
    0.3500000000E+04    0.4564635455E-01    0.1193812054E+00    0.3054364103E-01    0.3680223721E+00    0.5314370939E+00
    0.3700000000E+04    0.4424326419E-01    0.1195657817E+00    0.2971832511E-01    0.3769903449E+00    0.5325183084E+00
    0.3900000000E+04    0.4289934817E-01    0.1197322964E+00    0.2891990162E-01    0.3855429637E+00    0.5335068302E+00
    0.4100000000E+04    0.4161248719E-01    0.1198832376E+00    0.2814826144E-01    0.3937084828E+00    0.5344148025E+00
    0.4300000000E+04    0.4038041781E-01    0.1200206546E+00    0.2740305436E-01    0.4015121948E+00    0.5352522822E+00
    0.4500000000E+04    0.3920081368E-01    0.1201462503E+00    0.2668376083E-01    0.4089769003E+00    0.5360276759E+00
    0.4700000000E+04    0.3807134091E-01    0.1202614526E+00    0.2598974411E-01    0.4161232788E+00    0.5367480699E+00
    0.4900000000E+04    0.3698969545E-01    0.1203674671E+00    0.2532028861E-01    0.4229701853E+00    0.5374194829E+00
    0.1000000000E+04    0.6645740459E-01    0.1118882469E+00    0.4113642273E-01    0.1972662033E+00    0.4929190736E+00
    0.3000000000E+04    0.4942400633E-01    0.1188188447E+00    0.3272183974E-01    0.3435654861E+00    0.5282225347E+00
    0.5000000000E+04    0.3646610245E-01    0.1204173557E+00    0.2499453327E-01    0.4262867898E+00    0.5377384598E+00
    0.7000000000E+04    0.2800274076E-01    0.1211164976E+00    0.1957528703E-01    0.4804340122E+00    0.5424778414E+00
    0.9000000000E+04    0.2230104679E-01    0.1214982752E+00    0.1575538684E-01    0.5179879789E+00    0.5454018286E+00
    0.1100000000E+05    0.1831053168E-01    0.1217319459E+00    0.1299401984E-01    0.5451201598E+00    0.5474211736E+00
    0.1300000000E+05    0.1541821080E-01    0.1218850013E+00    0.1094320481E-01    0.5653836086E+00    0.5489173495E+00
    0.1500000000E+05    0.1325670843E-01    0.1219896404E+00    0.9381347812E-02    0.5809445892E+00    0.5500806501E+00
    0.1700000000E+05    0.1159803151E-01    0.1220631399E+00    0.8164860874E-02    0.5931807322E+00    0.5510174954E+00
    0.1900000000E+05    0.1029575234E-01    0.1221155768E+00    0.7198428396E-02    0.6029996271E+00    0.5517924373E+00
    0.2100000000E+05    0.9252805841E-02    0.1221532076E+00    0.6417174981E-02    0.6110178790E+00    0.5524470949E+00
    0.2300000000E+05    0.8402984253E-02    0.1221801106E+00    0.5775874483E-02    0.6176659275E+00    0.5530096113E+00
    0.2500000000E+05    0.7699956405E-02    0.1221990493E+00    0.5242291878E-02    0.6232515760E+00    0.5534997598E+00
    0.2700000000E+05    0.7110549276E-02    0.1222119571E+00    0.4792981298E-02    0.6279997006E+00    0.5539318775E+00
    0.2900000000E+05    0.6610518791E-02    0.1222202229E+00    0.4410572666E-02    0.6320777683E+00    0.5543166376E+00
    0.3100000000E+05    0.6181817128E-02    0.1222248670E+00    0.4081980395E-02    0.6356126530E+00    0.5546621658E+00
    0.3300000000E+05    0.5810784380E-02    0.1222266534E+00    0.3797195922E-02    0.6387019711E+00    0.5549747688E+00
    0.3500000000E+05    0.5486925571E-02    0.1222261639E+00    0.3548457859E-02    0.6414218843E+00    0.5552594238E+00
    0.3700000000E+05    0.5202066981E-02    0.1222238477E+00    0.3329671316E-02    0.6438325714E+00    0.5555201177E+00
    0.3900000000E+05    0.4949763462E-02    0.1222200561E+00    0.3135994800E-02    0.6459821324E+00    0.5557600854E+00
    0.4100000000E+05    0.4724875126E-02    0.1222150671E+00    0.2963541778E-02    0.6479094193E+00    0.5559819823E+00
    0.4300000000E+05    0.4523260334E-02    0.1222091027E+00    0.2809162010E-02    0.6496461174E+00    0.5561880112E+00
    0.4500000000E+05    0.4341549911E-02    0.1222023417E+00    0.2670279225E-02    0.6512182964E+00    0.5563800163E+00
    0.4700000000E+05    0.4176978917E-02    0.1221949295E+00    0.2544769140E-02    0.6526475813E+00    0.5565595549E+00
    0.4900000000E+05    0.4027259808E-02    0.1221869847E+00    0.2430866775E-02    0.6539520458E+00    0.5567279523E+00
    0.1000000000E+05    0.2013768359E-01    0.1216281779E+00    0.1426782133E-01    0.5325922775E+00    0.5464941754E+00
    0.3000000000E+05    0.6388191861E-02    0.1222229449E+00    0.4240235946E-02    0.6339064269E+00    0.5544938756E+00
    0.5000000000E+05    0.3957361107E-02    0.1221828439E+00    0.2377797314E-02    0.6545623200E+00    0.5568083344E+00
    0.7000000000E+05    0.3009160783E-02    0.1220885088E+00    0.1668925072E-02    0.6628870786E+00    0.5580373172E+00
    0.9000000000E+05    0.2502827620E-02    0.1219908264E+00    0.1305300901E-02    0.6673008207E+00    0.5588380873E+00
    0.1100000000E+06    0.2183850942E-02    0.1218988682E+00    0.1085767165E-02    0.6700146223E+00    0.5594177515E+00
    0.1300000000E+06    0.1961706580E-02    0.1218140891E+00    0.9389646797E-03    0.6718452570E+00    0.5598652271E+00
    0.1500000000E+06    0.1796366498E-02    0.1217361617E+00    0.8337087986E-03    0.6731609505E+00    0.5602259607E+00
    0.1700000000E+06    0.1667402410E-02    0.1216643571E+00    0.7543431610E-03    0.6741511057E+00    0.5605259748E+00
    0.1900000000E+06    0.1563272434E-02    0.1215979216E+00    0.6921861118E-03    0.6749227575E+00    0.5607814161E+00
    0.2100000000E+06    0.1476941463E-02    0.1215361779E+00    0.6420495671E-03    0.6755408229E+00    0.5610029231E+00
    0.2300000000E+06    0.1403862242E-02    0.1214785440E+00    0.6006467452E-03    0.6760469038E+00    0.5611978394E+00
    0.2500000000E+06    0.1340955149E-02    0.1214245274E+00    0.5657955293E-03    0.6764688643E+00    0.5613714261E+00
    0.2700000000E+06    0.1286053841E-02    0.1213737122E+00    0.5359904826E-03    0.6768260552E+00    0.5615275695E+00
    0.2900000000E+06    0.1237585762E-02    0.1213257462E+00    0.5101591922E-03    0.6771323276E+00    0.5616692136E+00
    0.3100000000E+06    0.1194378823E-02    0.1212803305E+00    0.4875167056E-03    0.6773978531E+00    0.5617986373E+00
    0.3300000000E+06    0.1155539536E-02    0.1212372090E+00    0.4674749610E-03    0.6776302673E+00    0.5619176375E+00
    0.3500000000E+06    0.1120373459E-02    0.1211961618E+00    0.4495844352E-03    0.6778354125E+00    0.5620276536E+00
    0.3700000000E+06    0.1088331679E-02    0.1211569984E+00    0.4334954011E-03    0.6780178341E+00    0.5621298552E+00
    0.3900000000E+06    0.1058973851E-02    0.1211195534E+00    0.4189315153E-03    0.6781811213E+00    0.5622252040E+00
    0.4100000000E+06    0.1031942079E-02    0.1210836816E+00    0.4056713907E-03    0.6783281454E+00    0.5623144999E+00
    0.4300000000E+06    0.1006942073E-02    0.1210492556E+00    0.3935354702E-03    0.6784612307E+00    0.5623984147E+00
    0.4500000000E+06    0.9837293146E-03    0.1210161626E+00    0.3823765043E-03    0.6785822787E+00    0.5624775173E+00
    0.4700000000E+06    0.9620987231E-03    0.1209843027E+00    0.3720725253E-03    0.6786928601E+00    0.5625522936E+00
    0.4900000000E+06    0.9418768324E-03    0.1209535865E+00    0.3625215878E-03    0.6787942836E+00    0.5626231619E+00
    0.1000000000E+06    0.2327392471E-02    0.1219439689E+00    0.1183427230E-02    0.6688032156E+00    0.5591485172E+00
    0.3000000000E+06    0.1215385933E-02    0.1213027365E+00    0.4984799140E-03    0.6772696573E+00    0.5617353311E+00
    0.5000000000E+06    0.9322470777E-03    0.1209386321E+00    0.3580011234E-03    0.6788419115E+00    0.5626572455E+00
    0.7000000000E+06    0.7869661144E-03    0.1206839590E+00    0.2919346218E-03    0.6795066073E+00    0.5632006766E+00
    0.9000000000E+06    0.6945609816E-03    0.1204876516E+00    0.2519266191E-03    0.6798753336E+00    0.5635800979E+00
    0.1100000000E+07    0.6290632926E-03    0.1203277350E+00    0.2244708907E-03    0.6801106578E+00    0.5638691398E+00
    0.1300000000E+07    0.5794742932E-03    0.1201927229E+00    0.2041634605E-03    0.6802743639E+00    0.5641013949E+00
    0.1500000000E+07    0.5402210550E-03    0.1200758459E+00    0.1883738314E-03    0.6803951095E+00    0.5642948638E+00
    0.1700000000E+07    0.5081346627E-03    0.1199727742E+00    0.1756506206E-03    0.6804880212E+00    0.5644602593E+00
    0.1900000000E+07    0.4812610878E-03    0.1198805689E+00    0.1651197884E-03    0.6805618463E+00    0.5646044492E+00
    0.2100000000E+07    0.4583205576E-03    0.1197971425E+00    0.1562197668E-03    0.6806219998E+00    0.5647320877E+00
    0.2300000000E+07    0.4384348253E-03    0.1197209582E+00    0.1485712774E-03    0.6806720159E+00    0.5648464682E+00
    0.2500000000E+07    0.4209782909E-03    0.1196508516E+00    0.1419077823E-03    0.6807143011E+00    0.5649500026E+00
    0.2700000000E+07    0.4054915241E-03    0.1195859192E+00    0.1360358127E-03    0.6807505519E+00    0.5650445085E+00
    0.2900000000E+07    0.3916284422E-03    0.1195254455E+00    0.1308111109E-03    0.6807819991E+00    0.5651313874E+00
    0.3100000000E+07    0.3791226760E-03    0.1194688544E+00    0.1261236445E-03    0.6808095579E+00    0.5652117427E+00
    0.3300000000E+07    0.3677653909E-03    0.1194156748E+00    0.1218878401E-03    0.6808339232E+00    0.5652864572E+00
    0.3500000000E+07    0.3573902175E-03    0.1193655168E+00    0.1180360188E-03    0.6808556324E+00    0.5653562484E+00
    0.3700000000E+07    0.3478627456E-03    0.1193180540E+00    0.1145138617E-03    0.6808751079E+00    0.5654217068E+00
    0.3900000000E+07    0.3390730315E-03    0.1192730101E+00    0.1112772042E-03    0.6808926861E+00    0.5654833239E+00
    0.4100000000E+07    0.3309301486E-03    0.1192301495E+00    0.1082897224E-03    0.6809086386E+00    0.5655415133E+00
    0.4300000000E+07    0.3233581522E-03    0.1191892694E+00    0.1055212320E-03    0.6809231870E+00    0.5655966258E+00
    0.4500000000E+07    0.3162930446E-03    0.1191501941E+00    0.1029464172E-03    0.6809365141E+00    0.5656489618E+00
    0.4700000000E+07    0.3096804598E-03    0.1191127704E+00    0.1005438671E-03    0.6809487718E+00    0.5656987802E+00
    0.4900000000E+07    0.3034738749E-03    0.1190768639E+00    0.9829533485E-04    0.6809600878E+00    0.5657463058E+00
    0.1000000000E+07    0.6593218925E-03    0.1204040139E+00    0.2370639663E-03    0.6800046410E+00    0.5637332939E+00
    0.3000000000E+07    0.3852200915E-03    0.1194966962E+00    0.1284060558E-03    0.6807962168E+00    0.5651723209E+00
    0.5000000000E+07    0.3005100878E-03    0.1190594419E+00    0.9722384412E-04    0.6809654269E+00    0.5657692712E+00
    0.7000000000E+07    0.2552085266E-03    0.1187679912E+00    0.8103020913E-04    0.6810418981E+00    0.5661450459E+00
    0.9000000000E+07    0.2258976021E-03    0.1185489201E+00    0.7074485099E-04    0.6810863135E+00    0.5664182733E+00
    0.1100000000E+08    0.2049332421E-03    0.1183732912E+00    0.6348742204E-04    0.6811156926E+00    0.5666324505E+00
    0.1300000000E+08    0.1889741423E-03    0.1182266747E+00    0.5802154539E-04    0.6811367453E+00    0.5668083142E+00
    0.1500000000E+08    0.1762960078E-03    0.1181008216E+00    0.5371763400E-04    0.6811526737E+00    0.5669573465E+00
    0.1700000000E+08    0.1659066730E-03    0.1179905695E+00    0.5021722173E-04    0.6811652081E+00    0.5670865608E+00
    0.1900000000E+08    0.1571892989E-03    0.1178924713E+00    0.4729938334E-04    0.6811753695E+00    0.5672005498E+00
    0.2100000000E+08    0.1497374688E-03    0.1178041101E+00    0.4481963773E-04    0.6811838012E+00    0.5673024828E+00
    0.2300000000E+08    0.1432710147E-03    0.1177237256E+00    0.4267902998E-04    0.6811909299E+00    0.5673946370E+00
    0.2500000000E+08    0.1375896621E-03    0.1176499959E+00    0.4080722974E-04    0.6811970503E+00    0.5674787033E+00
    0.2700000000E+08    0.1325459203E-03    0.1175819028E+00    0.3915271010E-04    0.6812023730E+00    0.5675559707E+00
