  Pressure (Pa) 2mC6-400 (mol/kg) 3mC6-400 (mol/kg) 33mC5-400 (mol/kg) 23mC5-400 (mol/kg) C7-400 (mol/kg)
    0.1000000000E+01    0.7881059476E-03    0.1041357668E-02    0.3850847149E-03    0.2802064437E-03    0.1351936076E-01
    0.3000000000E+01    0.2276999471E-02    0.2988393993E-02    0.1113076920E-02    0.8379819896E-03    0.3880501135E-01
    0.5000000000E+01    0.3662051639E-02    0.4773478370E-02    0.1790947186E-02    0.1392276602E-02    0.6199775594E-01
    0.7000000000E+01    0.4956165442E-02    0.6416147378E-02    0.2424961579E-02    0.1943132281E-02    0.8334967121E-01
    0.9000000000E+01    0.6170179673E-02    0.7932911058E-02    0.3020380032E-02    0.2490590330E-02    0.1030738135E+00
    0.1100000000E+02    0.7313261888E-02    0.9337817410E-02    0.3581648259E-02    0.3034691366E-02    0.1213514930E+00
    0.1300000000E+02    0.8393215464E-02    0.1064289507E-01    0.4112547664E-02    0.3575475336E-02    0.1383379794E+00
    0.1500000000E+02    0.9416721806E-02    0.1185850379E-01    0.4616313556E-02    0.4112981531E-02    0.1541670185E+00
    0.1700000000E+02    0.1038953308E-01    0.1299361436E-01    0.5095729179E-02    0.4647248599E-02    0.1689544411E+00
    0.1900000000E+02    0.1131662681E-01    0.1405603400E-01    0.5553201128E-02    0.5178314559E-02    0.1828010683E+00
    0.2100000000E+02    0.1220233086E-01    0.1505258925E-01    0.5990820272E-02    0.5706216812E-02    0.1957950691E+00
    0.2300000000E+02    0.1305042511E-01    0.1598927541E-01    0.6410411326E-02    0.6230992158E-02    0.2080138875E+00
    0.2500000000E+02    0.1386422485E-01    0.1687137940E-01    0.6813573459E-02    0.6752676802E-02    0.2195258270E+00
    0.2700000000E+02    0.1464664939E-01    0.1770358155E-01    0.7201713749E-02    0.7271306372E-02    0.2303913625E+00
    0.2900000000E+02    0.1540027913E-01    0.1849004021E-01    0.7576074911E-02    0.7786915926E-02    0.2406642322E+00
    0.3100000000E+02    0.1612740294E-01    0.1923446268E-01    0.7937758406E-02    0.8299539968E-02    0.2503923520E+00
    0.3300000000E+02    0.1683005801E-01    0.1994016476E-01    0.8287743797E-02    0.8809212455E-02    0.2596185840E+00
    0.3500000000E+02    0.1751006334E-01    0.2061012124E-01    0.8626905033E-02    0.9315966809E-02    0.2683813873E+00
    0.3700000000E+02    0.1816904806E-01    0.2124700866E-01    0.8956024225E-02    0.9819835931E-02    0.2767153703E+00
    0.3900000000E+02    0.1880847551E-01    0.2185324183E-01    0.9275803336E-02    0.1032085221E-01    0.2846517613E+00
    0.4100000000E+02    0.1942966376E-01    0.2243100510E-01    0.9586874151E-02    0.1081904752E-01    0.2922188126E+00
    0.4300000000E+02    0.2003380324E-01    0.2298227929E-01    0.9889806813E-02    0.1131445325E-01    0.2994421472E+00
    0.4500000000E+02    0.2062197176E-01    0.2350886485E-01    0.1018511715E-01    0.1180710031E-01    0.3063450586E+00
    0.4700000000E+02    0.2119514764E-01    0.2401240199E-01    0.1047327299E-01    0.1229701914E-01    0.3129487701E+00
    0.4900000000E+02    0.2175422091E-01    0.2449438816E-01    0.1075469965E-01    0.1278423969E-01    0.3192726602E+00
    0.1000000000E+02    0.6750070711E-02    0.8648551779E-02    0.3305032536E-02    0.2763057962E-02    0.1123832044E+00
    0.3000000000E+02    0.1576702147E-01    0.1886729019E-01    0.7758437491E-02    0.8043599001E-02    0.2455935967E+00
    0.5000000000E+02    0.2202872551E-01    0.2472773233E-01    0.1089301199E-01    0.1302684735E-01    0.3223352726E+00
    0.7000000000E+02    0.2694195546E-01    0.2854076476E-01    0.1338394177E-01    0.1774431177E-01    0.3724905968E+00
    0.9000000000E+02    0.3104728904E-01    0.3122612787E-01    0.1548865727E-01    0.2222303654E-01    0.4079704818E+00
    0.1100000000E+03    0.3460039408E-01    0.3322307788E-01    0.1732815939E-01    0.2648637456E-01    0.4344717186E+00
    0.1300000000E+03    0.3774143925E-01    0.3476825468E-01    0.1896853198E-01    0.3055460433E-01    0.4550677719E+00
    0.1500000000E+03    0.4055637793E-01    0.3600060043E-01    0.2045024815E-01    0.3444542649E-01    0.4715658179E+00
    0.1700000000E+03    0.4310269564E-01    0.3700715145E-01    0.2180040651E-01    0.3817436653E-01    0.4850995412E+00
    0.1900000000E+03    0.4542151567E-01    0.3784525667E-01    0.2303844950E-01    0.4175510385E-01    0.4964170123E+00
    0.2100000000E+03    0.4754382431E-01    0.3855427013E-01    0.2417908748E-01    0.4519974241E-01    0.5060323128E+00
    0.2300000000E+03    0.4949391944E-01    0.3916211345E-01    0.2523391061E-01    0.4851903482E-01    0.5143107088E+00
    0.2500000000E+03    0.5129144627E-01    0.3968915742E-01    0.2621233658E-01    0.5172256891E-01    0.5215190720E+00
    0.2700000000E+03    0.5295266728E-01    0.4015062012E-01    0.2712220018E-01    0.5481892407E-01    0.5278570577E+00
    0.2900000000E+03    0.5449129385E-01    0.4055810410E-01    0.2797013871E-01    0.5781580276E-01    0.5334771064E+00
    0.3100000000E+03    0.5591905443E-01    0.4092061321E-01    0.2876185521E-01    0.6072014189E-01    0.5384976862E+00
    0.3300000000E+03    0.5724609754E-01    0.4124524388E-01    0.2950230532E-01    0.6353820742E-01    0.5430123029E+00
    0.3500000000E+03    0.5848128695E-01    0.4153766648E-01    0.3019583437E-01    0.6627567521E-01    0.5470957794E+00
    0.3700000000E+03    0.5963242414E-01    0.4180246756E-01    0.3084628094E-01    0.6893770029E-01    0.5508087244E+00
    0.3900000000E+03    0.6070641993E-01    0.4204339784E-01    0.3145705703E-01    0.7152897654E-01    0.5542007728E+00
    0.4100000000E+03    0.6170942983E-01    0.4226355500E-01    0.3203121146E-01    0.7405378824E-01    0.5573129761E+00
    0.4300000000E+03    0.6264696248E-01    0.4246552029E-01    0.3257148090E-01    0.7651605483E-01    0.5601795913E+00
    0.4500000000E+03    0.6352396805E-01    0.4265146227E-01    0.3308033153E-01    0.7891936979E-01    0.5628294393E+00
    0.4700000000E+03    0.6434491115E-01    0.4282321636E-01    0.3355999365E-01    0.8126703468E-01    0.5652869484E+00
    0.4900000000E+03    0.6511383155E-01    0.4298234667E-01    0.3401249050E-01    0.8356208890E-01    0.5675729656E+00
    0.1000000000E+03    0.3288238249E-01    0.3229277546E-01    0.1643661201E-01    0.2438029576E-01    0.4221113180E+00
    0.3000000000E+03    0.5521836496E-01    0.4074449874E-01    0.2837269927E-01    0.5927913343E-01    0.5360559850E+00
    0.5000000000E+03    0.6547994230E-01    0.4305760468E-01    0.3422913370E-01    0.8469077163E-01    0.5686573598E+00
    0.7000000000E+03    0.7080383462E-01    0.4414329085E-01    0.3750547381E-01    0.1050798623E+00    0.5845975957E+00
    0.9000000000E+03    0.7360046937E-01    0.4477222723E-01    0.3942163715E-01    0.1223880980E+00    0.5942026043E+00
    0.1100000000E+04    0.7496160555E-01    0.4518090371E-01    0.4054166534E-01    0.1376148563E+00    0.6006893084E+00
    0.1300000000E+04    0.7545080735E-01    0.4546648618E-01    0.4116213434E-01    0.1513358671E+00    0.6053983900E+00
    0.1500000000E+04    0.7538533203E-01    0.4567633114E-01    0.4145308808E-01    0.1639107971E+00    0.6089922756E+00
    0.1700000000E+04    0.7495550279E-01    0.4583629781E-01    0.4151848656E-01    0.1755785157E+00    0.6118375325E+00
    0.1900000000E+04    0.7428121246E-01    0.4596170763E-01    0.4142513770E-01    0.1865054524E+00    0.6141541968E+00
    0.2100000000E+04    0.7344096122E-01    0.4606221562E-01    0.4121772211E-01    0.1968121264E+00    0.6160827142E+00
    0.2300000000E+04    0.7248777075E-01    0.4614420698E-01    0.4092711272E-01    0.2065886282E+00    0.6177171480E+00
    0.2500000000E+04    0.7145837192E-01    0.4621207192E-01    0.4057522765E-01    0.2159041216E+00    0.6191229864E+00
    0.2700000000E+04    0.7037874257E-01    0.4626892717E-01    0.4017798607E-01    0.2248129249E+00    0.6203473008E+00
    0.2900000000E+04    0.6926756870E-01    0.4631704548E-01    0.3974717559E-01    0.2333585432E+00    0.6214248428E+00
    0.3100000000E+04    0.6813847600E-01    0.4635812243E-01    0.3929166955E-01    0.2415764240E+00    0.6223818584E+00
    0.3300000000E+04    0.6700150764E-01    0.4639344809E-01    0.3881824234E-01    0.2494958905E+00    0.6232385622E+00
    0.3500000000E+04    0.6586412609E-01    0.4642402086E-01    0.3833212868E-01    0.2571415295E+00    0.6240107910E+00
    0.3700000000E+04    0.6473190633E-01    0.4645062514E-01    0.3783741539E-01    0.2645342075E+00    0.6247111396E+00
    0.3900000000E+04    0.6360902450E-01    0.4647388542E-01    0.3733732100E-01    0.2716918284E+00    0.6253497578E+00
    0.4100000000E+04    0.6249860779E-01    0.4649430477E-01    0.3683439867E-01    0.2786299075E+00    0.6259349229E+00
    0.4300000000E+04    0.6140298887E-01    0.4651229281E-01    0.3633068579E-01    0.2853620128E+00    0.6264734568E+00
    0.4500000000E+04    0.6032389314E-01    0.4652818624E-01    0.3582781560E-01    0.2919001076E+00    0.6269710367E+00
    0.4700000000E+04    0.5926257836E-01    0.4654226427E-01    0.3532710178E-01    0.2982548216E+00    0.6274324278E+00
    0.4900000000E+04    0.5821993971E-01    0.4655476023E-01    0.3482960301E-01    0.3044356652E+00    0.6278616622E+00
    0.1000000000E+04    0.7441737168E-01    0.4499630613E-01    0.4005860477E-01    0.1302189866E+00    0.5977286319E+00
    0.3000000000E+04    0.6870456411E-01    0.4633837555E-01    0.3952204446E-01    0.2375064929E+00    0.6219170341E+00
    0.5000000000E+04    0.5770582463E-01    0.4656047756E-01    0.3458233293E-01    0.3074635951E+00    0.6280653147E+00
    0.7000000000E+04    0.4845913124E-01    0.4662630337E-01    0.2994019320E-01    0.3606050645E+00    0.6310683770E+00
    0.9000000000E+04    0.4103289324E-01    0.4664474514E-01    0.2597662456E-01    0.4027272944E+00    0.6328920380E+00
    0.1100000000E+05    0.3507934316E-01    0.4664429122E-01    0.2265927962E-01    0.4368135140E+00    0.6341286034E+00
    0.1300000000E+05    0.3027526047E-01    0.4663523609E-01    0.1989158760E-01    0.4647832768E+00    0.6350250802E+00
    0.1500000000E+05    0.2636493046E-01    0.4662202445E-01    0.1757655145E-01    0.4879933204E+00    0.6357051249E+00
    0.1700000000E+05    0.2315268598E-01    0.4660680149E-01    0.1563054255E-01    0.5074450939E+00    0.6362383483E+00
    0.1900000000E+05    0.2048973594E-01    0.4659068145E-01    0.1398492969E-01    0.5238951643E+00    0.6366672540E+00
    0.2100000000E+05    0.1826266065E-01    0.4657427145E-01    0.1258445243E-01    0.5379237128E+00    0.6370193808E+00
    0.2300000000E+05    0.1638449453E-01    0.4655791169E-01    0.1138491574E-01    0.5499807745E+00    0.6373133965E+00
    0.2500000000E+05    0.1478806128E-01    0.4654179457E-01    0.1035100284E-01    0.5604188829E+00    0.6375624141E+00
    0.2700000000E+05    0.1342105103E-01    0.4652602742E-01    0.9454425190E-02    0.5695166929E+00    0.6377759154E+00
    0.2900000000E+05    0.1224239170E-01    0.4651066731E-01    0.8672430456E-02    0.5774963428E+00    0.6379609229E+00
    0.3100000000E+05    0.1121956748E-01    0.4649574095E-01    0.7986625662E-02    0.5845363581E+00    0.6381227450E+00
    0.3300000000E+05    0.1032662759E-01    0.4648125660E-01    0.7382058304E-02    0.5907813307E+00    0.6382654653E+00
    0.3500000000E+05    0.9542698080E-02    0.4646721127E-01    0.6846501553E-02    0.5963492402E+00    0.6383922743E+00
    0.3700000000E+05    0.8850861960E-02    0.4645359521E-01    0.6369898230E-02    0.6013370356E+00    0.6385056984E+00
    0.3900000000E+05    0.8237310171E-02    0.4644039470E-01    0.5943927301E-02    0.6058249231E+00    0.6386077625E+00
    0.4100000000E+05    0.7690693113E-02    0.4642759386E-01    0.5561664692E-02    0.6098796852E+00    0.6387001075E+00
    0.4300000000E+05    0.7201621617E-02    0.4641517581E-01    0.5217316701E-02    0.6135572674E+00    0.6387840765E+00
    0.4500000000E+05    0.6762280099E-02    0.4640312338E-01    0.4906009440E-02    0.6169048091E+00    0.6388607781E+00
    0.4700000000E+05    0.6366124513E-02    0.4639141957E-01    0.4623621661E-02    0.6199622492E+00    0.6389311357E+00
    0.4900000000E+05    0.6007644868E-02    0.4638004784E-01    0.4366651298E-02    0.6227636030E+00    0.6389959237E+00
    0.1000000000E+05    0.3789378113E-01    0.4664602816E-01    0.2424287198E-01    0.4206381697E+00    0.6335640273E+00
    0.3000000000E+05    0.1171325647E-01    0.4650314906E-01    0.8318510232E-02    0.5811240680E+00    0.6380444527E+00
    0.5000000000E+05    0.5841047315E-02    0.4637448152E-01    0.4246745759E-02    0.6240775133E+00    0.6390264376E+00
    0.7000000000E+05    0.3663591054E-02    0.4627714320E-01    0.2647765645E-02    0.6421513753E+00    0.6394600269E+00
    0.9000000000E+05    0.2611841632E-02    0.4619955058E-01    0.1850644465E-02    0.6517619656E+00    0.6397104720E+00
    0.1100000000E+06    0.2016686789E-02    0.4613514267E-01    0.1391409820E-02    0.6576308835E+00    0.6398774196E+00
    0.1300000000E+06    0.1642696754E-02    0.4608010604E-01    0.1100097617E-02    0.6615542444E+00    0.6399989626E+00
    0.1500000000E+06    0.1389558768E-02    0.4603206020E-01    0.9022025954E-03    0.6643487458E+00    0.6400928387E+00
    0.1700000000E+06    0.1208476205E-02    0.4598942621E-01    0.7607093805E-03    0.6664345048E+00    0.6401684610E+00
    0.1900000000E+06    0.1073287454E-02    0.4595110496E-01    0.6554509452E-03    0.6680480706E+00    0.6402313133E+00
    0.2100000000E+06    0.9688812547E-03    0.4591630116E-01    0.5746332110E-03    0.6693321500E+00    0.6402848220E+00
    0.2300000000E+06    0.8859991316E-03    0.4588442102E-01    0.5109606221E-03    0.6703776510E+00    0.6403312475E+00
    0.2500000000E+06    0.8186906577E-03    0.4585500953E-01    0.4597098898E-03    0.6712450891E+00    0.6403721476E+00
    0.2700000000E+06    0.7629770641E-03    0.4582771036E-01    0.4177054145E-03    0.6719762376E+00    0.6404086345E+00
    0.2900000000E+06    0.7161078220E-03    0.4580223925E-01    0.3827431890E-03    0.6726008241E+00    0.6404415266E+00
    0.3100000000E+06    0.6761266725E-03    0.4577836577E-01    0.3532514517E-03    0.6731405586E+00    0.6404714408E+00
    0.3300000000E+06    0.6416077116E-03    0.4575590057E-01    0.3280827324E-03    0.6736116544E+00    0.6404988527E+00
    0.3500000000E+06    0.6114891381E-03    0.4573468613E-01    0.3063820063E-03    0.6740264559E+00    0.6405241354E+00
    0.3700000000E+06    0.5849652667E-03    0.4571459000E-01    0.2875005879E-03    0.6743945241E+00    0.6405475869E+00
    0.3900000000E+06    0.5614144739E-03    0.4569549977E-01    0.2709384144E-03    0.6747233761E+00    0.6405694479E+00
    0.4100000000E+06    0.5403499620E-03    0.4567731917E-01    0.2563044582E-03    0.6750190017E+00    0.6405899160E+00
    0.4300000000E+06    0.5213853932E-03    0.4565996517E-01    0.2432890101E-03    0.6752862319E+00    0.6406091548E+00
    0.4500000000E+06    0.5042104422E-03    0.4564336561E-01    0.2316439131E-03    0.6755290051E+00    0.6406273014E+00
    0.4700000000E+06    0.4885731031E-03    0.4562745743E-01    0.2211682288E-03    0.6757505636E+00    0.6406444714E+00
    0.4900000000E+06    0.4742666838E-03    0.4561218514E-01    0.2116976875E-03    0.6759536012E+00    0.6406607636E+00
    0.1000000000E+06    0.2276775649E-02    0.4616598118E-01    0.1592818141E-02    0.6550173068E+00    0.6398012846E+00
    0.3000000000E+06    0.6953554800E-03    0.4579011548E-01    0.3673933463E-03    0.6728801781E+00    0.6404568234E+00
    0.5000000000E+06    0.4675579301E-03    0.4560477192E-01    0.2072960576E-03    0.6760488941E+00    0.6406686074E+00
    0.7000000000E+06    0.3738820928E-03    0.4548049853E-01    0.1489429568E-03    0.6773766508E+00    0.6407948402E+00
    0.9000000000E+06    0.3207587203E-03    0.4538682784E-01    0.1190121587E-03    0.6781138622E+00    0.6408850066E+00
    0.1100000000E+07    0.2856023991E-03    0.4531161165E-01    0.1007410537E-03    0.6785864835E+00    0.6409552986E+00
    0.1300000000E+07    0.2601549847E-03    0.4524875548E-01    0.8835153734E-04    0.6789172526E+00    0.6410129916E+00
    0.1500000000E+07    0.2406330123E-03    0.4519476215E-01    0.7934184662E-04    0.6791628469E+00    0.6410619751E+00
    0.1700000000E+07    0.2250365619E-03    0.4514743731E-01    0.7245678211E-04    0.6793531292E+00    0.6411045718E+00
    0.1900000000E+07    0.2121985084E-03    0.4510531296E-01    0.6699778686E-04    0.6795053652E+00    0.6411422811E+00
    0.2100000000E+07    0.2013864876E-03    0.4506735837E-01    0.6254495797E-04    0.6796302522E+00    0.6411761270E+00
    0.2300000000E+07    0.1921147558E-03    0.4503282195E-01    0.5883040935E-04    0.6797347829E+00    0.6412068405E+00
    0.2500000000E+07    0.1840467503E-03    0.4500113870E-01    0.5567494586E-04    0.6798237279E+00    0.6412349620E+00
    0.2700000000E+07    0.1769408888E-03    0.4497187312E-01    0.5295398480E-04    0.6799004580E+00    0.6412609023E+00
    0.2900000000E+07    0.1706186380E-03    0.4494468243E-01    0.5057809451E-04    0.6799674248E+00    0.6412849811E+00
    0.3100000000E+07    0.1649447959E-03    0.4491929196E-01    0.4848132132E-04    0.6800264563E+00    0.6413074520E+00
    0.3300000000E+07    0.1598148241E-03    0.4489547823E-01    0.4661389312E-04    0.6800789444E+00    0.6413285200E+00
    0.3500000000E+07    0.1551464350E-03    0.4487305695E-01    0.4493749525E-04    0.6801259684E+00    0.6413483529E+00
    0.3700000000E+07    0.1508738391E-03    0.4485187439E-01    0.4342211770E-04    0.6801683788E+00    0.6413670898E+00
    0.3900000000E+07    0.1469437145E-03    0.4483180092E-01    0.4204389441E-04    0.6802068556E+00    0.6413848475E+00
    0.4100000000E+07    0.1433123185E-03    0.4481272629E-01    0.4078358781E-04    0.6802419488E+00    0.6414017250E+00
    0.4300000000E+07    0.1399433786E-03    0.4479455589E-01    0.3962550370E-04    0.6802741089E+00    0.6414178067E+00
    0.4500000000E+07    0.1368065246E-03    0.4477720796E-01    0.3855669981E-04    0.6803037080E+00    0.6414331656E+00
    0.4700000000E+07    0.1338761064E-03    0.4476061135E-01    0.3756639907E-04    0.6803310568E+00    0.6414478648E+00
    0.4900000000E+07    0.1311302884E-03    0.4474470375E-01    0.3664554799E-04    0.6803564167E+00    0.6414619595E+00
    0.1000000000E+07    0.3016103949E-03    0.4534737843E-01    0.1088989178E-03    0.6783732392E+00    0.6409220680E+00
    0.3000000000E+07    0.1677078036E-03    0.4493177718E-01    0.4949824341E-04    0.6799978370E+00    0.6412964037E+00
    0.5000000000E+07    0.1298206482E-03    0.4473699093E-01    0.3620872359E-04    0.6803684214E+00    0.6414687956E+00
    0.7000000000E+07    0.1099150408E-03    0.4460846844E-01    0.2975199526E-04    0.6805436130E+00    0.6415829873E+00
    0.9000000000E+07    0.9713145933E-04    0.4451242469E-01    0.2577693716E-04    0.6806489194E+00    0.6416687594E+00
    0.1100000000E+08    0.8802526690E-04    0.4443572870E-01    0.2302216155E-04    0.6807205318E+00    0.6417375777E+00
    0.1300000000E+08    0.8111087413E-04    0.4437188738E-01    0.2097151305E-04    0.6807730506E+00    0.6417951016E+00
    0.1500000000E+08    0.7562759959E-04    0.4431721050E-01    0.1936993082E-04    0.6808135827E+00    0.6418445492E+00
    0.1700000000E+08    0.7113996768E-04    0.4426939873E-01    0.1807516094E-04    0.6808460355E+00    0.6418879291E+00
    0.1900000000E+08    0.6737820512E-04    0.4422692207E-01    0.1700084367E-04    0.6808727508E+00    0.6419265802E+00
    0.2100000000E+08    0.6416503543E-04    0.4418871090E-01    0.1609114638E-04    0.6808952248E+00    0.6419614407E+00
    0.2300000000E+08    0.6137849892E-04    0.4415398800E-01    0.1530817330E-04    0.6809144627E+00    0.6419931935E+00
    0.2500000000E+08    0.5893155434E-04    0.4412217084E-01    0.1462518613E-04    0.6809311670E+00    0.6420223516E+00
    0.2700000000E+08    0.5676018437E-04    0.4409281155E-01    0.1402271239E-04    0.6809458451E+00    0.6420493104E+00
