  Pressure (Pa) 2mC6-400 (mol/kg) 3mC6-400 (mol/kg) 33mC5-400 (mol/kg) 23mC5-400 (mol/kg) C7-400 (mol/kg)
    0.1000000000E+01    0.7969250339E-03    0.1584324534E-02    0.3893341797E-03    0.7467085328E-03    0.3427827736E-02
    0.3000000000E+01    0.2351061474E-02    0.4671113895E-02    0.1148741132E-02    0.2230082089E-02    0.1010719204E-01
    0.5000000000E+01    0.3854457106E-02    0.7653485091E-02    0.1883541142E-02    0.3700249143E-02    0.1656166877E-01
    0.7000000000E+01    0.5309606700E-02    0.1053677174E-01    0.2594947070E-02    0.5157427115E-02    0.2280272784E-01
    0.9000000000E+01    0.6718838166E-02    0.1332594823E-01    0.3284090447E-02    0.6601828530E-02    0.2884106726E-01
    0.1100000000E+02    0.8084326460E-02    0.1602565955E-01    0.3952028255E-02    0.8033661161E-02    0.3468667712E-01
    0.1300000000E+02    0.9408106115E-02    0.1864024812E-01    0.4599749052E-02    0.9453128156E-02    0.4034889732E-01
    0.1500000000E+02    0.1069208256E-01    0.2117377808E-01    0.5228178495E-02    0.1086042817E-01    0.4583646968E-01
    0.1700000000E+02    0.1193804237E-01    0.2363005728E-01    0.5838184336E-02    0.1225575548E-01    0.5115758519E-01
    0.1900000000E+02    0.1314766251E-01    0.2601265721E-01    0.6430580949E-02    0.1363930014E-01    0.5631992680E-01
    0.2100000000E+02    0.1432251878E-01    0.2832493106E-01    0.7006133433E-02    0.1501124803E-01    0.6133070831E-01
    0.2300000000E+02    0.1546409344E-01    0.3057003023E-01    0.7565561349E-02    0.1637178104E-01    0.6619670970E-01
    0.2500000000E+02    0.1657378219E-01    0.3275091927E-01    0.8109542113E-02    0.1772107713E-01    0.7092430934E-01
    0.2700000000E+02    0.1765290051E-01    0.3487038958E-01    0.8638714092E-02    0.1905931047E-01    0.7551951338E-01
    0.2900000000E+02    0.1870268945E-01    0.3693107191E-01    0.9153679427E-02    0.2038665152E-01    0.7998798258E-01
    0.3100000000E+02    0.1972432092E-01    0.3893544773E-01    0.9655006621E-02    0.2170326710E-01    0.8433505681E-01
    0.3300000000E+02    0.2071890253E-01    0.4088585976E-01    0.1014323289E-01    0.2300932057E-01    0.8856577759E-01
    0.3500000000E+02    0.2168748206E-01    0.4278452149E-01    0.1061886635E-01    0.2430497184E-01    0.9268490866E-01
    0.3700000000E+02    0.2263105150E-01    0.4463352606E-01    0.1108238798E-01    0.2559037750E-01    0.9669695490E-01
    0.3900000000E+02    0.2355055084E-01    0.4643485429E-01    0.1153425346E-01    0.2686569089E-01    0.1006061798E+00
    0.4100000000E+02    0.2444687145E-01    0.4819038217E-01    0.1197489485E-01    0.2813106220E-01    0.1044166212E+00
    0.4300000000E+02    0.2532085930E-01    0.4990188773E-01    0.1240472212E-01    0.2938663853E-01    0.1081321067E+00
    0.4500000000E+02    0.2617331788E-01    0.5157105732E-01    0.1282412460E-01    0.3063256400E-01    0.1117562663E+00
    0.4700000000E+02    0.2700501090E-01    0.5319949153E-01    0.1323347229E-01    0.3186897979E-01    0.1152925458E+00
    0.4900000000E+02    0.2781666473E-01    0.5478871052E-01    0.1363311706E-01    0.3309602425E-01    0.1187442180E+00
    0.1000000000E+02    0.7406919898E-02    0.1468670884E-01    0.3620646726E-02    0.7319303140E-02    0.3178736504E-01
    0.3000000000E+02    0.1921695419E-01    0.3794014858E-01    0.9406013509E-02    0.2104628970E-01    0.8217637223E-01
    0.5000000000E+02    0.2821519434E-01    0.5556906863E-01    0.1382940612E-01    0.3370607470E-01    0.1204393045E+00
    0.7000000000E+02    0.3528531384E-01    0.6943306361E-01    0.1731917685E-01    0.4544674912E-01    0.1505787990E+00
    0.9000000000E+02    0.4096616542E-01    0.8064899503E-01    0.2013613531E-01    0.5638934101E-01    0.1750001119E+00
    0.1100000000E+03    0.4560757457E-01    0.8992882415E-01    0.2244939171E-01    0.6663376270E-01    0.1952373296E+00
    0.1300000000E+03    0.4944807438E-01    0.9774829026E-01    0.2437414757E-01    0.7626325402E-01    0.2123160848E+00
    0.1500000000E+03    0.5265682757E-01    0.1044376664E+00    0.2599204794E-01    0.8534774713E-01    0.2269487777E+00
    0.1700000000E+03    0.5535769904E-01    0.1102336055E+00    0.2736285232E-01    0.9394644651E-01    0.2396461359E+00
    0.1900000000E+03    0.5764381299E-01    0.1153102529E+00    0.2853148330E-01    0.1021098296E+00    0.2507841828E+00
    0.2100000000E+03    0.5958674636E-01    0.1197987016E+00    0.2953247261E-01    0.1098812149E+00    0.2606461268E+00
    0.2300000000E+03    0.6124255274E-01    0.1237995905E+00    0.3039287126E-01    0.1172980020E+00    0.2694494972E+00
    0.2500000000E+03    0.6265583640E-01    0.1273915132E+00    0.3113421561E-01    0.1243926624E+00    0.2773642595E+00
    0.2700000000E+03    0.6386258397E-01    0.1306367784E+00    0.3177389280E-01    0.1311935360E+00    0.2845252303E+00
    0.2900000000E+03    0.6489218022E-01    0.1335854481E+00    0.3232611197E-01    0.1377254782E+00    0.2910407835E+00
    0.3100000000E+03    0.6576887351E-01    0.1362782271E+00    0.3280260987E-01    0.1440103878E+00    0.2969990812E+00
    0.3300000000E+03    0.6651286087E-01    0.1387485685E+00    0.3321317308E-01    0.1500676416E+00    0.3024726156E+00
    0.3500000000E+03    0.6714110504E-01    0.1410242325E+00    0.3356603101E-01    0.1559144541E+00    0.3075215727E+00
    0.3700000000E+03    0.6766795850E-01    0.1431284581E+00    0.3386815598E-01    0.1615661767E+00    0.3121963618E+00
    0.3900000000E+03    0.6810564659E-01    0.1450808560E+00    0.3412549557E-01    0.1670365485E+00    0.3165395428E+00
    0.4100000000E+03    0.6846464601E-01    0.1468980965E+00    0.3434315446E-01    0.1723379074E+00    0.3205873121E+00
    0.4300000000E+03    0.6875398436E-01    0.1485944459E+00    0.3452553852E-01    0.1774813684E+00    0.3243706618E+00
    0.4500000000E+03    0.6898147978E-01    0.1501821892E+00    0.3467646995E-01    0.1824769753E+00    0.3279162928E+00
    0.4700000000E+03    0.6915393421E-01    0.1516719659E+00    0.3479928021E-01    0.1873338304E+00    0.3312473411E+00
    0.4900000000E+03    0.6927729057E-01    0.1530730396E+00    0.3489688558E-01    0.1920602049E+00    0.3343839606E+00
    0.1000000000E+03    0.4339989112E-01    0.8549696918E-01    0.2134755777E-01    0.6159327374E-01    0.1855685463E+00
    0.3000000000E+03    0.6534829314E-01    0.1349615836E+00    0.3257317384E-01    0.1408975464E+00    0.2940847354E+00
    0.5000000000E+03    0.6932221141E-01    0.1537428860E+00    0.3493704974E-01    0.1943768434E+00    0.3358849599E+00
    0.7000000000E+03    0.6862074951E-01    0.1640028973E+00    0.3489991165E-01    0.2353775029E+00    0.3590090053E+00
    0.9000000000E+03    0.6633618360E-01    0.1705946519E+00    0.3399432387E-01    0.2689299982E+00    0.3740360031E+00
    0.1100000000E+04    0.6351189621E-01    0.1752412388E+00    0.3275297943E-01    0.2974339520E+00    0.3847410176E+00
    0.1300000000E+04    0.6056374919E-01    0.1787199696E+00    0.3139713275E-01    0.3222221869E+00    0.3928350329E+00
    0.1500000000E+04    0.5767095038E-01    0.1814369186E+00    0.3002792667E-01    0.3441193591E+00    0.3992158639E+00
    0.1700000000E+04    0.5491154287E-01    0.1836265356E+00    0.2869364835E-01    0.3636784480E+00    0.4044040819E+00
    0.1900000000E+04    0.5231675788E-01    0.1854344082E+00    0.2741718763E-01    0.3812937832E+00    0.4087242775E+00
    0.2100000000E+04    0.4989513354E-01    0.1869561040E+00    0.2620848984E-01    0.3972602754E+00    0.4123903670E+00
    0.2300000000E+04    0.4764402018E-01    0.1882571638E+00    0.2507065836E-01    0.4118068181E+00    0.4155496206E+00
    0.2500000000E+04    0.4555535976E-01    0.1893841566E+00    0.2400312489E-01    0.4251162972E+00    0.4183070708E+00
    0.2700000000E+04    0.4361869197E-01    0.1903711547E+00    0.2300336993E-01    0.4373382114E+00    0.4207398450E+00
    0.2900000000E+04    0.4182274752E-01    0.1912437082E+00    0.2206788628E-01    0.4485969932E+00    0.4229059847E+00
    0.3100000000E+04    0.4015629338E-01    0.1920213830E+00    0.2119272968E-01    0.4589977143E+00    0.4248500914E+00
    0.3300000000E+04    0.3860857041E-01    0.1927194358E+00    0.2037383592E-01    0.4686301342E+00    0.4266070615E+00
    0.3500000000E+04    0.3716950469E-01    0.1933499528E+00    0.1960720264E-01    0.4775716614E+00    0.4282046307E+00
    0.3700000000E+04    0.3582979205E-01    0.1939226421E+00    0.1888899060E-01    0.4858895768E+00    0.4296651496E+00
    0.3900000000E+04    0.3458091201E-01    0.1944453983E+00    0.1821557671E-01    0.4936427440E+00    0.4310068515E+00
    0.4100000000E+04    0.3341510310E-01    0.1949247124E+00    0.1758357784E-01    0.5008829496E+00    0.4322447739E+00
    0.4300000000E+04    0.3232531836E-01    0.1953659739E+00    0.1698985705E-01    0.5076559735E+00    0.4333914408E+00
    0.4500000000E+04    0.3130517167E-01    0.1957736981E+00    0.1643151921E-01    0.5140024557E+00    0.4344573760E+00
    0.4700000000E+04    0.3034888142E-01    0.1961516985E+00    0.1590590076E-01    0.5199586072E+00    0.4354514935E+00
    0.4900000000E+04    0.2945121495E-01    0.1965032198E+00    0.1541055611E-01    0.5255568006E+00    0.4363813995E+00
    0.1000000000E+04    0.6495738806E-01    0.1731000391E+00    0.3339770560E-01    0.2837136636E+00    0.3797945413E+00
    0.3000000000E+04    0.4097402099E-01    0.1916433663E+00    0.2162302093E-01    0.4538986815E+00    0.4239034181E+00
    0.5000000000E+04    0.2902286744E-01    0.1966699351E+00    0.1517352812E-01    0.5282308529E+00    0.4368243516E+00
    0.7000000000E+04    0.2259997145E-01    0.1991179045E+00    0.1157061855E-01    0.5685839778E+00    0.4435027036E+00
    0.9000000000E+04    0.1871196390E-01    0.2005878501E+00    0.9351595527E-02    0.5932426594E+00    0.4477274657E+00
    0.1100000000E+05    0.1613746064E-01    0.2015744130E+00    0.7873586739E-02    0.6095979902E+00    0.4507017574E+00
    0.1300000000E+05    0.1431490275E-01    0.2022842510E+00    0.6828165851E-02    0.6211183790E+00    0.4529399521E+00
    0.1500000000E+05    0.1295755279E-01    0.2028199473E+00    0.6053461172E-02    0.6296127868E+00    0.4547027353E+00
    0.1700000000E+05    0.1190611539E-01    0.2032385376E+00    0.5457864397E-02    0.6361040488E+00    0.4561378637E+00
    0.1900000000E+05    0.1106588950E-01    0.2035744028E+00    0.4986223343E-02    0.6412086047E+00    0.4573360354E+00
    0.2100000000E+05    0.1037738421E-01    0.2038495645E+00    0.4603598132E-02    0.6453176235E+00    0.4583563593E+00
    0.2300000000E+05    0.9801487965E-02    0.2040788127E+00    0.4286894505E-02    0.6486900840E+00    0.4592391987E+00
    0.2500000000E+05    0.9311489907E-02    0.2042724658E+00    0.4020292554E-02    0.6515036363E+00    0.4600131690E+00
    0.2700000000E+05    0.8888550632E-02    0.2044379508E+00    0.3792620573E-02    0.6538838596E+00    0.4606991906E+00
    0.2900000000E+05    0.8519010809E-02    0.2045807552E+00    0.3595780025E-02    0.6559218409E+00    0.4613129566E+00
    0.3100000000E+05    0.8192727814E-02    0.2047050248E+00    0.3423765127E-02    0.6576851388E+00    0.4618664984E+00
    0.3300000000E+05    0.7902012054E-02    0.2048139515E+00    0.3272032484E-02    0.6592248476E+00    0.4623692151E+00
    0.3500000000E+05    0.7640926189E-02    0.2049100345E+00    0.3137084076E-02    0.6605802789E+00    0.4628285693E+00
    0.3700000000E+05    0.7404811126E-02    0.2049952588E+00    0.3016184378E-02    0.6617821431E+00    0.4632505721E+00
    0.3900000000E+05    0.7189957833E-02    0.2050712217E+00    0.2907164108E-02    0.6628547599E+00    0.4636401262E+00
    0.4100000000E+05    0.6993375325E-02    0.2051392235E+00    0.2808281327E-02    0.6638176248E+00    0.4640012759E+00
    0.4300000000E+05    0.6812623534E-02    0.2052003330E+00    0.2718121336E-02    0.6646865395E+00    0.4643373911E+00
    0.4500000000E+05    0.6645690867E-02    0.2052554379E+00    0.2635523345E-02    0.6654744403E+00    0.4646513052E+00
    0.4700000000E+05    0.6490903122E-02    0.2053052807E+00    0.2559525955E-02    0.6661920149E+00    0.4649454203E+00
    0.4900000000E+05    0.6346854761E-02    0.2053504879E+00    0.2489326071E-02    0.6668481670E+00    0.4652217882E+00
    0.1000000000E+05    0.1730478714E-01    0.2011250630E+00    0.8544058985E-02    0.6021865501E+00    0.4493301106E+00
    0.3000000000E+05    0.8350990725E-02    0.2046449886E+00    0.3506981915E-02    0.6568343098E+00    0.4615966158E+00
    0.5000000000E+05    0.6278478902E-02    0.2053715226E+00    0.2456184640E-02    0.6671555933E+00    0.4653538782E+00
    0.7000000000E+05    0.5263111965E-02    0.2056438562E+00    0.1978524387E-02    0.6713893571E+00    0.4673862681E+00
    0.9000000000E+05    0.4631223857E-02    0.2057624890E+00    0.1695821271E-02    0.6736786046E+00    0.4687218762E+00
    0.1100000000E+06    0.4188593535E-02    0.2058130064E+00    0.1504754363E-02    0.6751091065E+00    0.4696929832E+00
    0.1300000000E+06    0.3855818100E-02    0.2058286843E+00    0.1364923666E-02    0.6760866266E+00    0.4704443919E+00
    0.1500000000E+06    0.3593571737E-02    0.2058249346E+00    0.1257030978E-02    0.6767965153E+00    0.4710508491E+00
    0.1700000000E+06    0.3379837058E-02    0.2058097502E+00    0.1170587637E-02    0.6773352926E+00    0.4715554557E+00
    0.1900000000E+06    0.3201186492E-02    0.2057876173E+00    0.1099353147E-02    0.6777581086E+00    0.4719850949E+00
    0.2100000000E+06    0.3048896734E-02    0.2057612034E+00    0.1039357167E-02    0.6780987398E+00    0.4723575494E+00
    0.2300000000E+06    0.2917017885E-02    0.2057321649E+00    0.9879397239E-03    0.6783790189E+00    0.4726851315E+00
    0.2500000000E+06    0.2801331597E-02    0.2057015645E+00    0.9432440362E-03    0.6786136809E+00    0.4729766841E+00
    0.2700000000E+06    0.2698751424E-02    0.2056701015E+00    0.9039299417E-03    0.6788130282E+00    0.4732387509E+00
    0.2900000000E+06    0.2606959232E-02    0.2056382445E+00    0.8690029584E-03    0.6789844797E+00    0.4734762973E+00
    0.3100000000E+06    0.2524175061E-02    0.2056063112E+00    0.8377076642E-03    0.6791335132E+00    0.4736931716E+00
    0.3300000000E+06    0.2449006117E-02    0.2055745188E+00    0.8094586515E-03    0.6792642608E+00    0.4738924107E+00
    0.3500000000E+06    0.2380344587E-02    0.2055430158E+00    0.7837943616E-03    0.6793798979E+00    0.4740764497E+00
    0.3700000000E+06    0.2317296645E-02    0.2055119032E+00    0.7603453559E-03    0.6794829052E+00    0.4742472680E+00
    0.3900000000E+06    0.2259131976E-02    0.2054812484E+00    0.7388119783E-03    0.6795752483E+00    0.4744064947E+00
    0.4100000000E+06    0.2205247140E-02    0.2054510953E+00    0.7189482946E-03    0.6796585052E+00    0.4745554846E+00
    0.4300000000E+06    0.2155138520E-02    0.2054214709E+00    0.7005503257E-03    0.6797339570E+00    0.4746953761E+00
    0.4500000000E+06    0.2108382000E-02    0.2053923898E+00    0.6834472833E-03    0.6798026547E+00    0.4748271337E+00
    0.4700000000E+06    0.2064617496E-02    0.2053638581E+00    0.6674949417E-03    0.6798654687E+00    0.4749515810E+00
    0.4900000000E+06    0.2023537014E-02    0.2053358754E+00    0.6525705577E-03    0.6799231260E+00    0.4750694269E+00
    0.1000000000E+06    0.4392600496E-02    0.2057935573E+00    0.1592097351E-02    0.6744680276E+00    0.4692415626E+00
    0.3000000000E+06    0.2564535885E-02    0.2056222719E+00    0.8529412954E-03    0.6790615143E+00    0.4735871125E+00
    0.5000000000E+06    0.2003918940E-02    0.2053220886E+00    0.6454603783E-03    0.6799502159E+00    0.4751260693E+00
    0.7000000000E+06    0.1703915703E-02    0.2050727925E+00    0.5381145303E-03    0.6803290474E+00    0.4760258047E+00
    0.9000000000E+06    0.1509607406E-02    0.2048649870E+00    0.4700090415E-03    0.6805394693E+00    0.4766497218E+00
    0.1100000000E+07    0.1370499158E-02    0.2046876420E+00    0.4219683817E-03    0.6806735929E+00    0.4771223356E+00
    0.1300000000E+07    0.1264517091E-02    0.2045331273E+00    0.3857874118E-03    0.6807666736E+00    0.4775002852E+00
    0.1500000000E+07    0.1180264647E-02    0.2043962522E+00    0.3572946750E-03    0.6808351249E+00    0.4778138262E+00
    0.1700000000E+07    0.1111180602E-02    0.2042733853E+00    0.3341172239E-03    0.6808876270E+00    0.4780809108E+00
    0.1900000000E+07    0.1053183528E-02    0.2041619028E+00    0.3147933537E-03    0.6809292038E+00    0.4783130150E+00
    0.2100000000E+07    0.1003582875E-02    0.2040598523E+00    0.2983674196E-03    0.6809629659E+00    0.4785178955E+00
    0.2300000000E+07    0.9605229718E-03    0.2039657439E+00    0.2841850061E-03    0.6809909430E+00    0.4787010269E+00
    0.2500000000E+07    0.9226767057E-03    0.2038784152E+00    0.2717810333E-03    0.6810145162E+00    0.4788664095E+00
    0.2700000000E+07    0.8890663221E-03    0.2037969425E+00    0.2608147693E-03    0.6810346584E+00    0.4790170509E+00
    0.2900000000E+07    0.8589533266E-03    0.2037205791E+00    0.2510301611E-03    0.6810520745E+00    0.4791552659E+00
    0.3100000000E+07    0.8317680492E-03    0.2036487136E+00    0.2422306007E-03    0.6810672884E+00    0.4792828729E+00
    0.3300000000E+07    0.8070630144E-03    0.2035808382E+00    0.2342623058E-03    0.6810806972E+00    0.4794013244E+00
    0.3500000000E+07    0.7844811522E-03    0.2035165273E+00    0.2270030430E-03    0.6810926077E+00    0.4795117988E+00
    0.3700000000E+07    0.7637335721E-03    0.2034554200E+00    0.2203542782E-03    0.6811032606E+00    0.4796152642E+00
    0.3900000000E+07    0.7445836740E-03    0.2033972080E+00    0.2142355862E-03    0.6811128475E+00    0.4797125254E+00
    0.4100000000E+07    0.7268355647E-03    0.2033416258E+00    0.2085805912E-03    0.6811215228E+00    0.4798042583E+00
    0.4300000000E+07    0.7103254662E-03    0.2032884428E+00    0.2033339656E-03    0.6811294123E+00    0.4798910357E+00
    0.4500000000E+07    0.6949152419E-03    0.2032374578E+00    0.1984491767E-03    0.6811366196E+00    0.4799733472E+00
    0.4700000000E+07    0.6804874515E-03    0.2031884938E+00    0.1938867694E-03    0.6811432307E+00    0.4800516143E+00
    0.4900000000E+07    0.6669415230E-03    0.2031413949E+00    0.1896130424E-03    0.6811493178E+00    0.4801262027E+00
    0.1000000000E+07    0.1434895105E-02    0.2047730539E+00    0.4441311113E-03    0.6806132016E+00    0.4769005164E+00
    0.3000000000E+07    0.8450251250E-03    0.2036841180E+00    0.2465177126E-03    0.6810599295E+00    0.4792202973E+00
    0.5000000000E+07    0.6604716901E-03    0.2031185008E+00    0.1875752164E-03    0.6811521842E+00    0.4801622185E+00
    0.7000000000E+07    0.5614767776E-03    0.2027317826E+00    0.1566827025E-03    0.6811927727E+00    0.4807491011E+00
    0.9000000000E+07    0.4973273376E-03    0.2024369696E+00    0.1369767017E-03    0.6812158377E+00    0.4811730375E+00
    0.1100000000E+08    0.4514002993E-03    0.2021984036E+00    0.1230364786E-03    0.6812308149E+00    0.4815037917E+00
    0.1300000000E+08    0.4164139087E-03    0.2019978956E+00    0.1125195288E-03    0.6812413763E+00    0.4817744001E+00
    0.1500000000E+08    0.3886052402E-03    0.2018248863E+00    0.1042280487E-03    0.6812492544E+00    0.4820030605E+00
    0.1700000000E+08    0.3658069886E-03    0.2016726918E+00    0.9747810570E-04    0.6812553755E+00    0.4822008419E+00
    0.1900000000E+08    0.3466707243E-03    0.2015368097E+00    0.9184730641E-04    0.6812602810E+00    0.4823749680E+00
    0.2100000000E+08    0.3303074850E-03    0.2014140606E+00    0.8705896944E-04    0.6812643088E+00    0.4825304083E+00
    0.2300000000E+08    0.3161041577E-03    0.2013021151E+00    0.8292335379E-04    0.6812676815E+00    0.4826707247E+00
    0.2500000000E+08    0.3036222876E-03    0.2011992149E+00    0.7930546365E-04    0.6812705515E+00    0.4827985558E+00
    0.2700000000E+08    0.2925388645E-03    0.2011039999E+00    0.7610630917E-04    0.6812730269E+00    0.4829159091E+00
