  Pressure (Pa) 2mC6-400 (mol/kg) 3mC6-400 (mol/kg) 33mC5-400 (mol/kg) 23mC5-400 (mol/kg) C7-400 (mol/kg)
    0.1000000000E+01    0.7938045774E-03    0.1575935653E-02    0.6463883494E-03    0.1867824364E-03    0.6819530825E-02
    0.3000000000E+01    0.2324434717E-02    0.4598981194E-02    0.1893231278E-02    0.5584597003E-03    0.1990374202E-01
    0.5000000000E+01    0.3784257380E-02    0.7461843549E-02    0.3083012189E-02    0.9276477095E-03    0.3229797297E-01
    0.7000000000E+01    0.5178884303E-02    0.1017714072E-01    0.4220274781E-02    0.1294379006E-02    0.4405649281E-01
    0.9000000000E+01    0.6513336713E-02    0.1275619378E-01    0.5309083062E-02    0.1658685542E-02    0.5522799688E-01
    0.1100000000E+02    0.7792120744E-02    0.1520918950E-01    0.6353082720E-02    0.2020598696E-02    0.6585630540E-01
    0.1300000000E+02    0.9019291629E-02    0.1754531914E-01    0.7355553357E-02    0.2380149280E-02    0.7598095952E-01
    0.1500000000E+02    0.1019850858E-01    0.1977289728E-01    0.8319453133E-02    0.2737367559E-02    0.8563773208E-01
    0.1700000000E+02    0.1133308188E-01    0.2189946409E-01    0.9247457067E-02    0.3092283261E-02    0.9485906677E-01
    0.1900000000E+02    0.1242601343E-01    0.2393187356E-01    0.1014199002E-01    0.3444925585E-02    0.1036744573E+00
    0.2100000000E+02    0.1348003185E-01    0.2587636991E-01    0.1100525521E-01    0.3795323220E-02    0.1121107760E+00
    0.2300000000E+02    0.1449762280E-01    0.2773865410E-01    0.1183925892E-01    0.4143504351E-02    0.1201925590E+00
    0.2500000000E+02    0.1548105555E-01    0.2952394171E-01    0.1264583196E-01    0.4489496672E-02    0.1279422557E+00
    0.2700000000E+02    0.1643240594E-01    0.3123701363E-01    0.1342664852E-01    0.4833327397E-02    0.1353804458E+00
    0.2900000000E+02    0.1735357669E-01    0.3288226052E-01    0.1418324249E-01    0.5175023269E-02    0.1425260312E+00
    0.3100000000E+02    0.1824631509E-01    0.3446372189E-01    0.1491702189E-01    0.5514610573E-02    0.1493964034E+00
    0.3300000000E+02    0.1911222858E-01    0.3598512062E-01    0.1562928160E-01    0.5852115144E-02    0.1560075921E+00
    0.3500000000E+02    0.1995279861E-01    0.3744989342E-01    0.1632121446E-01    0.6187562378E-02    0.1623743961E+00
    0.3700000000E+02    0.2076939271E-01    0.3886121790E-01    0.1699392121E-01    0.6520977238E-02    0.1685104996E+00
    0.3900000000E+02    0.2156327540E-01    0.4022203658E-01    0.1764841924E-01    0.6852384270E-02    0.1744285756E+00
    0.4100000000E+02    0.2233561772E-01    0.4153507831E-01    0.1828565039E-01    0.7181807603E-02    0.1801403776E+00
    0.4300000000E+02    0.2308750579E-01    0.4280287734E-01    0.1890648785E-01    0.7509270968E-02    0.1856568221E+00
    0.4500000000E+02    0.2381994846E-01    0.4402779043E-01    0.1951174240E-01    0.7834797697E-02    0.1909880618E+00
    0.4700000000E+02    0.2453388415E-01    0.4521201217E-01    0.2010216789E-01    0.8158410737E-02    0.1961435515E+00
    0.4900000000E+02    0.2523018690E-01    0.4635758870E-01    0.2067846625E-01    0.8480132658E-02    0.2011321074E+00
    0.1000000000E+02    0.7159423940E-02    0.1399785250E-01    0.5836470970E-02    0.1839939353E-02    0.6060748534E-01
    0.3000000000E+02    0.1780339636E-01    0.3368072467E-01    0.1455290057E-01    0.5345078867E-02    0.1459945868E+00
    0.5000000000E+02    0.2557198284E-01    0.4691648692E-01    0.2096152400E-01    0.8640291399E-02    0.2035663788E+00
    0.7000000000E+02    0.3165367307E-01    0.5646795750E-01    0.2601857089E-01    0.1174941138E-01    0.2452219486E+00
    0.9000000000E+02    0.3663456563E-01    0.6371037414E-01    0.3019382280E-01    0.1469265184E-01    0.2768894123E+00
    0.1100000000E+03    0.4084028132E-01    0.6940664108E-01    0.3374744677E-01    0.1748727702E-01    0.3018601758E+00
    0.1300000000E+03    0.4446862551E-01    0.7401472032E-01    0.3683710356E-01    0.2014812933E-01    0.3221117125E+00
    0.1500000000E+03    0.4764841215E-01    0.7782656759E-01    0.3956530079E-01    0.2268804650E-01    0.3389057517E+00
    0.1700000000E+03    0.5046830687E-01    0.8103735272E-01    0.4200254275E-01    0.2511819455E-01    0.3530864611E+00
    0.1900000000E+03    0.5299213734E-01    0.8378265400E-01    0.4419958293E-01    0.2744833615E-01    0.3652407519E+00
    0.2100000000E+03    0.5526756354E-01    0.8615969087E-01    0.4619434334E-01    0.2968704837E-01    0.3757898357E+00
    0.2300000000E+03    0.5733126041E-01    0.8824006135E-01    0.4801603997E-01    0.3184190073E-01    0.3850441782E+00
    0.2500000000E+03    0.5921216191E-01    0.9007770696E-01    0.4968775925E-01    0.3391960191E-01    0.3932378779E+00
    0.2700000000E+03    0.6093357391E-01    0.9171407158E-01    0.5122813273E-01    0.3592612117E-01    0.4005509461E+00
    0.2900000000E+03    0.6251459886E-01    0.9318154569E-01    0.5265246451E-01    0.3786678971E-01    0.4071241880E+00
    0.3100000000E+03    0.6397112603E-01    0.9450582710E-01    0.5397351393E-01    0.3974638553E-01    0.4130694078E+00
    0.3300000000E+03    0.6531653860E-01    0.9570757688E-01    0.5520205385E-01    0.4156920499E-01    0.4184765707E+00
    0.3500000000E+03    0.6656223067E-01    0.9680360483E-01    0.5634727879E-01    0.4333912345E-01    0.4234189329E+00
    0.3700000000E+03    0.6771799329E-01    0.9780773381E-01    0.5741710949E-01    0.4505964684E-01    0.4279567832E+00
    0.3900000000E+03    0.6879230830E-01    0.9873144026E-01    0.5841842484E-01    0.4673395572E-01    0.4321402173E+00
    0.4100000000E+03    0.6979257559E-01    0.9958433589E-01    0.5935724129E-01    0.4836494316E-01    0.4360112258E+00
    0.4300000000E+03    0.7072529171E-01    0.1003745349E+00    0.6023885399E-01    0.4995524733E-01    0.4396052857E+00
    0.4500000000E+03    0.7159619197E-01    0.1011089371E+00    0.6106794907E-01    0.5150727975E-01    0.4429525891E+00
    0.4700000000E+03    0.7241036495E-01    0.1017934490E+00    0.6184869438E-01    0.5302324976E-01    0.4460790027E+00
    0.4900000000E+03    0.7317234578E-01    0.1024331581E+00    0.6258481330E-01    0.5450518589E-01    0.4490068235E+00
    0.1000000000E+03    0.3881985978E-01    0.6671811625E-01    0.3203680527E-01    0.1610756228E-01    0.2900665758E+00
    0.3000000000E+03    0.6325753630E-01    0.9386019188E-01    0.5332518503E-01    0.3881394266E-01    0.4101692342E+00
    0.5000000000E+03    0.7353504918E-01    0.1027376121E+00    0.6293719509E-01    0.5523398037E-01    0.4504024041E+00
    0.7000000000E+03    0.7884111491E-01    0.1072873100E+00    0.6829678015E-01    0.6840583628E-01    0.4714583490E+00
    0.9000000000E+03    0.8175215328E-01    0.1100936369E+00    0.7154101557E-01    0.7961258908E-01    0.4846988545E+00
    0.1100000000E+04    0.8334142602E-01    0.1120125526E+00    0.7358016128E-01    0.8950479490E-01    0.4939183428E+00
    0.1300000000E+04    0.8413846918E-01    0.1134142147E+00    0.7487257193E-01    0.9845423447E-01    0.5007703069E+00
    0.1500000000E+04    0.8443317344E-01    0.1144862587E+00    0.7567422055E-01    0.1066921723E+00    0.5060989886E+00
    0.1700000000E+04    0.8439624090E-01    0.1153345085E+00    0.7613890843E-01    0.1143718627E+00    0.5103838228E+00
    0.1900000000E+04    0.8413383585E-01    0.1160234258E+00    0.7636430018E-01    0.1215999672E+00    0.5139187965E+00
    0.2100000000E+04    0.8371486090E-01    0.1165946377E+00    0.7641517322E-01    0.1284536779E+00    0.5168949766E+00
    0.2300000000E+04    0.8318558954E-01    0.1170762864E+00    0.7633603499E-01    0.1349906675E+00    0.5194423429E+00
    0.2500000000E+04    0.8257797714E-01    0.1174881152E+00    0.7615837201E-01    0.1412551792E+00    0.5216526370E+00
    0.2700000000E+04    0.8191460656E-01    0.1178444038E+00    0.7590501346E-01    0.1472819185E+00    0.5235926086E+00
    0.2900000000E+04    0.8121174736E-01    0.1181557487E+00    0.7559286223E-01    0.1530986317E+00    0.5253120773E+00
    0.3100000000E+04    0.8048131145E-01    0.1184301860E+00    0.7523466160E-01    0.1587278685E+00    0.5268490418E+00
    0.3300000000E+04    0.7973213901E-01    0.1186739262E+00    0.7484017120E-01    0.1641882192E+00    0.5282330315E+00
    0.3500000000E+04    0.7897086500E-01    0.1188918476E+00    0.7441696932E-01    0.1694952040E+00    0.5294873711E+00
    0.3700000000E+04    0.7820251572E-01    0.1190878380E+00    0.7397101250E-01    0.1746619253E+00    0.5306307495E+00
    0.3900000000E+04    0.7743092740E-01    0.1192650355E+00    0.7350703330E-01    0.1796995547E+00    0.5316783323E+00
    0.4100000000E+04    0.7665904487E-01    0.1194260020E+00    0.7302882814E-01    0.1846177028E+00    0.5326425658E+00
    0.4300000000E+04    0.7588913783E-01    0.1195728503E+00    0.7253946865E-01    0.1894247046E+00    0.5335337688E+00
    0.4500000000E+04    0.7512295975E-01    0.1197073392E+00    0.7204145918E-01    0.1941278417E+00    0.5343605751E+00
    0.4700000000E+04    0.7436186589E-01    0.1198309452E+00    0.7153685568E-01    0.1987335183E+00    0.5351302689E+00
    0.4900000000E+04    0.7360690197E-01    0.1199449168E+00    0.7102735634E-01    0.2032474011E+00    0.5358490422E+00
    0.1000000000E+04    0.8267112304E-01    0.1111346783E+00    0.7267603504E-01    0.8469540668E-01    0.4896804147E+00
    0.3000000000E+04    0.8084936375E-01    0.1182971566E+00    0.7541884902E-01    0.1559354418E+00    0.5261013592E+00
    0.5000000000E+04    0.7323197779E-01    0.1199986285E+00    0.7077122118E-01    0.2054715175E+00    0.5361910204E+00
    0.7000000000E+04    0.6616943340E-01    0.1207579832E+00    0.6563180042E-01    0.2461148712E+00    0.5413174450E+00
    0.9000000000E+04    0.5997745613E-01    0.1211803325E+00    0.6073930091E-01    0.2810923492E+00    0.5445343036E+00
    0.1100000000E+05    0.5456901062E-01    0.1214436850E+00    0.5622820681E-01    0.3118289003E+00    0.5467873057E+00
    0.1300000000E+05    0.4982791445E-01    0.1216196544E+00    0.5211054146E-01    0.3391402335E+00    0.5484752373E+00
    0.1500000000E+05    0.4565305916E-01    0.1217426655E+00    0.4836575289E-01    0.3635726252E+00    0.5497986211E+00
    0.1700000000E+05    0.4196116143E-01    0.1218313161E+00    0.4496421144E-01    0.3855306244E+00    0.5508706505E+00
    0.1900000000E+05    0.3868376140E-01    0.1218965225E+00    0.4187468934E-01    0.4053337247E+00    0.5517607052E+00
    0.2100000000E+05    0.3576410643E-01    0.1219451036E+00    0.3906703676E-01    0.4232446906E+00    0.5525140164E+00
    0.2300000000E+05    0.3315470323E-01    0.1219815302E+00    0.3651317427E-01    0.4394851788E+00    0.5531615199E+00
    0.2500000000E+05    0.3081548025E-01    0.1220088494E+00    0.3418741888E-01    0.4542451575E+00    0.5537251993E+00
    0.2700000000E+05    0.2871240104E-01    0.1220292052E+00    0.3206652098E-01    0.4676890788E+00    0.5542211711E+00
    0.2900000000E+05    0.2681639788E-01    0.1220441465E+00    0.3012956839E-01    0.4799602365E+00    0.5546615594E+00
    0.3100000000E+05    0.2510253479E-01    0.1220548178E+00    0.2835782962E-01    0.4911840380E+00    0.5550556853E+00
    0.3300000000E+05    0.2354933835E-01    0.1220620811E+00    0.2673457215E-01    0.5014705840E+00    0.5554108485E+00
    0.3500000000E+05    0.2213825479E-01    0.1220665963E+00    0.2524487497E-01    0.5109167709E+00    0.5557328572E+00
    0.3700000000E+05    0.2085320420E-01    0.1220688766E+00    0.2387544566E-01    0.5196080463E+00    0.5560263969E+00
    0.3900000000E+05    0.1968021144E-01    0.1220693254E+00    0.2261444781E-01    0.5276198970E+00    0.5562952940E+00
    0.4100000000E+05    0.1860709815E-01    0.1220682642E+00    0.2145134155E-01    0.5350191228E+00    0.5565427064E+00
    0.4300000000E+05    0.1762322465E-01    0.1220659513E+00    0.2037673830E-01    0.5418649328E+00    0.5567712659E+00
    0.4500000000E+05    0.1671927244E-01    0.1220625962E+00    0.1938226989E-01    0.5482098940E+00    0.5569831840E+00
    0.4700000000E+05    0.1588706046E-01    0.1220583704E+00    0.1846047134E-01    0.5541007530E+00    0.5571803343E+00
    0.4900000000E+05    0.1511938933E-01    0.1220534150E+00    0.1760467675E-01    0.5595791491E+00    0.5573643146E+00
    0.1000000000E+05    0.5718277086E-01    0.1213261168E+00    0.5843407119E-01    0.2969311042E+00    0.5457495640E+00
    0.3000000000E+05    0.2593811517E-01    0.1220499565E+00    0.2922413771E-01    0.4856958433E+00    0.5548639087E+00
    0.5000000000E+05    0.1475774217E-01    0.1220507012E+00    0.1719964337E-01    0.5621754436E+00    0.5574518024E+00
    0.7000000000E+05    0.9715349849E-02    0.1219781138E+00    0.1141492101E-01    0.5995965560E+00    0.5587594948E+00
    0.9000000000E+05    0.7042460361E-02    0.1218944079E+00    0.8228026315E-02    0.6206492151E+00    0.5595781325E+00
    0.1100000000E+06    0.5454040491E-02    0.1218123802E+00    0.6286496359E-02    0.6337507996E+00    0.5601536478E+00
    0.1300000000E+06    0.4428328952E-02    0.1217351148E+00    0.5012184109E-02    0.6425287599E+00    0.5605885348E+00
    0.1500000000E+06    0.3723351729E-02    0.1216631234E+00    0.4127186174E-02    0.6487453986E+00    0.5609336009E+00
    0.1700000000E+06    0.3214859735E-02    0.1215961589E+00    0.3484929058E-02    0.6533409493E+00    0.5612171508E+00
    0.1900000000E+06    0.2833770866E-02    0.1215337659E+00    0.3002198646E-02    0.6568555058E+00    0.5614563369E+00
    0.2100000000E+06    0.2539157834E-02    0.1214754634E+00    0.2628865833E-02    0.6596182469E+00    0.5616622350E+00
    0.2300000000E+06    0.2305487049E-02    0.1214208043E+00    0.2333230176E-02    0.6618397425E+00    0.5618423607E+00
    0.2500000000E+06    0.2116131566E-02    0.1213693918E+00    0.2094419277E-02    0.6636602037E+00    0.5620020202E+00
    0.2700000000E+06    0.1959867085E-02    0.1213208808E+00    0.1898214299E-02    0.6651761969E+00    0.5621450839E+00
    0.2900000000E+06    0.1828880226E-02    0.1212749722E+00    0.1734643308E-02    0.6664561706E+00    0.5622744523E+00
    0.3100000000E+06    0.1717586154E-02    0.1212314078E+00    0.1596535126E-02    0.6675498594E+00    0.5623923494E+00
    0.3300000000E+06    0.1621899948E-02    0.1211899638E+00    0.1478618696E-02    0.6684941881E+00    0.5625005143E+00
    0.3500000000E+06    0.1538772733E-02    0.1211504455E+00    0.1376944438E-02    0.6693170943E+00    0.5626003300E+00
    0.3700000000E+06    0.1465887833E-02    0.1211126831E+00    0.1288502151E-02    0.6700400720E+00    0.5626929131E+00
    0.3900000000E+06    0.1401456649E-02    0.1210765279E+00    0.1210962509E-02    0.6706799064E+00    0.5627791764E+00
    0.4100000000E+06    0.1344078418E-02    0.1210418486E+00    0.1142498358E-02    0.6712498806E+00    0.5628598754E+00
    0.4300000000E+06    0.1292641901E-02    0.1210085293E+00    0.1081658745E-02    0.6717606337E+00    0.5629356414E+00
    0.4500000000E+06    0.1246255206E-02    0.1209764672E+00    0.1027278572E-02    0.6722207801E+00    0.5630070072E+00
    0.4700000000E+06    0.1204194853E-02    0.1209455703E+00    0.9784127527E-03    0.6726373639E+00    0.5630744259E+00
    0.4900000000E+06    0.1165868264E-02    0.1209157565E+00    0.9342875298E-03    0.6730161977E+00    0.5631382862E+00
    0.1000000000E+06    0.6154995739E-02    0.1218528928E+00    0.7147967647E-02    0.6279036972E+00    0.5598880957E+00
    0.3000000000E+06    0.1771055643E-02    0.1212529117E+00    0.1662772367E-02    0.6670237451E+00    0.5623347165E+00
    0.5000000000E+06    0.1147948700E-02    0.1209012324E+00    0.9137985250E-03    0.6731930019E+00    0.5631689885E+00
    0.7000000000E+06    0.9017815697E-03    0.1206530911E+00    0.6438681700E-03    0.6755828845E+00    0.5636579458E+00
    0.9000000000E+06    0.7660744292E-03    0.1204609587E+00    0.5073816783E-03    0.6768410478E+00    0.5639993105E+00
    0.1100000000E+07    0.6780085886E-03    0.1203040006E+00    0.4251565625E-03    0.6776165759E+00    0.5642597403E+00
    0.1300000000E+07    0.6151475848E-03    0.1201712241E+00    0.3700386043E-03    0.6781429320E+00    0.5644694060E+00
    0.1500000000E+07    0.5674166061E-03    0.1200561121E+00    0.3303522670E-03    0.6785241190E+00    0.5646444109E+00
    0.1700000000E+07    0.5295786683E-03    0.1199544796E+00    0.3002824385E-03    0.6788133538E+00    0.5647943193E+00
    0.1900000000E+07    0.4986198634E-03    0.1198634765E+00    0.2766160764E-03    0.6790406598E+00    0.5649252567E+00
    0.2100000000E+07    0.4726708939E-03    0.1197810738E+00    0.2574350737E-03    0.6792242523E+00    0.5650413732E+00
    0.2300000000E+07    0.4505040401E-03    0.1197057749E+00    0.2415236483E-03    0.6793758229E+00    0.5651456054E+00
    0.2500000000E+07    0.4312756836E-03    0.1196364439E+00    0.2280734617E-03    0.6795032208E+00    0.5652401049E+00
    0.2700000000E+07    0.4143845683E-03    0.1195721983E+00    0.2165257042E-03    0.6796119128E+00    0.5653264935E+00
    0.2900000000E+07    0.3993890675E-03    0.1195123383E+00    0.2064813468E-03    0.6797058241E+00    0.5654060229E+00
    0.3100000000E+07    0.3859565087E-03    0.1194562998E+00    0.1976475582E-03    0.6797878471E+00    0.5654796790E+00
    0.3300000000E+07    0.3738308575E-03    0.1194036214E+00    0.1898043618E-03    0.6798601607E+00    0.5655482512E+00
    0.3500000000E+07    0.3628113923E-03    0.1193539206E+00    0.1827831405E-03    0.6799244381E+00    0.5656123814E+00
    0.3700000000E+07    0.3527382101E-03    0.1193068771E+00    0.1764523494E-03    0.6799819858E+00    0.5656725986E+00
    0.3900000000E+07    0.3434821224E-03    0.1192622196E+00    0.1707077631E-03    0.6800338391E+00    0.5657293432E+00
    0.4100000000E+07    0.3349374498E-03    0.1192197166E+00    0.1654656608E-03    0.6800808295E+00    0.5657829861E+00
    0.4300000000E+07    0.3270167825E-03    0.1191791687E+00    0.1606579646E-03    0.6801236324E+00    0.5658338422E+00
    0.4500000000E+07    0.3196471020E-03    0.1191404031E+00    0.1562287048E-03    0.6801628024E+00    0.5658821814E+00
    0.4700000000E+07    0.3127668649E-03    0.1191032690E+00    0.1521314086E-03    0.6801987991E+00    0.5659282363E+00
    0.4900000000E+07    0.3063237786E-03    0.1190676340E+00    0.1483271411E-03    0.6802320071E+00    0.5659722092E+00
    0.1000000000E+07    0.7179322736E-03    0.1203789132E+00    0.4617448771E-03    0.6772699147E+00    0.5641372837E+00
    0.3000000000E+07    0.3924949277E-03    0.1194838723E+00    0.2019282918E-03    0.6797481716E+00    0.5654435318E+00
    0.5000000000E+07    0.3032519240E-03    0.1190503416E+00    0.1465244126E-03    0.6802476686E+00    0.5659934710E+00
    0.7000000000E+07    0.2566474775E-03    0.1187608673E+00    0.1200165392E-03    0.6804717125E+00    0.5663426068E+00
    0.9000000000E+07    0.2267855470E-03    0.1185430712E+00    0.1038179123E-03    0.6806019517E+00    0.5665979405E+00
    0.1100000000E+08    0.2055366221E-03    0.1183683538E+00    0.9264013662E-04    0.6806883856E+00    0.5667989595E+00
    0.1300000000E+08    0.1894112634E-03    0.1182224319E+00    0.8434228661E-04    0.6807505774E+00    0.5669645838E+00
    0.1500000000E+08    0.1766274703E-03    0.1180971318E+00    0.7787376777E-04    0.6807978336E+00    0.5671053323E+00
    0.1700000000E+08    0.1661667585E-03    0.1179873339E+00    0.7265149503E-04    0.6808351782E+00    0.5672276519E+00
    0.1900000000E+08    0.1573988739E-03    0.1178896179E+00    0.6832276141E-04    0.6808655764E+00    0.5673357771E+00
    0.2100000000E+08    0.1499099699E-03    0.1178015846E+00    0.6466016441E-04    0.6808908984E+00    0.5674326370E+00
    0.2300000000E+08    0.1434154898E-03    0.1177214857E+00    0.6150969041E-04    0.6809123862E+00    0.5675203416E+00
    0.2500000000E+08    0.1377124297E-03    0.1176480078E+00    0.5876286018E-04    0.6809308991E+00    0.5676004602E+00
    0.2700000000E+08    0.1326515283E-03    0.1175801390E+00    0.5634078442E-04    0.6809470522E+00    0.5676741918E+00
