  Pressure (Pa) 2mC6-400 (mol/kg) 3mC6-400 (mol/kg) 33mC5-400 (mol/kg) 23mC5-400 (mol/kg) C7-400 (mol/kg)
    0.1000000000E+01    0.7943390126E-03    0.4732025157E-02    0.1940455841E-03    0.4669743955E-03    0.3412794261E-02
    0.3000000000E+01    0.2328943924E-02    0.1383282951E-01    0.5690580858E-03    0.1396311549E-02    0.9977640894E-02
    0.5000000000E+01    0.3796016197E-02    0.2247989740E-01    0.9277417169E-03    0.2319563428E-02    0.1621675758E-01
    0.7000000000E+01    0.5200549089E-02    0.3070676257E-01    0.1271309559E-02    0.3236805189E-02    0.2215418075E-01
    0.9000000000E+01    0.6547043305E-02    0.3854372335E-01    0.1600854629E-02    0.4148110716E-02    0.2781162948E-01
    0.1100000000E+02    0.7839566094E-02    0.4601822399E-01    0.1917364314E-02    0.5053552644E-02    0.3320877856E-01
    0.1300000000E+02    0.9081802080E-02    0.5315518328E-01    0.2221732777E-02    0.5953202390E-02    0.3836349373E-01
    0.1500000000E+02    0.1027709714E-01    0.5997727883E-01    0.2514771674E-02    0.6847130177E-02    0.4329203521E-01
    0.1700000000E+02    0.1142849642E-01    0.6650519374E-01    0.2797219428E-02    0.7735405057E-02    0.4800923433E-01
    0.1900000000E+02    0.1253877732E-01    0.7275783138E-01    0.3069749284E-02    0.8618094939E-02    0.5252864732E-01
    0.2100000000E+02    0.1361047834E-01    0.7875250304E-01    0.3332976338E-02    0.9495266610E-02    0.5686268967E-01
    0.2300000000E+02    0.1464592418E-01    0.8450509228E-01    0.3587463674E-02    0.1036698576E-01    0.6102275386E-01
    0.2500000000E+02    0.1564724786E-01    0.9003019931E-01    0.3833727747E-02    0.1123331700E-01    0.6501931273E-01
    0.2700000000E+02    0.1661641012E-01    0.9534126826E-01    0.4072243113E-02    0.1209432390E-01    0.6886201061E-01
    0.2900000000E+02    0.1755521647E-01    0.1004506995E+00    0.4303446599E-02    0.1295006898E-01    0.7255974383E-01
    0.3100000000E+02    0.1846533236E-01    0.1053699492E+00    0.4527740989E-02    0.1380061377E-01    0.7612073196E-01
    0.3300000000E+02    0.1934829654E-01    0.1101096177E+00    0.4745498283E-02    0.1464601879E-01    0.7955258111E-01
    0.3500000000E+02    0.2020553297E-01    0.1146795279E+00    0.4957062598E-02    0.1548634361E-01    0.8286234021E-01
    0.3700000000E+02    0.2103836136E-01    0.1190887956E+00    0.5162752742E-02    0.1632164683E-01    0.8605655123E-01
    0.3900000000E+02    0.2184800664E-01    0.1233458920E+00    0.5362864512E-02    0.1715198612E-01    0.8914129404E-01
    0.4100000000E+02    0.2263560739E-01    0.1274586997E+00    0.5557672751E-02    0.1797741826E-01    0.9212222660E-01
    0.4300000000E+02    0.2340222338E-01    0.1314345633E+00    0.5747433181E-02    0.1879799912E-01    0.9500462101E-01
    0.4500000000E+02    0.2414884234E-01    0.1352803345E+00    0.5932384055E-02    0.1961378368E-01    0.9779339594E-01
    0.4700000000E+02    0.2487638606E-01    0.1390024126E+00    0.6112747639E-02    0.2042482608E-01    0.1004931458E+00
    0.4900000000E+02    0.2558571586E-01    0.1426067818E+00    0.6288731543E-02    0.2123117962E-01    0.1031081672E+00
    0.1000000000E+02    0.7199812417E-02    0.4232466811E-01    0.1760680958E-02    0.4601560138E-02    0.3054158500E-01
    0.3000000000E+02    0.1801376173E-01    0.1029334155E+00    0.4416433495E-02    0.1337598761E-01    0.7435684196E-01
    0.5000000000E+02    0.2593380440E-01    0.1443665901E+00    0.6375142285E-02    0.2163261449E-01    0.1043851718E+00
    0.7000000000E+02    0.3210990227E-01    0.1745696897E+00    0.7914488598E-02    0.2942753062E-01    0.1263292508E+00
    0.9000000000E+02    0.3712808519E-01    0.1976182667E+00    0.9175462532E-02    0.3680874069E-01    0.1431166144E+00
    0.1100000000E+03    0.4132156714E-01    0.2158209308E+00    0.1023797657E-01    0.4381758122E-01    0.1564069283E+00
    0.1300000000E+03    0.4489623747E-01    0.2305847588E+00    0.1115128436E-01    0.5048984905E-01    0.1672125651E+00
    0.1500000000E+03    0.4798790210E-01    0.2428170964E+00    0.1194781719E-01    0.5685670742E-01    0.1761868758E+00
    0.1700000000E+03    0.5069096146E-01    0.2531298534E+00    0.1265009632E-01    0.6294541936E-01    0.1837708336E+00
    0.1900000000E+03    0.5307389205E-01    0.2619510360E+00    0.1327445407E-01    0.6877994562E-01    0.1902731301E+00
    0.2100000000E+03    0.5518813259E-01    0.2695892281E+00    0.1383316366E-01    0.7438143544E-01    0.1959165055E+00
    0.2300000000E+03    0.5707345433E-01    0.2762726760E+00    0.1433572320E-01    0.7976863192E-01    0.2008658436E+00
    0.2500000000E+03    0.5876135301E-01    0.2821739377E+00    0.1478966461E-01    0.8495820902E-01    0.2052458997E+00
    0.2700000000E+03    0.6027727473E-01    0.2874259622E+00    0.1520108346E-01    0.8996505314E-01    0.2091528701E+00
    0.2900000000E+03    0.6164212640E-01    0.2921328893E+00    0.1557499779E-01    0.9480249968E-01    0.2126621664E+00
    0.3100000000E+03    0.6287333128E-01    0.2963774901E+00    0.1591559856E-01    0.9948253286E-01    0.2158337742E+00
    0.3300000000E+03    0.6398558626E-01    0.3002264078E+00    0.1622642904E-01    0.1040159553E+00    0.2187160299E+00
    0.3500000000E+03    0.6499141777E-01    0.3037339248E+00    0.1651051650E-01    0.1084125322E+00    0.2213483359E+00
    0.3700000000E+03    0.6590159852E-01    0.3069447175E+00    0.1677047080E-01    0.1126811154E+00    0.2237631474E+00
    0.3900000000E+03    0.6672546550E-01    0.3098959032E+00    0.1700855968E-01    0.1168297493E+00    0.2259874500E+00
    0.4100000000E+03    0.6747116692E-01    0.3126185834E+00    0.1722676717E-01    0.1208657627E+00    0.2280438734E+00
    0.4300000000E+03    0.6814585658E-01    0.3151390232E+00    0.1742683961E-01    0.1247958481E+00    0.2299515433E+00
    0.4500000000E+03    0.6875584903E-01    0.3174795614E+00    0.1761032242E-01    0.1286261306E+00    0.2317267395E+00
    0.4700000000E+03    0.6930674480E-01    0.3196593230E+00    0.1777858976E-01    0.1323622281E+00    0.2333834104E+00
    0.4900000000E+03    0.6980353268E-01    0.3216947810E+00    0.1793286884E-01    0.1360093036E+00    0.2349335794E+00
    0.1000000000E+03    0.3931292909E-01    0.2072223269E+00    0.9727940003E-02    0.4035735158E-01    0.1501248062E+00
    0.3000000000E+03    0.6227345955E-01    0.2943084873E+00    0.1574922747E-01    0.9716149189E-01    0.2142869233E+00
    0.5000000000E+03    0.7003304890E-01    0.3226629307E+00    0.1800511108E-01    0.1378009588E+00    0.2356720378E+00
    0.7000000000E+03    0.7265160708E-01    0.3370804645E+00    0.1893094937E-01    0.1699367631E+00    0.2467741858E+00
    0.9000000000E+03    0.7294649421E-01    0.3459190804E+00    0.1922788606E-01    0.1968432977E+00    0.2537123420E+00
    0.1100000000E+04    0.7206940613E-01    0.3519360138E+00    0.1919029765E-01    0.2201855866E+00    0.2585216314E+00
    0.1300000000E+04    0.7057247272E-01    0.3563174007E+00    0.1896325466E-01    0.2409157067E+00    0.2620842366E+00
    0.1500000000E+04    0.6874681871E-01    0.3596614525E+00    0.1862559456E-01    0.2596266623E+00    0.2648483119E+00
    0.1700000000E+04    0.6675599682E-01    0.3623039949E+00    0.1822315202E-01    0.2767128600E+00    0.2670672035E+00
    0.1900000000E+04    0.6469594966E-01    0.3644487508E+00    0.1778390930E-01    0.2924506964E+00    0.2688956415E+00
    0.2100000000E+04    0.6262455963E-01    0.3662267965E+00    0.1732557280E-01    0.3070423323E+00    0.2704338367E+00
    0.2300000000E+04    0.6057726378E-01    0.3677264614E+00    0.1685963831E-01    0.3206409993E+00    0.2717497537E+00
    0.2500000000E+04    0.5857577225E-01    0.3690095355E+00    0.1639369778E-01    0.3333663939E+00    0.2728912368E+00
    0.2700000000E+04    0.5663315835E-01    0.3701205975E+00    0.1593280967E-01    0.3453144448E+00    0.2738930173E+00
    0.2900000000E+04    0.5475694190E-01    0.3710926523E+00    0.1548034485E-01    0.3565637380E+00    0.2747809660E+00
    0.3100000000E+04    0.5295101511E-01    0.3719506811E+00    0.1503852582E-01    0.3671798748E+00    0.2755747821E+00
    0.3300000000E+04    0.5121687709E-01    0.3727139548E+00    0.1460878026E-01    0.3772185088E+00    0.2762897516E+00
    0.3500000000E+04    0.4955444231E-01    0.3733975879E+00    0.1419197836E-01    0.3867275139E+00    0.2769379336E+00
    0.3700000000E+04    0.4796257970E-01    0.3740136084E+00    0.1378859549E-01    0.3957485655E+00    0.2775289802E+00
    0.3900000000E+04    0.4643947740E-01    0.3745717131E+00    0.1339882572E-01    0.4043183163E+00    0.2780707169E+00
    0.4100000000E+04    0.4498289243E-01    0.3750798095E+00    0.1302266225E-01    0.4124692865E+00    0.2785695612E+00
    0.4300000000E+04    0.4359032304E-01    0.3755444132E+00    0.1265995514E-01    0.4202305490E+00    0.2790308303E+00
    0.4500000000E+04    0.4225912820E-01    0.3759709431E+00    0.1231045325E-01    0.4276282649E+00    0.2794589709E+00
    0.4700000000E+04    0.4098661073E-01    0.3763639446E+00    0.1197383491E-01    0.4346861080E+00    0.2798577329E+00
    0.4900000000E+04    0.3977007487E-01    0.3767272596E+00    0.1164973060E-01    0.4414256066E+00    0.2802303034E+00
    0.1000000000E+04    0.7261140493E-01    0.3491860971E+00    0.1923969010E-01    0.2088892959E+00    0.2563132040E+00
    0.3000000000E+04    0.5384505360E-01    0.3715346028E+00    0.1525799998E-01    0.3619472683E+00    0.2751885979E+00
    0.5000000000E+04    0.3918196802E-01    0.3768988262E+00    0.1149224688E-01    0.4446821867E+00    0.2804076346E+00
    0.7000000000E+04    0.2976033720E-01    0.3793583167E+00    0.8897331764E-02    0.4970973582E+00    0.2830731402E+00
    0.9000000000E+04    0.2352141681E-01    0.3807733842E+00    0.7101121280E-02    0.5326061939E+00    0.2847566224E+00
    0.1100000000E+05    0.1921612816E-01    0.3816908441E+00    0.5821822521E-02    0.5578358631E+00    0.2859448556E+00
    0.1300000000E+05    0.1612972381E-01    0.3823314229E+00    0.4882698160E-02    0.5764564731E+00    0.2868432528E+00
    0.1500000000E+05    0.1384251960E-01    0.3828018176E+00    0.4173904557E-02    0.5906361018E+00    0.2875550635E+00
    0.1700000000E+05    0.1209867315E-01    0.3831600729E+00    0.3625707617E-02    0.6017197524E+00    0.2881384756E+00
    0.1900000000E+05    0.1073629621E-01    0.3834405330E+00    0.3192585280E-02    0.6105765204E+00    0.2886290600E+00
    0.2100000000E+05    0.9649377965E-02    0.3836648400E+00    0.2843972655E-02    0.6177879632E+00    0.2890499298E+00
    0.2300000000E+05    0.8766329999E-02    0.3838473174E+00    0.2558797984E-02    0.6237552222E+00    0.2894168355E+00
    0.2500000000E+05    0.8037467874E-02    0.3839978260E+00    0.2322179151E-02    0.6287624344E+00    0.2897409282E+00
    0.2700000000E+05    0.7427460257E-02    0.3841233764E+00    0.2123373616E-02    0.6330156136E+00    0.2900303545E+00
    0.2900000000E+05    0.6910632619E-02    0.3842290898E+00    0.1954473005E-02    0.6366672450E+00    0.2902912241E+00
    0.3100000000E+05    0.6467963548E-02    0.3843187931E+00    0.1809551372E-02    0.6398322840E+00    0.2905282222E+00
    0.3300000000E+05    0.6085114264E-02    0.3843954033E+00    0.1684096746E-02    0.6425988251E+00    0.2907450107E+00
    0.3500000000E+05    0.5751105864E-02    0.3844611815E+00    0.1574623730E-02    0.6450353791E+00    0.2909444998E+00
    0.3700000000E+05    0.5457412622E-02    0.3845179075E+00    0.1478404395E-02    0.6471959379E+00    0.2911290364E+00
    0.3900000000E+05    0.5197328559E-02    0.3845670003E+00    0.1393278020E-02    0.6491235656E+00    0.2913005370E+00
    0.4100000000E+05    0.4965517187E-02    0.3846096048E+00    0.1317514398E-02    0.6508529877E+00    0.2914605853E+00
    0.4300000000E+05    0.4757686339E-02    0.3846466548E+00    0.1249714152E-02    0.6524124855E+00    0.2916105029E+00
    0.4500000000E+05    0.4570349901E-02    0.3846789188E+00    0.1188735042E-02    0.6538253038E+00    0.2917514032E+00
    0.4700000000E+05    0.4400650859E-02    0.3847070348E+00    0.1133636799E-02    0.6551107081E+00    0.2918842320E+00
    0.4900000000E+05    0.4246228265E-02    0.3847315367E+00    0.1083639338E-02    0.6562847901E+00    0.2920097988E+00
    0.1000000000E+05    0.2118080489E-01    0.3812765645E+00    0.6409880128E-02    0.5462298252E+00    0.2853963056E+00
    0.3000000000E+05    0.6681016208E-02    0.3842757426E+00    0.1879324715E-02    0.6383045514E+00    0.2904124579E+00
    0.5000000000E+05    0.4174118076E-02    0.3847425758E+00    0.1060345394E-02    0.6568344012E+00    0.2920700807E+00
    0.7000000000E+05    0.3194173263E-02    0.3848528712E+00    0.7490663842E-03    0.6643597373E+00    0.2930224526E+00
    0.9000000000E+05    0.2668516407E-02    0.3848563806E+00    0.5890244225E-03    0.6683795342E+00    0.2936789066E+00
    0.1100000000E+06    0.2335918990E-02    0.3848187442E+00    0.4921026753E-03    0.6708660579E+00    0.2941752348E+00
    0.1300000000E+06    0.2103410964E-02    0.3847635703E+00    0.4270867898E-03    0.6725513940E+00    0.2945721296E+00
    0.1500000000E+06    0.1929802155E-02    0.3847009161E+00    0.3803315291E-03    0.6737672579E+00    0.2949016634E+00
    0.1700000000E+06    0.1794021474E-02    0.3846355243E+00    0.3449791768E-03    0.6746850687E+00    0.2951827328E+00
    0.1900000000E+06    0.1684135020E-02    0.3845697711E+00    0.3172218705E-03    0.6754021013E+00    0.2954273597E+00
    0.2100000000E+06    0.1592851717E-02    0.3845048828E+00    0.2947806384E-03    0.6759775701E+00    0.2956436429E+00
    0.2300000000E+06    0.1515448475E-02    0.3844414905E+00    0.2762094441E-03    0.6764495459E+00    0.2958372857E+00
    0.2500000000E+06    0.1448720045E-02    0.3843799039E+00    0.2605467538E-03    0.6768436009E+00    0.2960124490E+00
    0.2700000000E+06    0.1390407447E-02    0.3843202537E+00    0.2471281875E-03    0.6771775398E+00    0.2961722576E+00
    0.2900000000E+06    0.1338868027E-02    0.3842625695E+00    0.2354797582E-03    0.6774641359E+00    0.2963191154E+00
    0.3100000000E+06    0.1292875486E-02    0.3842068237E+00    0.2252540282E-03    0.6777127883E+00    0.2964549096E+00
    0.3300000000E+06    0.1251493634E-02    0.3841529570E+00    0.2161903444E-03    0.6779305658E+00    0.2965811480E+00
    0.3500000000E+06    0.1213993851E-02    0.3841008934E+00    0.2080891924E-03    0.6781228857E+00    0.2966990535E+00
    0.3700000000E+06    0.1179799487E-02    0.3840505493E+00    0.2007951506E-03    0.6782939693E+00    0.2968096310E+00
    0.3900000000E+06    0.1148447407E-02    0.3840018388E+00    0.1941852587E-03    0.6784471540E+00    0.2969137163E+00
    0.4100000000E+06    0.1119560788E-02    0.3839546767E+00    0.1881608926E-03    0.6785851132E+00    0.2970120114E+00
    0.4300000000E+06    0.1092829468E-02    0.3839089807E+00    0.1826419726E-03    0.6787100133E+00    0.2971051115E+00
    0.4500000000E+06    0.1067995499E-02    0.3838646722E+00    0.1775627563E-03    0.6788236285E+00    0.2971935258E+00
    0.4700000000E+06    0.1044842351E-02    0.3838216767E+00    0.1728687325E-03    0.6789274255E+00    0.2972776926E+00
    0.4900000000E+06    0.1023186725E-02    0.3837799244E+00    0.1685142931E-03    0.6790226275E+00    0.2973579924E+00
    0.1000000000E+06    0.2485756655E-02    0.3848407469E+00    0.5352563621E-03    0.6697544825E+00    0.2939423276E+00
    0.3000000000E+06    0.1315242578E-02    0.3842344575E+00    0.2302070279E-03    0.6775927179E+00    0.2963882936E+00
    0.5000000000E+06    0.1012870709E-02    0.3837594937E+00    0.1664521553E-03    0.6790673332E+00    0.2973967976E+00
    0.7000000000E+06    0.8569612913E-03    0.3834023953E+00    0.1362238390E-03    0.6796908810E+00    0.2980321288E+00
    0.9000000000E+06    0.7575262526E-03    0.3831172453E+00    0.1178318677E-03    0.6800359531E+00    0.2984947193E+00
    0.1100000000E+07    0.6869165305E-03    0.3828798401E+00    0.1051703033E-03    0.6802554672E+00    0.2988578348E+00
    0.1300000000E+07    0.6333840736E-03    0.3826763531E+00    0.9578362405E-04    0.6804076343E+00    0.2991563732E+00
    0.1500000000E+07    0.5909633243E-03    0.3824982010E+00    0.8847216255E-04    0.6805194628E+00    0.2994096554E+00
    0.1700000000E+07    0.5562566143E-03    0.3823396987E+00    0.8257214353E-04    0.6806052026E+00    0.2996294857E+00
    0.1900000000E+07    0.5271661908E-03    0.3821968882E+00    0.7768294315E-04    0.6806730874E+00    0.2998235974E+00
    0.2100000000E+07    0.5023167184E-03    0.3820669027E+00    0.7354669189E-04    0.6807282088E+00    0.2999973289E+00
    0.2300000000E+07    0.4807635409E-03    0.3819475988E+00    0.6998896041E-04    0.6807738861E+00    0.3001545188E+00
    0.2500000000E+07    0.4618332446E-03    0.3818373317E+00    0.6688700819E-04    0.6808123762E+00    0.3002980179E+00
    0.2700000000E+07    0.4450309572E-03    0.3817348112E+00    0.6415164184E-04    0.6808452679E+00    0.3004300013E+00
    0.2900000000E+07    0.4299836786E-03    0.3816390064E+00    0.6171628927E-04    0.6808737124E+00    0.3005521658E+00
    0.3100000000E+07    0.4164041698E-03    0.3815490806E+00    0.5953012760E-04    0.6808985644E+00    0.3006658599E+00
    0.3300000000E+07    0.4040671259E-03    0.3814643448E+00    0.5755360006E-04    0.6809204718E+00    0.3007721734E+00
    0.3500000000E+07    0.3927929774E-03    0.3813842253E+00    0.5575539916E-04    0.6809399352E+00    0.3008719991E+00
    0.3700000000E+07    0.3824365906E-03    0.3813082391E+00    0.5411038119E-04    0.6809573471E+00    0.3009660776E+00
    0.3900000000E+07    0.3728792056E-03    0.3812359754E+00    0.5259809062E-04    0.6809730199E+00    0.3010550298E+00
    0.4100000000E+07    0.3640225704E-03    0.3811670823E+00    0.5120169410E-04    0.6809872054E+00    0.3011393818E+00
    0.4300000000E+07    0.3557845945E-03    0.3811012556E+00    0.4990719642E-04    0.6810001088E+00    0.3012195827E+00
    0.4500000000E+07    0.3480960802E-03    0.3810382308E+00    0.4870285412E-04    0.6810118990E+00    0.3012960191E+00
    0.4700000000E+07    0.3408982269E-03    0.3809777765E+00    0.4757873072E-04    0.6810227163E+00    0.3013690262E+00
    0.4900000000E+07    0.3341407028E-03    0.3809196888E+00    0.4652635467E-04    0.6810326782E+00    0.3014388966E+00
    0.1000000000E+07    0.7195502748E-03    0.3829936020E+00    0.1109818876E-03    0.6801566666E+00    0.2986860147E+00
    0.3000000000E+07    0.4230257671E-03    0.3815933547E+00    0.6059475501E-04    0.6808865429E+00    0.3006099983E+00
    0.5000000000E+07    0.3309132732E-03    0.3808914752E+00    0.4602475838E-04    0.6810373701E+00    0.3014727370E+00
    0.7000000000E+07    0.2815345767E-03    0.3804168368E+00    0.3843512344E-04    0.6811038694E+00    0.3020334465E+00
    0.9000000000E+07    0.2495339426E-03    0.3800570559E+00    0.3360524189E-04    0.6811417262E+00    0.3024490571E+00
    0.1100000000E+08    0.2266176567E-03    0.3797669509E+00    0.3019239056E-04    0.6811663430E+00    0.3027792240E+00
    0.1300000000E+08    0.2091553278E-03    0.3795237216E+00    0.2761913459E-04    0.6811837210E+00    0.3030530591E+00
    0.1500000000E+08    0.1952714347E-03    0.3793142257E+00    0.2559102737E-04    0.6811966944E+00    0.3032869580E+00
    0.1700000000E+08    0.1838858325E-03    0.3791301867E+00    0.2394023709E-04    0.6812067806E+00    0.3034910684E+00
    0.1900000000E+08    0.1743264764E-03    0.3789660505E+00    0.2256323382E-04    0.6812148669E+00    0.3036721077E+00
    0.2100000000E+08    0.1661502842E-03    0.3788179075E+00    0.2139225822E-04    0.6812215084E+00    0.3038347521E+00
    0.2300000000E+08    0.1590516336E-03    0.3786829001E+00    0.2038087050E-04    0.6812270702E+00    0.3039823879E+00
    0.2500000000E+08    0.1528119401E-03    0.3785588761E+00    0.1949604455E-04    0.6812318030E+00    0.3041175458E+00
    0.2700000000E+08    0.1472701523E-03    0.3784441733E+00    0.1871357096E-04    0.6812358846E+00    0.3042421665E+00
