  Pressure (Pa) 2mC6-400 (mol/kg) 3mC6-400 (mol/kg) 33mC5-400 (mol/kg) 23mC5-400 (mol/kg) C7-400 (mol/kg)
    0.1000000000E+01    0.7949305488E-03    0.2105356896E-02    0.4531036471E-03    0.4668543598E-03    0.5124602623E-02
    0.3000000000E+01    0.2333955339E-02    0.6167071442E-02    0.1330600570E-02    0.1395241204E-02    0.1501283075E-01
    0.5000000000E+01    0.3809134720E-02    0.1004176524E-01    0.2172049157E-02    0.2316617574E-02    0.2444792594E-01
    0.7000000000E+01    0.5224805808E-02    0.1374228701E-01    0.2979908167E-02    0.3231084123E-02    0.3346097222E-01
    0.9000000000E+01    0.6584909473E-02    0.1728032983E-01    0.3756411016E-02    0.4138739518E-02    0.4208025996E-01
    0.1100000000E+02    0.7893034649E-02    0.2066655836E-01    0.4503591021E-02    0.5039680495E-02    0.5033159327E-01
    0.1300000000E+02    0.9152456849E-02    0.2391071959E-01    0.5223303341E-02    0.5934001897E-02    0.5823855769E-01
    0.1500000000E+02    0.1036617174E-01    0.2702173961E-01    0.5917244099E-02    0.6821796727E-02    0.6582275393E-01
    0.1700000000E+02    0.1153692453E-01    0.3000780837E-01    0.6586967106E-02    0.7703156193E-02    0.7310400275E-01
    0.1900000000E+02    0.1266723569E-01    0.3287645413E-01    0.7233898527E-02    0.8578169748E-02    0.8010052490E-01
    0.2100000000E+02    0.1375942363E-01    0.3563460908E-01    0.7859349769E-02    0.9446925133E-02    0.8682909969E-01
    0.2300000000E+02    0.1481562467E-01    0.3828866726E-01    0.8464528853E-02    0.1030950842E-01    0.9330520502E-01
    0.2500000000E+02    0.1583781067E-01    0.4084453591E-01    0.9050550459E-02    0.1116600406E-01    0.9954314141E-01
    0.2700000000E+02    0.1682780471E-01    0.4330768100E-01    0.9618444828E-02    0.1201649489E-01    0.1055561421E+00
    0.2900000000E+02    0.1778729496E-01    0.4568316772E-01    0.1016916566E-01    0.1286106222E-01    0.1113564711E+00
    0.3100000000E+02    0.1871784704E-01    0.4797569669E-01    0.1070359716E-01    0.1369978583E-01    0.1169555102E+00
    0.3300000000E+02    0.1962091511E-01    0.5018963619E-01    0.1122256031E-01    0.1453274402E-01    0.1223638377E+00
    0.3500000000E+02    0.2049785164E-01    0.5232905111E-01    0.1172681846E-01    0.1536001364E-01    0.1275912976E+00
    0.3700000000E+02    0.2134991634E-01    0.5439772888E-01    0.1221708237E-01    0.1618167014E-01    0.1326470628E+00
    0.3900000000E+02    0.2217828404E-01    0.5639920281E-01    0.1269401473E-01    0.1699778756E-01    0.1375396913E+00
    0.4100000000E+02    0.2298405184E-01    0.5833677312E-01    0.1315823417E-01    0.1780843863E-01    0.1422771772E+00
    0.4300000000E+02    0.2376824551E-01    0.6021352586E-01    0.1361031895E-01    0.1861369475E-01    0.1468669962E+00
    0.4500000000E+02    0.2453182531E-01    0.6203235005E-01    0.1405081023E-01    0.1941362600E-01    0.1513161474E+00
    0.4700000000E+02    0.2527569124E-01    0.6379595325E-01    0.1448021505E-01    0.2020830125E-01    0.1556311907E+00
    0.4900000000E+02    0.2600068775E-01    0.6550687556E-01    0.1489900905E-01    0.2099778811E-01    0.1598182808E+00
    0.1000000000E+02    0.7245257722E-02    0.1899179139E-01    0.4133546487E-02    0.4590043338E-02    0.4625039772E-01
    0.3000000000E+02    0.1825609489E-01    0.4683952148E-01    0.1043836486E-01    0.1328114957E-01    0.1141804728E+00
    0.5000000000E+02    0.2635635974E-01    0.6634333255E-01    0.1510456763E-01    0.2139060670E-01    0.1618656635E+00
    0.7000000000E+02    0.3264842714E-01    0.8081527407E-01    0.1875392551E-01    0.2899018222E-01    0.1973282624E+00
    0.9000000000E+02    0.3771838916E-01    0.9201226102E-01    0.2171605410E-01    0.3613990215E-01    0.2248269798E+00
    0.1100000000E+03    0.4191023791E-01    0.1009542834E+00    0.2418394651E-01    0.4289037988E-01    0.2468360751E+00
    0.1300000000E+03    0.4544162289E-01    0.1082748934E+00    0.2627948853E-01    0.4928460990E-01    0.2648935315E+00
    0.1500000000E+03    0.4845859473E-01    0.1143888549E+00    0.2808436932E-01    0.5535936477E-01    0.2800069498E+00
    0.1700000000E+03    0.5106386930E-01    0.1195793790E+00    0.2965600299E-01    0.6114629433E-01    0.2928648474E+00
    0.1900000000E+03    0.5333248484E-01    0.1240466405E+00    0.3103632851E-01    0.6667279864E-01    0.3039542266E+00
    0.2100000000E+03    0.5532099375E-01    0.1279362599E+00    0.3225696454E-01    0.7196272751E-01    0.3136296226E+00
    0.2300000000E+03    0.5707312835E-01    0.1313567894E+00    0.3334238069E-01    0.7703694542E-01    0.3221555147E+00
    0.2500000000E+03    0.5862344160E-01    0.1343908633E+00    0.3431193161E-01    0.8191379129E-01    0.3297333805E+00
    0.2700000000E+03    0.5999973197E-01    0.1371025405E+00    0.3518120976E-01    0.8660945532E-01    0.3365195203E+00
    0.2900000000E+03    0.6122470969E-01    0.1395422775E+00    0.3596297374E-01    0.9113828983E-01    0.3426371339E+00
    0.3100000000E+03    0.6231717327E-01    0.1417503801E+00    0.3666780315E-01    0.9551306733E-01    0.3481847069E+00
    0.3300000000E+03    0.6329286055E-01    0.1437594509E+00    0.3730457188E-01    0.9974519588E-01    0.3532419592E+00
    0.3500000000E+03    0.6416507735E-01    0.1455961585E+00    0.3788079760E-01    0.1038449000E+00    0.3578741481E+00
    0.3700000000E+03    0.6494517072E-01    0.1472825392E+00    0.3840290472E-01    0.1078213733E+00    0.3621352333E+00
    0.3900000000E+03    0.6564289115E-01    0.1488369683E+00    0.3887642571E-01    0.1116829077E+00    0.3660702424E+00
    0.4100000000E+03    0.6626667402E-01    0.1502748963E+00    0.3930615745E-01    0.1154370037E+00    0.3697170625E+00
    0.4300000000E+03    0.6682386117E-01    0.1516094134E+00    0.3969628448E-01    0.1190904649E+00    0.3731078151E+00
    0.4500000000E+03    0.6732087744E-01    0.1528516872E+00    0.4005047709E-01    0.1226494785E+00    0.3762699235E+00
    0.4700000000E+03    0.6776337287E-01    0.1540113063E+00    0.4037197056E-01    0.1261196856E+00    0.3792269501E+00
    0.4900000000E+03    0.6815633836E-01    0.1550965526E+00    0.4066362949E-01    0.1295062414E+00    0.3819992600E+00
    0.1000000000E+03    0.3990833534E-01    0.9671899863E-01    0.2300295979E-01    0.3956219860E-01    0.2364057384E+00
    0.3000000000E+03    0.6178645866E-01    0.1406730884E+00    0.3632441526E-01    0.9334419300E-01    0.3454768102E+00
    0.5000000000E+03    0.6833565052E-01    0.1556135711E+00    0.4079907805E-01    0.1311696412E+00    0.3833217687E+00
    0.7000000000E+03    0.7017056825E-01    0.1633813293E+00    0.4243257099E-01    0.1610060771E+00    0.4033561946E+00
    0.9000000000E+03    0.7001841814E-01    0.1682146091E+00    0.4280756248E-01    0.1860517925E+00    0.4160302429E+00
    0.1100000000E+04    0.6892018166E-01    0.1715409786E+00    0.4254498957E-01    0.2078765593E+00    0.4248891226E+00
    0.1300000000E+04    0.6734960417E-01    0.1739836546E+00    0.4193608903E-01    0.2273584477E+00    0.4314908361E+00
    0.1500000000E+04    0.6554610578E-01    0.1758605698E+00    0.4113318514E-01    0.2450363845E+00    0.4366352071E+00
    0.1700000000E+04    0.6363927096E-01    0.1773518896E+00    0.4022210000E-01    0.2612650799E+00    0.4407782141E+00
    0.1900000000E+04    0.6170248061E-01    0.1785677784E+00    0.3925383073E-01    0.2762911597E+00    0.4442002934E+00
    0.2100000000E+04    0.5977843441E-01    0.1795796027E+00    0.3825986907E-01    0.2902938854E+00    0.4470841420E+00
    0.2300000000E+04    0.5789223872E-01    0.1804357431E+00    0.3726019383E-01    0.3034084355E+00    0.4495542941E+00
    0.2500000000E+04    0.5605852218E-01    0.1811702237E+00    0.3626769805E-01    0.3157399499E+00    0.4516987991E+00
    0.2700000000E+04    0.5428549038E-01    0.1818077077E+00    0.3529076329E-01    0.3273723882E+00    0.4535818171E+00
    0.2900000000E+04    0.5257732671E-01    0.1823665332E+00    0.3433481845E-01    0.3383743277E+00    0.4552512996E+00
    0.3100000000E+04    0.5093565979E-01    0.1828606337E+00    0.3340331620E-01    0.3488028818E+00    0.4567438656E+00
    0.3300000000E+04    0.4936048430E-01    0.1833007959E+00    0.3249836273E-01    0.3587064217E+00    0.4580880048E+00
    0.3500000000E+04    0.4785075144E-01    0.1836955070E+00    0.3162113418E-01    0.3681265136E+00    0.4593062441E+00
    0.3700000000E+04    0.4640475436E-01    0.1840515414E+00    0.3077215801E-01    0.3770993270E+00    0.4604166512E+00
    0.3900000000E+04    0.4502038327E-01    0.1843743751E+00    0.2995150663E-01    0.3856566785E+00    0.4614339013E+00
    0.4100000000E+04    0.4369529603E-01    0.1846684853E+00    0.2915893296E-01    0.3938268196E+00    0.4623700488E+00
    0.4300000000E+04    0.4242703303E-01    0.1849375695E+00    0.2839396647E-01    0.4016350406E+00    0.4632350960E+00
    0.4500000000E+04    0.4121309463E-01    0.1851847098E+00    0.2765598221E-01    0.4091041402E+00    0.4640374188E+00
    0.4700000000E+04    0.4005099334E-01    0.1854124966E+00    0.2694425074E-01    0.4162547966E+00    0.4647840889E+00
    0.4900000000E+04    0.3893828855E-01    0.1856231237E+00    0.2625797462E-01    0.4231058638E+00    0.4654811224E+00
    0.1000000000E+04    0.6955016002E-01    0.1700168520E+00    0.4273318430E-01    0.1973012744E+00    0.4208135336E+00
    0.3000000000E+04    0.5174815135E-01    0.1826209376E+00    0.3386585449E-01    0.3436570756E+00    0.4560177553E+00
    0.5000000000E+04    0.3839971575E-01    0.1857225980E+00    0.2592412125E-01    0.4264245045E+00    0.4658126653E+00
    0.7000000000E+04    0.2969553659E-01    0.1871477559E+00    0.2037593655E-01    0.4806064097E+00    0.4707722511E+00
    0.9000000000E+04    0.2382646298E-01    0.1879637711E+00    0.1646776410E-01    0.5181847835E+00    0.4738695929E+00
    0.1100000000E+05    0.1971098465E-01    0.1884883340E+00    0.1364123328E-01    0.5453334746E+00    0.4760299909E+00
    0.1300000000E+05    0.1672080474E-01    0.1888505433E+00    0.1153986403E-01    0.5656077423E+00    0.4776442270E+00
    0.1500000000E+05    0.1447999193E-01    0.1891130385E+00    0.9937369388E-02    0.5811755391E+00    0.4789085511E+00
    0.1700000000E+05    0.1275534800E-01    0.1893099636E+00    0.8687329190E-02    0.5934157030E+00    0.4799333588E+00
    0.1900000000E+05    0.1139707451E-01    0.1894615369E+00    0.7692605303E-02    0.6032366663E+00    0.4807859685E+00
    0.2100000000E+05    0.1030581623E-01    0.1895804973E+00    0.6887090672E-02    0.6112556194E+00    0.4815099941E+00
    0.2300000000E+05    0.9413748618E-02    0.1896752699E+00    0.6224693880E-02    0.6179034097E+00    0.4821350603E+00
    0.2500000000E+05    0.8673362780E-02    0.1897516470E+00    0.5672552467E-02    0.6234881269E+00    0.4826820689E+00
    0.2700000000E+05    0.8050605019E-02    0.1898137399E+00    0.5206753431E-02    0.6282348495E+00    0.4831662344E+00
    0.2900000000E+05    0.7520557921E-02    0.1898645454E+00    0.4809571022E-02    0.6323111889E+00    0.4835989249E+00
    0.3100000000E+05    0.7064648924E-02    0.1899062976E+00    0.4467643585E-02    0.6358441228E+00    0.4839888249E+00
    0.3300000000E+05    0.6668802343E-02    0.1899406950E+00    0.4170744662E-02    0.6389313431E+00    0.4843426965E+00
    0.3500000000E+05    0.6322188937E-02    0.1899690504E+00    0.3910938335E-02    0.6416490660E+00    0.4846658933E+00
    0.3700000000E+05    0.6016362771E-02    0.1899923937E+00    0.3681988097E-02    0.6440575102E+00    0.4849627152E+00
    0.3900000000E+05    0.5744654472E-02    0.1900115434E+00    0.3478936202E-02    0.6462048052E+00    0.4852366614E+00
    0.4100000000E+05    0.5501737546E-02    0.1900271577E+00    0.3297799689E-02    0.6481298244E+00    0.4854906115E+00
    0.4300000000E+05    0.5283313621E-02    0.1900397712E+00    0.3135347587E-02    0.6498642685E+00    0.4857269601E+00
    0.4500000000E+05    0.5085880773E-02    0.1900498222E+00    0.2988935453E-02    0.6514342188E+00    0.4859477168E+00
    0.4700000000E+05    0.4906560776E-02    0.1900576733E+00    0.2856381001E-02    0.6528613084E+00    0.4861545824E+00
    0.4900000000E+05    0.4742968725E-02    0.1900636266E+00    0.2735869545E-02    0.6541636164E+00    0.4863490075E+00
    0.1000000000E+05    0.2159649375E-01    0.1882521149E+00    0.1494538437E-01    0.5327981753E+00    0.4750358220E+00
    0.3000000000E+05    0.7284304335E-02    0.1898864365E+00    0.4632401676E-02    0.6341388947E+00    0.4837987630E+00
    0.5000000000E+05    0.4666435316E-02    0.1900659723E+00    0.2679645136E-02    0.6547728283E+00    0.4864419510E+00
    0.7000000000E+05    0.3616016418E-02    0.1900574999E+00    0.1922662242E-02    0.6630787870E+00    0.4878747062E+00
    0.9000000000E+05    0.3042739301E-02    0.1899999250E+00    0.1528066410E-02    0.6674779033E+00    0.4888210927E+00
    0.1100000000E+06    0.2675491028E-02    0.1899275089E+00    0.1286485621E-02    0.6701801262E+00    0.4895131533E+00
    0.1300000000E+06    0.2416380062E-02    0.1898515679E+00    0.1122972421E-02    0.6720013492E+00    0.4900516945E+00
    0.1500000000E+06    0.2221536680E-02    0.1897763798E+00    0.1004493556E-02    0.6733092094E+00    0.4904887115E+00
    0.1700000000E+06    0.2068304767E-02    0.1897036272E+00    0.9143310960E-03    0.6742927154E+00    0.4908541985E+00
    0.1900000000E+06    0.1943748818E-02    0.1896339247E+00    0.8431447611E-03    0.6750586306E+00    0.4911668841E+00
    0.2100000000E+06    0.1839910874E-02    0.1895674188E+00    0.7853134120E-03    0.6756716795E+00    0.4914391749E+00
    0.2300000000E+06    0.1751604804E-02    0.1895040466E+00    0.7372523333E-03    0.6761733234E+00    0.4916796757E+00
    0.2500000000E+06    0.1675292642E-02    0.1894436539E+00    0.6965668473E-03    0.6765913214E+00    0.4918945778E+00
    0.2700000000E+06    0.1608469434E-02    0.1893860520E+00    0.6615952708E-03    0.6769449445E+00    0.4920884720E+00
    0.2900000000E+06    0.1549306267E-02    0.1893310443E+00    0.6311474374E-03    0.6772479811E+00    0.4922648481E+00
    0.3100000000E+06    0.1496432885E-02    0.1892784402E+00    0.6043477510E-03    0.6775105536E+00    0.4924264162E+00
    0.3300000000E+06    0.1448799845E-02    0.1892280602E+00    0.5805370916E-03    0.6777402579E+00    0.4925753195E+00
    0.3500000000E+06    0.1405588053E-02    0.1891797390E+00    0.5592093439E-03    0.6779429041E+00    0.4927132795E+00
    0.3700000000E+06    0.1366147590E-02    0.1891333251E+00    0.5399690781E-03    0.6781230111E+00    0.4928416985E+00
    0.3900000000E+06    0.1329955271E-02    0.1890886808E+00    0.5225025873E-03    0.6782841460E+00    0.4929617324E+00
    0.4100000000E+06    0.1296584527E-02    0.1890456811E+00    0.5065576019E-03    0.6784291616E+00    0.4930743448E+00
    0.4300000000E+06    0.1265683584E-02    0.1890042127E+00    0.4919287878E-03    0.6785603666E+00    0.4931803464E+00
    0.4500000000E+06    0.1236959388E-02    0.1889641726E+00    0.4784471883E-03    0.6786796492E+00    0.4932804255E+00
    0.4700000000E+06    0.1210165553E-02    0.1889254674E+00    0.4659724095E-03    0.6787885685E+00    0.4933751710E+00
    0.4900000000E+06    0.1185093207E-02    0.1888880121E+00    0.4543867491E-03    0.6788884232E+00    0.4934650903E+00
    0.1000000000E+06    0.2841413849E-02    0.1899646093E+00    0.1394336929E-02    0.6689741909E+00    0.4891909536E+00
    0.3000000000E+06    0.1522155225E-02    0.1893044533E+00    0.6173369724E-03    0.6773838016E+00    0.4923473379E+00
    0.5000000000E+06    0.1173145807E-02    0.1888697286E+00    0.4488956388E-03    0.6789352990E+00    0.4935083800E+00
    0.7000000000E+06    0.9923240447E-03    0.1885540999E+00    0.3680796614E-03    0.6795882544E+00    0.4942024330E+00
    0.9000000000E+06    0.8768075756E-03    0.1883062081E+00    0.3186281034E-03    0.6799491270E+00    0.4946912995E+00
    0.1100000000E+07    0.7947231037E-03    0.1881018972E+00    0.2844747849E-03    0.6801786997E+00    0.4950660573E+00
    0.1300000000E+07    0.7324750892E-03    0.1879279930E+00    0.2591047334E-03    0.6803379467E+00    0.4953686331E+00
    0.1500000000E+07    0.6831449439E-03    0.1877765282E+00    0.2393176555E-03    0.6804550971E+00    0.4956216454E+00
    0.1700000000E+07    0.6427870412E-03    0.1876423156E+00    0.2233360789E-03    0.6805450254E+00    0.4958386280E+00
    0.1900000000E+07    0.6089632712E-03    0.1875217876E+00    0.2100842059E-03    0.6806163200E+00    0.4960282961E+00
    0.2100000000E+07    0.5800742677E-03    0.1874123842E+00    0.1988681109E-03    0.6806742895E+00    0.4961965781E+00
    0.2300000000E+07    0.5550210901E-03    0.1873122054E+00    0.1892176323E-03    0.6807223943E+00    0.4963476829E+00
    0.2500000000E+07    0.5330201456E-03    0.1872198017E+00    0.1808014995E-03    0.6807629873E+00    0.4964847018E+00
    0.2700000000E+07    0.5134955001E-03    0.1871340420E+00    0.1733787299E-03    0.6807977253E+00    0.4966099700E+00
    0.2900000000E+07    0.4960130095E-03    0.1870540262E+00    0.1667693041E-03    0.6808278086E+00    0.4967252928E+00
    0.3100000000E+07    0.4802383291E-03    0.1869790265E+00    0.1608356925E-03    0.6808541292E+00    0.4968320939E+00
    0.3300000000E+07    0.4659091979E-03    0.1869084455E+00    0.1554707887E-03    0.6808773632E+00    0.4969315150E+00
    0.3500000000E+07    0.4528165910E-03    0.1868417871E+00    0.1505897798E-03    0.6808980333E+00    0.4970244853E+00
    0.3700000000E+07    0.4407915706E-03    0.1867786348E+00    0.1461245222E-03    0.6809165495E+00    0.4971117707E+00
    0.3900000000E+07    0.4296959025E-03    0.1867186350E+00    0.1420195579E-03    0.6809332385E+00    0.4971940101E+00
    0.4100000000E+07    0.4194152272E-03    0.1866614856E+00    0.1382292351E-03    0.6809483634E+00    0.4972717413E+00
    0.4300000000E+07    0.4098540013E-03    0.1866069260E+00    0.1347155888E-03    0.6809621390E+00    0.4973454215E+00
    0.4500000000E+07    0.4009316908E-03    0.1865547297E+00    0.1314467554E-03    0.6809747420E+00    0.4974154423E+00
    0.4700000000E+07    0.3925798667E-03    0.1865046991E+00    0.1283957685E-03    0.6809863194E+00    0.4974821420E+00
    0.4900000000E+07    0.3847399588E-03    0.1864566603E+00    0.1255396336E-03    0.6809969943E+00    0.4975458143E+00
    0.1000000000E+07    0.8326641937E-03    0.1881995933E+00    0.3001612442E-03    0.6800753592E+00    0.4948896759E+00
    0.3000000000E+07    0.4879300190E-03    0.1870159394E+00    0.1637253185E-03    0.6808413928E+00    0.4967796815E+00
    0.5000000000E+07    0.3809959258E-03    0.1864333391E+00    0.1241783552E-03    0.6810020266E+00    0.4975765967E+00
    0.7000000000E+07    0.3237444449E-03    0.1860420656E+00    0.1035862898E-03    0.6810737362E+00    0.4980815911E+00
    0.9000000000E+07    0.2866776128E-03    0.1857466928E+00    0.9048973142E-04    0.6811149925E+00    0.4984502427E+00
    0.1100000000E+08    0.2601539260E-03    0.1855092057E+00    0.8124086861E-04    0.6811420687E+00    0.4987400210E+00
    0.1300000000E+08    0.2399558206E-03    0.1853105263E+00    0.7427097547E-04    0.6811613412E+00    0.4989784555E+00
    0.1500000000E+08    0.2239056845E-03    0.1851397000E+00    0.6878027059E-04    0.6811758371E+00    0.4991808426E+00
    0.1700000000E+08    0.2107500257E-03    0.1849898487E+00    0.6431299748E-04    0.6811871844E+00    0.4993565509E+00
    0.1900000000E+08    0.1997092945E-03    0.1848563674E+00    0.6058808913E-04    0.6811963399E+00    0.4995117290E+00
    0.2100000000E+08    0.1902697365E-03    0.1847360209E+00    0.5742163892E-04    0.6812039041E+00    0.4996506274E+00
    0.2300000000E+08    0.1820771116E-03    0.1846264486E+00    0.5468763678E-04    0.6812102740E+00    0.4997763053E+00
    0.2500000000E+08    0.1748781474E-03    0.1845258748E+00    0.5229649199E-04    0.6812157229E+00    0.4998910369E+00
    0.2700000000E+08    0.1684862917E-03    0.1844329302E+00    0.5018254700E-04    0.6812204454E+00    0.4999965584E+00
