  Pressure (Pa) 2mC6-400 (mol/kg) 3mC6-400 (mol/kg) 33mC5-400 (mol/kg) 23mC5-400 (mol/kg) C7-400 (mol/kg)
    0.1000000000E+01    0.7918451855E-03    0.2095526841E-02    0.1934429081E-03    0.6535838433E-03    0.8501322655E-02
    0.3000000000E+01    0.2307811623E-02    0.6083475295E-02    0.5639529930E-03    0.1953226868E-02    0.2468389725E-01
    0.5000000000E+01    0.3740644856E-02    0.9821986688E-02    0.9143700737E-03    0.3242955503E-02    0.3985919797E-01
    0.7000000000E+01    0.5097998158E-02    0.1333395263E-01    0.1246553254E-02    0.4522909531E-02    0.5411952170E-01
    0.9000000000E+01    0.6386591929E-02    0.1663954062E-01    0.1562134237E-02    0.5793226038E-02    0.6754619043E-01
    0.1100000000E+02    0.7612351049E-02    0.1975658776E-01    0.1862550874E-02    0.7054039481E-02    0.8021113678E-01
    0.1300000000E+02    0.8780518784E-02    0.2270092813E-01    0.2149074969E-02    0.8305481747E-02    0.9217822233E-01
    0.1500000000E+02    0.9895751769E-02    0.2548666648E-01    0.2422835472E-02    0.9547682220E-02    0.1035043398E+00
    0.1700000000E+02    0.1096219962E-01    0.2812640818E-01    0.2684837906E-02    0.1078076784E-01    0.1142403394E+00
    0.1900000000E+02    0.1198357199E-01    0.3063145347E-01    0.2935980729E-02    0.1200486314E-01    0.1244318111E+00
    0.2100000000E+02    0.1296319535E-01    0.3301196226E-01    0.3177069181E-02    0.1322009036E-01    0.1341197487E+00
    0.2300000000E+02    0.1390406116E-01    0.3527709459E-01    0.3408827044E-02    0.1442656941E-01    0.1433411153E+00
    0.2500000000E+02    0.1480886710E-01    0.3743513075E-01    0.3631906680E-02    0.1562441802E-01    0.1521293276E+00
    0.2700000000E+02    0.1568005228E-01    0.3949357455E-01    0.3846897630E-02    0.1681375173E-01    0.1605146717E+00
    0.2900000000E+02    0.1651982764E-01    0.4145924238E-01    0.4054334004E-02    0.1799468395E-01    0.1685246621E+00
    0.3100000000E+02    0.1733020206E-01    0.4333834021E-01    0.4254700859E-02    0.1916732602E-01    0.1761843519E+00
    0.3300000000E+02    0.1811300511E-01    0.4513653055E-01    0.4448439726E-02    0.2033178726E-01    0.1835166027E+00
    0.3500000000E+02    0.1886990670E-01    0.4685899072E-01    0.4635953408E-02    0.2148817499E-01    0.1905423193E+00
    0.3700000000E+02    0.1960243426E-01    0.4851046380E-01    0.4817610154E-02    0.2263659463E-01    0.1972806551E+00
    0.3900000000E+02    0.2031198779E-01    0.5009530329E-01    0.4993747318E-02    0.2377714968E-01    0.2037491922E+00
    0.4100000000E+02    0.2099985297E-01    0.5161751235E-01    0.5164674560E-02    0.2490994179E-01    0.2099640996E+00
    0.4300000000E+02    0.2166721277E-01    0.5308077842E-01    0.5330676657E-02    0.2603507082E-01    0.2159402723E+00
    0.4500000000E+02    0.2231515762E-01    0.5448850377E-01    0.5492015985E-02    0.2715263483E-01    0.2216914551E+00
    0.4700000000E+02    0.2294469443E-01    0.5584383263E-01    0.5648934708E-02    0.2826273019E-01    0.2272303514E+00
    0.4900000000E+02    0.2355675456E-01    0.5714967518E-01    0.5801656715E-02    0.2936545156E-01    0.2325687205E+00
    0.1000000000E+02    0.7006983337E-02    0.1822059866E-01    0.1714155011E-02    0.6424812340E-02    0.7396971225E-01
    0.3000000000E+02    0.1692857166E-01    0.4240924662E-01    0.4155372564E-02    0.1858203437E-01    0.1723968173E+00
    0.5000000000E+02    0.2385650303E-01    0.5778488986E-01    0.5876509347E-02    0.2991407612E-01    0.2351661454E+00
    0.7000000000E+02    0.2911319955E-01    0.6845160661E-01    0.7196263739E-02    0.4052128659E-01    0.2788523146E+00
    0.9000000000E+02    0.3330525131E-01    0.7630229438E-01    0.8260123522E-02    0.5048786351E-01    0.3111081177E+00
    0.1100000000E+03    0.3675533125E-01    0.8233230091E-01    0.9145187010E-02    0.5988499392E-01    0.3359619086E+00
    0.1300000000E+03    0.3965470969E-01    0.8711567105E-01    0.9897039747E-02    0.6877328872E-01    0.3557394009E+00
    0.1500000000E+03    0.4212649555E-01    0.9100707356E-01    0.1054498655E-01    0.7720468980E-01    0.3718790289E+00
    0.1700000000E+03    0.4425515324E-01    0.9423765875E-01    0.1110913327E-01    0.8522397824E-01    0.3853192570E+00
    0.1900000000E+03    0.4610161001E-01    0.9696464372E-01    0.1160399781E-01    0.9286997766E-01    0.3966990535E+00
    0.2100000000E+03    0.4771158823E-01    0.9929875819E-01    0.1204049490E-01    0.1001765223E+00    0.4064689234E+00
    0.2300000000E+03    0.4912049615E-01    0.1013202924E+00    0.1242709749E-01    0.1071732420E+00    0.4149558715E+00
    0.2500000000E+03    0.5035645427E-01    0.1030889160E+00    0.1277055363E-01    0.1138862024E+00    0.4224031749E+00
    0.2700000000E+03    0.5144225485E-01    0.1046499206E+00    0.1307634965E-01    0.1203384323E+00    0.4289956834E+00
    0.2900000000E+03    0.5239668126E-01    0.1060383190E+00    0.1334902165E-01    0.1265503588E+00    0.4348764460E+00
    0.3100000000E+03    0.5323542711E-01    0.1072816157E+00    0.1359237226E-01    0.1325401700E+00    0.4401579525E+00
    0.3300000000E+03    0.5397175554E-01    0.1084017243E+00    0.1380962615E-01    0.1383241181E+00    0.4449299211E+00
    0.3500000000E+03    0.5461698468E-01    0.1094163255E+00    0.1400354450E-01    0.1439167744E+00    0.4492648141E+00
    0.3700000000E+03    0.5518085295E-01    0.1103398458E+00    0.1417651120E-01    0.1493312452E+00    0.4532218196E+00
    0.3900000000E+03    0.5567179953E-01    0.1111841768E+00    0.1433059913E-01    0.1545793541E+00    0.4568497750E+00
    0.4100000000E+03    0.5609718326E-01    0.1119592105E+00    0.1446762190E-01    0.1596717989E+00    0.4601893489E+00
    0.4300000000E+03    0.5646345614E-01    0.1126732449E+00    0.1458917499E-01    0.1646182850E+00    0.4632746907E+00
    0.4500000000E+03    0.5677630263E-01    0.1133332938E+00    0.1469666877E-01    0.1694276401E+00    0.4661346950E+00
    0.4700000000E+03    0.5704075273E-01    0.1139453271E+00    0.1479135537E-01    0.1741079139E+00    0.4687939814E+00
    0.4900000000E+03    0.5726127482E-01    0.1145144592E+00    0.1487435081E-01    0.1786664638E+00    0.4712736621E+00
    0.1000000000E+03    0.3510898395E-01    0.7950224397E-01    0.8721653506E-02    0.5525359804E-01    0.3242875708E+00
    0.3000000000E+03    0.5282963473E-01    0.1066766226E+00    0.1347414854E-01    0.1295719709E+00    0.4375860388E+00
    0.5000000000E+03    0.5735632483E-01    0.1147843387E+00    0.1491178046E-01    0.1809022209E+00    0.4724519410E+00
    0.7000000000E+03    0.5772116704E-01    0.1187353179E+00    0.1524083589E-01    0.2205978253E+00    0.4899240415E+00
    0.9000000000E+03    0.5640039137E-01    0.1210848410E+00    0.1508919354E-01    0.2532282090E+00    0.5005915978E+00
    0.1100000000E+04    0.5435624646E-01    0.1226448680E+00    0.1470998520E-01    0.2810451220E+00    0.5078557851E+00
    0.1300000000E+04    0.5202151879E-01    0.1237562701E+00    0.1422190375E-01    0.3053187144E+00    0.5131589477E+00
    0.1500000000E+04    0.4960724371E-01    0.1245878160E+00    0.1368583738E-01    0.3268391445E+00    0.5172221621E+00
    0.1700000000E+04    0.4722064455E-01    0.1252328302E+00    0.1313481409E-01    0.3461359784E+00    0.5204479386E+00
    0.1900000000E+04    0.4491651485E-01    0.1257471988E+00    0.1258731236E-01    0.3635854143E+00    0.5230795473E+00
    0.2100000000E+04    0.4272173677E-01    0.1261664702E+00    0.1205375310E-01    0.3794673371E+00    0.5252731372E+00
    0.2300000000E+04    0.4064780648E-01    0.1265143531E+00    0.1153989811E-01    0.3939978074E+00    0.5271337848E+00
    0.2500000000E+04    0.3869757624E-01    0.1268072757E+00    0.1104873073E-01    0.4073486298E+00    0.5287349449E+00
    0.2700000000E+04    0.3686903236E-01    0.1270569858E+00    0.1058154377E-01    0.4196597107E+00    0.5301296046E+00
    0.2900000000E+04    0.3515747690E-01    0.1272721090E+00    0.1013859151E-01    0.4310471922E+00    0.5313570064E+00
    0.3100000000E+04    0.3355681464E-01    0.1274591230E+00    0.9719491498E-02    0.4416090018E+00    0.5324468717E+00
    0.3300000000E+04    0.3206032179E-01    0.1276229869E+00    0.9323477656E-02    0.4514287650E+00    0.5334221500E+00
    0.3500000000E+04    0.3066110639E-01    0.1277675628E+00    0.8949562166E-02    0.4605786421E+00    0.5343008611E+00
    0.3700000000E+04    0.2935238161E-01    0.1278959025E+00    0.8596640082E-02    0.4691214409E+00    0.5350973647E+00
    0.3900000000E+04    0.2812762360E-01    0.1280104499E+00    0.8263557181E-02    0.4771122253E+00    0.5358232542E+00
    0.4100000000E+04    0.2698065748E-01    0.1281131852E+00    0.7949153830E-02    0.4845995658E+00    0.5364879989E+00
    0.4300000000E+04    0.2590569844E-01    0.1282057295E+00    0.7652293001E-02    0.4916265298E+00    0.5370994141E+00
    0.4500000000E+04    0.2489736484E-01    0.1282894230E+00    0.7371877704E-02    0.4982314781E+00    0.5376640115E+00
    0.4700000000E+04    0.2395067412E-01    0.1283653828E+00    0.7106861307E-02    0.5044487141E+00    0.5381872626E+00
    0.4900000000E+04    0.2306102842E-01    0.1284345477E+00    0.6856253086E-02    0.5103090206E+00    0.5386738011E+00
    0.1000000000E+04    0.5543433009E-01    0.1219363336E+00    0.1491871718E-01    0.2676438940E+00    0.5045342911E+00
    0.3000000000E+04    0.3434369616E-01    0.1273687898E+00    0.9926101103E-02    0.4364257816E+00    0.5319175631E+00
    0.5000000000E+04    0.2263626091E-01    0.1284668353E+00    0.6736058351E-02    0.5131140939E+00    0.5389045612E+00
    0.7000000000E+04    0.1627876947E-01    0.1288969273E+00    0.4893106323E-02    0.5559274290E+00    0.5423037656E+00
    0.9000000000E+04    0.1249875115E-01    0.1291050819E+00    0.3754409138E-02    0.5825668395E+00    0.5443744129E+00
    0.1100000000E+05    0.1007074260E-01    0.1292150578E+00    0.3003776326E-02    0.6004493657E+00    0.5457943676E+00
    0.1300000000E+05    0.8412969825E-02    0.1292743126E+00    0.2481936813E-02    0.6131508721E+00    0.5468424755E+00
    0.1500000000E+05    0.7225035187E-02    0.1293046905E+00    0.2103261954E-02    0.6225728361E+00    0.5476559437E+00
    0.1700000000E+05    0.6340092854E-02    0.1293175152E+00    0.1818740383E-02    0.6298056622E+00    0.5483107091E+00
    0.1900000000E+05    0.5659657760E-02    0.1293191697E+00    0.1598753868E-02    0.6355134589E+00    0.5488524699E+00
    0.2100000000E+05    0.5122572063E-02    0.1293134824E+00    0.1424558424E-02    0.6401210476E+00    0.5493105122E+00
    0.2300000000E+05    0.4689205444E-02    0.1293028621E+00    0.1283817639E-02    0.6439114643E+00    0.5497045475E+00
    0.2500000000E+05    0.4332933149E-02    0.1292888819E+00    0.1168135682E-02    0.6470798413E+00    0.5500483764E+00
    0.2700000000E+05    0.4035305996E-02    0.1292726009E+00    0.1071631344E-02    0.6497646818E+00    0.5503519775E+00
    0.2900000000E+05    0.3783193343E-02    0.1292547495E+00    0.9900803930E-03    0.6520667876E+00    0.5506227639E+00
    0.3100000000E+05    0.3567029212E-02    0.1292358413E+00    0.9203815088E-03    0.6540611352E+00    0.5508663703E+00
    0.3300000000E+05    0.3379700097E-02    0.1292162435E+00    0.8602133688E-03    0.6558045661E+00    0.5510871642E+00
    0.3500000000E+05    0.3215819206E-02    0.1291962218E+00    0.8078084324E-03    0.6573409042E+00    0.5512885899E+00
    0.3700000000E+05    0.3071240713E-02    0.1291759704E+00    0.7618000703E-03    0.6587044468E+00    0.5514734038E+00
    0.3900000000E+05    0.2942727203E-02    0.1291556323E+00    0.7211170076E-03    0.6599223965E+00    0.5516438419E+00
    0.4100000000E+05    0.2827717314E-02    0.1291353132E+00    0.6849090099E-03    0.6610165906E+00    0.5518017387E+00
    0.4300000000E+05    0.2724160397E-02    0.1291150914E+00    0.6524936412E-03    0.6620047507E+00    0.5519486160E+00
    0.4500000000E+05    0.2630396879E-02    0.1290950247E+00    0.6233175077E-03    0.6629014010E+00    0.5520857478E+00
    0.4700000000E+05    0.2545070392E-02    0.1290751557E+00    0.5969276328E-03    0.6637185532E+00    0.5522142096E+00
    0.4900000000E+05    0.2467062320E-02    0.1290555155E+00    0.5729500343E-03    0.6644662234E+00    0.5523349172E+00
    0.1000000000E+05    0.1116138298E-01    0.1291684759E+00    0.3342918264E-02    0.5923243260E+00    0.5451434100E+00
    0.3000000000E+05    0.3671109834E-02    0.1292454017E+00    0.9539097153E-03    0.6530985232E+00    0.5507476666E+00
    0.5000000000E+05    0.2430505726E-02    0.1290457883E+00    0.5617664925E-03    0.6648166861E+00    0.5523926129E+00
    0.7000000000E+05    0.1922918102E-02    0.1288658712E+00    0.4109902843E-03    0.6696547718E+00    0.5532820320E+00
    0.9000000000E+05    0.1638922472E-02    0.1287124662E+00    0.3316738296E-03    0.6722821188E+00    0.5538706845E+00
    0.1100000000E+06    0.1453172921E-02    0.1285803519E+00    0.2825176106E-03    0.6739296033E+00    0.5543025711E+00
    0.1300000000E+06    0.1319955483E-02    0.1284647580E+00    0.2488432411E-03    0.6750587749E+00    0.5546398975E+00
    0.1500000000E+06    0.1218486150E-02    0.1283621502E+00    0.2241731531E-03    0.6758809954E+00    0.5549146583E+00
    0.1700000000E+06    0.1137872238E-02    0.1282699553E+00    0.2052139555E-03    0.6765065572E+00    0.5551452859E+00
    0.1900000000E+06    0.1071808652E-02    0.1281862726E+00    0.1901145229E-03    0.6769985932E+00    0.5553432850E+00
    0.2100000000E+06    0.1016368124E-02    0.1281096685E+00    0.1777534874E-03    0.6773958316E+00    0.5555162782E+00
    0.2300000000E+06    0.9689628901E-03    0.1280390393E+00    0.1674109518E-03    0.6777233428E+00    0.5556695553E+00
    0.2500000000E+06    0.9278102397E-03    0.1279735185E+00    0.1586028520E-03    0.6779980702E+00    0.5558069256E+00
    0.2700000000E+06    0.8916370054E-03    0.1279124146E+00    0.1509911684E-03    0.6782318758E+00    0.5559312162E+00
    0.2900000000E+06    0.8595064657E-03    0.1278551669E+00    0.1443323366E-03    0.6784333121E+00    0.5560445789E+00
    0.3100000000E+06    0.8307120130E-03    0.1278013153E+00    0.1384461430E-03    0.6786087009E+00    0.5561486865E+00
    0.3300000000E+06    0.8047091818E-03    0.1277504769E+00    0.1331961961E-03    0.6787628165E+00    0.5562448638E+00
    0.3500000000E+06    0.7810707022E-03    0.1277023304E+00    0.1284772321E-03    0.6788993319E+00    0.5563341760E+00
    0.3700000000E+06    0.7594558994E-03    0.1276566033E+00    0.1242066141E-03    0.6790211189E+00    0.5564174922E+00
    0.3900000000E+06    0.7395893286E-03    0.1276130624E+00    0.1203184875E-03    0.6791304560E+00    0.5564955295E+00
    0.4100000000E+06    0.7212455206E-03    0.1275715067E+00    0.1167596704E-03    0.6792291735E+00    0.5565688866E+00
    0.4300000000E+06    0.7042378758E-03    0.1275317620E+00    0.1134867024E-03    0.6793187591E+00    0.5566380678E+00
    0.4500000000E+06    0.6884104359E-03    0.1274936759E+00    0.1104636881E-03    0.6794004342E+00    0.5567035019E+00
    0.4700000000E+06    0.6736316906E-03    0.1274571145E+00    0.1076606945E-03    0.6794752113E+00    0.5567655562E+00
    0.4900000000E+06    0.6597898509E-03    0.1274219596E+00    0.1050525425E-03    0.6795439367E+00    0.5568245476E+00
    0.1000000000E+06    0.1537514004E-02    0.1286440764E+00    0.3045377723E-03    0.6731906387E+00    0.5541013066E+00
    0.3000000000E+06    0.8447294447E-03    0.1278278421E+00    0.1413020374E-03    0.6785239339E+00    0.5560976998E+00
    0.5000000000E+06    0.6531898122E-03    0.1274048763E+00    0.1038147319E-03    0.6795762573E+00    0.5568529821E+00
    0.7000000000E+06    0.5530061629E-03    0.1271168098E+00    0.8547581097E-04    0.6800306957E+00    0.5573120281E+00
    0.9000000000E+06    0.4887671120E-03    0.1268978343E+00    0.7414693137E-04    0.6802857717E+00    0.5576390918E+00
    0.1100000000E+07    0.4430369368E-03    0.1267210262E+00    0.6627935582E-04    0.6804498316E+00    0.5578919819E+00
    0.1300000000E+07    0.4083232991E-03    0.1265726838E+00    0.6041427787E-04    0.6805646057E+00    0.5580975574E+00
    0.1500000000E+07    0.3807973777E-03    0.1264448697E+00    0.5582867266E-04    0.6806496281E+00    0.5582704190E+00
    0.1700000000E+07    0.3582698287E-03    0.1263325691E+00    0.5211843554E-04    0.6807152797E+00    0.5584193602E+00
    0.1900000000E+07    0.3393853865E-03    0.1262324091E+00    0.4903784926E-04    0.6807675956E+00    0.5585500751E+00
    0.2100000000E+07    0.3232539014E-03    0.1261420115E+00    0.4642785443E-04    0.6808103279E+00    0.5586664566E+00
    0.2300000000E+07    0.3092631853E-03    0.1260596360E+00    0.4418038073E-04    0.6808459343E+00    0.5587712803E+00
    0.2500000000E+07    0.2969764240E-03    0.1259839706E+00    0.4221911179E-04    0.6808760934E+00    0.5588665930E+00
    0.2700000000E+07    0.2860723965E-03    0.1259140013E+00    0.4048842916E-04    0.6809019917E+00    0.5589539461E+00
    0.2900000000E+07    0.2763088668E-03    0.1258489284E+00    0.3894672097E-04    0.6809244917E+00    0.5590345432E+00
    0.3100000000E+07    0.2674992248E-03    0.1257881096E+00    0.3756215601E-04    0.6809442365E+00    0.5591093362E+00
    0.3300000000E+07    0.2594970564E-03    0.1257310216E+00    0.3630991730E-04    0.6809617150E+00    0.5591790904E+00
    0.3500000000E+07    0.2521856453E-03    0.1256772322E+00    0.3517033489E-04    0.6809773059E+00    0.5592444304E+00
    0.3700000000E+07    0.2454706445E-03    0.1256263802E+00    0.3412759182E-04    0.6809913075E+00    0.5593058722E+00
    0.3900000000E+07    0.2392748440E-03    0.1255781607E+00    0.3316880644E-04    0.6810039575E+00    0.5593638472E+00
    0.4100000000E+07    0.2335343629E-03    0.1255323143E+00    0.3228336824E-04    0.6810154483E+00    0.5594187193E+00
    0.4300000000E+07    0.2281958264E-03    0.1254886177E+00    0.3146244839E-04    0.6810259367E+00    0.5594707983E+00
    0.4500000000E+07    0.2232142417E-03    0.1254468782E+00    0.3069863326E-04    0.6810355525E+00    0.5595203504E+00
    0.4700000000E+07    0.2185513771E-03    0.1254069277E+00    0.2998564596E-04    0.6810444035E+00    0.5595676056E+00
    0.4900000000E+07    0.2141745077E-03    0.1253686189E+00    0.2931813196E-04    0.6810525805E+00    0.5596127641E+00
    0.1000000000E+07    0.4641815893E-03    0.1268052025E+00    0.6989706129E-04    0.6803757904E+00    0.5577727210E+00
    0.3000000000E+07    0.2717947610E-03    0.1258180224E+00    0.3823648574E-04    0.6809346750E+00    0.5590726136E+00
    0.5000000000E+07    0.2120843547E-03    0.1253500390E+00    0.2899996450E-04    0.6810564407E+00    0.5596346127E+00
    0.7000000000E+07    0.1801295069E-03    0.1250399011E+00    0.2418579832E-04    0.6811118856E+00    0.5599945492E+00
    0.9000000000E+07    0.1594486713E-03    0.1248075343E+00    0.2112323005E-04    0.6811442437E+00    0.5602590010E+00
    0.1100000000E+08    0.1446549748E-03    0.1246216425E+00    0.1896035014E-04    0.6811657237E+00    0.5604678001E+00
    0.1300000000E+08    0.1333924504E-03    0.1244666974E+00    0.1733048545E-04    0.6811811598E+00    0.5606401752E+00
    0.1500000000E+08    0.1244449245E-03    0.1243338519E+00    0.1604661573E-04    0.6811928664E+00    0.5607868715E+00
    0.1700000000E+08    0.1171124767E-03    0.1242175835E+00    0.1500214290E-04    0.6812020974E+00    0.5609144995E+00
    0.1900000000E+08    0.1109599065E-03    0.1241142119E+00    0.1413131936E-04    0.6812095940E+00    0.5610274137E+00
    0.2100000000E+08    0.1057004489E-03    0.1240211610E+00    0.1339112271E-04    0.6812158245E+00    0.5611286332E+00
    0.2300000000E+08    0.1011364067E-03    0.1239365570E+00    0.1275207392E-04    0.6812210996E+00    0.5612203365E+00
    0.2500000000E+08    0.9712645184E-04    0.1238589943E+00    0.1219321394E-04    0.6812256345E+00    0.5613041471E+00
    0.2700000000E+08    0.9356650086E-04    0.1237873913E+00    0.1169918290E-04    0.6812295831E+00    0.5613813065E+00
