  Pressure (Pa) 2mC6-400 (mol/kg) 3mC6-400 (mol/kg) 33mC5-400 (mol/kg) 23mC5-400 (mol/kg) C7-400 (mol/kg)
    0.1000000000E+01    0.7929534160E-03    0.2623111263E-02    0.4519932528E-03    0.2801891788E-03    0.6810623214E-02
    0.3000000000E+01    0.2317234869E-02    0.7635665387E-02    0.1321215867E-02    0.8378279058E-03    0.1982803667E-01
    0.5000000000E+01    0.3765427892E-02    0.1235941721E-01    0.2147533139E-02    0.1391852156E-02    0.3209905528E-01
    0.7000000000E+01    0.5144081036E-02    0.1681895169E-01    0.2934656561E-02    0.1942307267E-02    0.4368712041E-01
    0.9000000000E+01    0.6458998630E-02    0.2103613113E-01    0.3685874391E-02    0.2489237790E-02    0.5464865300E-01
    0.1100000000E+02    0.7715343029E-02    0.2503046229E-01    0.4404109903E-02    0.3032687509E-02    0.6503399967E-01
    0.1300000000E+02    0.8917720541E-02    0.2881940555E-01    0.5091970337E-02    0.3572699458E-02    0.7488822970E-01
    0.1500000000E+02    0.1007025399E-01    0.3241863671E-01    0.5751788227E-02    0.4109315934E-02    0.8425180978E-01
    0.1700000000E+02    0.1117664429E-01    0.3584226958E-01    0.6385656450E-02    0.4642578518E-02    0.9316117775E-01
    0.1900000000E+02    0.1224022283E-01    0.3910304599E-01    0.6995458071E-02    0.5172528085E-02    0.1016492325E+00
    0.2100000000E+02    0.1326399637E-01    0.4221249878E-01    0.7582891875E-02    0.5699204824E-02    0.1097457542E+00
    0.2300000000E+02    0.1425068554E-01    0.4518109205E-01    0.8149494276E-02    0.6222648248E-02    0.1174777659E+00
    0.2500000000E+02    0.1520275801E-01    0.4801834236E-01    0.8696658196E-02    0.6742897211E-02    0.1248698457E+00
    0.2700000000E+02    0.1612245719E-01    0.5073292372E-01    0.9225649389E-02    0.7259989922E-02    0.1319443983E+00
    0.2900000000E+02    0.1701182714E-01    0.5333275902E-01    0.9737620597E-02    0.7773963958E-02    0.1387218896E+00
    0.3100000000E+02    0.1787273422E-01    0.5582509971E-01    0.1023362387E-01    0.8284856276E-02    0.1452210532E+00
    0.3300000000E+02    0.1870688604E-01    0.5821659557E-01    0.1071462133E-01    0.8792703228E-02    0.1514590699E+00
    0.3500000000E+02    0.1951584801E-01    0.6051335600E-01    0.1118149456E-01    0.9297540571E-02    0.1574517258E+00
    0.3700000000E+02    0.2030105788E-01    0.6272100389E-01    0.1163505288E-01    0.9799403482E-02    0.1632135512E+00
    0.3900000000E+02    0.2106383855E-01    0.6484472319E-01    0.1207604065E-01    0.1029832657E-01    0.1687579433E+00
    0.4100000000E+02    0.2180540937E-01    0.6688930106E-01    0.1250514363E-01    0.1079434388E-01    0.1740972752E+00
    0.4300000000E+02    0.2252689616E-01    0.6885916513E-01    0.1292299468E-01    0.1128748892E-01    0.1792429917E+00
    0.4500000000E+02    0.2322934003E-01    0.7075841677E-01    0.1333017882E-01    0.1177779466E-01    0.1842056953E+00
    0.4700000000E+02    0.2391370532E-01    0.7259086064E-01    0.1372723766E-01    0.1226529353E-01    0.1889952222E+00
    0.4900000000E+02    0.2458088657E-01    0.7436003111E-01    0.1411467340E-01    0.1275001748E-01    0.1936207110E+00
    0.1000000000E+02    0.7094192462E-02    0.2306001679E-01    0.4048945095E-02    0.2761395043E-02    0.5991041750E-01
    0.3000000000E+02    0.1744572829E-01    0.5459193723E-01    0.9987556103E-02    0.8029793046E-02    0.1420051541E+00
    0.5000000000E+02    0.2490829521E-01    0.7522192526E-01    0.1430492965E-01    0.1299134869E-01    0.1958746211E+00
    0.7000000000E+02    0.3072778698E-01    0.8982573124E-01    0.1770210480E-01    0.1767970279E-01    0.2341196426E+00
    0.9000000000E+02    0.3549316270E-01    0.1007398040E+00    0.2050900340E-01    0.2212356971E-01    0.2627843187E+00
    0.1100000000E+03    0.3952223528E-01    0.1092259328E+00    0.2290298704E-01    0.2634761836E-01    0.2851358428E+00
    0.1300000000E+03    0.4300422911E-01    0.1160264550E+00    0.2498935624E-01    0.3037316958E-01    0.3030981894E+00
    0.1500000000E+03    0.4606074027E-01    0.1216072173E+00    0.2683565572E-01    0.3421875321E-01    0.3178798657E+00
    0.1700000000E+03    0.4877479039E-01    0.1262756880E+00    0.2848796759E-01    0.3790055683E-01    0.3302792603E+00
    0.1900000000E+03    0.5120589944E-01    0.1302432063E+00    0.2997933525E-01    0.4143279010E-01    0.3408456626E+00
    0.2100000000E+03    0.5339846265E-01    0.1336599638E+00    0.3133442960E-01    0.4482798260E-01    0.3499697990E+00
    0.2300000000E+03    0.5538668125E-01    0.1366357169E+00    0.3257228743E-01    0.4809722913E-01    0.3579374708E+00
    0.2500000000E+03    0.5719761025E-01    0.1392525968E+00    0.3370799945E-01    0.5125039280E-01    0.3649627438E+00
    0.2700000000E+03    0.5885312374E-01    0.1415733280E+00    0.3475379628E-01    0.5429627444E-01    0.3712092547E+00
    0.2900000000E+03    0.6037122976E-01    0.1436466691E+00    0.3571977365E-01    0.5724275447E-01    0.3768043252E+00
    0.3100000000E+03    0.6176697905E-01    0.1455111166E+00    0.3661439297E-01    0.6009691245E-01    0.3818485720E+00
    0.3300000000E+03    0.6305311137E-01    0.1471974841E+00    0.3744483696E-01    0.6286512835E-01    0.3864226075E+00
    0.3500000000E+03    0.6424052703E-01    0.1487307399E+00    0.3821726902E-01    0.6555316859E-01    0.3905918110E+00
    0.3700000000E+03    0.6533863863E-01    0.1501313382E+00    0.3893702667E-01    0.6816625968E-01    0.3944097923E+00
    0.3900000000E+03    0.6635563884E-01    0.1514162018E+00    0.3960876891E-01    0.7070915131E-01    0.3979209457E+00
    0.4100000000E+03    0.6729870786E-01    0.1525994576E+00    0.4023659042E-01    0.7318617076E-01    0.4011623652E+00
    0.4300000000E+03    0.6817417670E-01    0.1536929952E+00    0.4082411153E-01    0.7560126990E-01    0.4041652980E+00
    0.4500000000E+03    0.6898765749E-01    0.1547068953E+00    0.4137455017E-01    0.7795806603E-01    0.4069562625E+00
    0.4700000000E+03    0.6974414884E-01    0.1556497642E+00    0.4189078002E-01    0.8025987738E-01    0.4095579185E+00
    0.4900000000E+03    0.7044812194E-01    0.1565289955E+00    0.4237537821E-01    0.8250975422E-01    0.4119897500E+00
    0.1000000000E+03    0.3758583514E-01    0.1052315087E+00    0.2174986807E-01    0.2426166742E-01    0.2746070997E+00
    0.3000000000E+03    0.6108355482E-01    0.1446029231E+00    0.3617552760E-01    0.5868095965E-01    0.3793898580E+00
    0.5000000000E+03    0.7078168490E-01    0.1569467779E+00    0.4260654951E-01    0.8361610389E-01    0.4131473381E+00
    0.7000000000E+03    0.7548394913E-01    0.1631348096E+00    0.4602700396E-01    0.1035937813E+00    0.4304835434E+00
    0.9000000000E+03    0.7776095436E-01    0.1668933705E+00    0.4793490374E-01    0.1205512085E+00    0.4412524912E+00
    0.1100000000E+04    0.7870553531E-01    0.1694329348E+00    0.4898210710E-01    0.1354761967E+00    0.4486854164E+00
    0.1300000000E+04    0.7886179944E-01    0.1712698803E+00    0.4950019229E-01    0.1489344932E+00    0.4541728356E+00
    0.1500000000E+04    0.7852848684E-01    0.1726631848E+00    0.4967513643E-01    0.1612781718E+00    0.4584179398E+00
    0.1700000000E+04    0.7788133250E-01    0.1737576262E+00    0.4961878425E-01    0.1727404496E+00    0.4618169802E+00
    0.1900000000E+04    0.7702920083E-01    0.1746407336E+00    0.4940205796E-01    0.1834835227E+00    0.4646113697E+00
    0.2100000000E+04    0.7604229427E-01    0.1753686592E+00    0.4907185031E-01    0.1936246918E+00    0.4669571440E+00
    0.2300000000E+04    0.7496734705E-01    0.1759791444E+00    0.4866023324E-01    0.2032515572E+00    0.4689599450E+00
    0.2500000000E+04    0.7383627299E-01    0.1764985277E+00    0.4818976247E-01    0.2124313216E+00    0.4706940249E+00
    0.2700000000E+04    0.7267131476E-01    0.1769457684E+00    0.4767667485E-01    0.2212167314E+00    0.4722132081E+00
    0.2900000000E+04    0.7148822763E-01    0.1773348737E+00    0.4713289013E-01    0.2296500106E+00    0.4735575343E+00
    0.3100000000E+04    0.7029831191E-01    0.1776764239E+00    0.4656730549E-01    0.2377655466E+00    0.4747574526E+00
    0.3300000000E+04    0.6910974660E-01    0.1779785646E+00    0.4598665632E-01    0.2455917726E+00    0.4758365621E+00
    0.3500000000E+04    0.6792848561E-01    0.1782476719E+00    0.4539610281E-01    0.2531525176E+00    0.4768134582E+00
    0.3700000000E+04    0.6675887266E-01    0.1784888107E+00    0.4479963825E-01    0.2604679952E+00    0.4777030078E+00
    0.3900000000E+04    0.6560407115E-01    0.1787060563E+00    0.4420037879E-01    0.2675555402E+00    0.4785172510E+00
    0.4100000000E+04    0.6446636946E-01    0.1789027259E+00    0.4360077254E-01    0.2744301665E+00    0.4792660508E+00
    0.4300000000E+04    0.6334740108E-01    0.1790815479E+00    0.4300275284E-01    0.2811049962E+00    0.4799575711E+00
    0.4500000000E+04    0.6224830536E-01    0.1792447873E+00    0.4240785212E-01    0.2875915926E+00    0.4805986319E+00
    0.4700000000E+04    0.6116984629E-01    0.1793943408E+00    0.4181728765E-01    0.2939002235E+00    0.4811949792E+00
    0.4900000000E+04    0.6011250118E-01    0.1795318085E+00    0.4123202675E-01    0.3000400703E+00    0.4817514917E+00
    0.1000000000E+04    0.7835784448E-01    0.1682744644E+00    0.4854068109E-01    0.1282257646E+00    0.4452756345E+00
    0.3000000000E+04    0.7089355117E-01    0.1775110361E+00    0.4685235910E-01    0.2337455978E+00    0.4741739340E+00
    0.5000000000E+04    0.5959183394E-01    0.1795964432E+00    0.4094163167E-01    0.3030493136E+00    0.4820161373E+00
    0.7000000000E+04    0.5027935360E-01    0.1804977715E+00    0.3552843024E-01    0.3560217462E+00    0.4859720021E+00
    0.9000000000E+04    0.4283223724E-01    0.1809850634E+00    0.3093245883E-01    0.3982438493E+00    0.4884406937E+00
    0.1100000000E+05    0.3685937555E-01    0.1812804118E+00    0.2708685351E-01    0.4325789991E+00    0.4901607073E+00
    0.1300000000E+05    0.3202874693E-01    0.1814718614E+00    0.2387302125E-01    0.4608731290E+00    0.4914430698E+00
    0.1500000000E+05    0.2808484169E-01    0.1816012210E+00    0.2117824920E-01    0.4844377130E+00    0.4924442293E+00
    0.1700000000E+05    0.2483418472E-01    0.1816908335E+00    0.1890693511E-01    0.5042471420E+00    0.4932525149E+00
    0.1900000000E+05    0.2213016442E-01    0.1817536840E+00    0.1698100967E-01    0.5210425448E+00    0.4939220182E+00
    0.2100000000E+05    0.1986104823E-01    0.1817978078E+00    0.1533764286E-01    0.5353959467E+00    0.4944879224E+00
    0.2300000000E+05    0.1794104650E-01    0.1818284259E+00    0.1392651087E-01    0.5477536914E+00    0.4949742017E+00
    0.2500000000E+05    0.1630374820E-01    0.1818490655E+00    0.1270730466E-01    0.5584672839E+00    0.4953978087E+00
    0.2700000000E+05    0.1489730914E-01    0.1818621869E+00    0.1164764987E-01    0.5678158806E+00    0.4957710992E+00
    0.2900000000E+05    0.1368091513E-01    0.1818695521E+00    0.1072143581E-01    0.5760229487E+00    0.4961033081E+00
    0.3100000000E+05    0.1262216894E-01    0.1818724518E+00    0.9907497228E-02    0.5832687416E+00    0.4964014876E+00
    0.3300000000E+05    0.1169514744E-01    0.1818718497E+00    0.9188583168E-02    0.5896997220E+00    0.4966711222E+00
    0.3500000000E+05    0.1087894688E-01    0.1818684770E+00    0.8550552703E-02    0.5954357352E+00    0.4969165470E+00
    0.3700000000E+05    0.1015658564E-01    0.1818628970E+00    0.7981747436E-02    0.6005755091E+00    0.4971412364E+00
    0.3900000000E+05    0.9514170281E-02    0.1818555485E+00    0.7472500782E-02    0.6052009006E+00    0.4973480107E+00
    0.4100000000E+05    0.8940257073E-02    0.1818467779E+00    0.7014752863E-02    0.6093801985E+00    0.4975391847E+00
    0.4300000000E+05    0.8425359341E-02    0.1818368604E+00    0.6601746952E-02    0.6131707072E+00    0.4977166775E+00
    0.4500000000E+05    0.7961564720E-02    0.1818260173E+00    0.6227789067E-02    0.6166207838E+00    0.4978820949E+00
    0.4700000000E+05    0.7542235583E-02    0.1818144276E+00    0.5888056599E-02    0.6197714526E+00    0.4980367915E+00
    0.4900000000E+05    0.7161773000E-02    0.1818022371E+00    0.5578445185E-02    0.6226576940E+00    0.4981819188E+00
    0.1000000000E+05    0.3968418287E-01    0.1811496166E+00    0.2892312842E-01    0.4162659765E+00    0.4893695445E+00
    0.3000000000E+05    0.1313358892E-01    0.1818714935E+00    0.1030159161E-01    0.5797561521E+00    0.4962562777E+00
    0.5000000000E+05    0.6984604127E-02    0.1817959547E+00    0.5433817835E-02    0.6240111921E+00    0.4982512077E+00
    0.7000000000E+05    0.4641008776E-02    0.1816586867E+00    0.3492889555E-02    0.6426007975E+00    0.4993132049E+00
    0.9000000000E+05    0.3478912816E-02    0.1815211930E+00    0.2512523255E-02    0.6524418701E+00    0.5000106273E+00
    0.1100000000E+06    0.2804226394E-02    0.1813935057E+00    0.1940667057E-02    0.6584214924E+00    0.5005204053E+00
    0.1300000000E+06    0.2369534641E-02    0.1812766730E+00    0.1573510089E-02    0.6623988869E+00    0.5009179042E+00
    0.1500000000E+06    0.2068125018E-02    0.1811698034E+00    0.1321123248E-02    0.6652182260E+00    0.5012414974E+00
    0.1700000000E+06    0.1847465930E-02    0.1810716668E+00    0.1138559696E-02    0.6673128646E+00    0.5015131339E+00
    0.1900000000E+06    0.1679059188E-02    0.1809810993E+00    0.1001190623E-02    0.6689262397E+00    0.5017464421E+00
    0.2100000000E+06    0.1546249758E-02    0.1808970944E+00    0.8945321405E-03    0.6702048582E+00    0.5019504175E+00
    0.2300000000E+06    0.1438713685E-02    0.1808188056E+00    0.8095755888E-03    0.6712418223E+00    0.5021312856E+00
    0.2500000000E+06    0.1349738570E-02    0.1807455261E+00    0.7404568703E-03    0.6720989588E+00    0.5022935199E+00
    0.2700000000E+06    0.1274784450E-02    0.1806766649E+00    0.6832121274E-03    0.6728188458E+00    0.5024404356E+00
    0.2900000000E+06    0.1210677124E-02    0.1806117253E+00    0.6350755353E-03    0.6734317133E+00    0.5025745532E+00
    0.3100000000E+06    0.1155133676E-02    0.1805502876E+00    0.5940641837E-03    0.6739595895E+00    0.5026978305E+00
    0.3300000000E+06    0.1106471733E-02    0.1804919944E+00    0.5587227890E-03    0.6744188887E+00    0.5028118170E+00
    0.3500000000E+06    0.1063424930E-02    0.1804365395E+00    0.5279612671E-03    0.6748220825E+00    0.5029177583E+00
    0.3700000000E+06    0.1025022139E-02    0.1803836586E+00    0.5009482842E-03    0.6751788102E+00    0.5030166701E+00
    0.3900000000E+06    0.9905062877E-03    0.1803331226E+00    0.4770396574E-03    0.6754966353E+00    0.5031093909E+00
    0.4100000000E+06    0.9592784637E-03    0.1802847312E+00    0.4557290738E-03    0.6757815733E+00    0.5031966202E+00
    0.4300000000E+06    0.9308586188E-03    0.1802383086E+00    0.4366134686E-03    0.6760384663E+00    0.5032789476E+00
    0.4500000000E+06    0.9048574054E-03    0.1801936999E+00    0.4193682490E-03    0.6762712546E+00    0.5033568743E+00
    0.4700000000E+06    0.8809556462E-03    0.1801507674E+00    0.4037292675E-03    0.6764831765E+00    0.5034308296E+00
    0.4900000000E+06    0.8588891343E-03    0.1801093889E+00    0.3894795061E-03    0.6766769174E+00    0.5035011842E+00
    0.1000000000E+06    0.3101162792E-02    0.1814559770E+00    0.2192322350E-02    0.6557623345E+00    0.5002829961E+00
    0.3000000000E+06    0.1181951587E-02    0.1805805924E+00    0.6137802812E-03    0.6737051409E+00    0.5026374419E+00
    0.5000000000E+06    0.8484736938E-03    0.1800892476E+00    0.3828181454E-03    0.6767676863E+00    0.5035351134E+00
    0.7000000000E+06    0.6980530084E-03    0.1797466184E+00    0.2916084921E-03    0.6780198124E+00    0.5040845305E+00
    0.9000000000E+06    0.6081226356E-03    0.1794829023E+00    0.2419334510E-03    0.6787020538E+00    0.5044780110E+00
    0.1100000000E+07    0.5465932998E-03    0.1792682622E+00    0.2101754567E-03    0.6791326847E+00    0.5047834756E+00
    0.1300000000E+07    0.5010417723E-03    0.1790871548E+00    0.1878404982E-03    0.6794300671E+00    0.5050325911E+00
    0.1500000000E+07    0.4655310367E-03    0.1789304389E+00    0.1711139257E-03    0.6796482884E+00    0.5052426260E+00
    0.1700000000E+07    0.4368201325E-03    0.1787922768E+00    0.1580198276E-03    0.6798155874E+00    0.5054240089E+00
    0.1900000000E+07    0.4129694091E-03    0.1786687096E+00    0.1474272960E-03    0.6799481583E+00    0.5055835097E+00
    0.2100000000E+07    0.3927369756E-03    0.1785569279E+00    0.1386394761E-03    0.6800559603E+00    0.5057257666E+00
    0.2300000000E+07    0.3752855238E-03    0.1784548651E+00    0.1312018762E-03    0.6801454592E+00    0.5058540932E+00
    0.2500000000E+07    0.3600269818E-03    0.1783609558E+00    0.1248044173E-03    0.6802210388E+00    0.5059709374E+00
    0.2700000000E+07    0.3465344152E-03    0.1782739860E+00    0.1192276638E-03    0.6802857779E+00    0.5060781579E+00
    0.2900000000E+07    0.3344892629E-03    0.1781929949E+00    0.1143115514E-03    0.6803419037E+00    0.5061771985E+00
    0.3100000000E+07    0.3236482841E-03    0.1781172089E+00    0.1099363113E-03    0.6803910681E+00    0.5062692028E+00
    0.3300000000E+07    0.3138220615E-03    0.1780459957E+00    0.1060103581E-03    0.6804345226E+00    0.5063550914E+00
    0.3500000000E+07    0.3048605658E-03    0.1779788321E+00    0.1024623342E-03    0.6804732332E+00    0.5064356167E+00
    0.3700000000E+07    0.2966431932E-03    0.1779152800E+00    0.9923572777E-04    0.6805079578E+00    0.5065114007E+00
    0.3900000000E+07    0.2890717233E-03    0.1778549691E+00    0.9628513824E-04    0.6805392993E+00    0.5065829641E+00
    0.4100000000E+07    0.2820652353E-03    0.1777975832E+00    0.9357362586E-04    0.6805677438E+00    0.5066507466E+00
    0.4300000000E+07    0.2755563703E-03    0.1777428504E+00    0.9107079310E-04    0.6805936877E+00    0.5067151229E+00
    0.4500000000E+07    0.2694885362E-03    0.1776905351E+00    0.8875137096E-04    0.6806174572E+00    0.5067764150E+00
    0.4700000000E+07    0.2638137875E-03    0.1776404321E+00    0.8659416070E-04    0.6806393236E+00    0.5068349016E+00
    0.4900000000E+07    0.2584911940E-03    0.1775923609E+00    0.8458123009E-04    0.6806595144E+00    0.5068908254E+00
    0.1000000000E+07    0.5748120608E-03    0.1793706252E+00    0.2245132914E-03    0.6789391423E+00    0.5046392864E+00
    0.3000000000E+07    0.3289311560E-03    0.1781544936E+00    0.1120625982E-03    0.6803672701E+00    0.5062240182E+00
    0.5000000000E+07    0.2559507648E-03    0.1775690368E+00    0.8362400393E-04    0.6806690428E+00    0.5069178937E+00
    0.7000000000E+07    0.2172073431E-03    0.1771788648E+00    0.6930211301E-04    0.6808057098E+00    0.5073648531E+00
    0.9000000000E+07    0.1922106077E-03    0.1768855904E+00    0.6033025633E-04    0.6808853684E+00    0.5076944373E+00
    0.1100000000E+08    0.1743571527E-03    0.1766504623E+00    0.5404846023E-04    0.6809382498E+00    0.5079553409E+00
    0.1300000000E+08    0.1607771191E-03    0.1764541632E+00    0.4934050441E-04    0.6809762729E+00    0.5081711633E+00
    0.1500000000E+08    0.1499942620E-03    0.1762856517E+00    0.4564579684E-04    0.6810051313E+00    0.5083551313E+00
    0.1700000000E+08    0.1411608595E-03    0.1761380188E+00    0.4264811775E-04    0.6810279057E+00    0.5085154008E+00
    0.1900000000E+08    0.1337505935E-03    0.1760066512E+00    0.4015387975E-04    0.6810464169E+00    0.5086573551E+00
    0.2100000000E+08    0.1274170248E-03    0.1758883149E+00    0.3803711547E-04    0.6810618142E+00    0.5087847327E+00
    0.2300000000E+08    0.1219215021E-03    0.1757806542E+00    0.3621188643E-04    0.6810748610E+00    0.5089002351E+00
    0.2500000000E+08    0.1170935212E-03    0.1756819001E+00    0.3461730338E-04    0.6810860854E+00    0.5090058779E+00
    0.2700000000E+08    0.1128075681E-03    0.1755906900E+00    0.3320886929E-04    0.6810958654E+00    0.5091032044E+00
