  Pressure (Pa) 2mC6-400 (mol/kg) 3mC6-400 (mol/kg) 33mC5-400 (mol/kg) 23mC5-400 (mol/kg) C7-400 (mol/kg)
    0.1000000000E+01    0.7921020991E-03    0.3666980111E-02    0.3870136503E-03    0.1868303599E-03    0.6800703016E-02
    0.3000000000E+01    0.2310128353E-02    0.1064451379E-01    0.1129058429E-02    0.5588874980E-03    0.1974421531E-01
    0.5000000000E+01    0.3747085082E-02    0.1718451479E-01    0.1831943060E-02    0.9288264016E-03    0.3188002353E-01
    0.7000000000E+01    0.5110617767E-02    0.2332734225E-01    0.2499381359E-02    0.1296670598E-02    0.4328251787E-01
    0.9000000000E+01    0.6407429557E-02    0.2910852556E-01    0.3134627788E-02    0.1662443252E-02    0.5401719313E-01
    0.1100000000E+02    0.7643420970E-02    0.3455946634E-01    0.3740545690E-02    0.2026167173E-02    0.6414194103E-01
    0.1300000000E+02    0.8823805597E-02    0.3970802152E-01    0.4319663776E-02    0.2387864826E-02    0.7370812363E-01
    0.1500000000E+02    0.9953206485E-02    0.4457899019E-01    0.4874223180E-02    0.2747558330E-02    0.8276146976E-01
    0.1700000000E+02    0.1103573683E-01    0.4919452237E-01    0.5406216838E-02    0.3105269473E-02    0.9134282770E-01
    0.1900000000E+02    0.1207506788E-01    0.5357446393E-01    0.5917422624E-02    0.3461019712E-02    0.9948880025E-01
    0.2100000000E+02    0.1307448634E-01    0.5773664894E-01    0.6409431346E-02    0.3814830186E-02    0.1072322831E+00
    0.2300000000E+02    0.1403694311E-01    0.6169714857E-01    0.6883670522E-02    0.4166721713E-02    0.1146029233E+00
    0.2500000000E+02    0.1496509485E-01    0.6547048397E-01    0.7341424644E-02    0.4516714805E-02    0.1216275114E+00
    0.2700000000E+02    0.1586133955E-01    0.6906980900E-01    0.7783852519E-02    0.4864829669E-02    0.1283303176E+00
    0.2900000000E+02    0.1672784713E-01    0.7250706766E-01    0.8212002172E-02    0.5211086213E-02    0.1347333823E+00
    0.3100000000E+02    0.1756658580E-01    0.7579313030E-01    0.8626823691E-02    0.5555504052E-02    0.1408567666E+00
    0.3300000000E+02    0.1837934485E-01    0.7893791178E-01    0.9029180342E-02    0.5898102515E-02    0.1467187702E+00
    0.3500000000E+02    0.1916775450E-01    0.8195047438E-01    0.9419858214E-02    0.6238900649E-02    0.1523361210E+00
    0.3700000000E+02    0.1993330314E-01    0.8483911766E-01    0.9799574621E-02    0.6577917222E-02    0.1577241404E+00
    0.3900000000E+02    0.2067735241E-01    0.8761145722E-01    0.1016898543E-01    0.6915170733E-02    0.1628968887E+00
    0.4100000000E+02    0.2140115039E-01    0.9027449385E-01    0.1052869150E-01    0.7250679413E-02    0.1678672925E+00
    0.4300000000E+02    0.2210584321E-01    0.9283467444E-01    0.1087924431E-01    0.7584461231E-02    0.1726472568E+00
    0.4500000000E+02    0.2279248526E-01    0.9529794587E-01    0.1122115091E-01    0.7916533899E-02    0.1772477643E+00
    0.4700000000E+02    0.2346204823E-01    0.9766980261E-01    0.1155487835E-01    0.8246914877E-02    0.1816789635E+00
    0.4900000000E+02    0.2411542904E-01    0.9995532906E-01    0.1188085753E-01    0.8575621376E-02    0.1859502460E+00
    0.1000000000E+02    0.7032687076E-02    0.3187345826E-01    0.3441087510E-02    0.1844559892E-02    0.5915245611E-01
    0.3000000000E+02    0.1715057180E-01    0.7416835768E-01    0.8421023079E-02    0.5383523756E-02    0.1378288518E+00
    0.5000000000E+02    0.2443631276E-01    0.1010672045E+00    0.1204106713E-01    0.8739352009E-02    0.1880286640E+00
    0.7000000000E+02    0.3017590829E-01    0.1197509527E+00    0.1492072402E-01    0.1193007302E-01    0.2230096067E+00
    0.9000000000E+02    0.3494678431E-01    0.1335237828E+00    0.1733666693E-01    0.1497133056E-01    0.2488784376E+00
    0.1100000000E+03    0.3904890288E-01    0.1441209406E+00    0.1943195230E-01    0.1787677097E-01    0.2688455784E+00
    0.1300000000E+03    0.4265579041E-01    0.1525425726E+00    0.2128903826E-01    0.2065835672E-01    0.2847633481E+00
    0.1500000000E+03    0.4587659105E-01    0.1594064859E+00    0.2295966673E-01    0.2332662236E-01    0.2977771395E+00
    0.1700000000E+03    0.4878470500E-01    0.1651153586E+00    0.2447859797E-01    0.2589088473E-01    0.3086342753E+00
    0.1900000000E+03    0.5143224638E-01    0.1699431475E+00    0.2587051606E-01    0.2835941688E-01    0.3178437117E+00
    0.2100000000E+03    0.5385788913E-01    0.1740828831E+00    0.2715376139E-01    0.3073959278E-01    0.3257644303E+00
    0.2300000000E+03    0.5609138841E-01    0.1776746042E+00    0.2834247351E-01    0.3303800839E-01    0.3326571319E+00
    0.2500000000E+03    0.5815632285E-01    0.1808224458E+00    0.2944788640E-01    0.3526058347E-01    0.3387158776E+00
    0.2700000000E+03    0.6007183323E-01    0.1836055012E+00    0.3047914719E-01    0.3741264778E-01    0.3440882134E+00
    0.2900000000E+03    0.6185376870E-01    0.1860849565E+00    0.3144385466E-01    0.3949901419E-01    0.3488883973E+00
    0.3100000000E+03    0.6351546893E-01    0.1883089104E+00    0.3234842590E-01    0.4152404114E-01    0.3532063411E+00
    0.3300000000E+03    0.6506831456E-01    0.1903157138E+00    0.3319835413E-01    0.4349168615E-01    0.3571138077E+00
    0.3500000000E+03    0.6652212533E-01    0.1921363323E+00    0.3399839498E-01    0.4540555190E-01    0.3606688002E+00
    0.3700000000E+03    0.6788545525E-01    0.1937960522E+00    0.3475270459E-01    0.4726892594E-01    0.3639187318E+00
    0.3900000000E+03    0.6916581625E-01    0.1953157322E+00    0.3546494430E-01    0.4908481528E-01    0.3669027539E+00
    0.4100000000E+03    0.7036985097E-01    0.1967127377E+00    0.3613836163E-01    0.5085597629E-01    0.3696534939E+00
    0.4300000000E+03    0.7150346865E-01    0.1980016469E+00    0.3677585400E-01    0.5258494097E-01    0.3721983700E+00
    0.4500000000E+03    0.7257195364E-01    0.1991947912E+00    0.3738001972E-01    0.5427403988E-01    0.3745605990E+00
    0.4700000000E+03    0.7358005323E-01    0.2003026754E+00    0.3795319931E-01    0.5592542224E-01    0.3767599777E+00
    0.4900000000E+03    0.7453204968E-01    0.2013343053E+00    0.3849750953E-01    0.5754107372E-01    0.3788134957E+00
    0.1000000000E+03    0.3706859426E-01    0.1391450241E+00    0.1841828299E-01    0.1644024403E-01    0.2594621616E+00
    0.3000000000E+03    0.6269889628E-01    0.1872262772E+00    0.3190329479E-01    0.4051893893E-01    0.3511027972E+00
    0.5000000000E+03    0.7498823515E-01    0.2018239944E+00    0.3875944595E-01    0.5833608007E-01    0.3797902199E+00
    0.7000000000E+03    0.8193964083E-01    0.2090363328E+00    0.4286744746E-01    0.7274140693E-01    0.3943571889E+00
    0.9000000000E+03    0.8610186582E-01    0.2133757429E+00    0.4550054348E-01    0.8502278347E-01    0.4033488953E+00
    0.1100000000E+04    0.8863371211E-01    0.2162871366E+00    0.4724955325E-01    0.9585967155E-01    0.4095305587E+00
    0.1300000000E+04    0.9014269911E-01    0.2183811640E+00    0.4842956500E-01    0.1056502729E+00    0.4140823761E+00
    0.1500000000E+04    0.9097700924E-01    0.2199619601E+00    0.4922407857E-01    0.1146464490E+00    0.4175976782E+00
    0.1700000000E+04    0.9134939435E-01    0.2211986079E+00    0.4974700385E-01    0.1230170011E+00    0.4204093094E+00
    0.1900000000E+04    0.9139639080E-01    0.2221928602E+00    0.5007262111E-01    0.1308803265E+00    0.4227193272E+00
    0.2100000000E+04    0.9120910718E-01    0.2230097373E+00    0.5025131506E-01    0.1383225693E+00    0.4246579464E+00
    0.2300000000E+04    0.9085030193E-01    0.2236927906E+00    0.5031838529E-01    0.1454083248E+00    0.4263131109E+00
    0.2500000000E+04    0.9036436019E-01    0.2242723202E+00    0.5029924085E-01    0.1521872673E+00    0.4277465038E+00
    0.2700000000E+04    0.8978337703E-01    0.2247700775E+00    0.5021259647E-01    0.1586984226E+00    0.4290027581E+00
    0.2900000000E+04    0.8913100247E-01    0.2252020920E+00    0.5007251116E-01    0.1649730194E+00    0.4301150240E+00
    0.3100000000E+04    0.8842494748E-01    0.2255804440E+00    0.4988972905E-01    0.1710364493E+00    0.4311084765E+00
    0.3300000000E+04    0.8767866141E-01    0.2259144142E+00    0.4967258528E-01    0.1769096483E+00    0.4320026035E+00
    0.3500000000E+04    0.8690248109E-01    0.2262112532E+00    0.4942763236E-01    0.1826100929E+00    0.4328127444E+00
    0.3700000000E+04    0.8610443434E-01    0.2264767095E+00    0.4916008238E-01    0.1881525334E+00    0.4335511509E+00
    0.3900000000E+04    0.8529081213E-01    0.2267154009E+00    0.4887412497E-01    0.1935495421E+00    0.4342277367E+00
    0.4100000000E+04    0.8446658259E-01    0.2269310799E+00    0.4857315968E-01    0.1988119305E+00    0.4348506165E+00
    0.4300000000E+04    0.8363569516E-01    0.2271268284E+00    0.4825996844E-01    0.2039490711E+00    0.4354265022E+00
    0.4500000000E+04    0.8280130686E-01    0.2273052009E+00    0.4793684520E-01    0.2089691491E+00    0.4359609974E+00
    0.4700000000E+04    0.8196595265E-01    0.2274683336E+00    0.4760569461E-01    0.2138793604E+00    0.4364588202E+00
    0.4900000000E+04    0.8113167525E-01    0.2276180263E+00    0.4726810802E-01    0.2186860709E+00    0.4369239744E+00
    0.1000000000E+04    0.8752535776E-01    0.2149612816E+00    0.4646169675E-01    0.9059239883E-01    0.4066971792E+00
    0.3000000000E+04    0.8878376007E-01    0.2253973407E+00    0.4998588822E-01    0.1680297305E+00    0.4306252715E+00
    0.5000000000E+04    0.8071546913E-01    0.2276883193E+00    0.4709732766E-01    0.2210524078E+00    0.4371453897E+00
    0.7000000000E+04    0.7271191977E-01    0.2286611340E+00    0.4357664187E-01    0.2640462713E+00    0.4404768287E+00
    0.9000000000E+04    0.6555246456E-01    0.2291786924E+00    0.4014442401E-01    0.3006399937E+00    0.4425859871E+00
    0.1100000000E+05    0.5926085083E-01    0.2294872100E+00    0.3695892876E-01    0.3324482718E+00    0.4440762612E+00
    0.1300000000E+05    0.5374618009E-01    0.2296835196E+00    0.3405218950E-01    0.3604092124E+00    0.4452015819E+00
    0.1500000000E+05    0.4890618864E-01    0.2298132972E+00    0.3141835946E-01    0.3851605788E+00    0.4460898570E+00
    0.1700000000E+05    0.4464772306E-01    0.2299008082E+00    0.2903888701E-01    0.4071795639E+00    0.4468135769E+00
    0.1900000000E+05    0.4089007039E-01    0.2299600772E+00    0.2689132886E-01    0.4268445185E+00    0.4474174077E+00
    0.2100000000E+05    0.3756430557E-01    0.2299997376E+00    0.2495285319E-01    0.4444660254E+00    0.4479306413E+00
    0.2300000000E+05    0.3461179704E-01    0.2300253706E+00    0.2320171642E-01    0.4603044174E+00    0.4483734341E+00
    0.2500000000E+05    0.3198267934E-01    0.2300407280E+00    0.2161786825E-01    0.4745807155E+00    0.4487601941E+00
    0.2700000000E+05    0.2963449222E-01    0.2300484136E+00    0.2018314921E-01    0.4874840941E+00    0.4491015422E+00
    0.2900000000E+05    0.2753101688E-01    0.2300502831E+00    0.1888128921E-01    0.4991773529E+00    0.4494055080E+00
    0.3100000000E+05    0.2564129505E-01    0.2300476887E+00    0.1769780889E-01    0.5098011450E+00    0.4496782918E+00
    0.3300000000E+05    0.2393880609E-01    0.2300416348E+00    0.1661987660E-01    0.5194773655E+00    0.4499247677E+00
    0.3500000000E+05    0.2240077768E-01    0.2300328796E+00    0.1563614962E-01    0.5283119307E+00    0.4501488260E+00
    0.3700000000E+05    0.2100760860E-01    0.2300220037E+00    0.1473661506E-01    0.5363970928E+00    0.4503536136E+00
    0.3900000000E+05    0.1974238507E-01    0.2300094571E+00    0.1391243853E-01    0.5438133857E+00    0.4505417058E+00
    0.4100000000E+05    0.1859047523E-01    0.2299955924E+00    0.1315582472E-01    0.5506312698E+00    0.4507152318E+00
    0.4300000000E+05    0.1753918874E-01    0.2299806887E+00    0.1245989131E-01    0.5569125286E+00    0.4508759684E+00
    0.4500000000E+05    0.1657749072E-01    0.2299649683E+00    0.1181855659E-01    0.5627114565E+00    0.4510254103E+00
    0.4700000000E+05    0.1569576098E-01    0.2299486099E+00    0.1122644002E-01    0.5680758722E+00    0.4511648245E+00
    0.4900000000E+05    0.1488559112E-01    0.2299317581E+00    0.1067877495E-01    0.5730479836E+00    0.4512952925E+00
    0.1000000000E+05    0.6230310265E-01    0.2293512428E+00    0.3851743638E-01    0.3170740712E+00    0.4433882882E+00
    0.3000000000E+05    0.2656118965E-01    0.2300494743E+00    0.1827559036E-01    0.5046149093E+00    0.4495454666E+00
    0.5000000000E+05    0.1450500211E-01    0.2299231848E+00    0.1042027099E-01    0.5753987655E+00    0.4513574671E+00
    0.7000000000E+05    0.9276129810E-02    0.2297450851E+00    0.6778979479E-02    0.6088996990E+00    0.4523001226E+00
    0.9000000000E+05    0.6571122859E-02    0.2295743154E+00    0.4815886879E-02    0.6274663792E+00    0.4529086796E+00
    0.1100000000E+06    0.4990851169E-02    0.2294186928E+00    0.3636497818E-02    0.6389458044E+00    0.4533495166E+00
    0.1300000000E+06    0.3983881558E-02    0.2292778250E+00    0.2870059956E-02    0.6466191363E+00    0.4536920558E+00
    0.1500000000E+06    0.3299462871E-02    0.2291498759E+00    0.2341834788E-02    0.6520529176E+00    0.4539708661E+00
    0.1700000000E+06    0.2810631588E-02    0.2290329711E+00    0.1960892701E-02    0.6560742393E+00    0.4542053419E+00
    0.1900000000E+06    0.2447544896E-02    0.2289254905E+00    0.1676111763E-02    0.6591551727E+00    0.4544073392E+00
    0.2100000000E+06    0.2169177336E-02    0.2288260933E+00    0.1456923796E-02    0.6615823229E+00    0.4545845888E+00
    0.2300000000E+06    0.1950117038E-02    0.2287336814E+00    0.1284112060E-02    0.6635386134E+00    0.4547423911E+00
    0.2500000000E+06    0.1773919114E-02    0.2286473539E+00    0.1145085023E-02    0.6651457049E+00    0.4548845279E+00
    0.2700000000E+06    0.1629543774E-02    0.2285663670E+00    0.1031300155E-02    0.6664873535E+00    0.4550137873E+00
    0.2900000000E+06    0.1509345013E-02    0.2284901016E+00    0.9367877260E-03    0.6676229337E+00    0.4551322808E+00
    0.3100000000E+06    0.1407883354E-02    0.2284180384E+00    0.8572682083E-03    0.6685956084E+00    0.4552416443E+00
    0.3300000000E+06    0.1321197812E-02    0.2283497379E+00    0.7896049342E-03    0.6694374475E+00    0.4553431700E+00
    0.3500000000E+06    0.1246344467E-02    0.2282848256E+00    0.7314537168E-03    0.6701727386E+00    0.4554378960E+00
    0.3700000000E+06    0.1181095418E-02    0.2282229796E+00    0.6810322163E-03    0.6708201881E+00    0.4555266682E+00
    0.3900000000E+06    0.1123737299E-02    0.2281639216E+00    0.6369643469E-03    0.6713944212E+00    0.4556101848E+00
    0.4100000000E+06    0.1072933327E-02    0.2281074093E+00    0.5981729841E-03    0.6719070269E+00    0.4556890287E+00
    0.4300000000E+06    0.1027626908E-02    0.2280532308E+00    0.5638045116E-03    0.6723672994E+00    0.4557636914E+00
    0.4500000000E+06    0.9869730406E-03    0.2280011994E+00    0.5331748145E-03    0.6727827741E+00    0.4558345912E+00
    0.4700000000E+06    0.9502886775E-03    0.2279511499E+00    0.5057299991E-03    0.6731596214E+00    0.4559020869E+00
    0.4900000000E+06    0.9170162724E-03    0.2279029355E+00    0.4810174037E-03    0.6735029397E+00    0.4559664884E+00
    0.1000000000E+06    0.5685369196E-02    0.2294945688E+00    0.4158151961E-02    0.6338280231E+00    0.4531445241E+00
    0.3000000000E+06    0.1456547873E-02    0.2284535739E+00    0.8953718469E-03    0.6681274154E+00    0.4551880161E+00
    0.5000000000E+06    0.9015128095E-03    0.2278794750E+00    0.4695664625E-03    0.6736633812E+00    0.4559976145E+00
    0.7000000000E+06    0.6924366316E-03    0.2274810974E+00    0.3205014268E-03    0.6758477396E+00    0.4565079988E+00
    0.9000000000E+06    0.5808340288E-03    0.2271752333E+00    0.2469101302E-03    0.6770124702E+00    0.4568811518E+00
    0.1100000000E+07    0.5100358179E-03    0.2269266710E+00    0.2034641967E-03    0.6777371664E+00    0.4571753191E+00
    0.1300000000E+07    0.4603283404E-03    0.2267171625E+00    0.1748409300E-03    0.6782325776E+00    0.4574181163E+00
    0.1500000000E+07    0.4230495075E-03    0.2265360113E+00    0.1545365515E-03    0.6785934143E+00    0.4576248217E+00
    0.1700000000E+07    0.3937774794E-03    0.2263764018E+00    0.1393499234E-03    0.6788684896E+00    0.4578047770E+00
    0.1900000000E+07    0.3700059457E-03    0.2262337205E+00    0.1275315591E-03    0.6790855101E+00    0.4579641118E+00
    0.2100000000E+07    0.3502003859E-03    0.2261046975E+00    0.1180476047E-03    0.6792613733E+00    0.4581070652E+00
    0.2300000000E+07    0.3333640150E-03    0.2259869301E+00    0.1102489126E-03    0.6794069737E+00    0.4582366908E+00
    0.2500000000E+07    0.3188183693E-03    0.2258786001E+00    0.1037076594E-03    0.6795296542E+00    0.4583552612E+00
    0.2700000000E+07    0.3060838572E-03    0.2257782985E+00    0.9813050271E-04    0.6796345467E+00    0.4584645135E+00
    0.2900000000E+07    0.2948107285E-03    0.2256849108E+00    0.9330957324E-04    0.6797253478E+00    0.4585658051E+00
    0.3100000000E+07    0.2847371684E-03    0.2255975401E+00    0.8909341240E-04    0.6798047888E+00    0.4586602171E+00
    0.3300000000E+07    0.2756627881E-03    0.2255154539E+00    0.8536900406E-04    0.6798749325E+00    0.4587486244E+00
    0.3500000000E+07    0.2674312575E-03    0.2254380463E+00    0.8205026167E-04    0.6799373665E+00    0.4588317448E+00
    0.3700000000E+07    0.2599185804E-03    0.2253648099E+00    0.7907042092E-04    0.6799933332E+00    0.4589101748E+00
    0.3900000000E+07    0.2530249675E-03    0.2252953162E+00    0.7637687605E-04    0.6800438189E+00    0.4589844155E+00
    0.4100000000E+07    0.2466690744E-03    0.2252291993E+00    0.7392759078E-04    0.6800896173E+00    0.4590548915E+00
    0.4300000000E+07    0.2407838315E-03    0.2251661449E+00    0.7168855080E-04    0.6801313739E+00    0.4591219662E+00
    0.4500000000E+07    0.2353133716E-03    0.2251058806E+00    0.6963192124E-04    0.6801696197E+00    0.4591859526E+00
    0.4700000000E+07    0.2302107291E-03    0.2250481688E+00    0.6773469140E-04    0.6802047955E+00    0.4592471226E+00
    0.4900000000E+07    0.2254360924E-03    0.2249928013E+00    0.6597766257E-04    0.6802372703E+00    0.4593057137E+00
    0.1000000000E+07    0.5419658374E-03    0.2270451732E+00    0.2226976188E-03    0.6774125082E+00    0.4570359736E+00
    0.3000000000E+07    0.2896377288E-03    0.2256405225E+00    0.9113370256E-04    0.6797663464E+00    0.4586138122E+00
    0.5000000000E+07    0.2231609536E-03    0.2249659383E+00    0.6514657374E-04    0.6802525941E+00    0.4593341082E+00
    0.7000000000E+07    0.1887320687E-03    0.2245166747E+00    0.5303647975E-04    0.6804723819E+00    0.4598061631E+00
    0.9000000000E+07    0.1667432082E-03    0.2241790899E+00    0.4573363360E-04    0.6806006402E+00    0.4601578793E+00
    0.1100000000E+08    0.1511215659E-03    0.2239084828E+00    0.4073382872E-04    0.6806859532E+00    0.4604383069E+00
    0.1300000000E+08    0.1392771383E-03    0.2236825860E+00    0.3704124686E-04    0.6807474280E+00    0.4606715280E+00
    0.1500000000E+08    0.1298920865E-03    0.2234886783E+00    0.3417303008E-04    0.6807941852E+00    0.4608711677E+00
    0.1700000000E+08    0.1222149591E-03    0.2233188018E+00    0.3186347276E-04    0.6808311604E+00    0.4610456896E+00
    0.1900000000E+08    0.1157814761E-03    0.2231676442E+00    0.2995287643E-04    0.6808612722E+00    0.4612007130E+00
    0.2100000000E+08    0.1102871149E-03    0.2230314822E+00    0.2833878743E-04    0.6808863638E+00    0.4613401598E+00
    0.2300000000E+08    0.1055226594E-03    0.2229076043E+00    0.2695208975E-04    0.6809076609E+00    0.4614668759E+00
    0.2500000000E+08    0.1013389458E-03    0.2227939741E+00    0.2574425720E-04    0.6809260121E+00    0.4615829924E+00
    0.2700000000E+08    0.9762635098E-04    0.2226890235E+00    0.2468009325E-04    0.6809420255E+00    0.4616901461E+00
