  Pressure (Pa) 2mC6-400 (mol/kg) 3mC6-400 (mol/kg) 33mC5-400 (mol/kg) 23mC5-400 (mol/kg) C7-400 (mol/kg)
    0.1000000000E+01    0.7861786170E-03    0.1557466068E-02    0.1280516199E-03    0.4670022886E-03    0.1516500133E-01
    0.3000000000E+01    0.2261286910E-02    0.4445130435E-02    0.3685008140E-03    0.1396560461E-02    0.4329265793E-01
    0.5000000000E+01    0.3622336854E-02    0.7065045476E-02    0.5906058123E-03    0.2320249023E-02    0.6882516078E-01
    0.7000000000E+01    0.4885042393E-02    0.9452942196E-02    0.7969100839E-03    0.3238137677E-02    0.9210828413E-01
    0.9000000000E+01    0.6062346811E-02    0.1163845793E-01    0.9895069375E-03    0.4150294989E-02    0.1134288793E+00
    0.1100000000E+02    0.7165001299E-02    0.1364638260E-01    0.1170133710E-02    0.5056788415E-02    0.1330269195E+00
    0.1300000000E+02    0.8202005310E-02    0.1549761110E-01    0.1340243431E-02    0.5957684319E-02    0.1511047056E+00
    0.1500000000E+02    0.9180945589E-02    0.1720987963E-01    0.1501059973E-02    0.6853048000E-02    0.1678339847E+00
    0.1700000000E+02    0.1010825997E-01    0.1879834110E-01    0.1653620957E-02    0.7742943709E-02    0.1833615118E+00
    0.1900000000E+02    0.1098944466E-01    0.2027601914E-01    0.1798811440E-02    0.8627434672E-02    0.1978134406E+00
    0.2100000000E+02    0.1182921851E-01    0.2165416957E-01    0.1937390617E-02    0.9506583114E-02    0.2112988182E+00
    0.2300000000E+02    0.1263165440E-01    0.2294257069E-01    0.2070013153E-02    0.1038045027E-01    0.2239123929E+00
    0.2500000000E+02    0.1340028505E-01    0.2414975815E-01    0.2197246364E-02    0.1124909642E-01    0.2357368854E+00
    0.2700000000E+02    0.1413818886E-01    0.2528321643E-01    0.2319584149E-02    0.1211258088E-01    0.2468448405E+00
    0.2900000000E+02    0.1484806006E-01    0.2634953589E-01    0.2437458366E-02    0.1297096207E-01    0.2573001474E+00
    0.3100000000E+02    0.1553226633E-01    0.2735454253E-01    0.2551248176E-02    0.1382429746E-01    0.2671592942E+00
    0.3300000000E+02    0.1619289653E-01    0.2830340580E-01    0.2661287772E-02    0.1467264367E-01    0.2764724110E+00
    0.3500000000E+02    0.1683180028E-01    0.2920072859E-01    0.2767872797E-02    0.1551605641E-01    0.2852841412E+00
    0.3700000000E+02    0.1745062109E-01    0.3005062285E-01    0.2871265704E-02    0.1635459057E-01    0.2936343729E+00
    0.3900000000E+02    0.1805082424E-01    0.3085677344E-01    0.2971700261E-02    0.1718830016E-01    0.3015588569E+00
    0.4100000000E+02    0.1863372018E-01    0.3162249220E-01    0.3069385348E-02    0.1801723840E-01    0.3090897300E+00
    0.4300000000E+02    0.1920048453E-01    0.3235076403E-01    0.3164508173E-02    0.1884145767E-01    0.3162559614E+00
    0.4500000000E+02    0.1975217492E-01    0.3304428633E-01    0.3257237008E-02    0.1966100960E-01    0.3230837340E+00
    0.4700000000E+02    0.2028974553E-01    0.3370550281E-01    0.3347723524E-02    0.2047594500E-01    0.3295967721E+00
    0.4900000000E+02    0.2081405949E-01    0.3433663271E-01    0.3436104798E-02    0.2128631393E-01    0.3358166242E+00
    0.1000000000E+02    0.6622406169E-02    0.1266323146E-01    0.1081219821E-02    0.4604245515E-02    0.1234297841E+00
    0.3000000000E+02    0.1519323472E-01    0.2685936596E-01    0.2494841961E-02    0.1339825693E-01    0.2623009696E+00
    0.5000000000E+02    0.2107149271E-01    0.3464155358E-01    0.3479545243E-02    0.2168980141E-01    0.3388228051E+00
    0.7000000000E+02    0.2568035631E-01    0.3956587238E-01    0.4262566997E-02    0.2953146769E-01    0.3874929325E+00
    0.9000000000E+02    0.2953309609E-01    0.4296701423E-01    0.4925105966E-02    0.3696851419E-01    0.4212812852E+00
    0.1100000000E+03    0.3286446845E-01    0.4545932460E-01    0.5504041052E-02    0.4404011220E-01    0.4461677740E+00
    0.1300000000E+03    0.3580144261E-01    0.4736533556E-01    0.6019243177E-02    0.5078034371E-01    0.4652970691E+00
    0.1500000000E+03    0.3842191594E-01    0.4887079591E-01    0.6482899047E-02    0.5721900880E-01    0.4804832097E+00
    0.1700000000E+03    0.4077848881E-01    0.5009031055E-01    0.6903258399E-02    0.6338228360E-01    0.4928472910E+00
    0.1900000000E+03    0.4290934020E-01    0.5109846781E-01    0.7286335790E-02    0.6929326026E-01    0.5031201649E+00
    0.2100000000E+03    0.4484371088E-01    0.5194592694E-01    0.7636762953E-02    0.7497239276E-01    0.5117990398E+00
    0.2300000000E+03    0.4660490200E-01    0.5266831582E-01    0.7958252325E-02    0.8043786737E-01    0.5192341761E+00
    0.2500000000E+03    0.4821203368E-01    0.5329142967E-01    0.8253867771E-02    0.8570591212E-01    0.5256795916E+00
    0.2700000000E+03    0.4968114144E-01    0.5383440957E-01    0.8526192926E-02    0.9079105669E-01    0.5313240926E+00
    0.2900000000E+03    0.5102589739E-01    0.5431176168E-01    0.8777441834E-02    0.9570635185E-01    0.5363110057E+00
    0.3100000000E+03    0.5225810725E-01    0.5473468237E-01    0.9009535257E-02    0.1004635555E+00    0.5407511413E+00
    0.3300000000E+03    0.5338806703E-01    0.5511195285E-01    0.9224155540E-02    0.1050732914E+00    0.5447315522E+00
    0.3500000000E+03    0.5442482792E-01    0.5545055813E-01    0.9422787496E-02    0.1095451844E+00    0.5483216011E+00
    0.3700000000E+03    0.5537639888E-01    0.5575612475E-01    0.9606749782E-02    0.1138879775E+00    0.5515772542E+00
    0.3900000000E+03    0.5624990526E-01    0.5603323621E-01    0.9777219582E-02    0.1181096317E+00    0.5545441796E+00
    0.4100000000E+03    0.5705171574E-01    0.5628566437E-01    0.9935252438E-02    0.1222174137E+00    0.5572600216E+00
    0.4300000000E+03    0.5778754555E-01    0.5651654178E-01    0.1008179844E-01    0.1262179707E+00    0.5597560964E+00
    0.4500000000E+03    0.5846254153E-01    0.5672849182E-01    0.1021771567E-01    0.1301173968E+00    0.5620586741E+00
    0.4700000000E+03    0.5908135324E-01    0.5692372828E-01    0.1034378138E-01    0.1339212901E+00    0.5641899605E+00
    0.4900000000E+03    0.5964819283E-01    0.5710413239E-01    0.1046070161E-01    0.1376348036E+00    0.5661688570E+00
    0.1000000000E+03    0.3125444021E-01    0.4430225033E-01    0.5223534402E-02    0.4054775513E-01    0.4345982801E+00
    0.3000000000E+03    0.5165539516E-01    0.5452942884E-01    0.8895772781E-02    0.9810402626E-01    0.5385935046E+00
    0.5000000000E+03    0.5991333249E-01    0.5718928438E-01    0.1051593533E-01    0.1394591673E+00    0.5671063115E+00
    0.7000000000E+03    0.6325247992E-01    0.5840413321E-01    0.1126963831E-01    0.1721798846E+00    0.5807878281E+00
    0.9000000000E+03    0.6418222569E-01    0.5909346905E-01    0.1158230339E-01    0.1995537427E+00    0.5889335273E+00
    0.1100000000E+04    0.6382769170E-01    0.5953349588E-01    0.1164923160E-01    0.2232686952E+00    0.5943864233E+00
    0.1300000000E+04    0.6275764869E-01    0.5983601927E-01    0.1157151057E-01    0.2442959995E+00    0.5983172442E+00
    0.1500000000E+04    0.6128353842E-01    0.6005489311E-01    0.1140593355E-01    0.2632432667E+00    0.6012993629E+00
    0.1700000000E+04    0.5958588471E-01    0.6021923433E-01    0.1118638411E-01    0.2805159457E+00    0.6036478872E+00
    0.1900000000E+04    0.5777370848E-01    0.6034614509E-01    0.1093401285E-01    0.2963989079E+00    0.6055509111E+00
    0.2100000000E+04    0.5591476955E-01    0.6044631845E-01    0.1066248234E-01    0.3111009560E+00    0.6071279400E+00
    0.2300000000E+04    0.5405195688E-01    0.6052677533E-01    0.1038084697E-01    0.3247806380E+00    0.6084587040E+00
    0.2500000000E+04    0.5221263547E-01    0.6059231073E-01    0.1009521804E-01    0.3375619872E+00    0.6095985316E+00
    0.2700000000E+04    0.5041420569E-01    0.6064630719E-01    0.9809768734E-02    0.3495445300E+00    0.6105870825E+00
    0.2900000000E+04    0.4866752830E-01    0.6069121648E-01    0.9527363248E-02    0.3608098776E+00    0.6114535679E+00
    0.3100000000E+04    0.4697909827E-01    0.6072885711E-01    0.9249963007E-02    0.3714262039E+00    0.6122200057E+00
    0.3300000000E+04    0.4535245989E-01    0.6076060496E-01    0.8978896075E-02    0.3814513703E+00    0.6129033258E+00
    0.3500000000E+04    0.4378914776E-01    0.6078751904E-01    0.8715040030E-02    0.3909351589E+00    0.6135167728E+00
    0.3700000000E+04    0.4228932419E-01    0.6081042695E-01    0.8458948623E-02    0.3999209039E+00    0.6140708670E+00
    0.3900000000E+04    0.4085221738E-01    0.6082998415E-01    0.8210941049E-02    0.4084467056E+00    0.6145740782E+00
    0.4100000000E+04    0.3947642654E-01    0.6084671594E-01    0.7971165829E-02    0.4165463520E+00    0.6150333072E+00
    0.4300000000E+04    0.3816013643E-01    0.6086104789E-01    0.7739647122E-02    0.4242500286E+00    0.6154542373E+00
    0.4500000000E+04    0.3690126930E-01    0.6087332806E-01    0.7516318678E-02    0.4315848750E+00    0.6158415950E+00
    0.4700000000E+04    0.3569759306E-01    0.6088384363E-01    0.7301048962E-02    0.4385754262E+00    0.6161993451E+00
    0.4900000000E+04    0.3454679833E-01    0.6089283343E-01    0.7093659887E-02    0.4452439684E+00    0.6165308406E+00
    0.1000000000E+04    0.6412167756E-01    0.5933564998E-01    0.1163875216E-01    0.2117965907E+00    0.5919027963E+00
    0.3000000000E+04    0.4781575453E-01    0.6071085073E-01    0.9387942099E-02    0.3661953401E+00    0.6118481344E+00
    0.5000000000E+04    0.3399050259E-01    0.6089681998E-01    0.6992855744E-02    0.4484639082E+00    0.6166876522E+00
    0.7000000000E+04    0.2509845938E-01    0.6093131176E-01    0.5331923290E-02    0.5000778602E+00    0.6189588066E+00
    0.9000000000E+04    0.1925846903E-01    0.6092399409E-01    0.4186790395E-02    0.5348237627E+00    0.6202924221E+00
    0.1100000000E+05    0.1527081158E-01    0.6090198507E-01    0.3376295296E-02    0.5594148250E+00    0.6211744025E+00
    0.1300000000E+05    0.1244429370E-01    0.6087450017E-01    0.2785351570E-02    0.5775226095E+00    0.6218034043E+00
    0.1500000000E+05    0.1037387824E-01    0.6084523647E-01    0.2342401929E-02    0.5912953593E+00    0.6222762627E+00
    0.1700000000E+05    0.8813780845E-02    0.6081581863E-01    0.2002147128E-02    0.6020562844E+00    0.6226459003E+00
    0.1900000000E+05    0.7609312992E-02    0.6078698910E-01    0.1735127032E-02    0.6106558842E+00    0.6229436965E+00
    0.2100000000E+05    0.6659744860E-02    0.6075908209E-01    0.1521639137E-02    0.6176610456E+00    0.6231894385E+00
    0.2300000000E+05    0.5897436061E-02    0.6073223233E-01    0.1348153120E-02    0.6234616589E+00    0.6233962222E+00
    0.2500000000E+05    0.5275703799E-02    0.6070647405E-01    0.1205149014E-02    0.6283333030E+00    0.6235730615E+00
    0.2700000000E+05    0.4761534519E-02    0.6068179045E-01    0.1085779827E-02    0.6324754763E+00    0.6237263655E+00
    0.2900000000E+05    0.4331069283E-02    0.6065813946E-01    0.9850226420E-03    0.6360356784E+00    0.6238608173E+00
    0.3100000000E+05    0.3966727899E-02    0.6063546748E-01    0.8991264411E-03    0.6391250211E+00    0.6239799199E+00
    0.3300000000E+05    0.3655329727E-02    0.6061371680E-01    0.8252446696E-03    0.6418286117E+00    0.6240863469E+00
    0.3500000000E+05    0.3386837075E-02    0.6059282966E-01    0.7611855365E-03    0.6442126196E+00    0.6241821752E+00
    0.3700000000E+05    0.3153497099E-02    0.6057275028E-01    0.7052390246E-03    0.6463291859E+00    0.6242690435E+00
    0.3900000000E+05    0.2949244561E-02    0.6055342597E-01    0.6560549040E-03    0.6482198999E+00    0.6243482628E+00
    0.4100000000E+05    0.2769278839E-02    0.6053480756E-01    0.6125553024E-03    0.6499183025E+00    0.6244208948E+00
    0.4300000000E+05    0.2609759566E-02    0.6051684949E-01    0.5738711023E-03    0.6514517169E+00    0.6244878089E+00
    0.4500000000E+05    0.2467584390E-02    0.6049950971E-01    0.5392950306E-03    0.6528426068E+00    0.6245497242E+00
    0.4700000000E+05    0.2340224530E-02    0.6048274956E-01    0.5082466184E-03    0.6541095975E+00    0.6246072410E+00
    0.4900000000E+05    0.2225601565E-02    0.6046653345E-01    0.4802457198E-03    0.6552682522E+00    0.6246608646E+00
    0.1000000000E+05    0.1708506717E-01    0.6091405046E-01    0.3748185325E-02    0.5481115539E+00    0.6207739339E+00
    0.3000000000E+05    0.4141542913E-02    0.6064668466E-01    0.9404126463E-03    0.6376333741E+00    0.6239221039E+00
    0.5000000000E+05    0.2172516605E-02    0.6045861910E-01    0.4672603951E-03    0.6558111295E+00    0.6246863529E+00
    0.7000000000E+05    0.1484878696E-02    0.6032224431E-01    0.2984488359E-03    0.6632837027E+00    0.6250681904E+00
    0.9000000000E+05    0.1149774649E-02    0.6021561117E-01    0.2165614825E-03    0.6673175228E+00    0.6253106191E+00
    0.1100000000E+06    0.9541459735E-03    0.6012810269E-01    0.1695451894E-03    0.6698355395E+00    0.6254842305E+00
    0.1300000000E+06    0.8262946996E-03    0.6005389981E-01    0.1395060881E-03    0.6715559827E+00    0.6256178325E+00
    0.1500000000E+06    0.7360751621E-03    0.5998948414E-01    0.1188437737E-03    0.6728061564E+00    0.6257256483E+00
    0.1700000000E+06    0.6687990909E-03    0.5993256930E-01    0.1038427803E-03    0.6737560838E+00    0.6258156240E+00
    0.1900000000E+06    0.6165144880E-03    0.5988158652E-01    0.9249427303E-04    0.6745027100E+00    0.6258926016E+00
    0.2100000000E+06    0.5745613082E-03    0.5983541292E-01    0.8362640117E-04    0.6751053087E+00    0.6259597288E+00
    0.2300000000E+06    0.5400346121E-03    0.5979321717E-01    0.7651370239E-04    0.6756021451E+00    0.6260191568E+00
    0.2500000000E+06    0.5110315945E-03    0.5975436658E-01    0.7068506520E-04    0.6760190203E+00    0.6260724150E+00
    0.2700000000E+06    0.4862542621E-03    0.5971836845E-01    0.6582228358E-04    0.6763739629E+00    0.6261206271E+00
    0.2900000000E+06    0.4647867320E-03    0.5968483161E-01    0.6170323841E-04    0.6766799506E+00    0.6261646406E+00
    0.3100000000E+06    0.4459639879E-03    0.5965344028E-01    0.5816848716E-04    0.6769465640E+00    0.6262051099E+00
    0.3300000000E+06    0.4292911928E-03    0.5962393586E-01    0.5510079326E-04    0.6771810299E+00    0.6262425497E+00
    0.3500000000E+06    0.4143922522E-03    0.5959610392E-01    0.5241213365E-04    0.6773889035E+00    0.6262773721E+00
    0.3700000000E+06    0.4009759825E-03    0.5956976465E-01    0.5003519693E-04    0.6775745251E+00    0.6263099117E+00
    0.3900000000E+06    0.3888132389E-03    0.5954476579E-01    0.4791766913E-04    0.6777413358E+00    0.6263404435E+00
    0.4100000000E+06    0.3777210762E-03    0.5952097729E-01    0.4601830141E-04    0.6778920990E+00    0.6263691964E+00
    0.4300000000E+06    0.3675515420E-03    0.5949828716E-01    0.4430414653E-04    0.6780290597E+00    0.6263963628E+00
    0.4500000000E+06    0.3581835935E-03    0.5947659828E-01    0.4274857987E-04    0.6781540609E+00    0.6264221057E+00
    0.4700000000E+06    0.3495171675E-03    0.5945582590E-01    0.4132985806E-04    0.6782686298E+00    0.6264465648E+00
    0.4900000000E+06    0.3414687604E-03    0.5943589559E-01    0.4003005291E-04    0.6783740427E+00    0.6264698601E+00
    0.1000000000E+06    0.1040521788E-02    0.6016990273E-01    0.1901859135E-03    0.6687072583E+00    0.6254037215E+00
    0.3000000000E+06    0.4550789675E-03    0.5966888508E-01    0.5987096286E-04    0.6768176816E+00    0.6261852833E+00
    0.5000000000E+06    0.3376539078E-03    0.5942622537E-01    0.3941998381E-04    0.6784236584E+00    0.6264811045E+00
    0.7000000000E+06    0.2813909275E-03    0.5926447431E-01    0.3088170352E-04    0.6791249564E+00    0.6266642366E+00
    0.9000000000E+06    0.2467106378E-03    0.5914294281E-01    0.2605126187E-04    0.6795229942E+00    0.6267968417E+00
    0.1100000000E+07    0.2225575420E-03    0.5904555614E-01    0.2287842240E-04    0.6797816720E+00    0.6269007596E+00
    0.1300000000E+07    0.2044726756E-03    0.5896429242E-01    0.2060193730E-04    0.6799643808E+00    0.6269861894E+00
    0.1500000000E+07    0.1902650063E-03    0.5889456485E-01    0.1887084682E-04    0.6801009322E+00    0.6270587139E+00
    0.1700000000E+07    0.1787144356E-03    0.5883350282E-01    0.1749935912E-04    0.6802072445E+00    0.6271217196E+00
    0.1900000000E+07    0.1690798780E-03    0.5877918978E-01    0.1637917489E-04    0.6802926153E+00    0.6271774150E+00
    0.2100000000E+07    0.1608814328E-03    0.5873028226E-01    0.1544251787E-04    0.6803628515E+00    0.6272273202E+00
    0.2300000000E+07    0.1537926471E-03    0.5868580188E-01    0.1464459263E-04    0.6804217737E+00    0.6272725259E+00
    0.2500000000E+07    0.1475825989E-03    0.5864501402E-01    0.1395448401E-04    0.6804720026E+00    0.6273138411E+00
    0.2700000000E+07    0.1420826627E-03    0.5860735297E-01    0.1335009389E-04    0.6805153979E+00    0.6273518825E+00
    0.2900000000E+07    0.1371664097E-03    0.5857237381E-01    0.1281516075E-04    0.6805533176E+00    0.6273871311E+00
    0.3100000000E+07    0.1327369134E-03    0.5853972032E-01    0.1233742195E-04    0.6805867773E+00    0.6274199690E+00
    0.3300000000E+07    0.1287184366E-03    0.5850910284E-01    0.1190743543E-04    0.6806165527E+00    0.6274507049E+00
    0.3500000000E+07    0.1250508158E-03    0.5848028265E-01    0.1151779900E-04    0.6806432467E+00    0.6274795918E+00
    0.3700000000E+07    0.1216855651E-03    0.5845306070E-01    0.1116261786E-04    0.6806673354E+00    0.6275068397E+00
    0.3900000000E+07    0.1185831110E-03    0.5842726927E-01    0.1083713250E-04    0.6806892000E+00    0.6275326247E+00
    0.4100000000E+07    0.1157107875E-03    0.5840276574E-01    0.1053745278E-04    0.6807091497E+00    0.6275570959E+00
    0.4300000000E+07    0.1130413573E-03    0.5837942778E-01    0.1026036428E-04    0.6807274378E+00    0.6275803807E+00
    0.4500000000E+07    0.1105519026E-03    0.5835714971E-01    0.1000318485E-04    0.6807442740E+00    0.6276025889E+00
    0.4700000000E+07    0.1082229814E-03    0.5833583960E-01    0.9763656561E-05    0.6807598335E+00    0.6276238157E+00
    0.4900000000E+07    0.1060379768E-03    0.5831541698E-01    0.9539863377E-05    0.6807742639E+00    0.6276441442E+00
    0.1000000000E+07    0.2336756119E-03    0.5909184479E-01    0.2431979002E-04    0.6796646123E+00    0.6268515953E+00
    0.3000000000E+07    0.1348959711E-03    0.5855577581E-01    0.1256978765E-04    0.6805705517E+00    0.6274038306E+00
    0.5000000000E+07    0.1049948956E-03    0.5830551601E-01    0.9433346189E-05    0.6807810956E+00    0.6276539948E+00
    0.7000000000E+07    0.8907431255E-04    0.5814061631E-01    0.7832828382E-05    0.6808808167E+00    0.6278176693E+00
    0.9000000000E+07    0.7879387517E-04    0.5801748031E-01    0.6824403310E-05    0.6809407329E+00    0.6279395374E+00
    0.1100000000E+08    0.7144945832E-04    0.5791919740E-01    0.6116137790E-05    0.6809814374E+00    0.6280366713E+00
    0.1300000000E+08    0.6586290113E-04    0.5783741541E-01    0.5584319502E-05    0.6810112552E+00    0.6281174376E+00
    0.1500000000E+08    0.6142739463E-04    0.5776739140E-01    0.5166446849E-05    0.6810342413E+00    0.6281865655E+00
    0.1700000000E+08    0.5779423820E-04    0.5770617186E-01    0.4827123914E-05    0.6810526256E+00    0.6282469906E+00
    0.1900000000E+08    0.5474684847E-04    0.5765179247E-01    0.4544620720E-05    0.6810677442E+00    0.6283006609E+00
    0.2100000000E+08    0.5214262936E-04    0.5760288045E-01    0.4304768218E-05    0.6810804506E+00    0.6283489357E+00
    0.2300000000E+08    0.4988333757E-04    0.5755843863E-01    0.4097884577E-05    0.6810913177E+00    0.6283928014E+00
    0.2500000000E+08    0.4789877846E-04    0.5751771982E-01    0.3917101516E-05    0.6811007459E+00    0.6284329961E+00
    0.2700000000E+08    0.4613727819E-04    0.5748014968E-01    0.3757394823E-05    0.6811090240E+00    0.6284700869E+00
