  Pressure (Pa) 2mC6-400 (mol/kg) 3mC6-400 (mol/kg) 33mC5-400 (mol/kg) 23mC5-400 (mol/kg) C7-400 (mol/kg)
    0.1000000000E+01    0.7926895543E-03    0.1048898123E-02    0.5809417066E-03    0.2801530728E-03    0.8510481174E-02
    0.3000000000E+01    0.2314990001E-02    0.3051339338E-02    0.1697068526E-02    0.8375058254E-03    0.2476140260E-01
    0.5000000000E+01    0.3759520906E-02    0.4936119535E-02    0.2756804785E-02    0.1390965360E-02    0.4006203661E-01
    0.7000000000E+01    0.5133092202E-02    0.6713456667E-02    0.3765112793E-02    0.1940584363E-02    0.5449478231E-01
    0.9000000000E+01    0.6441725420E-02    0.8392414704E-02    0.4726378427E-02    0.2486414538E-02    0.6813273999E-01
    0.1100000000E+02    0.7690764068E-02    0.9981062211E-02    0.5644491975E-02    0.3028506625E-02    0.8104098837E-01
    0.1300000000E+02    0.8884966066E-02    0.1148660548E-01    0.6522915835E-02    0.3566910428E-02    0.9327765698E-01
    0.1500000000E+02    0.1002858154E-01    0.1291550085E-01    0.7364741475E-02    0.4101674832E-02    0.1048948308E+00
    0.1700000000E+02    0.1112541859E-01    0.1427354989E-01    0.8172737581E-02    0.4632847829E-02    0.1159393173E+00
    0.1900000000E+02    0.1217889918E-01    0.1556598048E-01    0.8949390948E-02    0.5160476534E-02    0.1264532991E+00
    0.2100000000E+02    0.1319210675E-01    0.1679751609E-01    0.9696941339E-02    0.5684607208E-02    0.1364748929E+00
    0.2300000000E+02    0.1416782704E-01    0.1797243528E-01    0.1041741133E-01    0.6205285277E-02    0.1460386282E+00
    0.2500000000E+02    0.1510858313E-01    0.1909462294E-01    0.1111263198E-01    0.6722555351E-02    0.1551758605E+00
    0.2700000000E+02    0.1601666575E-01    0.2016761464E-01    0.1178426489E-01    0.7236461244E-02    0.1639151286E+00
    0.2900000000E+02    0.1689415937E-01    0.2119463511E-01    0.1243382143E-01    0.7747045987E-02    0.1722824648E+00
    0.3100000000E+02    0.1774296503E-01    0.2217863168E-01    0.1306267929E-01    0.8254351853E-02    0.1803016643E+00
    0.3300000000E+02    0.1856482010E-01    0.2312230359E-01    0.1367209698E-01    0.8758420367E-02    0.1879945212E+00
    0.3500000000E+02    0.1936131560E-01    0.2402812756E-01    0.1426322647E-01    0.9259292326E-02    0.1953810352E+00
    0.3700000000E+02    0.2013391137E-01    0.2489838035E-01    0.1483712429E-01    0.9757007817E-02    0.2024795927E+00
    0.3900000000E+02    0.2088394942E-01    0.2573515854E-01    0.1539476122E-01    0.1025160623E-01    0.2093071269E+00
    0.4100000000E+02    0.2161266563E-01    0.2654039607E-01    0.1593703089E-01    0.1074312627E-01    0.2158792589E+00
    0.4300000000E+02    0.2232120015E-01    0.2731587977E-01    0.1646475734E-01    0.1123160597E-01    0.2222104227E+00
    0.4500000000E+02    0.2301060659E-01    0.2806326307E-01    0.1697870173E-01    0.1171708274E-01    0.2283139761E+00
    0.4700000000E+02    0.2368186013E-01    0.2878407828E-01    0.1747956824E-01    0.1219959331E-01    0.2342022997E+00
    0.4900000000E+02    0.2433586484E-01    0.2947974753E-01    0.1796800943E-01    0.1267917383E-01    0.2398868846E+00
    0.1000000000E+02    0.7073383946E-02    0.9197558079E-02    0.5190603498E-02    0.2757924708E-02    0.7467429322E-01
    0.3000000000E+02    0.1732203599E-01    0.2169183718E-01    0.1275075640E-01    0.8001106167E-02    0.1763341751E+00
    0.5000000000E+02    0.2465666353E-01    0.2981856911E-01    0.1820776149E-01    0.1291787643E-01    0.2426561425E+00
    0.7000000000E+02    0.3034210033E-01    0.3555083590E-01    0.2247664405E-01    0.1754645687E-01    0.2895758533E+00
    0.9000000000E+02    0.3497216878E-01    0.3982484814E-01    0.2598512280E-01    0.2191910199E-01    0.3246620679E+00
    0.1100000000E+03    0.3886638542E-01    0.4314283650E-01    0.2896251415E-01    0.2606323481E-01    0.3519789874E+00
    0.1300000000E+03    0.4221486904E-01    0.4579886480E-01    0.3154491324E-01    0.3000233092E-01    0.3739085551E+00
    0.1500000000E+03    0.4513985101E-01    0.4797681528E-01    0.3381968710E-01    0.3375661415E-01    0.3919416616E+00
    0.1700000000E+03    0.4772485899E-01    0.4979772491E-01    0.3584651126E-01    0.3734360913E-01    0.4070605963E+00
    0.1900000000E+03    0.5002982072E-01    0.5134461292E-01    0.3766822033E-01    0.4077858406E-01    0.4199397545E+00
    0.2100000000E+03    0.5209945133E-01    0.5267637938E-01    0.3931681441E-01    0.4407490860E-01    0.4310580592E+00
    0.2300000000E+03    0.5396819250E-01    0.5383600934E-01    0.4081698607E-01    0.4724434502E-01    0.4407653597E+00
    0.2500000000E+03    0.5566326966E-01    0.5485563377E-01    0.4218829789E-01    0.5029728712E-01    0.4493234136E+00
    0.2700000000E+03    0.5720666716E-01    0.5575976965E-01    0.4344658660E-01    0.5324295728E-01    0.4569321404E+00
    0.2900000000E+03    0.5861645295E-01    0.5656746154E-01    0.4460490317E-01    0.5608957019E-01    0.4637469825E+00
    0.3100000000E+03    0.5990769638E-01    0.5729373657E-01    0.4567416351E-01    0.5884446957E-01    0.4698907078E+00
    0.3300000000E+03    0.6109312247E-01    0.5795061717E-01    0.4666361206E-01    0.6151424303E-01    0.4754616290E+00
    0.3500000000E+03    0.6218359040E-01    0.5854784102E-01    0.4758116072E-01    0.6410481904E-01    0.4805394502E+00
    0.3700000000E+03    0.6318845109E-01    0.5909338278E-01    0.4843364220E-01    0.6662154922E-01    0.4851895058E+00
    0.3900000000E+03    0.6411581984E-01    0.5959383845E-01    0.4922700335E-01    0.6906927838E-01    0.4894658859E+00
    0.4100000000E+03    0.6497278781E-01    0.6005471307E-01    0.4996645522E-01    0.7145240462E-01    0.4934137759E+00
    0.4300000000E+03    0.6576558854E-01    0.6048063890E-01    0.5065659132E-01    0.7377493088E-01    0.4970712328E+00
    0.4500000000E+03    0.6649973098E-01    0.6087554306E-01    0.5130148226E-01    0.7604050946E-01    0.5004705501E+00
    0.4700000000E+03    0.6718010693E-01    0.6124277775E-01    0.5190475232E-01    0.7825248060E-01    0.5036393190E+00
    0.4900000000E+03    0.6781107885E-01    0.6158522258E-01    0.5246964205E-01    0.8041390597E-01    0.5066012624E+00
    0.1000000000E+03    0.3699729190E-01    0.4158158988E-01    0.2753020035E-01    0.2401818164E-01    0.3391155202E+00
    0.3000000000E+03    0.5927604851E-01    0.5693996393E-01    0.4515005288E-01    0.5747805584E-01    0.4668960949E+00
    0.5000000000E+03    0.6810927490E-01    0.6174793975E-01    0.5273861498E-01    0.8147655187E-01    0.5080111959E+00
    0.7000000000E+03    0.7224184641E-01    0.6415775944E-01    0.5667370718E-01    0.1006507657E+00    0.5291258380E+00
    0.9000000000E+03    0.7415024980E-01    0.6562074434E-01    0.5881559503E-01    0.1169234557E+00    0.5422380083E+00
    0.1100000000E+04    0.7486068623E-01    0.6660841780E-01    0.5995414464E-01    0.1312576537E+00    0.5512828717E+00
    0.1300000000E+04    0.7487413034E-01    0.6732203510E-01    0.6048387115E-01    0.1441988674E+00    0.5579548535E+00
    0.1500000000E+04    0.7446134777E-01    0.6786258428E-01    0.6062297315E-01    0.1560841710E+00    0.5631113106E+00
    0.1700000000E+04    0.7377953031E-01    0.6828654568E-01    0.6050121076E-01    0.1671357964E+00    0.5672355887E+00
    0.1900000000E+04    0.7292493570E-01    0.6862807682E-01    0.6020010564E-01    0.1775078098E+00    0.5706222652E+00
    0.2100000000E+04    0.7195898544E-01    0.6890909555E-01    0.5977313228E-01    0.1873113907E+00    0.5734617852E+00
    0.2300000000E+04    0.7092216239E-01    0.6914433527E-01    0.5925661001E-01    0.1966294437E+00    0.5758831080E+00
    0.2500000000E+04    0.6984184333E-01    0.6934407845E-01    0.5867592229E-01    0.2055255013E+00    0.5779768815E+00
    0.2700000000E+04    0.6873692241E-01    0.6951572660E-01    0.5804923707E-01    0.2140493909E+00    0.5798088165E+00
    0.2900000000E+04    0.6762064747E-01    0.6966474754E-01    0.5738982073E-01    0.2222409757E+00    0.5814277927E+00
    0.3100000000E+04    0.6650241779E-01    0.6979527072E-01    0.5670752565E-01    0.2301327040E+00    0.5828709783E+00
    0.3300000000E+04    0.6538895580E-01    0.6991047481E-01    0.5600977427E-01    0.2377513930E+00    0.5841671762E+00
    0.3500000000E+04    0.6428508953E-01    0.7001284743E-01    0.5530222636E-01    0.2451195075E+00    0.5853390782E+00
    0.3700000000E+04    0.6319428619E-01    0.7010436403E-01    0.5458924151E-01    0.2522560940E+00    0.5864048223E+00
    0.3900000000E+04    0.6211902293E-01    0.7018661365E-01    0.5387420592E-01    0.2591774781E+00    0.5873790944E+00
    0.4100000000E+04    0.6106104873E-01    0.7026088934E-01    0.5315976740E-01    0.2658977914E+00    0.5882739219E+00
    0.4300000000E+04    0.6002157202E-01    0.7032825422E-01    0.5244800688E-01    0.2724293768E+00    0.5890992572E+00
    0.4500000000E+04    0.5900139699E-01    0.7038959054E-01    0.5174056551E-01    0.2787831037E+00    0.5898634120E+00
    0.4700000000E+04    0.5800102361E-01    0.7044563671E-01    0.5103873988E-01    0.2849686165E+00    0.5905733868E+00
    0.4900000000E+04    0.5702072197E-01    0.7049701550E-01    0.5034355437E-01    0.2909945320E+00    0.5912351234E+00
    0.1000000000E+04    0.7461639809E-01    0.6615799342E-01    0.5947991764E-01    0.1242922724E+00    0.5471344411E+00
    0.3000000000E+04    0.6706130473E-01    0.6973210393E-01    0.5705102121E-01    0.2262225308E+00    0.5821693937E+00
    0.5000000000E+04    0.5653813358E-01    0.7052112311E-01    0.4999871123E-01    0.2939500925E+00    0.5915495185E+00
    0.7000000000E+04    0.4790929400E-01    0.7085273589E-01    0.4357096716E-01    0.3462258991E+00    0.5962225888E+00
    0.9000000000E+04    0.4099090411E-01    0.7102608059E-01    0.3809652303E-01    0.3882672789E+00    0.5991062941E+00
    0.1100000000E+05    0.3541609158E-01    0.7112691329E-01    0.3349238628E-01    0.4227356960E+00    0.6010947233E+00
    0.1300000000E+05    0.3088388721E-01    0.7118899872E-01    0.2962325328E-01    0.4513486004E+00    0.6025627350E+00
    0.1500000000E+05    0.2716462250E-01    0.7122825201E-01    0.2636146205E-01    0.4753339535E+00    0.6036980888E+00
    0.1700000000E+05    0.2408437131E-01    0.7125311154E-01    0.2359838277E-01    0.4956124291E+00    0.6046063846E+00
    0.1900000000E+05    0.2151084116E-01    0.7126844055E-01    0.2124472967E-01    0.5128913453E+00    0.6053520647E+00
    0.2100000000E+05    0.1934267520E-01    0.7127722196E-01    0.1922810298E-01    0.5277220897E+00    0.6059769104E+00
    0.2300000000E+05    0.1750159263E-01    0.7128137589E-01    0.1749007025E-01    0.5405389694E+00    0.6065093058E+00
    0.2500000000E+05    0.1592663613E-01    0.7128218681E-01    0.1598348403E-01    0.5516869887E+00    0.6069692636E+00
    0.2700000000E+05    0.1456994754E-01    0.7128054129E-01    0.1467021852E-01    0.5614423081E+00    0.6073713282E+00
    0.2900000000E+05    0.1339364858E-01    0.7127706732E-01    0.1351933075E-01    0.5700275735E+00    0.6077263400E+00
    0.3100000000E+05    0.1236752293E-01    0.7127221950E-01    0.1250559438E-01    0.5776235257E+00    0.6080425528E+00
    0.3300000000E+05    0.1146728194E-01    0.7126633299E-01    0.1160834107E-01    0.5843778669E+00    0.6083263681E+00
    0.3500000000E+05    0.1067325782E-01    0.7125965879E-01    0.1081054841E-01    0.5904120788E+00    0.6085828302E+00
    0.3700000000E+05    0.9969411879E-02    0.7125238742E-01    0.1009812209E-01    0.5958266992E+00    0.6088159706E+00
    0.3900000000E+05    0.9342576307E-02    0.7124466517E-01    0.9459330255E-02    0.6007054316E+00    0.6090290518E+00
    0.4100000000E+05    0.8781870472E-02    0.7123660545E-01    0.8884356418E-02    0.6051183653E+00    0.6092247434E+00
    0.4300000000E+05    0.8278248267E-02    0.7122829696E-01    0.8364944757E-02    0.6091245134E+00    0.6094052520E+00
    0.4500000000E+05    0.7824144708E-02    0.7121980956E-01    0.7894117571E-02    0.6127738254E+00    0.6095724182E+00
    0.4700000000E+05    0.7413198140E-02    0.7121119860E-01    0.7465949153E-02    0.6161087928E+00    0.6097277901E+00
    0.4900000000E+05    0.7040030449E-02    0.7120250815E-01    0.7075383974E-02    0.6191657370E+00    0.6098726795E+00
    0.1000000000E+05    0.3805619230E-01    0.7108282764E-01    0.3569401345E-01    0.4063261069E+00    0.6001825646E+00
    0.3000000000E+05    0.1286345397E-01    0.7127479188E-01    0.1299670549E-01    0.5739392965E+00    0.6078888595E+00
    0.5000000000E+05    0.6866158142E-02    0.7119814442E-01    0.6892823939E-02    0.6205998733E+00    0.6099415497E+00
    0.7000000000E+05    0.4560385068E-02    0.7111226788E-01    0.4435702042E-02    0.6403270670E+00    0.6109702974E+00
    0.9000000000E+05    0.3413546475E-02    0.7103398785E-01    0.3189804479E-02    0.6507811729E+00    0.6116153496E+00
    0.1100000000E+06    0.2747077607E-02    0.7096425074E-01    0.2461801729E-02    0.6571293173E+00    0.6120696903E+00
    0.1300000000E+06    0.2317663306E-02    0.7090194433E-01    0.1994036076E-02    0.6613469374E+00    0.6124132445E+00
    0.1500000000E+06    0.2020034067E-02    0.7084583535E-01    0.1672407537E-02    0.6643326782E+00    0.6126857178E+00
    0.1700000000E+06    0.1802279774E-02    0.7079488243E-01    0.1439764906E-02    0.6665481039E+00    0.6129093306E+00
    0.1900000000E+06    0.1636212581E-02    0.7074825290E-01    0.1264749093E-02    0.6682524596E+00    0.6130976132E+00
    0.2100000000E+06    0.1505350684E-02    0.7070528664E-01    0.1128901887E-02    0.6696016877E+00    0.6132593399E+00
    0.2300000000E+06    0.1399475434E-02    0.7066545740E-01    0.1020736069E-02    0.6706948179E+00    0.6134004857E+00
    0.2500000000E+06    0.1311942831E-02    0.7062834143E-01    0.9327713996E-03    0.6715975623E+00    0.6135252813E+00
    0.2700000000E+06    0.1238259713E-02    0.7059359369E-01    0.8599504609E-03    0.6723551371E+00    0.6136368192E+00
    0.2900000000E+06    0.1175285269E-02    0.7056093008E-01    0.7987439741E-03    0.6729996188E+00    0.6137374208E+00
    0.3100000000E+06    0.1120761220E-02    0.7053011423E-01    0.7466215858E-03    0.6735543618E+00    0.6138288683E+00
    0.3300000000E+06    0.1073023883E-02    0.7050094750E-01    0.7017262736E-03    0.6740367549E+00    0.6139125561E+00
    0.3500000000E+06    0.1030821400E-02    0.7047326151E-01    0.6626671199E-03    0.6744599998E+00    0.6139895939E+00
    0.3700000000E+06    0.9931941305E-03    0.7044691232E-01    0.6283834715E-03    0.6748342926E+00    0.6140608776E+00
    0.3900000000E+06    0.9593942429E-03    0.7042177596E-01    0.5980535548E-03    0.6751676280E+00    0.6141271398E+00
    0.4100000000E+06    0.9288303714E-03    0.7039774492E-01    0.5710315710E-03    0.6754663600E+00    0.6141889864E+00
    0.4300000000E+06    0.9010287050E-03    0.7037472538E-01    0.5468034986E-03    0.6757356001E+00    0.6142469238E+00
    0.4500000000E+06    0.8756051089E-03    0.7035263498E-01    0.5249554643E-03    0.6759795051E+00    0.6143013790E+00
    0.4700000000E+06    0.8522448044E-03    0.7033140103E-01    0.5051507295E-03    0.6762014895E+00    0.6143527151E+00
    0.4900000000E+06    0.8306873288E-03    0.7031095909E-01    0.4871126923E-03    0.6764043829E+00    0.6144012431E+00
    0.1000000000E+06    0.3040425898E-02    0.7099810987E-01    0.2782269778E-02    0.6543070697E+00    0.6118599771E+00
    0.3000000000E+06    0.1147082334E-02    0.7054530439E-01    0.7716762492E-03    0.6732870055E+00    0.6137841940E+00
    0.5000000000E+06    0.8205152714E-03    0.7030101691E-01    0.4786829911E-03    0.6764994249E+00    0.6144245394E+00
    0.7000000000E+06    0.6738457317E-03    0.7013260894E-01    0.3634588453E-03    0.6778097197E+00    0.6147923421E+00
    0.9000000000E+06    0.5863821001E-03    0.7000377415E-01    0.3009040419E-03    0.6785234263E+00    0.6150453184E+00
    0.1100000000E+07    0.5266412900E-03    0.6989932723E-01    0.2610094869E-03    0.6789741665E+00    0.6152361020E+00
    0.1300000000E+07    0.4824669025E-03    0.6981144711E-01    0.2330062262E-03    0.6792857388E+00    0.6153882805E+00
    0.1500000000E+07    0.4480608761E-03    0.6973556756E-01    0.2120672785E-03    0.6795146448E+00    0.6155143318E+00
    0.1700000000E+07    0.4202629142E-03    0.6966878747E-01    0.1956965885E-03    0.6796903634E+00    0.6156216088E+00
    0.1900000000E+07    0.3971839249E-03    0.6960914736E-01    0.1824676637E-03    0.6798297942E+00    0.6157147880E+00
    0.2100000000E+07    0.3776155760E-03    0.6955526093E-01    0.1715026623E-03    0.6799433297E+00    0.6157970179E+00
    0.2300000000E+07    0.3607438490E-03    0.6950611098E-01    0.1622297170E-03    0.6800377176E+00    0.6158705139E+00
    0.2500000000E+07    0.3459974231E-03    0.6946092879E-01    0.1542590725E-03    0.6801175338E+00    0.6159368909E+00
    0.2700000000E+07    0.3329617697E-03    0.6941911922E-01    0.1473151649E-03    0.6801859930E+00    0.6159973606E+00
    0.2900000000E+07    0.3213277428E-03    0.6938021197E-01    0.1411971564E-03    0.6802454217E+00    0.6160528540E+00
    0.3100000000E+07    0.3108593968E-03    0.6934382892E-01    0.1357548831E-03    0.6802975459E+00    0.6161041017E+00
    0.3300000000E+07    0.3013730683E-03    0.6930966149E-01    0.1308735969E-03    0.6803436741E+00    0.6161516864E+00
    0.3500000000E+07    0.2927233374E-03    0.6927745452E-01    0.1264639495E-03    0.6803848168E+00    0.6161960806E+00
    0.3700000000E+07    0.2847933434E-03    0.6924699464E-01    0.1224552225E-03    0.6804217670E+00    0.6162376721E+00
    0.3900000000E+07    0.2774879415E-03    0.6921810154E-01    0.1187906325E-03    0.6804551562E+00    0.6162767830E+00
    0.4100000000E+07    0.2707287660E-03    0.6919062155E-01    0.1154240011E-03    0.6804854936E+00    0.6163136837E+00
    0.4300000000E+07    0.2644506006E-03    0.6916442256E-01    0.1123173455E-03    0.6805131946E+00    0.6163486034E+00
    0.4500000000E+07    0.2585986655E-03    0.6913939019E-01    0.1094391051E-03    0.6805386015E+00    0.6163817378E+00
    0.4700000000E+07    0.2531265603E-03    0.6911542477E-01    0.1067628132E-03    0.6805619989E+00    0.6164132553E+00
    0.4900000000E+07    0.2479946817E-03    0.6909243887E-01    0.1042660899E-03    0.6805836257E+00    0.6164433020E+00
    0.1000000000E+07    0.5540295594E-03    0.6994909611E-01    0.2790102295E-03    0.6787715404E+00    0.6151466356E+00
    0.3000000000E+07    0.3159603735E-03    0.6936172562E-01    0.1383994177E-03    0.6802723069E+00    0.6160789692E+00
    0.5000000000E+07    0.2455455012E-03    0.6908128880E-01    0.1030789957E-03    0.6805938395E+00    0.6164578143E+00
    0.7000000000E+07    0.2082119407E-03    0.6889501209E-01    0.8533295176E-04    0.6807409886E+00    0.6166946850E+00
    0.9000000000E+07    0.1841439041E-03    0.6875527898E-01    0.7423075346E-04    0.6808274723E+00    0.6168663098E+00
    0.1100000000E+08    0.1669636421E-03    0.6864341030E-01    0.6646431896E-04    0.6808852814E+00    0.6170005515E+00
    0.1300000000E+08    0.1539015776E-03    0.6855011784E-01    0.6064756577E-04    0.6809270926E+00    0.6171106176E+00
    0.1500000000E+08    0.1435338711E-03    0.6847010233E-01    0.5608510212E-04    0.6809589890E+00    0.6172037929E+00
    0.1700000000E+08    0.1350432633E-03    0.6840005223E-01    0.5238497974E-04    0.6809842755E+00    0.6172845141E+00
    0.1900000000E+08    0.1279225374E-03    0.6833775900E-01    0.4930740063E-04    0.6810049125E+00    0.6173556806E+00
    0.2100000000E+08    0.1218379329E-03    0.6828167570E-01    0.4669640817E-04    0.6810221414E+00    0.6174192893E+00
    0.2300000000E+08    0.1165595955E-03    0.6823067656E-01    0.4444565036E-04    0.6810367895E+00    0.6174767735E+00
    0.2500000000E+08    0.1119233458E-03    0.6818391668E-01    0.4247980262E-04    0.6810494306E+00    0.6175291958E+00
    0.2700000000E+08    0.1078083524E-03    0.6814074572E-01    0.4074383673E-04    0.6810604767E+00    0.6175773657E+00
