  Pressure (Pa) 2mC6-400 (mol/kg) 3mC6-400 (mol/kg) 33mC5-400 (mol/kg) 23mC5-400 (mol/kg) C7-400 (mol/kg)
    0.1000000000E+01    0.1590966550E-02    0.4215354167E-02    0.3238645581E-03    0.3732940937E-03    0.1710072645E-02
    0.3000000000E+01    0.4677302333E-02    0.1237413067E-01    0.9522879236E-03    0.1114508181E-02    0.5020407529E-02
    0.5000000000E+01    0.7642918581E-02    0.2018999578E-01    0.1556336063E-02    0.1848668045E-02    0.8192257889E-02
    0.7000000000E+01    0.1049529964E-01    0.2768478050E-01    0.2137524465E-02    0.2575904176E-02    0.1123442724E-01
    0.9000000000E+01    0.1324130136E-01    0.3487848783E-01    0.2697241024E-02    0.3296343737E-02    0.1415498249E-01
    0.1100000000E+02    0.1588721631E-01    0.4178948057E-01    0.3236759299E-02    0.4010110671E-02    0.1696132957E-01
    0.1300000000E+02    0.1843883105E-01    0.4843464643E-01    0.3757250157E-02    0.4717325802E-02    0.1966027997E-01
    0.1500000000E+02    0.2090147650E-01    0.5482954361E-01    0.4259792021E-02    0.5418106934E-02    0.2225810933E-01
    0.1700000000E+02    0.2328007248E-01    0.6098852938E-01    0.4745379911E-02    0.6112568947E-02    0.2476060928E-01
    0.1900000000E+02    0.2557916705E-01    0.6692487411E-01    0.5214933451E-02    0.6800823886E-02    0.2717313336E-01
    0.2100000000E+02    0.2780297143E-01    0.7265086242E-01    0.5669303958E-02    0.7482981055E-02    0.2950063776E-01
    0.2300000000E+02    0.2995539106E-01    0.7817788336E-01    0.6109280757E-02    0.8159147095E-02    0.3174771767E-01
    0.2500000000E+02    0.3204005328E-01    0.8351651075E-01    0.6535596798E-02    0.8829426068E-02    0.3391863962E-01
    0.2700000000E+02    0.3406033201E-01    0.8867657509E-01    0.6948933675E-02    0.9493919538E-02    0.3601737050E-01
    0.2900000000E+02    0.3601936987E-01    0.9366722791E-01    0.7349926118E-02    0.1015272664E-01    0.3804760344E-01
    0.3100000000E+02    0.3792009801E-01    0.9849699964E-01    0.7739166016E-02    0.1080594417E-01    0.4001278116E-01
    0.3300000000E+02    0.3976525395E-01    0.1031738516E+00    0.8117206037E-02    0.1145366663E-01    0.4191611688E-01
    0.3500000000E+02    0.4155739755E-01    0.1077052226E+00    0.8484562881E-02    0.1209598632E-01    0.4376061322E-01
    0.3700000000E+02    0.4329892553E-01    0.1120980718E+00    0.8841720213E-02    0.1273299337E-01    0.4554907926E-01
    0.3900000000E+02    0.4499208452E-01    0.1163589164E+00    0.9189131316E-02    0.1336477585E-01    0.4728414590E-01
    0.4100000000E+02    0.4663898284E-01    0.1204938664E+00    0.9527221489E-02    0.1399141981E-01    0.4896827988E-01
    0.4300000000E+02    0.4824160127E-01    0.1245086563E+00    0.9856390219E-02    0.1461300930E-01    0.5060379640E-01
    0.4500000000E+02    0.4980180272E-01    0.1284086734E+00    0.1017701315E-01    0.1522962650E-01    0.5219287066E-01
    0.4700000000E+02    0.5132134112E-01    0.1321989837E+00    0.1048944389E-01    0.1584135172E-01    0.5373754830E-01
    0.4900000000E+02    0.5280186945E-01    0.1358843558E+00    0.1079401562E-01    0.1644826346E-01    0.5523975500E-01
    0.1000000000E+02    0.1457639679E-01    0.3836823526E-01    0.2969449488E-02    0.3654053659E-02    0.1557199312E-01
    0.3000000000E+02    0.3697684722E-01    0.9610171357E-01    0.7545979714E-02    0.1048002815E-01    0.3903811823E-01
    0.5000000000E+02    0.5352799561E-01    0.1376891043E+00    0.1094345327E-01    0.1674993833E-01    0.5597550286E-01
    0.7000000000E+02    0.6633817074E-01    0.1692389194E+00    0.1358723361E-01    0.2254856344E-01    0.6885013543E-01
    0.9000000000E+02    0.7657935085E-01    0.1941028428E+00    0.1571333694E-01    0.2794364334E-01    0.7901598068E-01
    0.1100000000E+03    0.8496240567E-01    0.2142770049E+00    0.1746471809E-01    0.3299000818E-01    0.8727993346E-01
    0.1300000000E+03    0.9194788906E-01    0.2310265505E+00    0.1893390279E-01    0.3773255558E-01    0.9415373285E-01
    0.1500000000E+03    0.9784986303E-01    0.2451935348E+00    0.2018395001E-01    0.4220843507E-01    0.9997819990E-01
    0.1700000000E+03    0.1028913879E+00    0.2573610012E+00    0.2125963730E-01    0.4644867646E-01    0.1049894705E+00
    0.1900000000E+03    0.1072361914E+00    0.2679460259E+00    0.2219383510E-01    0.5047942100E-01    0.1093565693E+00
    0.2100000000E+03    0.1110077439E+00    0.2772552339E+00    0.2301134095E-01    0.5432286459E-01    0.1132038370E+00
    0.2300000000E+03    0.1143012760E+00    0.2855193581E+00    0.2373129245E-01    0.5799798891E-01    0.1166248973E+00
    0.2500000000E+03    0.1171916451E+00    0.2929155407E+00    0.2436874504E-01    0.6152113427E-01    0.1196916729E+00
    0.2700000000E+03    0.1197386533E+00    0.2995821754E+00    0.2493573790E-01    0.6490645311E-01    0.1224603883E+00
    0.2900000000E+03    0.1219907457E+00    0.3056290537E+00    0.2544203466E-01    0.6816627218E-01    0.1249756755E+00
    0.3100000000E+03    0.1239876454E+00    0.3111444667E+00    0.2589565102E-01    0.7131138443E-01    0.1272734476E+00
    0.3300000000E+03    0.1257622720E+00    0.3162002795E+00    0.2630323866E-01    0.7435128592E-01    0.1293829541E+00
    0.3500000000E+03    0.1273421644E+00    0.3208556251E+00    0.2667036989E-01    0.7729436976E-01    0.1313282770E+00
    0.3700000000E+03    0.1287505531E+00    0.3251596388E+00    0.2700175242E-01    0.8014808575E-01    0.1331294384E+00
    0.3900000000E+03    0.1300071824E+00    0.3291535118E+00    0.2730139368E-01    0.8291907278E-01    0.1348032332E+00
    0.4100000000E+03    0.1311289467E+00    0.3328720556E+00    0.2757272831E-01    0.8561326928E-01    0.1363638636E+00
    0.4300000000E+03    0.1321303910E+00    0.3363449082E+00    0.2781871833E-01    0.8823600581E-01    0.1378234280E+00
    0.4500000000E+03    0.1330241076E+00    0.3395974739E+00    0.2804193257E-01    0.9079208317E-01    0.1391923027E+00
    0.4700000000E+03    0.1338210542E+00    0.3426516648E+00    0.2824461037E-01    0.9328583859E-01    0.1404794428E+00
    0.4900000000E+03    0.1345308107E+00    0.3455264895E+00    0.2842871315E-01    0.9572120210E-01    0.1416926210E+00
    0.1000000000E+03    0.8097003417E-01    0.2046845139E+00    0.1662921442E-01    0.3050740504E-01    0.8334863758E-01
    0.3000000000E+03    0.1230188963E+00    0.3084483656E+00    0.2567498393E-01    0.6975254522E-01    0.1261497864E+00
    0.5000000000E+03    0.1348556620E+00    0.3469019042E+00    0.2851434636E-01    0.9691811569E-01    0.1422736284E+00
    0.7000000000E+03    0.1383591315E+00    0.3680873482E+00    0.2957798351E-01    0.1185066823E+00    0.1512779898E+00
    0.9000000000E+03    0.1385699039E+00    0.3818824386E+00    0.2990689595E-01    0.1368825492E+00    0.1572111050E+00
    0.1100000000E+04    0.1372621308E+00    0.3917427269E+00    0.2987627839E-01    0.1531496568E+00    0.1614973334E+00
    0.1300000000E+04    0.1351991601E+00    0.3992235926E+00    0.2965208984E-01    0.1679079031E+00    0.1647811420E+00
    0.1500000000E+04    0.1327519344E+00    0.4051396414E+00    0.2931763704E-01    0.1815185283E+00    0.1674016926E+00
    0.1700000000E+04    0.1301159322E+00    0.4099633596E+00    0.2891854110E-01    0.1942158500E+00    0.1695565975E+00
    0.1900000000E+04    0.1274000920E+00    0.4139897752E+00    0.2848142438E-01    0.2061606892E+00    0.1713697780E+00
    0.2100000000E+04    0.1246674796E+00    0.4174137002E+00    0.2802258604E-01    0.2174684446E+00    0.1729233952E+00
    0.2300000000E+04    0.1219554731E+00    0.4203695442E+00    0.2755237974E-01    0.2282249616E+00    0.1742743566E+00
    0.2500000000E+04    0.1192864385E+00    0.4229533838E+00    0.2707757155E-01    0.2384960409E+00    0.1754634926E+00
    0.2700000000E+04    0.1166736714E+00    0.4252359280E+00    0.2660267866E-01    0.2483334123E+00    0.1765209612E+00
    0.2900000000E+04    0.1141248426E+00    0.4272705051E+00    0.2613076322E-01    0.2577786394E+00    0.1774695865E+00
    0.3100000000E+04    0.1116440661E+00    0.4290981807E+00    0.2566392047E-01    0.2668657581E+00    0.1783270037E+00
    0.3300000000E+04    0.1092331755E+00    0.4307511500E+00    0.2520358848E-01    0.2756231101E+00    0.1791070842E+00
    0.3500000000E+04    0.1068925304E+00    0.4322550507E+00    0.2475074993E-01    0.2840746499E+00    0.1798209091E+00
    0.3700000000E+04    0.1046215371E+00    0.4336305807E+00    0.2430606669E-01    0.2922408958E+00    0.1804774524E+00
    0.3900000000E+04    0.1024189883E+00    0.4348946541E+00    0.2386997150E-01    0.3001396343E+00    0.1810840698E+00
    0.4100000000E+04    0.1002832895E+00    0.4360612434E+00    0.2344273140E-01    0.3077864519E+00    0.1816468557E+00
    0.4300000000E+04    0.9821261031E-01    0.4371420040E+00    0.2302449255E-01    0.3151951421E+00    0.1821709088E+00
    0.4500000000E+04    0.9620498655E-01    0.4381467441E+00    0.2261531217E-01    0.3223780198E+00    0.1826605317E+00
    0.4700000000E+04    0.9425838929E-01    0.4390837831E+00    0.2221518170E-01    0.3293461688E+00    0.1831193845E+00
    0.4900000000E+04    0.9237077163E-01    0.4399602296E+00    0.2182404376E-01    0.3361096382E+00    0.1835506028E+00
    0.1000000000E+04    0.1380448285E+00    0.3871823133E+00    0.2992337336E-01    0.1452346402E+00    0.1595095496E+00
    0.3000000000E+04    0.1128757910E+00    0.4282080167E+00    0.2589660525E-01    0.2623650749E+00    0.1779087541E+00
    0.5000000000E+04    0.9144844359E-01    0.4403776751E+00    0.2163181886E-01    0.3394175144E+00    0.1837567089E+00
    0.7000000000E+04    0.7562974376E-01    0.4466617623E+00    0.1822586160E-01    0.3967119258E+00    0.1869242132E+00
    0.9000000000E+04    0.6375097648E-01    0.4506149130E+00    0.1553669749E-01    0.4407660711E+00    0.1889945535E+00
    0.1100000000E+05    0.5465434426E-01    0.4533764852E+00    0.1340163510E-01    0.4752809062E+00    0.1904886429E+00
    0.1300000000E+05    0.4756185159E-01    0.4554362498E+00    0.1169053204E-01    0.5027286160E+00    0.1916354128E+00
    0.1500000000E+05    0.4193992846E-01    0.4570432112E+00    0.1030454441E-01    0.5248523056E+00    0.1925535312E+00
    0.1700000000E+05    0.3741545352E-01    0.4583387409E+00    0.9169584857E-02    0.5429098642E+00    0.1933115382E+00
    0.1900000000E+05    0.3372300067E-01    0.4594096709E+00    0.8230194944E-02    0.5578222966E+00    0.1939521829E+00
    0.2100000000E+05    0.3067074694E-01    0.4603125811E+00    0.7444686779E-02    0.5702722256E+00    0.1945037085E+00
    0.2300000000E+05    0.2811797267E-01    0.4610860788E+00    0.6781500316E-02    0.5807715150E+00    0.1949856312E+00
    0.2500000000E+05    0.2595996620E-01    0.4617575015E+00    0.6216535373E-02    0.5897083996E+00    0.1954119314E+00
    0.2700000000E+05    0.2411774849E-01    0.4623468043E+00    0.5731214970E-02    0.5973806626E+00    0.1957929246E+00
    0.2900000000E+05    0.2253098208E-01    0.4628689287E+00    0.5311081243E-02    0.6040192056E+00    0.1961364127E+00
    0.3100000000E+05    0.2115301193E-01    0.4633353063E+00    0.4944774193E-02    0.6098049507E+00    0.1964484224E+00
    0.3300000000E+05    0.1994735191E-01    0.4637548474E+00    0.4623284545E-02    0.6148810779E+00    0.1967336939E+00
    0.3500000000E+05    0.1888516399E-01    0.4641346100E+00    0.4339403120E-02    0.6193619744E+00    0.1969960147E+00
    0.3700000000E+05    0.1794342757E-01    0.4644802646E+00    0.4087311700E-02    0.6233398444E+00    0.1972384532E+00
    0.3900000000E+05    0.1710359441E-01    0.4647964244E+00    0.3862276424E-02    0.6268896391E+00    0.1974635262E+00
    0.4100000000E+05    0.1635058930E-01    0.4650868844E+00    0.3660416019E-02    0.6300727692E+00    0.1976733200E+00
    0.4300000000E+05    0.1567205976E-01    0.4653547982E+00    0.3478525083E-02    0.6329399278E+00    0.1978695818E+00
    0.4500000000E+05    0.1505780689E-01    0.4656028098E+00    0.3313938220E-02    0.6355332541E+00    0.1980537873E+00
    0.4700000000E+05    0.1449934960E-01    0.4658331545E+00    0.3164424712E-02    0.6378880089E+00    0.1982271930E+00
    0.4900000000E+05    0.1398958795E-01    0.4660477360E+00    0.3028106238E-02    0.6400338800E+00    0.1983908767E+00
    0.1000000000E+05    0.5891052517E-01    0.4521058298E+00    0.1440884008E-01    0.4590404108E+00    0.1897955864E+00
    0.3000000000E+05    0.2181838267E-01    0.4631084789E+00    0.5121810301E-02    0.6070089628E+00    0.1962960305E+00
    0.5000000000E+05    0.1375106112E-01    0.4661496348E+00    0.2964388289E-02    0.6410364951E+00    0.1984693687E+00
    0.7000000000E+05    0.1048643761E-01    0.4676565595E+00    0.2101206773E-02    0.6545738087E+00    0.1996999755E+00
    0.9000000000E+05    0.8727746216E-02    0.4685724037E+00    0.1650351605E-02    0.6615717173E+00    0.2005349977E+00
    0.1100000000E+06    0.7618007150E-02    0.4691922653E+00    0.1375927202E-02    0.6657712071E+00    0.2011572952E+00
    0.1300000000E+06    0.6845516383E-02    0.4696408518E+00    0.1191658349E-02    0.6685442008E+00    0.2016485382E+00
    0.1500000000E+06    0.6271148049E-02    0.4699806892E+00    0.1059239216E-02    0.6705006398E+00    0.2020517278E+00
    0.1700000000E+06    0.5823623143E-02    0.4702468462E+00    0.9592601391E-03    0.6719495166E+00    0.2023920766E+00
    0.1900000000E+06    0.5462616984E-02    0.4704606241E+00    0.8808962933E-03    0.6730628756E+00    0.2026855386E+00
    0.2100000000E+06    0.5163550061E-02    0.4706357588E+00    0.8176546573E-03    0.6739436174E+00    0.2029428022E+00
    0.2300000000E+06    0.4910544843E-02    0.4707815308E+00    0.7654114242E-03    0.6746568402E+00    0.2031713526E+00
    0.2500000000E+06    0.4692858214E-02    0.4709044492E+00    0.7214240730E-03    0.6752456301E+00    0.2033766210E+00
    0.2700000000E+06    0.4502940868E-02    0.4710092214E+00    0.6837982947E-03    0.6757395838E+00    0.2035626648E+00
    0.2900000000E+06    0.4335318575E-02    0.4710993406E+00    0.6511835388E-03    0.6761596735E+00    0.2037325892E+00
    0.3100000000E+06    0.4185915389E-02    0.4711774558E+00    0.6225906969E-03    0.6765211573E+00    0.2038888199E+00
    0.3300000000E+06    0.4051627222E-02    0.4712456138E+00    0.5972784603E-03    0.6768353911E+00    0.2040332857E+00
    0.3500000000E+06    0.3930043674E-02    0.4713054222E+00    0.5746800046E-03    0.6771109941E+00    0.2041675437E+00
    0.3700000000E+06    0.3819261041E-02    0.4713581614E+00    0.5543542597E-03    0.6773546226E+00    0.2042928679E+00
    0.3900000000E+06    0.3717753286E-02    0.4714048645E+00    0.5359526637E-03    0.6775714959E+00    0.2044103133E+00
    0.4100000000E+06    0.3624280933E-02    0.4714463743E+00    0.5191959513E-03    0.6777657624E+00    0.2045207623E+00
    0.4300000000E+06    0.3537825407E-02    0.4714833854E+00    0.5038576141E-03    0.6779407597E+00    0.2046249605E+00
    0.4500000000E+06    0.3457540846E-02    0.4715164752E+00    0.4897518950E-03    0.6780992026E+00    0.2047235426E+00
    0.4700000000E+06    0.3382718163E-02    0.4715461282E+00    0.4767249304E-03    0.6782433214E+00    0.2048170537E+00
    0.4900000000E+06    0.3312757828E-02    0.4715727532E+00    0.4646481155E-03    0.6783749647E+00    0.2049059648E+00
    0.1000000000E+06    0.8117408040E-02    0.4689094089E+00    0.1498189315E-02    0.6639083588E+00    0.2008663283E+00
    0.3000000000E+06    0.4258552566E-02    0.4711397589E+00    0.6364355099E-03    0.6763469560E+00    0.2038122858E+00
    0.5000000000E+06    0.3279438408E-02    0.4715850411E+00    0.4589314669E-03    0.6784366010E+00    0.2049488255E+00
    0.7000000000E+06    0.2776324319E-02    0.4717340905E+00    0.3753176607E-03    0.6792834864E+00    0.2056408857E+00
    0.9000000000E+06    0.2455714517E-02    0.4717836953E+00    0.3245998185E-03    0.6797409494E+00    0.2061336520E+00
    0.1100000000E+07    0.2228062157E-02    0.4717902068E+00    0.2897408404E-03    0.6800272580E+00    0.2065141986E+00
    0.1300000000E+07    0.2055434952E-02    0.4717754548E+00    0.2639218229E-03    0.6802233532E+00    0.2068231342E+00
    0.1500000000E+07    0.1918600158E-02    0.4717494509E+00    0.2438217232E-03    0.6803661111E+00    0.2070825716E+00
    0.1700000000E+07    0.1806612240E-02    0.4717173099E+00    0.2276069615E-03    0.6804747230E+00    0.2073058376E+00
    0.1900000000E+07    0.1712715912E-02    0.4716818442E+00    0.2141725750E-03    0.6805601589E+00    0.2075015632E+00
    0.2100000000E+07    0.1632482977E-02    0.4716446826E+00    0.2028081350E-03    0.6806291425E+00    0.2076756479E+00
    0.2300000000E+07    0.1562872012E-02    0.4716068032E+00    0.1930334969E-03    0.6806860248E+00    0.2078322966E+00
    0.2500000000E+07    0.1501714786E-02    0.4715688073E+00    0.1845110156E-03    0.6807337455E+00    0.2079746088E+00
    0.2700000000E+07    0.1447417781E-02    0.4715310695E+00    0.1769954520E-03    0.6807743627E+00    0.2081049327E+00
    0.2900000000E+07    0.1398779764E-02    0.4714938235E+00    0.1703038358E-03    0.6808093602E+00    0.2082250887E+00
    0.3100000000E+07    0.1354875559E-02    0.4714572131E+00    0.1642965243E-03    0.6808398349E+00    0.2083365158E+00
    0.3300000000E+07    0.1314979362E-02    0.4714213239E+00    0.1588648559E-03    0.6808666152E+00    0.2084403704E+00
    0.3500000000E+07    0.1278512609E-02    0.4713862030E+00    0.1539228453E-03    0.6808903387E+00    0.2085375956E+00
    0.3700000000E+07    0.1245007609E-02    0.4713518722E+00    0.1494014460E-03    0.6809115038E+00    0.2086289703E+00
    0.3900000000E+07    0.1214081601E-02    0.4713183361E+00    0.1452444916E-03    0.6809305059E+00    0.2087151450E+00
    0.4100000000E+07    0.1185417864E-02    0.4712855880E+00    0.1414057654E-03    0.6809476628E+00    0.2087966681E+00
    0.4300000000E+07    0.1158751735E-02    0.4712536140E+00    0.1378468452E-03    0.6809632329E+00    0.2088740068E+00
    0.4500000000E+07    0.1133860081E-02    0.4712223952E+00    0.1345354926E-03    0.6809774283E+00    0.2089475617E+00
    0.4700000000E+07    0.1110553268E-02    0.4711919098E+00    0.1314444300E-03    0.6809904248E+00    0.2090176788E+00
    0.4900000000E+07    0.1088668948E-02    0.4711621343E+00    0.1285504022E-03    0.6810023694E+00    0.2090846595E+00
    0.1000000000E+07    0.2333279630E-02    0.4717905598E+00    0.3057358463E-03    0.6798988746E+00    0.2063347986E+00
    0.3000000000E+07    0.1376285266E-02    0.4714754324E+00    0.1672220468E-03    0.6808251058E+00    0.2082818154E+00
    0.5000000000E+07    0.1078215733E-02    0.4711475052E+00    0.1271709255E-03    0.6810079867E+00    0.2091170573E+00
    0.7000000000E+07    0.9181871932E-03    0.4708863859E+00    0.1062899289E-03    0.6810869556E+00    0.2096499907E+00
    0.9000000000E+07    0.8143726027E-03    0.4706718579E+00    0.9299207405E-04    0.6811312547E+00    0.2100406660E+00
    0.1100000000E+08    0.7399727096E-03    0.4704900378E+00    0.8359008912E-04    0.6811597237E+00    0.2103486623E+00
    0.1300000000E+08    0.6832457731E-03    0.4703322310E+00    0.7649758902E-04    0.6811796217E+00    0.2106026585E+00
    0.1500000000E+08    0.6381213851E-03    0.4701927637E+00    0.7090530005E-04    0.6811943469E+00    0.2108186459E+00
    0.1700000000E+08    0.6011014122E-03    0.4700677544E+00    0.6635176482E-04    0.6812057054E+00    0.2110064450E+00
    0.1900000000E+08    0.5700082944E-03    0.4699544373E+00    0.6255222533E-04    0.6812147469E+00    0.2111725152E+00
    0.2100000000E+08    0.5434057386E-03    0.4698507735E+00    0.5932025088E-04    0.6812221242E+00    0.2113213300E+00
    0.2300000000E+08    0.5203026684E-03    0.4697552174E+00    0.5652803164E-04    0.6812282645E+00    0.2114561142E+00
    0.2500000000E+08    0.4999900170E-03    0.4696665692E+00    0.5408465032E-04    0.6812334597E+00    0.2115792685E+00
    0.2700000000E+08    0.4819451927E-03    0.4695838787E+00    0.5192344484E-04    0.6812379160E+00    0.2116926275E+00
