  Pressure (Pa) 2mC6-400 (mol/kg) 3mC6-400 (mol/kg) 33mC5-400 (mol/kg) 23mC5-400 (mol/kg) C7-400 (mol/kg)
    0.1000000000E+01    0.1585942274E-02    0.1574434733E-02    0.6457101664E-03    0.9333176318E-04    0.6813060678E-02
    0.3000000000E+01    0.4634616761E-02    0.4586285751E-02    0.1887430892E-02    0.2787004370E-03    0.1984900867E-01
    0.5000000000E+01    0.7530830608E-02    0.7428643361E-02    0.3067671562E-02    0.4623687833E-03    0.3215482289E-01
    0.7000000000E+01    0.1028734031E-01    0.1011577891E-01    0.4191596019E-02    0.6443674799E-03    0.4379188939E-01
    0.9000000000E+01    0.1291547687E-01    0.1266039561E-01    0.5263789322E-02    0.8247264349E-03    0.5481485413E-01
    0.1100000000E+02    0.1542533974E-01    0.1507383852E-01    0.6288336647E-02    0.1003474811E-02    0.6527252517E-01
    0.1300000000E+02    0.1782596013E-01    0.1736627168E-01    0.7268889669E-02    0.1180641050E-02    0.7520863359E-01
    0.1500000000E+02    0.2012543891E-01    0.1954682819E-01    0.8208722671E-02    0.1356252894E-02    0.8466247843E-01
    0.1700000000E+02    0.2233106395E-01    0.2162373794E-01    0.9110780196E-02    0.1530337408E-02    0.9366947555E-01
    0.1900000000E+02    0.2444940998E-01    0.2360443686E-01    0.9977717676E-02    0.1702921001E-02    0.1022616270E+00
    0.2100000000E+02    0.2648642430E-01    0.2549566060E-01    0.1081193621E-01    0.1874029444E-02    0.1104679236E+00
    0.2300000000E+02    0.2844750029E-01    0.2730352530E-01    0.1161561249E-01    0.2043687894E-02    0.1183146922E+00
    0.2500000000E+02    0.3033754094E-01    0.2903359737E-01    0.1239072452E-01    0.2211920908E-02    0.1258258955E+00
    0.2700000000E+02    0.3216101384E-01    0.3069095413E-01    0.1313907402E-01    0.2378752463E-02    0.1330233927E+00
    0.2900000000E+02    0.3392199885E-01    0.3228023643E-01    0.1386230575E-01    0.2544205976E-02    0.1399271656E+00
    0.3100000000E+02    0.3562422980E-01    0.3380569480E-01    0.1456192442E-01    0.2708304314E-02    0.1465555171E+00
    0.3300000000E+02    0.3727113076E-01    0.3527122973E-01    0.1523930942E-01    0.2871069817E-02    0.1529252444E+00
    0.3500000000E+02    0.3886584799E-01    0.3668042708E-01    0.1589572780E-01    0.3032524310E-02    0.1590517909E+00
    0.3700000000E+02    0.4041127791E-01    0.3803658931E-01    0.1653234556E-01    0.3192689119E-02    0.1649493811E+00
    0.3900000000E+02    0.4191009179E-01    0.3934276303E-01    0.1715023775E-01    0.3351585084E-02    0.1706311384E+00
    0.4100000000E+02    0.4336475762E-01    0.4060176338E-01    0.1775039722E-01    0.3509232577E-02    0.1761091903E+00
    0.4300000000E+02    0.4477755934E-01    0.4181619573E-01    0.1833374254E-01    0.3665651511E-02    0.1813947615E+00
    0.4500000000E+02    0.4615061412E-01    0.4298847489E-01    0.1890112487E-01    0.3820861354E-02    0.1864982568E+00
    0.4700000000E+02    0.4748588750E-01    0.4412084230E-01    0.1945333422E-01    0.3974881143E-02    0.1914293348E+00
    0.4900000000E+02    0.4878520712E-01    0.4521538142E-01    0.1999110492E-01    0.4127729497E-02    0.1961969740E+00
    0.1000000000E+02    0.1418460476E-01    0.1388285273E-01    0.5781781045E-02    0.9143001512E-03    0.6011150725E-01
    0.3000000000E+02    0.3478023771E-01    0.3305069206E-01    0.1421497773E-01    0.2626423133E-02    0.1432746858E+00
    0.5000000000E+02    0.4942192070E-01    0.4574907665E-01    0.2025479125E-01    0.4203720092E-02    0.1985221386E+00
    0.7000000000E+02    0.6062564174E-01    0.5484315063E-01    0.2491380851E-01    0.5666266607E-02    0.2381956947E+00
    0.9000000000E+02    0.6960950920E-01    0.6171429984E-01    0.2868075608E-01    0.7030167048E-02    0.2682512197E+00
    0.1100000000E+03    0.7704542677E-01    0.6711258055E-01    0.3182460498E-01    0.8308506441E-02    0.2919254949E+00
    0.1300000000E+03    0.8334078807E-01    0.7148149264E-01    0.3450821514E-01    0.9512038825E-02    0.3111340909E+00
    0.1500000000E+03    0.8876086392E-01    0.7510069173E-01    0.3683757348E-01    0.1064969386E-01    0.3270859630E+00
    0.1700000000E+03    0.9348817066E-01    0.7815561921E-01    0.3888561594E-01    0.1172895558E-01    0.3405834778E+00
    0.1900000000E+03    0.9765385693E-01    0.8077432138E-01    0.4070479182E-01    0.1275614963E-01    0.3521811472E+00
    0.2100000000E+03    0.1013554891E+00    0.8304820479E-01    0.4233416871E-01    0.1373666396E-01    0.3622751544E+00
    0.2300000000E+03    0.1046677219E+00    0.8504436254E-01    0.4380368795E-01    0.1467512030E-01    0.3711565512E+00
    0.2500000000E+03    0.1076490149E+00    0.8681321939E-01    0.4513683934E-01    0.1557550899E-01    0.3790442684E+00
    0.2700000000E+03    0.1103460337E+00    0.8839345066E-01    0.4635241252E-01    0.1644129589E-01    0.3861063667E+00
    0.2900000000E+03    0.1127966366E+00    0.8981524824E-01    0.4746568447E-01    0.1727550810E-01    0.3924741534E+00
    0.3100000000E+03    0.1150319620E+00    0.9110254898E-01    0.4848924940E-01    0.1808080309E-01    0.3982518195E+00
    0.3300000000E+03    0.1170779260E+00    0.9227459196E-01    0.4943361394E-01    0.1885952505E-01    0.4035231775E+00
    0.3500000000E+03    0.1189563206E+00    0.9334702985E-01    0.5030763399E-01    0.1961375106E-01    0.4083564726E+00
    0.3700000000E+03    0.1206856354E+00    0.9433273704E-01    0.5111884163E-01    0.2034532926E-01    0.4128078831E+00
    0.3900000000E+03    0.1222816833E+00    0.9524240732E-01    0.5187369413E-01    0.2105591048E-01    0.4169241099E+00
    0.4100000000E+03    0.1237580838E+00    0.9608500254E-01    0.5257776668E-01    0.2174697475E-01    0.4207443221E+00
    0.4300000000E+03    0.1251266420E+00    0.9686809408E-01    0.5323590343E-01    0.2241985356E-01    0.4243016384E+00
    0.4500000000E+03    0.1263976490E+00    0.9759812603E-01    0.5385233751E-01    0.2307574869E-01    0.4276242687E+00
    0.4700000000E+03    0.1275801227E+00    0.9828062030E-01    0.5443078731E-01    0.2371574813E-01    0.4307364051E+00
    0.4900000000E+03    0.1286820030E+00    0.9892033814E-01    0.5497453456E-01    0.2434083979E-01    0.4336589238E+00
    0.1000000000E+03    0.7349117534E-01    0.6456482668E-01    0.3031865713E-01    0.7679311785E-02    0.2807447180E+00
    0.3000000000E+03    0.1139394813E+00    0.9047441295E-01    0.4798798047E-01    0.1768161698E-01    0.3954310996E+00
    0.5000000000E+03    0.1292049468E+00    0.9922546797E-01    0.5523431683E-01    0.2464807944E-01    0.4350548333E+00
    0.7000000000E+03    0.1367729774E+00    0.1038457208E+00    0.5916598776E-01    0.3019122377E-01    0.4563728756E+00
    0.9000000000E+03    0.1409468243E+00    0.1067669119E+00    0.6158001159E-01    0.3491068337E-01    0.4700793708E+00
    0.1100000000E+04    0.1433537758E+00    0.1088066424E+00    0.6317294711E-01    0.3909123644E-01    0.4797984335E+00
    0.1300000000E+04    0.1447432695E+00    0.1103238449E+00    0.6427343157E-01    0.4288976541E-01    0.4871324544E+00
    0.1500000000E+04    0.1455052540E+00    0.1115030302E+00    0.6505669512E-01    0.4640181267E-01    0.4929106062E+00
    0.1700000000E+04    0.1458606093E+00    0.1124496047E+00    0.6562452633E-01    0.4968993341E-01    0.4976095202E+00
    0.1900000000E+04    0.1459425830E+00    0.1132285350E+00    0.6603995932E-01    0.5279738772E-01    0.5015247010E+00
    0.2100000000E+04    0.1458355680E+00    0.1138822302E+00    0.6634402473E-01    0.5575539827E-01    0.5048501358E+00
    0.2300000000E+04    0.1455951264E+00    0.1144396490E+00    0.6656452232E-01    0.5858728508E-01    0.5077190052E+00
    0.2500000000E+04    0.1452590080E+00    0.1149212964E+00    0.6672091829E-01    0.6131096095E-01    0.5102261035E+00
    0.2700000000E+04    0.1448535357E+00    0.1153421318E+00    0.6682722483E-01    0.6394051008E-01    0.5124409384E+00
    0.2900000000E+04    0.1443974670E+00    0.1157133461E+00    0.6689376765E-01    0.6648722675E-01    0.5144157618E+00
    0.3100000000E+04    0.1439044142E+00    0.1160434911E+00    0.6692831111E-01    0.6896032179E-01    0.5161906946E+00
    0.3300000000E+04    0.1433844095E+00    0.1163392232E+00    0.6693679709E-01    0.7136741695E-01    0.5177971105E+00
    0.3500000000E+04    0.1428449437E+00    0.1166058071E+00    0.6692384349E-01    0.7371489957E-01    0.5192599357E+00
    0.3700000000E+04    0.1422916719E+00    0.1168474653E+00    0.6689308855E-01    0.7600818241E-01    0.5205992520E+00
    0.3900000000E+04    0.1417289031E+00    0.1170676271E+00    0.6684743382E-01    0.7825189787E-01    0.5218314396E+00
    0.4100000000E+04    0.1411599455E+00    0.1172691086E+00    0.6678921867E-01    0.8045004543E-01    0.5229700071E+00
    0.4300000000E+04    0.1405873548E+00    0.1174542457E+00    0.6672034787E-01    0.8260610545E-01    0.5240262058E+00
    0.4500000000E+04    0.1400131141E+00    0.1176249930E+00    0.6664238622E-01    0.8472312805E-01    0.5250094905E+00
    0.4700000000E+04    0.1394387675E+00    0.1177830000E+00    0.6655662969E-01    0.8680380354E-01    0.5259278715E+00
    0.4900000000E+04    0.1388655194E+00    0.1179296687E+00    0.6646415955E-01    0.8885051874E-01    0.5267881848E+00
    0.1000000000E+04    0.1423123615E+00    0.1078686190E+00    0.6245350435E-01    0.3705658271E-01    0.4753110445E+00
    0.3000000000E+04    0.1441548669E+00    0.1158830986E+00    0.6691463198E-01    0.6773246808E-01    0.5153260798E+00
    0.5000000000E+04    0.1385796095E+00    0.1179991331E+00    0.6641569655E-01    0.8986181551E-01    0.5271984344E+00
    0.7000000000E+04    0.1330591859E+00    0.1190103560E+00    0.6525283464E-01    0.1087198039E+00    0.5334256425E+00
    0.9000000000E+04    0.1280038584E+00    0.1196065513E+00    0.6392458389E-01    0.1256694080E+00    0.5374177168E+00
    0.1100000000E+05    0.1233814353E+00    0.1199993261E+00    0.6255548919E-01    0.1413034599E+00    0.5402620399E+00
    0.1300000000E+05    0.1191216507E+00    0.1202765754E+00    0.6118763164E-01    0.1559421051E+00    0.5424257808E+00
    0.1500000000E+05    0.1151639999E+00    0.1204816989E+00    0.5983763320E-01    0.1697809569E+00    0.5441468506E+00
    0.1700000000E+05    0.1114614448E+00    0.1206387037E+00    0.5851259779E-01    0.1829496481E+00    0.5455607233E+00
    0.1900000000E+05    0.1079778600E+00    0.1207619889E+00    0.5721560900E-01    0.1955392397E+00    0.5467509244E+00
    0.2100000000E+05    0.1046852307E+00    0.1208607315E+00    0.5594790753E-01    0.2076166066E+00    0.5477721175E+00
    0.2300000000E+05    0.1015614883E+00    0.1209410640E+00    0.5470984144E-01    0.2192326426E+00    0.5486617818E+00
    0.2500000000E+05    0.9858895103E-01    0.1210072433E+00    0.5350131075E-01    0.2304272429E+00    0.5494465927E+00
    0.2700000000E+05    0.9575321589E-01    0.1210623179E+00    0.5232198638E-01    0.2412324849E+00    0.5501461279E+00
    0.2900000000E+05    0.9304236642E-01    0.1211085290E+00    0.5117142167E-01    0.2516747393E+00    0.5507751301E+00
    0.3100000000E+05    0.9044639980E-01    0.1211475605E+00    0.5004911063E-01    0.2617761184E+00    0.5513449456E+00
    0.3300000000E+05    0.8795680659E-01    0.1211807026E+00    0.4895451870E-01    0.2715554958E+00    0.5518644731E+00
    0.3500000000E+05    0.8556625823E-01    0.1212089598E+00    0.4788709889E-01    0.2810292417E+00    0.5523408061E+00
    0.3700000000E+05    0.8326837153E-01    0.1212331260E+00    0.4684630026E-01    0.2902117619E+00    0.5527796814E+00
    0.3900000000E+05    0.8105752892E-01    0.1212538363E+00    0.4583157219E-01    0.2991159006E+00    0.5531857980E+00
    0.4100000000E+05    0.7892873966E-01    0.1212716051E+00    0.4484236643E-01    0.3077532449E+00    0.5535630488E+00
    0.4300000000E+05    0.7687753153E-01    0.1212868526E+00    0.4387813802E-01    0.3161343571E+00    0.5539146918E+00
    0.4500000000E+05    0.7489986549E-01    0.1212999262E+00    0.4293834565E-01    0.3242689554E+00    0.5542434792E+00
    0.4700000000E+05    0.7299206781E-01    0.1213111144E+00    0.4202245182E-01    0.3321660541E+00    0.5545517552E+00
    0.4900000000E+05    0.7115077560E-01    0.1213206597E+00    0.4112992289E-01    0.3398340741E+00    0.5548415320E+00
    0.1000000000E+05    0.1256430001E+00    0.1198213420E+00    0.6324159046E-01    0.1336269011E+00    0.5389463321E+00
    0.3000000000E+05    0.9173058550E-01    0.1211288538E+00    0.5060676742E-01    0.2567667925E+00    0.5510668313E+00
    0.5000000000E+05    0.7025409213E-01    0.1213248814E+00    0.4069225457E-01    0.3435846707E+00    0.5549800360E+00
    0.7000000000E+05    0.5516717901E-01    0.1213591747E+00    0.3303850633E-01    0.4082933696E+00    0.5570998121E+00
    0.9000000000E+05    0.4422597175E-01    0.1213454515E+00    0.2714892338E-01    0.4571594453E+00    0.5584561055E+00
    0.1100000000E+06    0.3612775936E-01    0.1213138474E+00    0.2260013750E-01    0.4944675600E+00    0.5594022933E+00
    0.1300000000E+06    0.3002351325E-01    0.1212751583E+00    0.1905693350E-01    0.5233117399E+00    0.5601004624E+00
    0.1500000000E+06    0.2534117452E-01    0.1212339218E+00    0.1626620105E-01    0.5459195672E+00    0.5606372153E+00
    0.1700000000E+06    0.2168919780E-01    0.1211922274E+00    0.1404124394E-01    0.5638880872E+00    0.5610633323E+00
    0.1900000000E+06    0.1879596935E-01    0.1211510816E+00    0.1224543757E-01    0.5783643948E+00    0.5614105422E+00
    0.2100000000E+06    0.1647040521E-01    0.1211109714E+00    0.1077867553E-01    0.5901780397E+00    0.5616996320E+00
    0.2300000000E+06    0.1457608197E-01    0.1210721200E+00    0.9567137064E-02    0.5999349006E+00    0.5619447429E+00
    0.2500000000E+06    0.1301413792E-01    0.1210346114E+00    0.8555882817E-02    0.6080826232E+00    0.5621558003E+00
    0.2700000000E+06    0.1171187261E-01    0.1209984552E+00    0.7703592712E-02    0.6149559986E+00    0.5623399583E+00
    0.2900000000E+06    0.1061506250E-01    0.1209636211E+00    0.6978845087E-02    0.6208085013E+00    0.5625024938E+00
    0.3100000000E+06    0.9682717464E-02    0.1209300584E+00    0.6357480321E-02    0.6258343498E+00    0.5626473791E+00
    0.3300000000E+06    0.8883455647E-02    0.1208977065E+00    0.5820721511E-02    0.6301840789E+00    0.5627776587E+00
    0.3500000000E+06    0.8192963815E-02    0.1208665011E+00    0.5353823724E-02    0.6339756451E+00    0.5628957041E+00
    0.3700000000E+06    0.7592194606E-02    0.1208363783E+00    0.4945093958E-02    0.6373024335E+00    0.5630033893E+00
    0.3900000000E+06    0.7066070421E-02    0.1208072756E+00    0.4585173008E-02    0.6402390949E+00    0.5631022147E+00
    0.4100000000E+06    0.6602540047E-02    0.1207791337E+00    0.4266503910E-02    0.6428458480E+00    0.5631933961E+00
    0.4300000000E+06    0.6191883910E-02    0.1207518968E+00    0.3982934574E-02    0.6451716840E+00    0.5632779294E+00
    0.4500000000E+06    0.5826196694E-02    0.1207255124E+00    0.3729417847E-02    0.6472567782E+00    0.5633566381E+00
    0.4700000000E+06    0.5498997955E-02    0.1206999319E+00    0.3501782979E-02    0.6491343224E+00    0.5634302099E+00
    0.4900000000E+06    0.5204936121E-02    0.1206751100E+00    0.3296559947E-02    0.6508319313E+00    0.5634992236E+00
    0.1000000000E+06    0.3988253211E-01    0.1213309867E+00    0.2472995530E-01    0.4770413860E+00    0.5589678168E+00
    0.3000000000E+06    0.1013048435E-01    0.1209466845E+00    0.6656521598E-02    0.6234144731E+00    0.5625769341E+00
    0.5000000000E+06    0.5068910840E-02    0.1206629703E+00    0.3201425927E-02    0.6516206373E+00    0.5635321774E+00
    0.7000000000E+06    0.3322998983E-02    0.1204513211E+00    0.1970410072E-02    0.6619702106E+00    0.5640396307E+00
    0.9000000000E+06    0.2492096200E-02    0.1202828407E+00    0.1381989035E-02    0.6670767045E+00    0.5643784042E+00
    0.1100000000E+07    0.2018486740E-02    0.1201428161E+00    0.1049764840E-02    0.6700497440E+00    0.5646307538E+00
    0.1300000000E+07    0.1715723104E-02    0.1200229384E+00    0.8410217295E-03    0.6719723830E+00    0.5648310584E+00
    0.1500000000E+07    0.1506281040E-02    0.1199180783E+00    0.6997329287E-03    0.6733090025E+00    0.5649967531E+00
    0.1700000000E+07    0.1352849135E-02    0.1198248497E+00    0.5987212534E-03    0.6742884967E+00    0.5651378386E+00
    0.1900000000E+07    0.1235476504E-02    0.1197409002E+00    0.5234135974E-03    0.6750355801E+00    0.5652605620E+00
    0.2100000000E+07    0.1142612161E-02    0.1196645287E+00    0.4653792895E-03    0.6756235415E+00    0.5653690779E+00
    0.2300000000E+07    0.1067138952E-02    0.1195944647E+00    0.4194419684E-03    0.6760980722E+00    0.5654662847E+00
    0.2500000000E+07    0.1004446582E-02    0.1195297340E+00    0.3822672076E-03    0.6764890435E+00    0.5655542827E+00
    0.2700000000E+07    0.9514233043E-03    0.1194695731E+00    0.3516205442E-03    0.6768167608E+00    0.5656346408E+00
    0.2900000000E+07    0.9058954105E-03    0.1194133723E+00    0.3259542257E-03    0.6770954843E+00    0.5657085615E+00
    0.3100000000E+07    0.8662995812E-03    0.1193606369E+00    0.3041655609E-03    0.6773355092E+00    0.5657769860E+00
    0.3300000000E+07    0.8314830285E-03    0.1193109599E+00    0.2854496738E-03    0.6775444468E+00    0.5658406645E+00
    0.3500000000E+07    0.8005770672E-03    0.1192640024E+00    0.2692065557E-03    0.6777280411E+00    0.5659002046E+00
    0.3700000000E+07    0.7729145709E-03    0.1192194792E+00    0.2549805661E-03    0.6778907057E+00    0.5659561048E+00
    0.3900000000E+07    0.7479745700E-03    0.1191771477E+00    0.2424199848E-03    0.6780358868E+00    0.5660087792E+00
    0.4100000000E+07    0.7253441494E-03    0.1191368004E+00    0.2312493193E-03    0.6781663130E+00    0.5660585758E+00
    0.4300000000E+07    0.7046916703E-03    0.1190982578E+00    0.2212499427E-03    0.6782841728E+00    0.5661057891E+00
    0.4500000000E+07    0.6857475821E-03    0.1190613638E+00    0.2122462962E-03    0.6783912412E+00    0.5661506712E+00
    0.4700000000E+07    0.6682904313E-03    0.1190259820E+00    0.2040958900E-03    0.6784889731E+00    0.5661934389E+00
    0.4900000000E+07    0.6521364975E-03    0.1189919922E+00    0.1966819426E-03    0.6785785720E+00    0.5662342806E+00
    0.1000000000E+07    0.2226261507E-02    0.1202098902E+00    0.1194928256E-02    0.6687398594E+00    0.5645126502E+00
    0.3000000000E+07    0.8854359090E-03    0.1193865986E+00    0.3146311837E-03    0.6772198067E+00    0.5657434101E+00
    0.5000000000E+07    0.6444991848E-03    0.1189754856E+00    0.1932202950E-03    0.6786206421E+00    0.5662540314E+00
    0.7000000000E+07    0.5332602029E-03    0.1186980355E+00    0.1461094831E-03    0.6792096549E+00    0.5665787433E+00
    0.9000000000E+07    0.4658966838E-03    0.1184880350E+00    0.1207018233E-03    0.6795415968E+00    0.5668168490E+00
    0.1100000000E+08    0.4194492981E-03    0.1183189031E+00    0.1045630679E-03    0.6797581181E+00    0.5670047820E+00
    0.1300000000E+08    0.3848896138E-03    0.1181772399E+00    0.9326547412E-04    0.6799123000E+00    0.5671599768E+00
    0.1500000000E+08    0.3578541039E-03    0.1180553282E+00    0.8483436786E-04    0.6800286918E+00    0.5672921281E+00
    0.1700000000E+08    0.3359408035E-03    0.1179483112E+00    0.7825233401E-04    0.6801202872E+00    0.5674071819E+00
    0.1900000000E+08    0.3177030304E-03    0.1178529319E+00    0.7293952847E-04    0.6801946454E+00    0.5675090473E+00
    0.2100000000E+08    0.3022099331E-03    0.1177668989E+00    0.6853990608E-04    0.6802564824E+00    0.5676004313E+00
    0.2300000000E+08    0.2888314405E-03    0.1176885382E+00    0.6482193653E-04    0.6803089039E+00    0.5676832858E+00
    0.2500000000E+08    0.2771236216E-03    0.1176165896E+00    0.6162805492E-04    0.6803540448E+00    0.5677590644E+00
    0.2700000000E+08    0.2667633441E-03    0.1175500803E+00    0.5884699980E-04    0.6803934249E+00    0.5678288784E+00
