  Pressure (Pa) 2mC6-400 (mol/kg) 3mC6-400 (mol/kg) 33mC5-400 (mol/kg) 23mC5-400 (mol/kg) C7-400 (mol/kg)
    0.1000000000E+01    0.1567724762E-02    0.1551946606E-02    0.2553566578E-03    0.9336729928E-04    0.1679056138E-01
    0.3000000000E+01    0.4485396510E-02    0.4400592365E-02    0.7310133263E-03    0.2790166989E-03    0.4762323064E-01
    0.5000000000E+01    0.7152046337E-02    0.6953506752E-02    0.1166299415E-02    0.4632375646E-03    0.7527080498E-01
    0.7000000000E+01    0.9606380202E-02    0.9254857995E-02    0.1567477703E-02    0.6460515642E-03    0.1002082423E+00
    0.9000000000E+01    0.1187949959E-01    0.1134041601E-01    0.1939575940E-02    0.8274799080E-03    0.1228202604E+00
    0.1100000000E+02    0.1399666440E-01    0.1323945917E-01    0.2286673724E-02    0.1007543361E-02    0.1434218160E+00
    0.1300000000E+02    0.1597859011E-01    0.1497618409E-01    0.2612113513E-02    0.1186262256E-02    0.1622732469E+00
    0.1500000000E+02    0.1784241624E-01    0.1657076319E-01    0.2918658097E-02    0.1363656502E-02    0.1795916332E+00
    0.1700000000E+02    0.1960243897E-01    0.1804014871E-01    0.3208609661E-02    0.1539745600E-02    0.1955594348E+00
    0.1900000000E+02    0.2127067197E-01    0.1939869128E-01    0.3483900902E-02    0.1714548649E-02    0.2103311381E+00
    0.2100000000E+02    0.2285728053E-01    0.2065862112E-01    0.3746165517E-02    0.1888084359E-02    0.2240384266E+00
    0.2300000000E+02    0.2437092103E-01    0.2183042619E-01    0.3996793289E-02    0.2060371061E-02    0.2367942456E+00
    0.2500000000E+02    0.2581900874E-01    0.2292315223E-01    0.4236973538E-02    0.2231426717E-02    0.2486960262E+00
    0.2700000000E+02    0.2720793111E-01    0.2394464276E-01    0.4467729690E-02    0.2401268926E-02    0.2598282660E+00
    0.2900000000E+02    0.2854321886E-01    0.2490173272E-01    0.4689947001E-02    0.2569914940E-02    0.2702646103E+00
    0.3100000000E+02    0.2982968423E-01    0.2580040575E-01    0.4904394952E-02    0.2737381665E-02    0.2800695436E+00
    0.3300000000E+02    0.3107153364E-01    0.2664592305E-01    0.5111745469E-02    0.2903685677E-02    0.2892997747E+00
    0.3500000000E+02    0.3227245986E-01    0.2744292932E-01    0.5312587843E-02    0.3068843223E-02    0.2980053768E+00
    0.3700000000E+02    0.3343571809E-01    0.2819554075E-01    0.5507441025E-02    0.3232870236E-02    0.3062307330E+00
    0.3900000000E+02    0.3456418893E-01    0.2890741823E-01    0.5696763798E-02    0.3395782338E-02    0.3140153243E+00
    0.4100000000E+02    0.3566043099E-01    0.2958182874E-01    0.5880963271E-02    0.3557594851E-02    0.3213943899E+00
    0.4300000000E+02    0.3672672485E-01    0.3022169708E-01    0.6060401969E-02    0.3718322802E-02    0.3283994838E+00
    0.4500000000E+02    0.3776511010E-01    0.3082964963E-01    0.6235403813E-02    0.3877980929E-02    0.3350589454E+00
    0.4700000000E+02    0.3877741670E-01    0.3140805154E-01    0.6406259165E-02    0.4036583693E-02    0.3413983002E+00
    0.4900000000E+02    0.3976529152E-01    0.3195903851E-01    0.6573229108E-02    0.4194145280E-02    0.3474406015E+00
    0.1000000000E+02    0.1295618778E-01    0.1231163439E-01    0.2116025772E-02    0.9176809652E-03    0.1333549434E+00
    0.3000000000E+02    0.2919227841E-01    0.2535802693E-01    0.4798098054E-02    0.2653794670E-02    0.2752422912E+00
    0.5000000000E+02    0.4025053726E-01    0.3222486285E-01    0.6655331544E-02    0.4272539992E-02    0.3503569583E+00
    0.7000000000E+02    0.4896704072E-01    0.3648639149E-01    0.8139930826E-02    0.5789033001E-02    0.3972395535E+00
    0.9000000000E+02    0.5630576237E-01    0.3940018285E-01    0.9404192407E-02    0.7215786828E-02    0.4294763115E+00
    0.1100000000E+03    0.6269793533E-01    0.4152410293E-01    0.1051586795E-01    0.8563258133E-02    0.4531054719E+00
    0.1300000000E+03    0.6837605700E-01    0.4314423531E-01    0.1151143882E-01    0.9840260297E-02    0.4712292967E+00
    0.1500000000E+03    0.7348349683E-01    0.4442274255E-01    0.1241345687E-01    0.1105427998E-01    0.4856095067E+00
    0.1700000000E+03    0.7811770311E-01    0.4545856713E-01    0.1323732743E-01    0.1221172252E-01    0.4973229841E+00
    0.1900000000E+03    0.8234972289E-01    0.4631558866E-01    0.1399435278E-01    0.1331810432E-01    0.5070662668E+00
    0.2100000000E+03    0.8623403064E-01    0.4703693938E-01    0.1469325645E-01    0.1437820514E-01    0.5153105279E+00
    0.2300000000E+03    0.8981394200E-01    0.4765282291E-01    0.1534101990E-01    0.1539618976E-01    0.5223863135E+00
    0.2500000000E+03    0.9312483035E-01    0.4818503796E-01    0.1594337884E-01    0.1637570613E-01    0.5285326229E+00
    0.2700000000E+03    0.9619616463E-01    0.4864972279E-01    0.1650513790E-01    0.1731996495E-01    0.5339267176E+00
    0.2900000000E+03    0.9905287221E-01    0.4905908771E-01    0.1703038149E-01    0.1823180497E-01    0.5387029585E+00
    0.3100000000E+03    0.1017162927E+00    0.4942254644E-01    0.1752262188E-01    0.1911374666E-01    0.5429651211E+00
    0.3300000000E+03    0.1042048710E+00    0.4974747672E-01    0.1798490730E-01    0.1996803677E-01    0.5467946838E+00
    0.3500000000E+03    0.1065346769E+00    0.5003974483E-01    0.1841990333E-01    0.2079668557E-01    0.5502565496E+00
    0.3700000000E+03    0.1087198044E+00    0.5030407548E-01    0.1882995581E-01    0.2160149797E-01    0.5534030851E+00
    0.3900000000E+03    0.1107726857E+00    0.5054431781E-01    0.1921714048E-01    0.2238409990E-01    0.5562770291E+00
    0.4100000000E+03    0.1127043418E+00    0.5076364013E-01    0.1958330287E-01    0.2314596060E-01    0.5589136237E+00
    0.4300000000E+03    0.1145245859E+00    0.5096467475E-01    0.1993009077E-01    0.2388841161E-01    0.5613422006E+00
    0.4500000000E+03    0.1162421905E+00    0.5114962723E-01    0.2025898102E-01    0.2461266307E-01    0.5635873801E+00
    0.4700000000E+03    0.1178650257E+00    0.5132035986E-01    0.2057130180E-01    0.2531981768E-01    0.5656699872E+00
    0.4900000000E+03    0.1194001751E+00    0.5147845626E-01    0.2086825136E-01    0.2601088275E-01    0.5676077617E+00
    0.1000000000E+03    0.5960276454E-01    0.4053900840E-01    0.9976373590E-02    0.7898847555E-02    0.4421298296E+00
    0.3000000000E+03    0.1004075295E+00    0.4924605359E-01    0.1728042675E-01    0.1867636674E-01    0.5408927616E+00
    0.5000000000E+03    0.1201368907E+00    0.5155319720E-01    0.2101130482E-01    0.2635067301E-01    0.5685271760E+00
    0.7000000000E+03    0.1315332973E+00    0.5262973178E-01    0.2328085276E-01    0.3248930996E-01    0.5820713314E+00
    0.9000000000E+03    0.1387309077E+00    0.5325231828E-01    0.2479497896E-01    0.3771745814E-01    0.5902810338E+00
    0.1100000000E+04    0.1435316858E+00    0.5365664608E-01    0.2586726952E-01    0.4234290164E-01    0.5958627439E+00
    0.1300000000E+04    0.1468459020E+00    0.5393912061E-01    0.2665879994E-01    0.4653870744E-01    0.5999426022E+00
    0.1500000000E+04    0.1491812376E+00    0.5414663421E-01    0.2726085317E-01    0.5041157216E-01    0.6030773788E+00
    0.1700000000E+04    0.1508421044E+00    0.5430477105E-01    0.2772903358E-01    0.5403187339E-01    0.6055756670E+00
    0.1900000000E+04    0.1520214650E+00    0.5442868576E-01    0.2809914827E-01    0.5744849591E-01    0.6076230855E+00
    0.2100000000E+04    0.1528471514E+00    0.5452792900E-01    0.2839529807E-01    0.6069680941E-01    0.6093383829E+00
    0.2300000000E+04    0.1534069425E+00    0.5460881861E-01    0.2863430009E-01    0.6380326291E-01    0.6108012803E+00
    0.2500000000E+04    0.1537629347E+00    0.5467570008E-01    0.2882824611E-01    0.6678817936E-01    0.6120674139E+00
    0.2700000000E+04    0.1539601721E+00    0.5473165966E-01    0.2898605331E-01    0.6966753386E-01    0.6131768696E+00
    0.2900000000E+04    0.1540320369E+00    0.5477894892E-01    0.2911444195E-01    0.7245412849E-01    0.6141593107E+00
    0.3100000000E+04    0.1540037304E+00    0.5481924840E-01    0.2921857261E-01    0.7515839395E-01    0.6150371918E+00
    0.3300000000E+04    0.1538945871E+00    0.5485383727E-01    0.2930247384E-01    0.7778895170E-01    0.6158278455E+00
    0.3500000000E+04    0.1537196520E+00    0.5488370596E-01    0.2936933634E-01    0.8035301785E-01    0.6165448800E+00
    0.3700000000E+04    0.1534907798E+00    0.5490963291E-01    0.2942171998E-01    0.8285669941E-01    0.6171991396E+00
    0.3900000000E+04    0.1532174165E+00    0.5493223811E-01    0.2946170229E-01    0.8530521576E-01    0.6177993813E+00
    0.4100000000E+04    0.1529071638E+00    0.5495202120E-01    0.2949098691E-01    0.8770306691E-01    0.6183527593E+00
    0.4300000000E+04    0.1525661946E+00    0.5496938913E-01    0.2951098402E-01    0.9005416329E-01    0.6188651813E+00
    0.4500000000E+04    0.1521995623E+00    0.5498467654E-01    0.2952287088E-01    0.9236192723E-01    0.6193415713E+00
    0.4700000000E+04    0.1518114342E+00    0.5499816096E-01    0.2952763797E-01    0.9462937316E-01    0.6197860698E+00
    0.4900000000E+04    0.1514052697E+00    0.5501007444E-01    0.2952612456E-01    0.9685917186E-01    0.6202021852E+00
    0.1000000000E+04    0.1413610044E+00    0.5347402826E-01    0.2537404280E-01    0.4009262415E-01    0.5933104175E+00
    0.3000000000E+04    0.1540290805E+00    0.5479988457E-01    0.2916926518E-01    0.7381597648E-01    0.6146101369E+00
    0.5000000000E+04    0.1511963459E+00    0.5501550436E-01    0.2952324057E-01    0.9796070711E-01    0.6204005526E+00
    0.7000000000E+04    0.1465695921E+00    0.5507598990E-01    0.2926448142E-01    0.1184774943E+00    0.6234178062E+00
    0.9000000000E+04    0.1416977074E+00    0.5508965956E-01    0.2879972714E-01    0.1368831643E+00    0.6253791973E+00
    0.1100000000E+05    0.1369197235E+00    0.5508486022E-01    0.2824824618E-01    0.1538301829E+00    0.6268068558E+00
    0.1300000000E+05    0.1323237368E+00    0.5507181126E-01    0.2765736846E-01    0.1696681001E+00    0.6279191342E+00
    0.1500000000E+05    0.1279284024E+00    0.5505490376E-01    0.2704946610E-01    0.1846092943E+00    0.6288254104E+00
    0.1700000000E+05    0.1237306190E+00    0.5503624110E-01    0.2643640254E-01    0.1987940062E+00    0.6295873457E+00
    0.1900000000E+05    0.1197205071E+00    0.5501690381E-01    0.2582499747E-01    0.2123206009E+00    0.6302427479E+00
    0.2100000000E+05    0.1158865850E+00    0.5499747146E-01    0.2521940643E-01    0.2252613673E+00    0.6308163097E+00
    0.2300000000E+05    0.1122176062E+00    0.5497826147E-01    0.2462226922E-01    0.2376714840E+00    0.6313249743E+00
    0.2500000000E+05    0.1087031658E+00    0.5495944713E-01    0.2403531005E-01    0.2495944365E+00    0.6317808393E+00
    0.2700000000E+05    0.1053338373E+00    0.5494111971E-01    0.2345967165E-01    0.2610654557E+00    0.6321928313E+00
    0.2900000000E+05    0.1021011329E+00    0.5492332256E-01    0.2289611137E-01    0.2721137869E+00    0.6325677218E+00
    0.3100000000E+05    0.9899740487E-01    0.5490607066E-01    0.2234512155E-01    0.2827642357E+00    0.6329107708E+00
    0.3300000000E+05    0.9601573505E-01    0.5488936215E-01    0.2180700633E-01    0.2930382479E+00    0.6332261486E+00
    0.3500000000E+05    0.9314983202E-01    0.5487318520E-01    0.2128193252E-01    0.3029546819E+00    0.6335172218E+00
    0.3700000000E+05    0.9039394048E-01    0.5485752237E-01    0.2076996425E-01    0.3125303689E+00    0.6337867510E+00
    0.3900000000E+05    0.8774276483E-01    0.5484235314E-01    0.2027108744E-01    0.3217805279E+00    0.6340370327E+00
    0.4100000000E+05    0.8519140548E-01    0.5482765567E-01    0.1978522745E-01    0.3307190750E+00    0.6342700008E+00
    0.4300000000E+05    0.8273530619E-01    0.5481340774E-01    0.1931226219E-01    0.3393588575E+00    0.6344873027E+00
    0.4500000000E+05    0.8037021077E-01    0.5479958742E-01    0.1885203216E-01    0.3477118331E+00    0.6346903556E+00
    0.4700000000E+05    0.7809212732E-01    0.5478617347E-01    0.1840434813E-01    0.3557892077E+00    0.6348803901E+00
    0.4900000000E+05    0.7589729875E-01    0.5477314553E-01    0.1796899732E-01    0.3636015419E+00    0.6350584833E+00
    0.1000000000E+05    0.1392888446E+00    0.5508872194E-01    0.2853100020E-01    0.1455127748E+00    0.6261423497E+00
    0.3000000000E+05    0.1005335951E+00    0.5491462828E-01    0.2261902242E-01    0.2774873377E+00    0.6327429442E+00
    0.5000000000E+05    0.7482998905E-01    0.5476677022E-01    0.1775587518E-01    0.3674114637E+00    0.6351433531E+00
    0.7000000000E+05    0.5708487650E-01    0.5465539709E-01    0.1407835612E-01    0.4318914618E+00    0.6363960954E+00
    0.9000000000E+05    0.4456642080E-01    0.5456666664E-01    0.1132977519E-01    0.4788747734E+00    0.6370998091E+00
    0.1100000000E+06    0.3555249795E-01    0.5449299020E-01    0.9265478478E-02    0.5136795400E+00    0.6375010046E+00
    0.1300000000E+06    0.2892349152E-01    0.5442999783E-01    0.7696281805E-02    0.5399417557E+00    0.6377253356E+00
    0.1500000000E+06    0.2394578798E-01    0.5437497243E-01    0.6485506850E-02    0.5601358488E+00    0.6378426789E+00
    0.1700000000E+06    0.2013358683E-01    0.5432611519E-01    0.5536635294E-02    0.5759498927E+00    0.6378938185E+00
    0.1900000000E+06    0.1716033445E-01    0.5428217500E-01    0.4781690161E-02    0.5885468176E+00    0.6379033801E+00
    0.2100000000E+06    0.1480263854E-01    0.5424224690E-01    0.4172459196E-02    0.5987391189E+00    0.6378866367E+00
    0.2300000000E+06    0.1290483322E-01    0.5420565518E-01    0.3674349380E-02    0.6071036141E+00    0.6378532727E+00
    0.2500000000E+06    0.1135644165E-01    0.5417188199E-01    0.3262200940E-02    0.6140566268E+00    0.6378095417E+00
    0.2700000000E+06    0.1007766585E-01    0.5414052164E-01    0.2917454577E-02    0.6199035618E+00    0.6377595415E+00
    0.2900000000E+06    0.9009902425E-02    0.5411125038E-01    0.2626227247E-02    0.6248719649E+00    0.6377059872E+00
    0.3100000000E+06    0.8109441074E-02    0.5408380570E-01    0.2377993409E-02    0.6291338724E+00    0.6376506911E+00
    0.3300000000E+06    0.7343207602E-02    0.5405797176E-01    0.2164670821E-02    0.6328211434E+00    0.6375948664E+00
    0.3500000000E+06    0.6685840717E-02    0.5403356897E-01    0.1979978789E-02    0.6360361361E+00    0.6375393241E+00
    0.3700000000E+06    0.6117652925E-02    0.5401044625E-01    0.1818981825E-02    0.6388592498E+00    0.6374846014E+00
    0.3900000000E+06    0.5623186701E-02    0.5398847531E-01    0.1677761001E-02    0.6413543298E+00    0.6374310480E+00
    0.4100000000E+06    0.5190177609E-02    0.5396754629E-01    0.1553174316E-02    0.6435725909E+00    0.6373788840E+00
    0.4300000000E+06    0.4808799706E-02    0.5394756436E-01    0.1442679897E-02    0.6455555036E+00    0.6373282398E+00
    0.4500000000E+06    0.4471109508E-02    0.5392844711E-01    0.1344204069E-02    0.6473369416E+00    0.6372791834E+00
    0.4700000000E+06    0.4170631438E-02    0.5391012247E-01    0.1256041854E-02    0.6489447984E+00    0.6372317397E+00
    0.4900000000E+06    0.3902045364E-02    0.5389252702E-01    0.1176781173E-02    0.6504022165E+00    0.6371859037E+00
    0.1000000000E+06    0.3970246989E-01    0.5452827109E-01    0.1022527064E-01    0.4975397212E+00    0.6373285926E+00
    0.3000000000E+06    0.8541035953E-02    0.5409731416E-01    0.2497289946E-02    0.6270821912E+00    0.6376784697E+00
    0.5000000000E+06    0.3778305474E-02    0.5388398498E-01    0.1140113092E-02    0.6510806811E+00    0.6371635813E+00
    0.7000000000E+06    0.2226372535E-02    0.5374068196E-01    0.6706814542E-03    0.6601064951E+00    0.6367907605E+00
    0.9000000000E+06    0.1523544603E-02    0.5363254467E-01    0.4508672765E-03    0.6647094705E+00    0.6365231170E+00
    0.1100000000E+07    0.1141428066E-02    0.5354564284E-01    0.3289880504E-03    0.6674800085E+00    0.6363223904E+00
    0.1300000000E+07    0.9080155109E-03    0.5347297773E-01    0.2537148434E-03    0.6693292109E+00    0.6361659220E+00
    0.1500000000E+07    0.7534419928E-03    0.5341052899E-01    0.2036121919E-03    0.6706532412E+00    0.6360401727E+00
    0.1700000000E+07    0.6448222913E-03    0.5335577183E-01    0.1683770473E-03    0.6716504095E+00    0.6359366500E+00
    0.1900000000E+07    0.5649502884E-03    0.5330701609E-01    0.1425306317E-03    0.6724304914E+00    0.6358497680E+00
    0.2100000000E+07    0.5040753738E-03    0.5326307436E-01    0.1229284946E-03    0.6730590213E+00    0.6357756987E+00
    0.2300000000E+07    0.4563156705E-03    0.5322308039E-01    0.1076547962E-03    0.6735774920E+00    0.6357117265E+00
    0.2500000000E+07    0.4179400443E-03    0.5318638270E-01    0.9548472970E-04    0.6740134407E+00    0.6356558680E+00
    0.2700000000E+07    0.3864816821E-03    0.5315247896E-01    0.8560364893E-04    0.6743858609E+00    0.6356066383E+00
    0.2900000000E+07    0.3602521529E-03    0.5312097365E-01    0.7745144490E-04    0.6747082800E+00    0.6355629017E+00
    0.3100000000E+07    0.3380612429E-03    0.5309154975E-01    0.7063200460E-04    0.6749905977E+00    0.6355237735E+00
    0.3300000000E+07    0.3190483987E-03    0.5306394926E-01    0.6485831342E-04    0.6752402294E+00    0.6354885535E+00
    0.3500000000E+07    0.3025775448E-03    0.5303795937E-01    0.5991797030E-04    0.6754628420E+00    0.6354566794E+00
    0.3700000000E+07    0.2881693380E-03    0.5301340250E-01    0.5565085033E-04    0.6756628435E+00    0.6354276944E+00
    0.3900000000E+07    0.2754563068E-03    0.5299012891E-01    0.5193424187E-04    0.6758437159E+00    0.6354012226E+00
    0.4100000000E+07    0.2641524095E-03    0.5296801120E-01    0.4867271958E-04    0.6760082478E+00    0.6353769522E+00
    0.4300000000E+07    0.2540319218E-03    0.5294694004E-01    0.4579109712E-04    0.6761587001E+00    0.6353546220E+00
    0.4500000000E+07    0.2449145060E-03    0.5292682091E-01    0.4322942937E-04    0.6762969263E+00    0.6353340110E+00
    0.4700000000E+07    0.2366544651E-03    0.5290757156E-01    0.4093940716E-04    0.6764244608E+00    0.6353149316E+00
    0.4900000000E+07    0.2291328845E-03    0.5288911996E-01    0.3888171621E-04    0.6765425857E+00    0.6352972228E+00
    0.1000000000E+07    0.1306903206E-02    0.5358697369E-01    0.3819819204E-03    0.6662482916E+00    0.6364160856E+00
    0.3000000000E+07    0.3487119189E-03    0.5310601885E-01    0.7389514615E-04    0.6748539399E+00    0.6355428090E+00
    0.5000000000E+07    0.2256177129E-03    0.5288017319E-01    0.3792967529E-04    0.6765984638E+00    0.6352888382E+00
    0.7000000000E+07    0.1773901294E-03    0.5273104505E-01    0.2562326530E-04    0.6774127989E+00    0.6351676847E+00
    0.9000000000E+07    0.1508068349E-03    0.5261955376E-01    0.1961378442E-04    0.6779038903E+00    0.6350985225E+00
    0.1100000000E+08    0.1335356111E-03    0.5253049555E-01    0.1609029289E-04    0.6782402365E+00    0.6350552785E+00
    0.1300000000E+08    0.1211920945E-03    0.5245634777E-01    0.1378037525E-04    0.6784888665E+00    0.6350268244E+00
    0.1500000000E+08    0.1118094656E-03    0.5239283322E-01    0.1214806249E-04    0.6786822472E+00    0.6350075772E+00
    0.1700000000E+08    0.1043650284E-03    0.5233728592E-01    0.1093096806E-04    0.6788382193E+00    0.6349944204E+00
    0.1900000000E+08    0.9826974990E-04    0.5228793143E-01    0.9986279024E-05    0.6789674907E+00    0.6349854766E+00
    0.2100000000E+08    0.9315795429E-04    0.5224352897E-01    0.9229877954E-05    0.6790769228E+00    0.6349795481E+00
    0.2300000000E+08    0.8878924529E-04    0.5220317677E-01    0.8609093036E-05    0.6791711398E+00    0.6349758362E+00
    0.2500000000E+08    0.8499828858E-04    0.5216619886E-01    0.8089292259E-05    0.6792533857E+00    0.6349737887E+00
    0.2700000000E+08    0.8166715191E-04    0.5213207545E-01    0.7646778547E-05    0.6793260120E+00    0.6349730127E+00
