  Pressure (Pa) 2mC6-400 (mol/kg) 3mC6-400 (mol/kg) 33mC5-400 (mol/kg) 23mC5-400 (mol/kg) C7-400 (mol/kg)
    0.1000000000E+01    0.1584572457E-02    0.5243944478E-03    0.5161245729E-03    0.3732214504E-03    0.8509590933E-02
    0.3000000000E+01    0.4622908492E-02    0.1525226058E-02    0.1506153859E-02    0.1113862908E-02    0.2475416633E-01
    0.5000000000E+01    0.7499883500E-02    0.2466946568E-02    0.2444118263E-02    0.1846898799E-02    0.4004386439E-01
    0.7000000000E+01    0.1022951800E-01    0.3354755766E-02    0.3334558655E-02    0.2572480973E-02    0.5446255611E-01
    0.9000000000E+01    0.1282420336E-01    0.4193257691E-02    0.4181486676E-02    0.3290757102E-02    0.6808451052E-01
    0.1100000000E+02    0.1529493245E-01    0.4986543712E-02    0.4988459787E-02    0.4001870820E-02    0.8097573298E-01
    0.1300000000E+02    0.1765149222E-01    0.5738262060E-02    0.5758643940E-02    0.4705961864E-02    0.9319508552E-01
    0.1500000000E+02    0.1990262542E-01    0.6451676354E-02    0.6494866176E-02    0.5403166208E-02    0.1047952297E+00
    0.1700000000E+02    0.2205616704E-01    0.7129715069E-02    0.7199658998E-02    0.6093616188E-02    0.1158234239E+00
    0.1900000000E+02    0.2411915989E-01    0.7775013573E-02    0.7875297965E-02    0.6777440630E-02    0.1263222003E+00
    0.2100000000E+02    0.2609795305E-01    0.8389949975E-02    0.8523833678E-02    0.7454764961E-02    0.1363299431E+00
    0.2300000000E+02    0.2799828595E-01    0.8976675837E-02    0.9147119124E-02    0.8125711326E-02    0.1458813832E+00
    0.2500000000E+02    0.2982536059E-01    0.9537142591E-02    0.9746833129E-02    0.8790398695E-02    0.1550080239E+00
    0.2700000000E+02    0.3158390366E-01    0.1007312434E-01    0.1032450055E-01    0.9448942969E-02    0.1637385083E+00
    0.2900000000E+02    0.3327822030E-01    0.1058623759E-01    0.1088150972E-01    0.1010145707E-01    0.1720989380E+00
    0.3100000000E+02    0.3491224074E-01    0.1107795843E-01    0.1141912761E-01    0.1074805107E-01    0.1801131493E+00
    0.3300000000E+02    0.3648956076E-01    0.1154963752E-01    0.1193851294E-01    0.1138883222E-01    0.1878029548E+00
    0.3500000000E+02    0.3801347717E-01    0.1200251312E-01    0.1244072772E-01    0.1202390511E-01    0.1951883543E+00
    0.3700000000E+02    0.3948701876E-01    0.1243772263E-01    0.1292674728E-01    0.1265337170E-01    0.2022877201E+00
    0.3900000000E+02    0.4091297351E-01    0.1285631266E-01    0.1339746908E-01    0.1327733145E-01    0.2091179597E+00
    0.4100000000E+02    0.4229391252E-01    0.1325924797E-01    0.1385372048E-01    0.1389588134E-01    0.2156946595E+00
    0.4300000000E+02    0.4363221117E-01    0.1364741931E-01    0.1429626564E-01    0.1450911601E-01    0.2220322118E+00
    0.4500000000E+02    0.4493006779E-01    0.1402165044E-01    0.1472581150E-01    0.1511712778E-01    0.2281439278E+00
    0.4700000000E+02    0.4618952030E-01    0.1438270432E-01    0.1514301321E-01    0.1572000675E-01    0.2340421370E+00
    0.4900000000E+02    0.4741246092E-01    0.1473128862E-01    0.1554847892E-01    0.1631784087E-01    0.2397382773E+00
    0.1000000000E+02    0.1407442452E-01    0.4595315023E-02    0.4589761208E-02    0.3647200439E-02    0.7461762878E-01
    0.3000000000E+02    0.3410253541E-01    0.1083468487E-01    0.1115266776E-01    0.1042548732E-01    0.1761479128E+00
    0.5000000000E+02    0.4801079401E-01    0.1490111195E-01    0.1574698900E-01    0.1661489301E-01    0.2425139217E+00
    0.7000000000E+02    0.5842884491E-01    0.1778006417E-01    0.1921929862E-01    0.2231095722E-01    0.2896352656E+00
    0.9000000000E+02    0.6661103086E-01    0.1993639527E-01    0.2197215990E-01    0.2758884120E-01    0.3250286781E+00
    0.1100000000E+03    0.7324406335E-01    0.2161868530E-01    0.2422549204E-01    0.3250855576E-01    0.3527175736E+00
    0.1300000000E+03    0.7874273412E-01    0.2297225563E-01    0.2611197858E-01    0.3711864874E-01    0.3750562918E+00
    0.1500000000E+03    0.8337655102E-01    0.2408793215E-01    0.2771780680E-01    0.4145885842E-01    0.3935176799E+00
    0.1700000000E+03    0.8733063613E-01    0.2502551247E-01    0.2910220645E-01    0.4556205732E-01    0.4090723317E+00
    0.1900000000E+03    0.9073776821E-01    0.2582604185E-01    0.3030770593E-01    0.4945569915E-01    0.4223870848E+00
    0.2100000000E+03    0.9369650133E-01    0.2651867315E-01    0.3136592034E-01    0.5316291164E-01    0.4339360062E+00
    0.2300000000E+03    0.9628203155E-01    0.2712471154E-01    0.3230101728E-01    0.5670333287E-01    0.4440658670E+00
    0.2500000000E+03    0.9855304072E-01    0.2766010790E-01    0.3313189725E-01    0.6009375900E-01    0.4530365268E+00
    0.2700000000E+03    0.1005561872E+00    0.2813705463E-01    0.3387362321E-01    0.6334865147E-01    0.4610467960E+00
    0.2900000000E+03    0.1023291565E+00    0.2856504045E-01    0.3453839148E-01    0.6648053823E-01    0.4682515379E+00
    0.3100000000E+03    0.1039027971E+00    0.2895156722E-01    0.3513621123E-01    0.6950033405E-01    0.4747732983E+00
    0.3300000000E+03    0.1053026524E+00    0.2930264896E-01    0.3567539234E-01    0.7241759850E-01    0.4807104068E+00
    0.3500000000E+03    0.1065500866E+00    0.2962316700E-01    0.3616290372E-01    0.7524074537E-01    0.4861427436E+00
    0.3700000000E+03    0.1076631257E+00    0.2991712737E-01    0.3660464158E-01    0.7797721390E-01    0.4911359228E+00
    0.3900000000E+03    0.1086570987E+00    0.3018785066E-01    0.3700563374E-01    0.8063360986E-01    0.4957443795E+00
    0.4100000000E+03    0.1095451318E+00    0.3043811425E-01    0.3737019755E-01    0.8321582241E-01    0.5000136833E+00
    0.4300000000E+03    0.1103385357E+00    0.3067026028E-01    0.3770206369E-01    0.8572912166E-01    0.5039822954E+00
    0.4500000000E+03    0.1110471119E+00    0.3088627868E-01    0.3800447422E-01    0.8817824036E-01    0.5076829213E+00
    0.4700000000E+03    0.1116793982E+00    0.3108787175E-01    0.3828026122E-01    0.9056744293E-01    0.5111435632E+00
    0.4900000000E+03    0.1122428668E+00    0.3127650498E-01    0.3853191039E-01    0.9290058380E-01    0.5143883477E+00
    0.1000000000E+03    0.7009083978E-01    0.2082604137E-01    0.2315155637E-01    0.3009020196E-01    0.3396620150E+00
    0.3000000000E+03    0.1031391869E+00    0.2876308020E-01    0.3484511545E-01    0.6800382093E-01    0.4715911544E+00
    0.5000000000E+03    0.1125008785E+00    0.3136636496E-01    0.3864937831E-01    0.9404723594E-01    0.5159364379E+00
    0.7000000000E+03    0.1152873594E+00    0.3271716454E-01    0.4014727474E-01    0.1147347019E+00    0.5394272822E+00
    0.9000000000E+03    0.1154465421E+00    0.3356012659E-01    0.4066868593E-01    0.1323653581E+00    0.5543622581E+00
    0.1100000000E+04    0.1143810975E+00    0.3414245073E-01    0.4070179377E-01    0.1479979238E+00    0.5648590102E+00
    0.1300000000E+04    0.1126992212E+00    0.3457162781E-01    0.4046589618E-01    0.1622036003E+00    0.5727219097E+00
    0.1500000000E+04    0.1106985983E+00    0.3490248173E-01    0.4007266734E-01    0.1753250234E+00    0.5788778902E+00
    0.1700000000E+04    0.1085372816E+00    0.3516612128E-01    0.3958414312E-01    0.1875839878E+00    0.5838565111E+00
    0.1900000000E+04    0.1063040909E+00    0.3538160646E-01    0.3903706350E-01    0.1991325590E+00    0.5879843404E+00
    0.2100000000E+04    0.1040509501E+00    0.3556131294E-01    0.3845427722E-01    0.2100797972E+00    0.5914747453E+00
    0.2300000000E+04    0.1018090050E+00    0.3571365041E-01    0.3785054651E-01    0.2205068116E+00    0.5944735916E+00
    0.2500000000E+04    0.9959718346E-01    0.3584454699E-01    0.3723570024E-01    0.2304757618E+00    0.5970843051E+00
    0.2700000000E+04    0.9742697996E-01    0.3595830974E-01    0.3661643935E-01    0.2400355049E+00    0.5993824578E+00
    0.2900000000E+04    0.9530524325E-01    0.3605814821E-01    0.3599741678E-01    0.2492252841E+00    0.6014246780E+00
    0.3100000000E+04    0.9323585735E-01    0.3614650626E-01    0.3538190733E-01    0.2580772204E+00    0.6032543187E+00
    0.3300000000E+04    0.9122078478E-01    0.3622527956E-01    0.3477223664E-01    0.2666180442E+00    0.6049051880E+00
    0.3500000000E+04    0.8926072985E-01    0.3629596257E-01    0.3417006327E-01    0.2748703301E+00    0.6064040779E+00
    0.3700000000E+04    0.8735556892E-01    0.3635975027E-01    0.3357656868E-01    0.2828533958E+00    0.6077725222E+00
    0.3900000000E+04    0.8550463424E-01    0.3641761032E-01    0.3299258788E-01    0.2905839687E+00    0.6090280462E+00
    0.4100000000E+04    0.8370690393E-01    0.3647033509E-01    0.3241870098E-01    0.2980766894E+00    0.6101850730E+00
    0.4300000000E+04    0.8196113041E-01    0.3651858004E-01    0.3185529837E-01    0.3053444967E+00    0.6112555920E+00
    0.4500000000E+04    0.8026592807E-01    0.3656289229E-01    0.3130262781E-01    0.3123989270E+00    0.6122496601E+00
    0.4700000000E+04    0.7861983338E-01    0.3660373233E-01    0.3076082901E-01    0.3192503489E+00    0.6131757825E+00
    0.4900000000E+04    0.7702134631E-01    0.3664149064E-01    0.3022995923E-01    0.3259081495E+00    0.6140412060E+00
    0.1000000000E+04    0.1150183856E+00    0.3387536161E-01    0.4072896383E-01    0.1403884375E+00    0.5600229023E+00
    0.3000000000E+04    0.9426384794E-01    0.3610363295E-01    0.3568905917E-01    0.2536917021E+00    0.6023637683E+00
    0.5000000000E+04    0.7623948408E-01    0.3665932028E-01    0.2996862289E-01    0.3291671443E+00    0.6144531336E+00
    0.7000000000E+04    0.6274798567E-01    0.3691422746E-01    0.2529379717E-01    0.3859337578E+00    0.6206354883E+00
    0.9000000000E+04    0.5251671435E-01    0.3705902252E-01    0.2154871020E-01    0.4300501412E+00    0.6245095093E+00
    0.1100000000E+05    0.4462663592E-01    0.3715098150E-01    0.1854404694E-01    0.4649466659E+00    0.6272101132E+00
    0.1300000000E+05    0.3844556297E-01    0.3721350107E-01    0.1611726425E-01    0.4929315410E+00    0.6292217069E+00
    0.1500000000E+05    0.3353187036E-01    0.3725796698E-01    0.1414025520E-01    0.5156515834E+00    0.6307897753E+00
    0.1700000000E+05    0.2957199373E-01    0.3729059461E-01    0.1251456730E-01    0.5343105394E+00    0.6320534608E+00
    0.1900000000E+05    0.2634002893E-01    0.3731506574E-01    0.1116511057E-01    0.5498006861E+00    0.6330981236E+00
    0.2100000000E+05    0.2367099097E-01    0.3733369927E-01    0.1003460405E-01    0.5627908160E+00    0.6339793147E+00
    0.2300000000E+05    0.2144279552E-01    0.3734802712E-01    0.9079166610E-02    0.5737874583E+00    0.6347348838E+00
    0.2500000000E+05    0.1956395106E-01    0.3735910080E-01    0.8264964075E-02    0.5831781985E+00    0.6353915853E+00
    0.2700000000E+05    0.1796505104E-01    0.3736766510E-01    0.7565708056E-02    0.5912626273E+00    0.6359689111E+00
    0.2900000000E+05    0.1659282461E-01    0.3737426153E-01    0.6960804087E-02    0.5982746267E+00    0.6364814255E+00
    0.3100000000E+05    0.1540592898E-01    0.3737929267E-01    0.6433981856E-02    0.6043985463E+00    0.6369402475E+00
    0.3300000000E+05    0.1437193957E-01    0.3738306353E-01    0.5972279225E-02    0.6097810437E+00    0.6373540251E+00
    0.3500000000E+05    0.1346517283E-01    0.3738580906E-01    0.5565284849E-02    0.6145398259E+00    0.6377295936E+00
    0.3700000000E+05    0.1266509395E-01    0.3738771286E-01    0.5204569988E-02    0.6187701608E+00    0.6380724333E+00
    0.3900000000E+05    0.1195513996E-01    0.3738892027E-01    0.4883259195E-02    0.6225497709E+00    0.6383869940E+00
    0.4100000000E+05    0.1132184088E-01    0.3738954759E-01    0.4595703514E-02    0.6259425432E+00    0.6386769293E+00
    0.4300000000E+05    0.1075415694E-01    0.3738968888E-01    0.4337229801E-02    0.6290013665E+00    0.6389452701E+00
    0.4500000000E+05    0.1024297405E-01    0.3738942087E-01    0.4103946972E-02    0.6317703191E+00    0.6391945533E+00
    0.4700000000E+05    0.9780716241E-02    0.3738880669E-01    0.3892595139E-02    0.6342863690E+00    0.6394269207E+00
    0.4900000000E+05    0.9361045415E-02    0.3738789862E-01    0.3700427267E-02    0.6365807070E+00    0.6396441937E+00
    0.1000000000E+05    0.4832393997E-01    0.3710972913E-01    0.1996481473E-01    0.4484876019E+00    0.6259680530E+00
    0.3000000000E+05    0.1597841713E-01    0.3737695179E-01    0.6688510478E-02    0.6014376621E+00    0.6367169586E+00
    0.5000000000E+05    0.9165479171E-02    0.3738734830E-01    0.3610795685E-02    0.6376531646E+00    0.6397476662E+00
    0.7000000000E+05    0.6555136286E-02    0.3736844121E-01    0.2413230578E-02    0.6521608351E+00    0.6413075572E+00
    0.9000000000E+05    0.5220546339E-02    0.3734372892E-01    0.1807075425E-02    0.6596777511E+00    0.6422968714E+00
    0.1100000000E+06    0.4416095754E-02    0.3731847281E-01    0.1449294302E-02    0.6641935124E+00    0.6429962978E+00
    0.1300000000E+06    0.3877580935E-02    0.3729415196E-01    0.1215897128E-02    0.6671774647E+00    0.6435249738E+00
    0.1500000000E+06    0.3490241381E-02    0.3727117216E-01    0.1052601750E-02    0.6692840998E+00    0.6439431313E+00
    0.1700000000E+06    0.3196826298E-02    0.3724958608E-01    0.9323086161E-03    0.6708452678E+00    0.6442849063E+00
    0.1900000000E+06    0.2965759339E-02    0.3722932511E-01    0.8401292461E-03    0.6720458108E+00    0.6445712762E+00
    0.2100000000E+06    0.2778247860E-02    0.3721028290E-01    0.7672647556E-03    0.6729963001E+00    0.6448159357E+00
    0.2300000000E+06    0.2622420252E-02    0.3719234700E-01    0.7082074939E-03    0.6737666889E+00    0.6450282562E+00
    0.2500000000E+06    0.2490408760E-02    0.3717541083E-01    0.6593460311E-03    0.6744032762E+00    0.6452148959E+00
    0.2700000000E+06    0.2376789937E-02    0.3715937776E-01    0.6182198004E-03    0.6749378648E+00    0.6453807338E+00
    0.2900000000E+06    0.2277700517E-02    0.3714416177E-01    0.5830975747E-03    0.6753929901E+00    0.6455294383E+00
    0.3100000000E+06    0.2190311090E-02    0.3712968701E-01    0.5527275027E-03    0.6757850476E+00    0.6456638278E+00
    0.3300000000E+06    0.2112499557E-02    0.3711588669E-01    0.5261827986E-03    0.6761262398E+00    0.6457861091E+00
    0.3500000000E+06    0.2042641233E-02    0.3710270207E-01    0.5027631328E-03    0.6764258294E+00    0.6458980380E+00
    0.3700000000E+06    0.1979469708E-02    0.3709008133E-01    0.4819296996E-03    0.6766909703E+00    0.6460010314E+00
    0.3900000000E+06    0.1921982127E-02    0.3707797866E-01    0.4632613208E-03    0.6769272725E+00    0.6460962475E+00
    0.4100000000E+06    0.1869373138E-02    0.3706635344E-01    0.4464240725E-03    0.6771391956E+00    0.6461846434E+00
    0.4300000000E+06    0.1820987880E-02    0.3705516951E-01    0.4311498303E-03    0.6773303284E+00    0.6462670180E+00
    0.4500000000E+06    0.1776287863E-02    0.3704439459E-01    0.4172208294E-03    0.6775035905E+00    0.6463440441E+00
    0.4700000000E+06    0.1734825804E-02    0.3703399976E-01    0.4044583674E-03    0.6776613808E+00    0.6464162932E+00
    0.4900000000E+06    0.1696226769E-02    0.3702395901E-01    0.3927144115E-03    0.6778056885E+00    0.6464842541E+00
    0.1000000000E+06    0.4773944922E-02    0.3733103625E-01    0.1607382358E-02    0.6621899284E+00    0.6426733587E+00
    0.3000000000E+06    0.2232689623E-02    0.3713683611E-01    0.5673827017E-03    0.6755960586E+00    0.6455982723E+00
    0.5000000000E+06    0.1677899904E-02    0.3701906400E-01    0.3871849110E-03    0.6778733169E+00    0.6465167603E+00
    0.7000000000E+06    0.1405329487E-02    0.3693511209E-01    0.3085086721E-03    0.6788078472E+00    0.6470188624E+00
    0.9000000000E+06    0.1235320110E-02    0.3686975541E-01    0.2627954342E-03    0.6793188171E+00    0.6473507070E+00
    0.1100000000E+07    0.1116114756E-02    0.3681617741E-01    0.2322340578E-03    0.6796423012E+00    0.6475928105E+00
    0.1300000000E+07    0.1026472610E-02    0.3677074175E-01    0.2100307878E-03    0.6798662615E+00    0.6477805436E+00
    0.1500000000E+07    0.9558392598E-03    0.3673127749E-01    0.1929896647E-03    0.6800309715E+00    0.6479322706E+00
    0.1700000000E+07    0.8982916773E-03    0.3669638338E-01    0.1793919494E-03    0.6801574958E+00    0.6480586275E+00
    0.1900000000E+07    0.8502117990E-03    0.3666510165E-01    0.1682230300E-03    0.6802579338E+00    0.6481662709E+00
    0.2100000000E+07    0.8092465925E-03    0.3663674832E-01    0.1588413201E-03    0.6803397380E+00    0.6482596162E+00
    0.2300000000E+07    0.7737900051E-03    0.3661081767E-01    0.1508190922E-03    0.6804077534E+00    0.6483417272E+00
    0.2500000000E+07    0.7427028945E-03    0.3658692509E-01    0.1438589869E-03    0.6804652691E+00    0.6484148086E+00
    0.2700000000E+07    0.7151515875E-03    0.3656477118E-01    0.1377471167E-03    0.6805145977E+00    0.6484804943E+00
    0.2900000000E+07    0.6905098787E-03    0.3654411826E-01    0.1323252322E-03    0.6805574140E+00    0.6485400256E+00
    0.3100000000E+07    0.6682969451E-03    0.3652477446E-01    0.1274734332E-03    0.6805949614E+00    0.6485943658E+00
    0.3300000000E+07    0.6481365796E-03    0.3650658260E-01    0.1230990142E-03    0.6806281830E+00    0.6486442756E+00
    0.3500000000E+07    0.6297295918E-03    0.3648941232E-01    0.1191290297E-03    0.6806578073E+00    0.6486903657E+00
    0.3700000000E+07    0.6128346260E-03    0.3647315429E-01    0.1155051976E-03    0.6806844063E+00    0.6487331325E+00
    0.3900000000E+07    0.5972545178E-03    0.3645771589E-01    0.1121803220E-03    0.6807084354E+00    0.6487729851E+00
    0.4100000000E+07    0.5828263927E-03    0.3644301796E-01    0.1091157254E-03    0.6807302623E+00    0.6488102637E+00
    0.4300000000E+07    0.5694143511E-03    0.3642899233E-01    0.1062793716E-03    0.6807501867E+00    0.6488452543E+00
    0.4500000000E+07    0.5569039753E-03    0.3641557986E-01    0.1036444707E-03    0.6807684557E+00    0.6488781995E+00
    0.4700000000E+07    0.5451981468E-03    0.3640272891E-01    0.1011884255E-03    0.6807852748E+00    0.6489093062E+00
    0.4900000000E+07    0.5342138174E-03    0.3639039411E-01    0.9889202484E-04    0.6808008164E+00    0.6489387528E+00
    0.1000000000E+07    0.1171063670E-02    0.3684176810E-01    0.2461722148E-03    0.6794968060E+00    0.6474801894E+00
    0.3000000000E+07    0.6791254064E-03    0.3653429325E-01    0.1298344023E-03    0.6805767815E+00    0.6485677930E+00
    0.5000000000E+07    0.5289694782E-03    0.3638440756E-01    0.9779845707E-04    0.6808081546E+00    0.6489529027E+00
    0.7000000000E+07    0.4488792728E-03    0.3628411279E-01    0.8132514939E-04    0.6809137246E+00    0.6491772931E+00
    0.9000000000E+07    0.3971226265E-03    0.3620856736E-01    0.7090973465E-04    0.6809755899E+00    0.6493323966E+00
    0.1100000000E+08    0.3601314685E-03    0.3614792170E-01    0.6357998085E-04    0.6810168352E+00    0.6494495560E+00
    0.1300000000E+08    0.3319863851E-03    0.3609724686E-01    0.5806926032E-04    0.6810465978E+00    0.6495430181E+00
    0.1500000000E+08    0.3096361527E-03    0.3605371834E-01    0.5373543772E-04    0.6810692563E+00    0.6496203852E+00
    0.1700000000E+08    0.2913264594E-03    0.3601556531E-01    0.5021400524E-04    0.6810871865E+00    0.6496861628E+00
    0.1900000000E+08    0.2759672586E-03    0.3598160373E-01    0.4728080733E-04    0.6811017959E+00    0.6497432272E+00
    0.2100000000E+08    0.2628406700E-03    0.3595100256E-01    0.4478949565E-04    0.6811139746E+00    0.6497935204E+00
    0.2300000000E+08    0.2514519913E-03    0.3592315593E-01    0.4263996880E-04    0.6811243149E+00    0.6498384115E+00
    0.2500000000E+08    0.2414476956E-03    0.3589760850E-01    0.4076115779E-04    0.6811332275E+00    0.6498788995E+00
    0.2700000000E+08    0.2325674962E-03    0.3587400931E-01    0.3910104075E-04    0.6811410068E+00    0.6499157349E+00
