  Pressure (Pa) 2mC6-400 (mol/kg) 3mC6-400 (mol/kg) 33mC5-400 (mol/kg) 23mC5-400 (mol/kg) C7-400 (mol/kg)
    0.1000000000E+01    0.1587333936E-02    0.2627354877E-02    0.3877606098E-03    0.3732697190E-03    0.5116185483E-02
    0.3000000000E+01    0.4646281800E-02    0.7671804320E-02    0.1135260331E-02    0.1114291593E-02    0.1494101830E-01
    0.5000000000E+01    0.7561053760E-02    0.1245455999E-01    0.1847856626E-02    0.1848073992E-02    0.2425856902E-01
    0.7000000000E+01    0.1034266976E-01    0.1699596301E-01    0.2528226603E-02    0.2574754403E-02    0.3310820932E-01
    0.9000000000E+01    0.1300101741E-01    0.2131428728E-01    0.3178771488E-02    0.3294466710E-02    0.4152531254E-01
    0.1100000000E+02    0.1554499444E-01    0.2542599594E-01    0.3801651392E-02    0.4007341319E-02    0.4954174970E-01
    0.1300000000E+02    0.1798263024E-01    0.2934596073E-01    0.4398814973E-02    0.4713505265E-02    0.5718631330E-01
    0.1500000000E+02    0.2032118995E-01    0.3308765002E-01    0.4972024826E-02    0.5413082329E-02    0.6448508114E-01
    0.1700000000E+02    0.2256726391E-01    0.3666329092E-01    0.5522879309E-02    0.6106193136E-02    0.7146172958E-01
    0.1900000000E+02    0.2472684491E-01    0.4008400934E-01    0.6052831373E-02    0.6792955262E-02    0.7813780446E-01
    0.2100000000E+02    0.2680539498E-01    0.4335995151E-01    0.6563204864E-02    0.7473483327E-02    0.8453295605E-01
    0.2300000000E+02    0.2880790353E-01    0.4650038973E-01    0.7055208683E-02    0.8147889091E-02    0.9066514359E-01
    0.2500000000E+02    0.3073893791E-01    0.4951381474E-01    0.7529949119E-02    0.8816281546E-02    0.9655081389E-01
    0.2700000000E+02    0.3260268772E-01    0.5240801656E-01    0.7988440631E-02    0.9478766995E-02    0.1022050577E+00
    0.2900000000E+02    0.3440300349E-01    0.5519015553E-01    0.8431615304E-02    0.1013544915E-01    0.1076417471E+00
    0.3100000000E+02    0.3614343091E-01    0.5786682482E-01    0.8860331147E-02    0.1078642918E-01    0.1128736564E+00
    0.3300000000E+02    0.3782724079E-01    0.6044410571E-01    0.9275379424E-02    0.1143180585E-01    0.1179125692E+00
    0.3500000000E+02    0.3945745566E-01    0.6292761643E-01    0.9677491111E-02    0.1207167551E-01    0.1227693726E+00
    0.3700000000E+02    0.4103687331E-01    0.6532255558E-01    0.1006734264E-01    0.1270613225E-01    0.1274541414E+00
    0.3900000000E+02    0.4256808770E-01    0.6763374069E-01    0.1044556096E-01    0.1333526792E-01    0.1319762128E+00
    0.4100000000E+02    0.4405350752E-01    0.6986564267E-01    0.1081272810E-01    0.1395917220E-01    0.1363442527E+00
    0.4300000000E+02    0.4549537282E-01    0.7202241650E-01    0.1116938517E-01    0.1457793268E-01    0.1405663154E+00
    0.4500000000E+02    0.4689576985E-01    0.7410792879E-01    0.1151603601E-01    0.1519163492E-01    0.1446498968E+00
    0.4700000000E+02    0.4825664432E-01    0.7612578243E-01    0.1185315037E-01    0.1580036250E-01    0.1486019822E+00
    0.4900000000E+02    0.4957981334E-01    0.7807933881E-01    0.1218116685E-01    0.1640419708E-01    0.1524290891E+00
    0.1000000000E+02    0.1428678136E-01    0.2339500412E-01    0.3493543132E-02    0.3651750709E-02    0.4558174723E-01
    0.3000000000E+02    0.3528049271E-01    0.5654128241E-01    0.8647729640E-02    0.1046164570E-01    0.1102825407E+00
    0.5000000000E+02    0.5022779365E-01    0.7903299488E-01    0.1234189256E-01    0.1670430450E-01    0.1542976940E+00
    0.7000000000E+02    0.6156732793E-01    0.9539279539E-01    0.1516546502E-01    0.2246808969E-01    0.1863928831E+00
    0.9000000000E+02    0.7053447744E-01    0.1078869483E+00    0.1741626029E-01    0.2782323468E-01    0.2109642117E+00
    0.1100000000E+03    0.7783225981E-01    0.1177793088E+00    0.1926342828E-01    0.3282632501E-01    0.2304653375E+00
    0.1300000000E+03    0.8389624264E-01    0.1258319435E+00    0.2081164300E-01    0.3752350525E-01    0.2463769530E+00
    0.1500000000E+03    0.8901422749E-01    0.1325325879E+00    0.2213003142E-01    0.4195281646E-01    0.2596474959E+00
    0.1700000000E+03    0.9338611372E-01    0.1382084504E+00    0.2326661041E-01    0.4614592831E-01    0.2709137612E+00
    0.1900000000E+03    0.9715633797E-01    0.1430875827E+00    0.2425609380E-01    0.5012944182E-01    0.2806199257E+00
    0.2100000000E+03    0.1004326289E+00    0.1473340213E+00    0.2512439798E-01    0.5392588248E-01    0.2890857395E+00
    0.2300000000E+03    0.1032974457E+00    0.1510689292E+00    0.2589138567E-01    0.5755446670E-01    0.2965475674E+00
    0.2500000000E+03    0.1058152729E+00    0.1543838477E+00    0.2657261381E-01    0.6103170005E-01    0.3031841303E+00
    0.2700000000E+03    0.1080374529E+00    0.1573493017E+00    0.2718049030E-01    0.6437184900E-01    0.3091332247E+00
    0.2900000000E+03    0.1100054920E+00    0.1600205557E+00    0.2772506494E-01    0.6758731646E-01    0.3145029149E+00
    0.3100000000E+03    0.1117533859E+00    0.1624415684E+00    0.2821458564E-01    0.7068894340E-01    0.3193792245E+00
    0.3300000000E+03    0.1133092956E+00    0.1646477715E+00    0.2865589914E-01    0.7368625317E-01    0.3238315438E+00
    0.3500000000E+03    0.1146967806E+00    0.1666680633E+00    0.2905474607E-01    0.7658765068E-01    0.3279165112E+00
    0.3700000000E+03    0.1159357239E+00    0.1685262644E+00    0.2941598207E-01    0.7940058620E-01    0.3316808486E+00
    0.3900000000E+03    0.1170430359E+00    0.1702421986E+00    0.2974374645E-01    0.8213169080E-01    0.3351634682E+00
    0.4100000000E+03    0.1180331994E+00    0.1718325074E+00    0.3004159261E-01    0.8478688902E-01    0.3383970599E+00
    0.4300000000E+03    0.1189186955E+00    0.1733112715E+00    0.3031259020E-01    0.8737149328E-01    0.3414093041E+00
    0.4500000000E+03    0.1197103418E+00    0.1746904914E+00    0.3055940616E-01    0.8989028325E-01    0.3442238090E+00
    0.4700000000E+03    0.1204175624E+00    0.1759804627E+00    0.3078436965E-01    0.9234757307E-01    0.3468608438E+00
    0.4900000000E+03    0.1210486066E+00    0.1771900722E+00    0.3098952448E-01    0.9474726847E-01    0.3493379174E+00
    0.1000000000E+03    0.7436036434E-01    0.1131024119E+00    0.1838268370E-01    0.3036568881E-01    0.2212398848E+00
    0.3000000000E+03    0.1109050766E+00    0.1612599543E+00    0.2797625015E-01    0.6915173643E-01    0.3169980671E+00
    0.5000000000E+03    0.1213378635E+00    0.1777671925E+00    0.3108524503E-01    0.9592663927E-01    0.3505213011E+00
    0.7000000000E+03    0.1244925125E+00    0.1865191054E+00    0.3230140307E-01    0.1172002082E+00    0.3686112628E+00
    0.9000000000E+03    0.1247311832E+00    0.1920663310E+00    0.3271763736E-01    0.1353150682E+00    0.3802586328E+00
    0.1100000000E+04    0.1236072483E+00    0.1959474629E+00    0.3273474355E-01    0.1513597043E+00    0.3885256673E+00
    0.1300000000E+04    0.1217957562E+00    0.1988396266E+00    0.3253263798E-01    0.1659241001E+00    0.3947690735E+00
    0.1500000000E+04    0.1196277609E+00    0.2010913860E+00    0.3220285270E-01    0.1793630295E+00    0.3996915897E+00
    0.1700000000E+04    0.1172793291E+00    0.2029020516E+00    0.3179616713E-01    0.1919064414E+00    0.4036974003E+00
    0.1900000000E+04    0.1148495519E+00    0.2043945551E+00    0.3134260355E-01    0.2037120957E+00    0.4070371899E+00
    0.2100000000E+04    0.1123964392E+00    0.2056491924E+00    0.3086079415E-01    0.2148931709E+00    0.4098755721E+00
    0.2300000000E+04    0.1099548359E+00    0.2067208229E+00    0.3036274712E-01    0.2255338525E+00    0.4123255904E+00
    0.2500000000E+04    0.1075459492E+00    0.2076483112E+00    0.2985643439E-01    0.2356986640E+00    0.4144677258E+00
    0.2700000000E+04    0.1051826803E+00    0.2084600255E+00    0.2934727227E-01    0.2454383274E+00    0.4163610055E+00
    0.2900000000E+04    0.1028727334E+00    0.2091771975E+00    0.2883900637E-01    0.2547935923E+00    0.4180498136E+00
    0.3100000000E+04    0.1006204926E+00    0.2098160605E+00    0.2833425999E-01    0.2637978226E+00    0.4195682390E+00
    0.3300000000E+04    0.9842818734E-01    0.2103892555E+00    0.2783488490E-01    0.2724787951E+00    0.4209429457E+00
    0.3500000000E+04    0.9629663470E-01    0.2109067857E+00    0.2734219168E-01    0.2808599803E+00    0.4221951242E+00
    0.3700000000E+04    0.9422572054E-01    0.2113766779E+00    0.2685710477E-01    0.2889614756E+00    0.4233418519E+00
    0.3900000000E+04    0.9221471787E-01    0.2118054547E+00    0.2638026886E-01    0.2968006965E+00    0.4243970625E+00
    0.4100000000E+04    0.9026249972E-01    0.2121984745E+00    0.2591212332E-01    0.3043928981E+00    0.4253722510E+00
    0.4300000000E+04    0.8836768350E-01    0.2125601843E+00    0.2545295522E-01    0.3117515746E+00    0.4262769947E+00
    0.4500000000E+04    0.8652872953E-01    0.2128943073E+00    0.2500293746E-01    0.3188887685E+00    0.4271193447E+00
    0.4700000000E+04    0.8474400873E-01    0.2132039868E+00    0.2456215680E-01    0.3258153134E+00    0.4279061245E+00
    0.4900000000E+04    0.8301184936E-01    0.2134918960E+00    0.2413063454E-01    0.3325410268E+00    0.4286431594E+00
    0.1000000000E+04    0.1242857267E+00    0.1941617183E+00    0.3276187360E-01    0.1435518279E+00    0.3847078045E+00
    0.3000000000E+04    0.1017392202E+00    0.2095055563E+00    0.2858606258E-01    0.2593377368E+00    0.4188285100E+00
    0.5000000000E+04    0.8216495425E-01    0.2136284151E+00    0.2391833796E-01    0.3358314003E+00    0.4289946153E+00
    0.7000000000E+04    0.6759160264E-01    0.2156305699E+00    0.2013558685E-01    0.3929321332E+00    0.4343256828E+00
    0.9000000000E+04    0.5659807717E-01    0.2168296438E+00    0.1712591394E-01    0.4369975271E+00    0.4377324439E+00
    0.1100000000E+05    0.4815914716E-01    0.2176320619E+00    0.1472520875E-01    0.4716345953E+00    0.4401476889E+00
    0.1300000000E+05    0.4157315472E-01    0.2182075222E+00    0.1279556209E-01    0.4992588419E+00    0.4419741461E+00
    0.1500000000E+05    0.3635322411E-01    0.2186402412E+00    0.1122977682E-01    0.5215802037E+00    0.4434177788E+00
    0.1700000000E+05    0.3215607163E-01    0.2189770354E+00    0.9946376975E-02    0.5398379558E+00    0.4445962433E+00
    0.1900000000E+05    0.2873601405E-01    0.2192461216E+00    0.8883794727E-02    0.5549432215E+00    0.4455822277E+00
    0.2100000000E+05    0.2591469049E-01    0.2194655696E+00    0.7995432641E-02    0.5675738417E+00    0.4464233486E+00
    0.2300000000E+05    0.2356081121E-01    0.2196475123E+00    0.7245832445E-02    0.5782397987E+00    0.4471522538E+00
    0.2500000000E+05    0.2157643398E-01    0.2198004117E+00    0.6607810295E-02    0.5873290436E+00    0.4477921616E+00
    0.2700000000E+05    0.1988754939E-01    0.2199303564E+00    0.6060348019E-02    0.5951399154E+00    0.4483600878E+00
    0.2900000000E+05    0.1843754377E-01    0.2200418430E+00    0.5587048728E-02    0.6019042746E+00    0.4488688203E+00
    0.3100000000E+05    0.1718260492E-01    0.2201382670E+00    0.5175004864E-02    0.6078041586E+00    0.4493281772E+00
    0.3300000000E+05    0.1608845428E-01    0.2202222412E+00    0.4813965093E-02    0.6129838851E+00    0.4497458367E+00
    0.3500000000E+05    0.1512799476E-01    0.2202958100E+00    0.4495717367E-02    0.6175589306E+00    0.4501279006E+00
    0.3700000000E+05    0.1427959820E-01    0.2203605964E+00    0.4213628732E-02    0.6216225064E+00    0.4504792867E+00
    0.3900000000E+05    0.1352584438E-01    0.2204179053E+00    0.3962299348E-02    0.6252504756E+00    0.4508040083E+00
    0.4100000000E+05    0.1285258259E-01    0.2204687980E+00    0.3737300266E-02    0.6285050650E+00    0.4511053773E+00
    0.4300000000E+05    0.1224822610E-01    0.2205141467E+00    0.3534973046E-02    0.6314376918E+00    0.4513861545E+00
    0.4500000000E+05    0.1170321645E-01    0.2205546744E+00    0.3352275409E-02    0.6340911354E+00    0.4516486616E+00
    0.4700000000E+05    0.1120961293E-01    0.2205909862E+00    0.3186661402E-02    0.6365012203E+00    0.4518948677E+00
    0.4900000000E+05    0.1076077522E-01    0.2206235916E+00    0.3035987651E-02    0.6386981315E+00    0.4521264550E+00
    0.1000000000E+05    0.5210923944E-01    0.2172668917E+00    0.1585881468E-01    0.4553233352E+00    0.4390321366E+00
    0.3000000000E+05    0.1778802561E-01    0.2200917591E+00    0.5374064713E-02    0.6049524892E+00    0.4491041483E+00
    0.5000000000E+05    0.1055136196E-01    0.2206386421E+00    0.2965675137E-02    0.6397247967E+00    0.4522372267E+00
    0.7000000000E+05    0.7734293521E-02    0.2208221444E+00    0.2022847645E-02    0.6535997340E+00    0.4539496097E+00
    0.9000000000E+05    0.6268867676E-02    0.2208858012E+00    0.1541259672E-02    0.6607823271E+00    0.4550849531E+00
    0.1100000000E+06    0.5371254821E-02    0.2208980651E+00    0.1254238705E-02    0.6650968183E+00    0.4559167548E+00
    0.1300000000E+06    0.4761763234E-02    0.2208851308E+00    0.1065213412E-02    0.6679480916E+00    0.4565646240E+00
    0.1500000000E+06    0.4317898034E-02    0.2208589052E+00    0.9317582076E-03    0.6699613207E+00    0.4570905364E+00
    0.1700000000E+06    0.3978023942E-02    0.2208254295E+00    0.8326045080E-03    0.6714533971E+00    0.4575303635E+00
    0.1900000000E+06    0.3707856862E-02    0.2207880079E+00    0.7560150922E-03    0.6726008338E+00    0.4579065608E+00
    0.2100000000E+06    0.3486824723E-02    0.2207485458E+00    0.6950215517E-03    0.6735092378E+00    0.4582340332E+00
    0.2300000000E+06    0.3301829839E-02    0.2207081837E+00    0.6452418844E-03    0.6742454372E+00    0.4585231344E+00
    0.2500000000E+06    0.3144127444E-02    0.2206676212E+00    0.6037896051E-03    0.6748536746E+00    0.4587813235E+00
    0.2700000000E+06    0.3007647408E-02    0.2206272936E+00    0.5686892096E-03    0.6753643479E+00    0.4590141365E+00
    0.2900000000E+06    0.2888037447E-02    0.2205874722E+00    0.5385446239E-03    0.6757990024E+00    0.4592257854E+00
    0.3100000000E+06    0.2782090409E-02    0.2205483243E+00    0.5123420011E-03    0.6761733172E+00    0.4594195432E+00
    0.3300000000E+06    0.2687387046E-02    0.2205099500E+00    0.4893276141E-03    0.6764989639E+00    0.4595979994E+00
    0.3500000000E+06    0.2602065203E-02    0.2204724048E+00    0.4689295884E-03    0.6767848038E+00    0.4597632348E+00
    0.3700000000E+06    0.2524666061E-02    0.2204357150E+00    0.4507062098E-03    0.6770376818E+00    0.4599169450E+00
    0.3900000000E+06    0.2454028949E-02    0.2203998875E+00    0.4343108740E-03    0.6772629666E+00    0.4600605281E+00
    0.4100000000E+06    0.2389217669E-02    0.2203649160E+00    0.4194677633E-03    0.6774649264E+00    0.4601951495E+00
    0.4300000000E+06    0.2329467813E-02    0.2203307857E+00    0.4059546149E-03    0.6776469961E+00    0.4603217900E+00
    0.4500000000E+06    0.2274148376E-02    0.2202974764E+00    0.3935902844E-03    0.6778119706E+00    0.4604412823E+00
    0.4700000000E+06    0.2222733316E-02    0.2202649644E+00    0.3822256216E-03    0.6779621462E+00    0.4605543389E+00
    0.4900000000E+06    0.2174780171E-02    0.2202332241E+00    0.3717366716E-03    0.6780994274E+00    0.4606615737E+00
    0.1000000000E+06    0.5772212676E-02    0.2208962184E+00    0.1381400950E-02    0.6631825000E+00    0.4555293652E+00
    0.3000000000E+06    0.2833522560E-02    0.2205678066E+00    0.5250026928E-03    0.6759928954E+00    0.4593247252E+00
    0.5000000000E+06    0.2151982306E-02    0.2202176350E+00    0.3667874529E-03    0.6781637404E+00    0.4607131771E+00
    0.7000000000E+06    0.1810726251E-02    0.2199399991E+00    0.2955742070E-03    0.6790504685E+00    0.4615383470E+00
    0.9000000000E+06    0.1595914839E-02    0.2197127810E+00    0.2534533508E-03    0.6795328962E+00    0.4621168191E+00
    0.1100000000E+07    0.1444480118E-02    0.2195208037E+00    0.2249630270E-03    0.6798368252E+00    0.4625585454E+00
    0.1300000000E+07    0.1330194236E-02    0.2193546046E+00    0.2040934218E-03    0.6800462659E+00    0.4629140295E+00
    0.1500000000E+07    0.1239913058E-02    0.2192080328E+00    0.1879777708E-03    0.6801996145E+00    0.4632104554E+00
    0.1700000000E+07    0.1166216156E-02    0.2190768946E+00    0.1750577628E-03    0.6803169145E+00    0.4634640541E+00
    0.1900000000E+07    0.1104550824E-02    0.2189582099E+00    0.1644056259E-03    0.6804096567E+00    0.4636852563E+00
    0.2100000000E+07    0.1051946168E-02    0.2188497876E+00    0.1554306099E-03    0.6804849040E+00    0.4638811444E+00
    0.2300000000E+07    0.1006368986E-02    0.2187499697E+00    0.1477366103E-03    0.6805472395E+00    0.4640567372E+00
    0.2500000000E+07    0.9663740234E-03    0.2186574718E+00    0.1410469171E-03    0.6805997679E+00    0.4642157154E+00
    0.2700000000E+07    0.9309016737E-03    0.2185712784E+00    0.1351616717E-03    0.6806446682E+00    0.4643608548E+00
    0.2900000000E+07    0.8991548091E-03    0.2184905728E+00    0.1299324761E-03    0.6806835155E+00    0.4644942984E+00
    0.3100000000E+07    0.8705205676E-03    0.2184146881E+00    0.1252465440E-03    0.6807174770E+00    0.4646177339E+00
    0.3300000000E+07    0.8445188887E-03    0.2183430728E+00    0.1210164309E-03    0.6807474361E+00    0.4647325129E+00
    0.3500000000E+07    0.8207676107E-03    0.2182752653E+00    0.1171731636E-03    0.6807740742E+00    0.4648397344E+00
    0.3700000000E+07    0.7989581744E-03    0.2182108755E+00    0.1136615147E-03    0.6807979254E+00    0.4649403031E+00
    0.3900000000E+07    0.7788383192E-03    0.2181495708E+00    0.1104366743E-03    0.6808194142E+00    0.4650349726E+00
    0.4100000000E+07    0.7601995098E-03    0.2180910651E+00    0.1074618556E-03    0.6808388826E+00    0.4651243769E+00
    0.4300000000E+07    0.7428676370E-03    0.2180351106E+00    0.1047065400E-03    0.6808566091E+00    0.4652090544E+00
    0.4500000000E+07    0.7266960285E-03    0.2179814912E+00    0.1021451693E-03    0.6808728228E+00    0.4652894660E+00
    0.4700000000E+07    0.7115601217E-03    0.2179300172E+00    0.9975615620E-04    0.6808877141E+00    0.4653660090E+00
    0.4900000000E+07    0.6973533486E-03    0.2178805214E+00    0.9752112591E-04    0.6809014424E+00    0.4654390286E+00
    0.1000000000E+07    0.1514364945E-02    0.2196130783E+00    0.2379902261E-03    0.6797003042E+00    0.4623508388E+00
    0.3000000000E+07    0.8844812547E-03    0.2184520647E+00    0.1275275680E-03    0.6807010462E+00    0.4645571759E+00
    0.5000000000E+07    0.6905691995E-03    0.2178564683E+00    0.9645634292E-04    0.6809079133E+00    0.4654743127E+00
    0.7000000000E+07    0.5868589462E-03    0.2174507007E+00    0.8038297407E-04    0.6810000930E+00    0.4660515935E+00
    0.9000000000E+07    0.5197317580E-03    0.2171419236E+00    0.7018868616E-04    0.6810531294E+00    0.4664712189E+00
    0.1100000000E+08    0.4717013903E-03    0.2168923367E+00    0.6300016281E-04    0.6810879579E+00    0.4668000598E+00
    0.1300000000E+08    0.4351255114E-03    0.2166827269E+00    0.5758784568E-04    0.6811127678E+00    0.4670700053E+00
    0.1500000000E+08    0.4060599592E-03    0.2165019662E+00    0.5332670259E-04    0.6811314441E+00    0.4672987132E+00
    0.1700000000E+08    0.3822349020E-03    0.2163430221E+00    0.4986124216E-04    0.6811460759E+00    0.4674969682E+00
    0.1900000000E+08    0.3622389106E-03    0.2162011629E+00    0.4697252705E-04    0.6811578907E+00    0.4676718324E+00
    0.2100000000E+08    0.3451418642E-03    0.2160730507E+00    0.4451744527E-04    0.6811676595E+00    0.4678281778E+00
    0.2300000000E+08    0.3303024560E-03    0.2159562417E+00    0.4239801274E-04    0.6811758917E+00    0.4679695051E+00
    0.2500000000E+08    0.3172621749E-03    0.2158488924E+00    0.4054460591E-04    0.6811829383E+00    0.4680984131E+00
    0.2700000000E+08    0.3056832970E-03    0.2157495776E+00    0.3890622446E-04    0.6811890494E+00    0.4682168829E+00
