  Pressure (Pa) 2mC6-400 (mol/kg) 3mC6-400 (mol/kg) 33mC5-400 (mol/kg) 23mC5-400 (mol/kg) C7-400 (mol/kg)
    0.1000000000E+01    0.1582024144E-02    0.2093057987E-02    0.3864807972E-03    0.2799902406E-03    0.8491345644E-02
    0.3000000000E+01    0.4601676069E-02    0.6062836408E-02    0.1124515339E-02    0.8360561757E-03    0.2460048172E-01
    0.5000000000E+01    0.7445165162E-02    0.9768608316E-02    0.1819956691E-02    0.1386981819E-02    0.3964343312E-01
    0.7000000000E+01    0.1012981817E-01    0.1323632558E-01    0.2477012811E-02    0.1932860008E-02    0.5372484700E-01
    0.9000000000E+01    0.1267070555E-01    0.1648863159E-01    0.3099341917E-02    0.2473781261E-02    0.6693603963E-01
    0.1100000000E+02    0.1508099658E-01    0.1954537285E-01    0.3690139160E-02    0.3009833851E-02    0.7935705685E-01
    0.1300000000E+02    0.1737224969E-01    0.2242401845E-01    0.4252207484E-02    0.3541103880E-02    0.9105836356E-01
    0.1500000000E+02    0.1955465139E-01    0.2514000622E-01    0.4788015915E-02    0.4067675341E-02    0.1021022381E+00
    0.1700000000E+02    0.2163721410E-01    0.2770703012E-01    0.5299747818E-02    0.4589630184E-02    0.1125439296E+00
    0.1900000000E+02    0.2362794078E-01    0.3013728009E-01    0.5789341048E-02    0.5107048384E-02    0.1224326249E+00
    0.2100000000E+02    0.2553396279E-01    0.3244164342E-01    0.6258521552E-02    0.5620007994E-02    0.1318122591E+00
    0.2300000000E+02    0.2736165583E-01    0.3462987456E-01    0.6708831625E-02    0.6128585208E-02    0.1407222002E+00
    0.2500000000E+02    0.2911673784E-01    0.3671073903E-01    0.7141653777E-02    0.6632854415E-02    0.1491978286E+00
    0.2700000000E+02    0.3080435221E-01    0.3869213590E-01    0.7558230995E-02    0.7132888253E-02    0.1572710314E+00
    0.2900000000E+02    0.3242913868E-01    0.4058120256E-01    0.7959684004E-02    0.7628757663E-02    0.1649706235E+00
    0.3100000000E+02    0.3399529399E-01    0.4238440453E-01    0.8347026041E-02    0.8120531937E-02    0.1723227104E+00
    0.3300000000E+02    0.3550662402E-01    0.4410761293E-01    0.8721175542E-02    0.8608278766E-02    0.1793510004E+00
    0.3500000000E+02    0.3696658879E-01    0.4575617144E-01    0.9082967084E-02    0.9092064290E-02    0.1860770739E+00
    0.3700000000E+02    0.3837834129E-01    0.4733495438E-01    0.9433160843E-02    0.9571953139E-02    0.1925206182E+00
    0.3900000000E+02    0.3974476131E-01    0.4884841729E-01    0.9772450810E-02    0.1004800848E-01    0.1986996309E+00
    0.4100000000E+02    0.4106848484E-01    0.5030064107E-01    0.1010147194E-01    0.1052029205E-01    0.2046305981E+00
    0.4300000000E+02    0.4235192978E-01    0.5169537070E-01    0.1042080640E-01    0.1098886422E-01    0.2103286507E+00
    0.4500000000E+02    0.4359731843E-01    0.5303604923E-01    0.1073098902E-01    0.1145378400E-01    0.2158077009E+00
    0.4700000000E+02    0.4480669729E-01    0.5432584765E-01    0.1103251215E-01    0.1191510911E-01    0.2210805631E+00
    0.4900000000E+02    0.4598195448E-01    0.5556769140E-01    0.1132582981E-01    0.1237289599E-01    0.2261590607E+00
    0.1000000000E+02    0.1389141847E-01    0.1804030465E-01    0.3398498383E-02    0.2742410707E-02    0.7324070918E-01
    0.3000000000E+02    0.3321929876E-01    0.4149315658E-01    0.8155059406E-02    0.7875152424E-02    0.1686885705E+00
    0.5000000000E+02    0.4655733802E-01    0.5617148313E-01    0.1146954393E-01    0.1260047989E-01    0.2286288699E+00
    0.7000000000E+02    0.5663455035E-01    0.6628799527E-01    0.1399972941E-01    0.1697924207E-01    0.2700780663E+00
    0.9000000000E+02    0.6466861370E-01    0.7371961643E-01    0.1603789557E-01    0.2106027468E-01    0.3006261307E+00
    0.1100000000E+03    0.7129782091E-01    0.7943190178E-01    0.1773680886E-01    0.2488326639E-01    0.3241819084E+00
    0.1300000000E+03    0.7689717625E-01    0.8397362983E-01    0.1918608408E-01    0.2848083638E-01    0.3429694350E+00
    0.1500000000E+03    0.8170637304E-01    0.8768047549E-01    0.2044298581E-01    0.3188006622E-01    0.3583505753E+00
    0.1700000000E+03    0.8588871881E-01    0.9076969584E-01    0.2154656068E-01    0.3510364696E-01    0.3712077127E+00
    0.1900000000E+03    0.8956109009E-01    0.9338835333E-01    0.2252479897E-01    0.3817075017E-01    0.3821387785E+00
    0.2100000000E+03    0.9281041421E-01    0.9563969313E-01    0.2339856453E-01    0.4109769770E-01    0.3915639996E+00
    0.2300000000E+03    0.9570334535E-01    0.9759842515E-01    0.2418389724E-01    0.4389848270E-01    0.3997877828E+00
    0.2500000000E+03    0.9829226038E-01    0.9932000752E-01    0.2489343749E-01    0.4658517935E-01    0.4070363328E+00
    0.2700000000E+03    0.1006191470E+00    0.1008465147E+00    0.2553734912E-01    0.4916826805E-01    0.4134814454E+00
    0.2900000000E+03    0.1027182240E+00    0.1022104744E+00    0.2612394124E-01    0.5165689601E-01    0.4192560753E+00
    0.3100000000E+03    0.1046177667E+00    0.1034374510E+00    0.2666010128E-01    0.5405908778E-01    0.4244648235E+00
    0.3300000000E+03    0.1063414140E+00    0.1045478289E+00    0.2715160554E-01    0.5638191659E-01    0.4291911836E+00
    0.3500000000E+03    0.1079091285E+00    0.1055580727E+00    0.2760334720E-01    0.5863164492E-01    0.4335026624E+00
    0.3700000000E+03    0.1093379155E+00    0.1064816341E+00    0.2801950753E-01    0.6081384052E-01    0.4374544706E+00
    0.3900000000E+03    0.1106423725E+00    0.1073296173E+00    0.2840368673E-01    0.6293347280E-01    0.4410922302E+00
    0.4100000000E+03    0.1118351150E+00    0.1081112743E+00    0.2875900560E-01    0.6499499341E-01    0.4444539920E+00
    0.4300000000E+03    0.1129271118E+00    0.1088343796E+00    0.2908818564E-01    0.6700240394E-01    0.4475717615E+00
    0.4500000000E+03    0.1139279515E+00    0.1095055164E+00    0.2939361297E-01    0.6895931312E-01    0.4504726678E+00
    0.4700000000E+03    0.1148460580E+00    0.1101302986E+00    0.2967738988E-01    0.7086898541E-01    0.4531798685E+00
    0.4900000000E+03    0.1156888646E+00    0.1107135449E+00    0.2994137688E-01    0.7273438237E-01    0.4557132603E+00
    0.1000000000E+03    0.6813120884E-01    0.7674977013E-01    0.1692315796E-01    0.2300184141E-01    0.3131123300E+00
    0.3000000000E+03    0.1036913637E+00    0.1028397070E+00    0.2639794121E-01    0.5286833383E-01    0.4219255399E+00
    0.5000000000E+03    0.1160841184E+00    0.1109909150E+00    0.3006647306E-01    0.7365132912E-01    0.4569202445E+00
    0.7000000000E+03    0.1212970137E+00    0.1151212857E+00    0.3184770147E-01    0.9020708189E-01    0.4750967884E+00
    0.9000000000E+03    0.1233790097E+00    0.1176577737E+00    0.3276741034E-01    0.1043259217E+00    0.4865132505E+00
    0.1100000000E+04    0.1238709014E+00    0.1193887697E+00    0.3322739709E-01    0.1168510519E+00    0.4944698811E+00
    0.1300000000E+04    0.1234793680E+00    0.1206520396E+00    0.3341728110E-01    0.1282434212E+00    0.5003935489E+00
    0.1500000000E+04    0.1225685383E+00    0.1216178935E+00    0.3343771013E-01    0.1387817628E+00    0.5050098839E+00
    0.1700000000E+04    0.1213418605E+00    0.1223820697E+00    0.3334672371E-01    0.1486473789E+00    0.5087301091E+00
    0.1900000000E+04    0.1199199908E+00    0.1230027625E+00    0.3317993579E-01    0.1579648896E+00    0.5118061321E+00
    0.2100000000E+04    0.1183778080E+00    0.1235174986E+00    0.3296028384E-01    0.1668237355E+00    0.5144016142E+00
    0.2300000000E+04    0.1167634470E+00    0.1239516244E+00    0.3270312593E-01    0.1752903771E+00    0.5166278985E+00
    0.2500000000E+04    0.1151087135E+00    0.1243229101E+00    0.3241907747E-01    0.1834156287E+00    0.5185635997E+00
    0.2700000000E+04    0.1134350760E+00    0.1246442038E+00    0.3211567253E-01    0.1912392802E+00    0.5202659464E+00
    0.2900000000E+04    0.1117572605E+00    0.1249250368E+00    0.3179837878E-01    0.1987931270E+00    0.5217776804E+00
    0.3100000000E+04    0.1100854826E+00    0.1251726370E+00    0.3147124016E-01    0.2061030245E+00    0.5231314264E+00
    0.3300000000E+04    0.1084268768E+00    0.1253925895E+00    0.3113729643E-01    0.2131903200E+00    0.5243525587E+00
    0.3500000000E+04    0.1067864339E+00    0.1255892822E+00    0.3079886451E-01    0.2200728773E+00    0.5254611372E+00
    0.3700000000E+04    0.1051676306E+00    0.1257662120E+00    0.3045773156E-01    0.2267658241E+00    0.5264732494E+00
    0.3900000000E+04    0.1035728608E+00    0.1259262018E+00    0.3011529021E-01    0.2332821094E+00    0.5274019621E+00
    0.4100000000E+04    0.1020037351E+00    0.1260715567E+00    0.2977263506E-01    0.2396329249E+00    0.5282580094E+00
    0.4300000000E+04    0.1004612928E+00    0.1262041780E+00    0.2943063270E-01    0.2458280290E+00    0.5290502989E+00
    0.4500000000E+04    0.9894615342E-01    0.1263256488E+00    0.2908997318E-01    0.2518759994E+00    0.5297862912E+00
    0.4700000000E+04    0.9745862704E-01    0.1264372982E+00    0.2875120850E-01    0.2577844315E+00    0.5304722863E+00
    0.4900000000E+04    0.9599879429E-01    0.1265402506E+00    0.2841478158E-01    0.2635600980E+00    0.5311136455E+00
    0.1000000000E+04    0.1237681512E+00    0.1185971365E+00    0.3304007893E-01    0.1107531290E+00    0.4908110068E+00
    0.3000000000E+04    0.1109201116E+00    0.1250526095E+00    0.3163583038E-01    0.2024771431E+00    0.5224725723E+00
    0.5000000000E+04    0.9527924048E-01    0.1265887704E+00    0.2824755894E-01    0.2664000674E+00    0.5314190482E+00
    0.7000000000E+04    0.8227036310E-01    0.1272746111E+00    0.2508189999E-01    0.3174345075E+00    0.5360173801E+00
    0.9000000000E+04    0.7157032431E-01    0.1276554871E+00    0.2229983742E-01    0.3596442877E+00    0.5389211172E+00
    0.1100000000E+05    0.6272024280E-01    0.1278922258E+00    0.1988933539E-01    0.3950862540E+00    0.5409608998E+00
    0.1300000000E+05    0.5534950610E-01    0.1280496612E+00    0.1780887324E-01    0.4251098341E+00    0.5424905322E+00
    0.1500000000E+05    0.4916918205E-01    0.1281590099E+00    0.1601344393E-01    0.4507122409E+00    0.5436895682E+00
    0.1700000000E+05    0.4395306198E-01    0.1282371570E+00    0.1446125669E-01    0.4726709821E+00    0.5446601754E+00
    0.1900000000E+05    0.3952274081E-01    0.1282940228E+00    0.1311555554E-01    0.4916072019E+00    0.5454653728E+00
    0.2100000000E+05    0.3573661881E-01    0.1283358081E+00    0.1194482802E-01    0.5080229972E+00    0.5461464291E+00
    0.2300000000E+05    0.3248168701E-01    0.1283665803E+00    0.1092242059E-01    0.5223269094E+00    0.5467316439E+00
    0.2500000000E+05    0.2966728794E-01    0.1283891119E+00    0.1002595243E-01    0.5348528844E+00    0.5472411458E+00
    0.2700000000E+05    0.2722032395E-01    0.1284053540E+00    0.9236695805E-02    0.5458749776E+00    0.5476896830E+00
    0.2900000000E+05    0.2508155264E-01    0.1284167157E+00    0.8538996417E-02    0.5556189709E+00    0.5480883311E+00
    0.3100000000E+05    0.2320271039E-01    0.1284242381E+00    0.7919761446E-02    0.5642716221E+00    0.5484455827E+00
    0.3300000000E+05    0.2154427116E-01    0.1284287048E+00    0.7368021973E-02    0.5719880519E+00    0.5487680669E+00
    0.3500000000E+05    0.2007369434E-01    0.1284307154E+00    0.6874565954E-02    0.5788976544E+00    0.5490610391E+00
    0.3700000000E+05    0.1876405042E-01    0.1284307358E+00    0.6431633915E-02    0.5851088344E+00    0.5493287229E+00
    0.3900000000E+05    0.1759293870E-01    0.1284291321E+00    0.6032668357E-02    0.5907128094E+00    0.5495745540E+00
    0.4100000000E+05    0.1654163171E-01    0.1284261954E+00    0.5672108131E-02    0.5957866701E+00    0.5498013572E+00
    0.4300000000E+05    0.1559439590E-01    0.1284221594E+00    0.5345219959E-02    0.6003958496E+00    0.5500114779E+00
    0.4500000000E+05    0.1473794989E-01    0.1284172138E+00    0.5047960385E-02    0.6045961215E+00    0.5502068808E+00
    0.4700000000E+05    0.1396103043E-01    0.1284115131E+00    0.4776862548E-02    0.6084352230E+00    0.5503892249E+00
    0.4900000000E+05    0.1325404313E-01    0.1284051846E+00    0.4528943136E-02    0.6119541779E+00    0.5505599212E+00
    0.1000000000E+05    0.6693935201E-01    0.1277866555E+00    0.2105051228E-01    0.3781162500E+00    0.5400209317E+00
    0.3000000000E+05    0.2411229293E-01    0.1284209028E+00    0.8220301586E-02    0.5600713534E+00    0.5482716801E+00
    0.5000000000E+05    0.1292416147E-01    0.1284018186E+00    0.4412856127E-02    0.6136048550E+00    0.5506412860E+00
    0.7000000000E+05    0.8525153498E-02    0.1283194525E+00    0.2838663924E-02    0.6362525556E+00    0.5518760385E+00
    0.9000000000E+05    0.6326728962E-02    0.1282294309E+00    0.2033443234E-02    0.6481489098E+00    0.5526718048E+00
    0.1100000000E+06    0.5050503416E-02    0.1281427440E+00    0.1561682545E-02    0.6553010593E+00    0.5532443150E+00
    0.1300000000E+06    0.4230952802E-02    0.1280617685E+00    0.1258528720E-02    0.6600086577E+00    0.5536847174E+00
    0.1500000000E+06    0.3665327647E-02    0.1279866769E+00    0.1050317564E-02    0.6633135728E+00    0.5540390337E+00
    0.1700000000E+06    0.3253385482E-02    0.1279170362E+00    0.8999760839E-03    0.6657478411E+00    0.5543333788E+00
    0.1900000000E+06    0.2940663570E-02    0.1278522792E+00    0.7871108766E-03    0.6676084441E+00    0.5545838493E+00
    0.2100000000E+06    0.2695336904E-02    0.1277918525E+00    0.6997032877E-03    0.6690729373E+00    0.5548009971E+00
    0.2300000000E+06    0.2497700417E-02    0.1277352596E+00    0.6302702179E-03    0.6702534224E+00    0.5549920784E+00
    0.2500000000E+06    0.2334964808E-02    0.1276820688E+00    0.5739390359E-03    0.6712238809E+00    0.5551622767E+00
    0.2700000000E+06    0.2198498617E-02    0.1276319088E+00    0.5274165922E-03    0.6720349610E+00    0.5553154116E+00
    0.2900000000E+06    0.2082281546E-02    0.1275844609E+00    0.4884061970E-03    0.6727224235E+00    0.5554543721E+00
    0.3100000000E+06    0.1981994870E-02    0.1275394515E+00    0.4552624946E-03    0.6733121907E+00    0.5555813909E+00
    0.3300000000E+06    0.1894464430E-02    0.1274966445E+00    0.4267790409E-03    0.6738234847E+00    0.5556982267E+00
    0.3500000000E+06    0.1817307432E-02    0.1274558353E+00    0.4020530886E-03    0.6742708439E+00    0.5558062872E+00
    0.3700000000E+06    0.1748701591E-02    0.1274168462E+00    0.3803969576E-03    0.6746654566E+00    0.5559067150E+00
    0.3900000000E+06    0.1687230145E-02    0.1273795215E+00    0.3612784241E-03    0.6750160666E+00    0.5560004497E+00
    0.4100000000E+06    0.1631775328E-02    0.1273437243E+00    0.3442797009E-03    0.6753296018E+00    0.5560882720E+00
    0.4300000000E+06    0.1581443590E-02    0.1273093340E+00    0.3290686293E-03    0.6756116189E+00    0.5561708376E+00
    0.4500000000E+06    0.1535512097E-02    0.1272762433E+00    0.3153780733E-03    0.6758666249E+00    0.5562487016E+00
    0.4700000000E+06    0.1493389797E-02    0.1272443570E+00    0.3029909358E-03    0.6760983119E+00    0.5563223382E+00
    0.4900000000E+06    0.1454588655E-02    0.1272135895E+00    0.2917290969E-03    0.6763097324E+00    0.5563921551E+00
    0.1000000000E+06    0.5611827441E-02    0.1281854362E+00    0.1769407531E-02    0.6521299522E+00    0.5529787229E+00
    0.3000000000E+06    0.2030367233E-02    0.1275616670E+00    0.4711848305E-03    0.6730281883E+00    0.5555192548E+00
    0.5000000000E+06    0.1436303752E-02    0.1271986012E+00    0.2864730790E-03    0.6764086550E+00    0.5564257434E+00
    0.7000000000E+06    0.1174382374E-02    0.1269425328E+00    0.2151518008E-03    0.6777646595E+00    0.5569622685E+00
    0.9000000000E+06    0.1019723928E-02    0.1267442282E+00    0.1769360885E-03    0.6784967413E+00    0.5573380981E+00
    0.1100000000E+07    0.9147080156E-03    0.1265821829E+00    0.1527988599E-03    0.6789565455E+00    0.5576251543E+00
    0.1300000000E+07    0.8373518219E-03    0.1264450640E+00    0.1359807511E-03    0.6792731944E+00    0.5578563090E+00
    0.1500000000E+07    0.7772593628E-03    0.1263261556E+00    0.1234776550E-03    0.6795052014E+00    0.5580492080E+00
    0.1700000000E+07    0.7287995802E-03    0.1262211453E+00    0.1137473300E-03    0.6796829374E+00    0.5582143707E+00
    0.1900000000E+07    0.6886224356E-03    0.1261270969E+00    0.1059138457E-03    0.6798237452E+00    0.5583585509E+00
    0.2100000000E+07    0.6545930392E-03    0.1260419193E+00    0.9944106029E-04    0.6799382564E+00    0.5584863319E+00
    0.2300000000E+07    0.6252774033E-03    0.1259640702E+00    0.9398134176E-04    0.6800333569E+00    0.5586009610E+00
    0.2500000000E+07    0.5996714712E-03    0.1258923789E+00    0.8929873730E-04    0.6801137064E+00    0.5587048191E+00
    0.2700000000E+07    0.5770481600E-03    0.1258259356E+00    0.8522703107E-04    0.6801825731E+00    0.5587997021E+00
    0.2900000000E+07    0.5568661080E-03    0.1257640189E+00    0.8164547299E-04    0.6802423186E+00    0.5588869965E+00
    0.3100000000E+07    0.5387127026E-03    0.1257060472E+00    0.7846404090E-04    0.6802946927E+00    0.5589677944E+00
    0.3300000000E+07    0.5222671334E-03    0.1256515447E+00    0.7561412270E-04    0.6803410206E+00    0.5590429707E+00
    0.3500000000E+07    0.5072756436E-03    0.1256001168E+00    0.7304241906E-04    0.6803823245E+00    0.5591132368E+00
    0.3700000000E+07    0.4935344867E-03    0.1255514332E+00    0.7070683357E-04    0.6804194061E+00    0.5591791787E+00
    0.3900000000E+07    0.4808779025E-03    0.1255052139E+00    0.6857363003E-04    0.6804529033E+00    0.5592412846E+00
    0.4100000000E+07    0.4691694520E-03    0.1254612202E+00    0.6661542119E-04    0.6804833300E+00    0.5592999651E+00
    0.4300000000E+07    0.4582956554E-03    0.1254192462E+00    0.6480971686E-04    0.6805111053E+00    0.5593555694E+00
    0.4500000000E+07    0.4481612421E-03    0.1253791138E+00    0.6313785694E-04    0.6805365744E+00    0.5594083962E+00
    0.4700000000E+07    0.4386855507E-03    0.1253406671E+00    0.6158421458E-04    0.6805600241E+00    0.5594587032E+00
    0.4900000000E+07    0.4297997633E-03    0.1253037697E+00    0.6013559245E-04    0.6805816950E+00    0.5595067143E+00
    0.1000000000E+07    0.9627931064E-03    0.1266595294E+00    0.1636650547E-03    0.6787500940E+00    0.5574901582E+00
    0.3000000000E+07    0.5475576906E-03    0.1257345718E+00    0.8000944780E-04    0.6802693360E+00    0.5589281484E+00
    0.5000000000E+07    0.4255592775E-03    0.1252858636E+00    0.5944708781E-04    0.6805919282E+00    0.5595299210E+00
    0.7000000000E+07    0.3609351202E-03    0.1249860197E+00    0.4917307200E-04    0.6807392590E+00    0.5599102601E+00
    0.9000000000E+07    0.3192818702E-03    0.1247603065E+00    0.4276117642E-04    0.6808257666E+00    0.5601875143E+00
    0.1100000000E+08    0.2895492121E-03    0.1245791706E+00    0.3828172163E-04    0.6808835578E+00    0.5604052477E+00
    0.1300000000E+08    0.2669423499E-03    0.1244278445E+00    0.3492946592E-04    0.6809253389E+00    0.5605842847E+00
    0.1500000000E+08    0.2489972277E-03    0.1242978736E+00    0.3230143111E-04    0.6809572020E+00    0.5607361791E+00
    0.1700000000E+08    0.2342997964E-03    0.1241839608E+00    0.3017086391E-04    0.6809824554E+00    0.5608679995E+00
    0.1900000000E+08    0.2219725388E-03    0.1240825659E+00    0.2839919922E-04    0.6810030605E+00    0.5609843812E+00
    0.2100000000E+08    0.2114380525E-03    0.1239912051E+00    0.2689639823E-04    0.6810202592E+00    0.5610885263E+00
    0.2300000000E+08    0.2022986963E-03    0.1239080681E+00    0.2560110177E-04    0.6810348787E+00    0.5611827381E+00
    0.2500000000E+08    0.1942704419E-03    0.1238317946E+00    0.2446987459E-04    0.6810474929E+00    0.5612687281E+00
    0.2700000000E+08    0.1871442477E-03    0.1237613366E+00    0.2347099847E-04    0.6810585136E+00    0.5613478022E+00
