  Pressure (Pa) 2mC6-400 (mol/kg) 3mC6-400 (mol/kg) 33mC5-400 (mol/kg) 23mC5-400 (mol/kg) C7-400 (mol/kg)
    0.1000000000E+01    0.1584782107E-02    0.4195653984E-02    0.6452423099E-04    0.5599306588E-03    0.5106360483E-02
    0.3000000000E+01    0.4624673986E-02    0.1220593974E-01    0.1883422655E-03    0.1671668014E-02    0.1485752350E-01
    0.5000000000E+01    0.7504482610E-02    0.1974616166E-01    0.3057053330E-03    0.2772740486E-02    0.2403919816E-01
    0.7000000000E+01    0.1023798945E-01    0.2685723085E-01    0.4171713874E-03    0.3863344098E-02    0.3270087349E-01
    0.9000000000E+01    0.1283739000E-01    0.3357542441E-01    0.5232339703E-03    0.4943669926E-02    0.4088643712E-01
    0.1100000000E+02    0.1531351591E-01    0.3993302427E-01    0.6243312483E-03    0.6013904260E-02    0.4863494716E-01
    0.1300000000E+02    0.1767602092E-01    0.4595885316E-01    0.7208535773E-03    0.7074228749E-02    0.5598127977E-01
    0.1500000000E+02    0.1993353726E-01    0.5167872649E-01    0.8131498627E-03    0.8124820550E-02    0.6295667519E-01
    0.1700000000E+02    0.2209380785E-01    0.5711583523E-01    0.9015329359E-03    0.9165852465E-02    0.6958920043E-01
    0.1900000000E+02    0.2416379855E-01    0.6229107163E-01    0.9862841168E-03    0.1019749308E-01    0.7590414290E-01
    0.2100000000E+02    0.2614979386E-01    0.6722330768E-01    0.1067657104E-02    0.1121990687E-01    0.8192434693E-01
    0.2300000000E+02    0.2805747883E-01    0.7192963398E-01    0.1145881302E-02    0.1223325439E-01    0.8767050244E-01
    0.2500000000E+02    0.2989200952E-01    0.7642556545E-01    0.1221164685E-02    0.1323769230E-01    0.9316139368E-01
    0.2700000000E+02    0.3165807363E-01    0.8072521923E-01    0.1293696261E-02    0.1423337355E-01    0.9841411416E-01
    0.2900000000E+02    0.3335994317E-01    0.8484146891E-01    0.1363648206E-02    0.1522044749E-01    0.1034442532E+00
    0.3100000000E+02    0.3500152001E-01    0.8878607886E-01    0.1431177716E-02    0.1619905992E-01    0.1082660582E+00
    0.3300000000E+02    0.3658637571E-01    0.9256982143E-01    0.1496428625E-02    0.1716935328E-01    0.1128925764E+00
    0.3500000000E+02    0.3811778621E-01    0.9620257957E-01    0.1559532810E-02    0.1813146665E-01    0.1173357790E+00
    0.3700000000E+02    0.3959876231E-01    0.9969343708E-01    0.1620611427E-02    0.1908553594E-01    0.1216066703E+00
    0.3900000000E+02    0.4103207642E-01    0.1030507579E+00    0.1679775999E-02    0.2003169394E-01    0.1257153833E+00
    0.4100000000E+02    0.4242028615E-01    0.1062822563E+00    0.1737129370E-02    0.2097007038E-01    0.1296712650E+00
    0.4300000000E+02    0.4376575510E-01    0.1093950588E+00    0.1792766548E-02    0.2190079209E-01    0.1334829511E+00
    0.4500000000E+02    0.4507067135E-01    0.1123957596E+00    0.1846775453E-02    0.2282398302E-01    0.1371584328E+00
    0.4700000000E+02    0.4633706380E-01    0.1152904690E+00    0.1899237584E-02    0.2373976435E-01    0.1407051156E+00
    0.4900000000E+02    0.4756681675E-01    0.1180848576E+00    0.1950228604E-02    0.2464825456E-01    0.1441298730E+00
    0.1000000000E+02    0.1409023328E-01    0.3679742172E-01    0.5743778344E-03    0.5480037070E-02    0.4481305291E-01
    0.3000000000E+02    0.3418803764E-01    0.8683453360E-01    0.1397706480E-02    0.1571080241E-01    0.1058803554E+00
    0.5000000000E+02    0.4816850596E-01    0.1194460930E+00    0.1975194627E-02    0.2509980180E-01    0.1457985437E+00
    0.7000000000E+02    0.5864567120E-01    0.1425042570E+00    0.2412001867E-02    0.3377489212E-01    0.1741049351E+00
    0.9000000000E+02    0.6686979415E-01    0.1597411110E+00    0.2758252432E-02    0.4183839606E-01    0.1953254718E+00
    0.1100000000E+03    0.7352640962E-01    0.1731582386E+00    0.3041362219E-02    0.4937323481E-01    0.2118898383E+00
    0.1300000000E+03    0.7903024430E-01    0.1839277311E+00    0.3277892977E-02    0.5644736727E-01    0.2252221754E+00
    0.1500000000E+03    0.8365131861E-01    0.1927827693E+00    0.3478622517E-02    0.6311705836E-01    0.2362141756E+00
    0.1700000000E+03    0.8757560402E-01    0.2002062019E+00    0.3650976421E-02    0.6942932221E-01    0.2454536350E+00
    0.1900000000E+03    0.9093692133E-01    0.2065294229E+00    0.3800303428E-02    0.7542377418E-01    0.2533443558E+00
    0.2100000000E+03    0.9383496313E-01    0.2119877159E+00    0.3930594366E-02    0.8113405234E-01    0.2601732999E+00
    0.2300000000E+03    0.9634609527E-01    0.2167529240E+00    0.4044912222E-02    0.8658892139E-01    0.2661502505E+00
    0.2500000000E+03    0.9853015733E-01    0.2209536054E+00    0.4145662514E-02    0.9181313890E-01    0.2714322955E+00
    0.2700000000E+03    0.1004349255E+00    0.2246879398E+00    0.4234770553E-02    0.9682814179E-01    0.2761395138E+00
    0.2900000000E+03    0.1020991467E+00    0.2280322608E+00    0.4313801875E-02    0.1016525953E+00    0.2803653517E+00
    0.3100000000E+03    0.1035546645E+00    0.2310468558E+00    0.4384046621E-02    0.1063028356E+00    0.2841836795E+00
    0.3300000000E+03    0.1048279482E+00    0.2337800029E+00    0.4446580214E-02    0.1107932294E+00    0.2876537068E+00
    0.3500000000E+03    0.1059412171E+00    0.2362708433E+00    0.4502308012E-02    0.1151364687E+00    0.2908234810E+00
    0.3700000000E+03    0.1069132843E+00    0.2385514626E+00    0.4551998824E-02    0.1193438130E+00    0.2937324238E+00
    0.3900000000E+03    0.1077601998E+00    0.2406484257E+00    0.4596310497E-02    0.1234252908E+00    0.2964132036E+00
    0.4100000000E+03    0.1084957494E+00    0.2425839257E+00    0.4635809767E-02    0.1273898673E+00    0.2988931365E+00
    0.4300000000E+03    0.1091318459E+00    0.2443766555E+00    0.4670987852E-02    0.1312455854E+00    0.3011952512E+00
    0.4500000000E+03    0.1096788397E+00    0.2460424784E+00    0.4702272853E-02    0.1349996844E+00    0.3033391076E+00
    0.4700000000E+03    0.1101457690E+00    0.2475949490E+00    0.4730039734E-02    0.1386587005E+00    0.3053414335E+00
    0.4900000000E+03    0.1105405611E+00    0.2490457226E+00    0.4754618408E-02    0.1422285529E+00    0.3072166252E+00
    0.1000000000E+03    0.7036371034E-01    0.1668404339E+00    0.2906488388E-02    0.4566734350E-01    0.2040843546E+00
    0.3000000000E+03    0.1028512280E+00    0.2295775135E+00    0.4349950911E-02    0.1039985517E+00    0.2823214567E+00
    0.5000000000E+03    0.1107131208E+00    0.2497361771E+00    0.4765804604E-02    0.1439817419E+00    0.3081105065E+00
    0.7000000000E+03    0.1116986896E+00    0.2600609885E+00    0.4877663678E-02    0.1754406627E+00    0.3216103397E+00
    0.9000000000E+03    0.1100194814E+00    0.2664487532E+00    0.4863250956E-02    0.2019265040E+00    0.3301286698E+00
    0.1100000000E+04    0.1071831981E+00    0.2708353585E+00    0.4788554606E-02    0.2250896945E+00    0.3360860209E+00
    0.1300000000E+04    0.1038398219E+00    0.2740549808E+00    0.4683227764E-02    0.2458257269E+00    0.3405339306E+00
    0.1500000000E+04    0.1003019536E+00    0.2765298977E+00    0.4562251896E-02    0.2646752647E+00    0.3440087959E+00
    0.1700000000E+04    0.9673045782E-01    0.2784982222E+00    0.4433817078E-02    0.2819916397E+00    0.3468152880E+00
    0.1900000000E+04    0.9321131889E-01    0.2801050688E+00    0.4302651382E-02    0.2980204339E+00    0.3491403872E+00
    0.2100000000E+04    0.8979098519E-01    0.2814442324E+00    0.4171585875E-02    0.3129410083E+00    0.3511057666E+00
    0.2300000000E+04    0.8649395932E-01    0.2825791990E+00    0.4042352290E-02    0.3268897998E+00    0.3527943242E+00
    0.2500000000E+04    0.8333210758E-01    0.2835545688E+00    0.3916016477E-02    0.3399741663E+00    0.3542646700E+00
    0.2700000000E+04    0.8030983496E-01    0.2844026487E+00    0.3793226524E-02    0.3522810112E+00    0.3555595258E+00
    0.2900000000E+04    0.7742707806E-01    0.2851474505E+00    0.3674361058E-02    0.3638823708E+00    0.3567108386E+00
    0.3100000000E+04    0.7468109272E-01    0.2858072152E+00    0.3559621174E-02    0.3748391581E+00    0.3577430234E+00
    0.3300000000E+04    0.7206754947E-01    0.2863960633E+00    0.3449089213E-02    0.3852037457E+00    0.3586750921E+00
    0.3500000000E+04    0.6958121866E-01    0.2869251066E+00    0.3342767345E-02    0.3950217934E+00    0.3595220925E+00
    0.3700000000E+04    0.6721640508E-01    0.2874032159E+00    0.3240603468E-02    0.4043335739E+00    0.3602961065E+00
    0.3900000000E+04    0.6496722625E-01    0.2878375643E+00    0.3142508939E-02    0.4131749533E+00    0.3610069584E+00
    0.4100000000E+04    0.6282779104E-01    0.2882340181E+00    0.3048370887E-02    0.4215781318E+00    0.3616627279E+00
    0.4300000000E+04    0.6079231359E-01    0.2885974245E+00    0.2958060889E-02    0.4295722139E+00    0.3622701271E+00
    0.4500000000E+04    0.5885518474E-01    0.2889318255E+00    0.2871441134E-02    0.4371836540E+00    0.3628347837E+00
    0.4700000000E+04    0.5701101519E-01    0.2892406201E+00    0.2788368834E-02    0.4444366122E+00    0.3633614549E+00
    0.4900000000E+04    0.5525465979E-01    0.2895266885E+00    0.2708699387E-02    0.4513532409E+00    0.3638541931E+00
    0.1000000000E+04    0.1086939518E+00    0.2688260390E+00    0.4831094055E-02    0.2138561842E+00    0.3333442437E+00
    0.3000000000E+04    0.7603723193E-01    0.2854869985E+00    0.3616468017E-02    0.3694378869E+00    0.3572405266E+00
    0.5000000000E+04    0.5440787430E-01    0.2896619827E+00    0.2670095624E-02    0.4546918642E+00    0.3640889430E+00
    0.7000000000E+04    0.4103295064E-01    0.2916173422E+00    0.2043401555E-02    0.5079981726E+00    0.3676342486E+00
    0.9000000000E+04    0.3236500727E-01    0.2927576495E+00    0.1619405261E-02    0.5434706257E+00    0.3698880432E+00
    0.1100000000E+05    0.2646968141E-01    0.2935039713E+00    0.1322286433E-02    0.5682432683E+00    0.3714840903E+00
    0.1300000000E+05    0.2228591588E-01    0.2940286639E+00    0.1106806299E-02    0.5862485668E+00    0.3726927028E+00
    0.1500000000E+05    0.1920710918E-01    0.2944159478E+00    0.9456715876E-03    0.5997789467E+00    0.3736507614E+00
    0.1700000000E+05    0.1687068395E-01    0.2947120436E+00    0.8219256169E-03    0.6102350070E+00    0.3744358306E+00
    0.1900000000E+05    0.1505070648E-01    0.2949445010E+00    0.7246847607E-03    0.6185083665E+00    0.3750955276E+00
    0.2100000000E+05    0.1360102613E-01    0.2951307897E+00    0.6467406368E-03    0.6251874802E+00    0.3756608976E+00
    0.2300000000E+05    0.1242391874E-01    0.2952825356E+00    0.5831793152E-03    0.6306732109E+00    0.3761531545E+00
    0.2500000000E+05    0.1145210344E-01    0.2954077803E+00    0.5305626705E-03    0.6352463321E+00    0.3765873516E+00
    0.2700000000E+05    0.1063804812E-01    0.2955122661E+00    0.4864283965E-03    0.6391083815E+00    0.3769745068E+00
    0.2900000000E+05    0.9947396270E-02    0.2956002034E+00    0.4489758595E-03    0.6424071903E+00    0.3773228958E+00
    0.3100000000E+05    0.9354804838E-02    0.2956747498E+00    0.4168634385E-03    0.6452533021E+00    0.3776388730E+00
    0.3300000000E+05    0.8841236923E-02    0.2957383193E+00    0.3890745806E-03    0.6477308100E+00    0.3779274103E+00
    0.3500000000E+05    0.8392157671E-02    0.2957927888E+00    0.3648272865E-03    0.6499046782E+00    0.3781924623E+00
    0.3700000000E+05    0.7996305375E-02    0.2958396395E+00    0.3435116956E-03    0.6518257934E+00    0.3784372202E+00
    0.3900000000E+05    0.7644837608E-02    0.2958800550E+00    0.3246462436E-03    0.6535345183E+00    0.3786642916E+00
    0.4100000000E+05    0.7330727117E-02    0.2959149926E+00    0.3078463416E-03    0.6550632345E+00    0.3788758320E+00
    0.4300000000E+05    0.7048327320E-02    0.2959452346E+00    0.2928016513E-03    0.6564381916E+00    0.3790736407E+00
    0.4500000000E+05    0.6793055033E-02    0.2959714260E+00    0.2792593608E-03    0.6576808706E+00    0.3792592341E+00
    0.4700000000E+05    0.6561155582E-02    0.2959941034E+00    0.2670117146E-03    0.6588090046E+00    0.3794339002E+00
    0.4900000000E+05    0.6349526658E-02    0.2960137164E+00    0.2558866018E-03    0.6598373498E+00    0.3795987414E+00
    0.1000000000E+05    0.2915127095E-01    0.2931662413E+00    0.1458354900E-02    0.5568975732E+00    0.3707468321E+00
    0.3000000000E+05    0.9640156031E-02    0.2956389850E+00    0.4323220604E-03    0.6438810568E+00    0.3774845977E+00
    0.5000000000E+05    0.6250488988E-02    0.2960224948E+00    0.2506991541E-03    0.6603180473E+00    0.3796777798E+00
    0.7000000000E+05    0.4887117670E-02    0.2961041893E+00    0.1809788635E-03    0.6668541575E+00    0.3809170036E+00
    0.9000000000E+05    0.4137069898E-02    0.2960951802E+00    0.1446335688E-03    0.6703095106E+00    0.3817592107E+00
    0.1100000000E+06    0.3652855531E-02    0.2960514966E+00    0.1223220482E-03    0.6724340628E+00    0.3823884687E+00
    0.1300000000E+06    0.3308978106E-02    0.2959933559E+00    0.1071689869E-03    0.6738685736E+00    0.3828865940E+00
    0.1500000000E+06    0.3048997912E-02    0.2959293608E+00    0.9615114720E-04    0.6749008425E+00    0.3832965681E+00
    0.1700000000E+06    0.2843634890E-02    0.2958635459E+00    0.8773885097E-04    0.6756786870E+00    0.3836435681E+00
    0.1900000000E+06    0.2676093247E-02    0.2957979113E+00    0.8107677079E-04    0.6762856131E+00    0.3839435224E+00
    0.2100000000E+06    0.2535993694E-02    0.2957334699E+00    0.7564944895E-04    0.6767722797E+00    0.3842071047E+00
    0.2300000000E+06    0.2416543869E-02    0.2956707259E+00    0.7112762065E-04    0.6771711700E+00    0.3844417937E+00
    0.2500000000E+06    0.2313092311E-02    0.2956099105E+00    0.6729093202E-04    0.6775040567E+00    0.3846530202E+00
    0.2700000000E+06    0.2222334242E-02    0.2955511045E+00    0.6398619411E-04    0.6777860727E+00    0.3848448441E+00
    0.2900000000E+06    0.2141849178E-02    0.2954943052E+00    0.6110348275E-04    0.6780280592E+00    0.3850203757E+00
    0.3100000000E+06    0.2069818476E-02    0.2954394634E+00    0.5856178000E-04    0.6782379841E+00    0.3851820468E+00
    0.3300000000E+06    0.2004845686E-02    0.2953865057E+00    0.5629998992E-04    0.6784218342E+00    0.3853317931E+00
    0.3500000000E+06    0.1945838316E-02    0.2953353465E+00    0.5427111858E-04    0.6785841935E+00    0.3854711788E+00
    0.3700000000E+06    0.1891927667E-02    0.2952858959E+00    0.5243838903E-04    0.6787286315E+00    0.3856014852E+00
    0.3900000000E+06    0.1842413080E-02    0.2952380637E+00    0.5077257887E-04    0.6788579690E+00    0.3857237738E+00
    0.4100000000E+06    0.1796722264E-02    0.2951917622E+00    0.4925015323E-04    0.6789744638E+00    0.3858389342E+00
    0.4300000000E+06    0.1754382513E-02    0.2951469073E+00    0.4785192839E-04    0.6790799453E+00    0.3859477179E+00
    0.4500000000E+06    0.1714999435E-02    0.2951034195E+00    0.4656209755E-04    0.6791759109E+00    0.3860507661E+00
    0.4700000000E+06    0.1678240989E-02    0.2950612240E+00    0.4536750889E-04    0.6792635981E+00    0.3861486293E+00
    0.4900000000E+06    0.1643825329E-02    0.2950202508E+00    0.4425712251E-04    0.6793440387E+00    0.3862417842E+00
    0.1000000000E+06    0.3872049033E-02    0.2960759955E+00    0.1322917221E-03    0.6714855097E+00    0.3820940329E+00
    0.3000000000E+06    0.2104872590E-02    0.2954666438E+00    0.5979421079E-04    0.6781366167E+00    0.3851028128E+00
    0.5000000000E+06    0.1627419342E-02    0.2950002019E+00    0.4373052877E-04    0.6793818180E+00    0.3862867277E+00
    0.7000000000E+06    0.1378644529E-02    0.2946497559E+00    0.3595643606E-04    0.6799092814E+00    0.3870158330E+00
    0.9000000000E+06    0.1219289696E-02    0.2943697866E+00    0.3117733242E-04    0.6802018589E+00    0.3875389911E+00
    0.1100000000E+07    0.1105873102E-02    0.2941365602E+00    0.2786705015E-04    0.6803884124E+00    0.3879453293E+00
    0.1300000000E+07    0.1019771596E-02    0.2939365492E+00    0.2540311768E-04    0.6805180189E+00    0.3882766888E+00
    0.1500000000E+07    0.9514839528E-03    0.2937613595E+00    0.2347854296E-04    0.6806134680E+00    0.3885559764E+00
    0.1700000000E+07    0.8955821924E-03    0.2936054308E+00    0.2192232087E-04    0.6806867951E+00    0.3887970598E+00
    0.1900000000E+07    0.8487079096E-03    0.2934648908E+00    0.2063072004E-04    0.6807449616E+00    0.3890089555E+00
    0.2100000000E+07    0.8086558582E-03    0.2933369336E+00    0.1953671118E-04    0.6807922765E+00    0.3891978475E+00
    0.2300000000E+07    0.7739095978E-03    0.2932194605E+00    0.1859481358E-04    0.6808315516E+00    0.3893681566E+00
    0.2500000000E+07    0.7433871408E-03    0.2931108604E+00    0.1777294341E-04    0.6808647010E+00    0.3895231503E+00
    0.2700000000E+07    0.7162928054E-03    0.2930098691E+00    0.1704773755E-04    0.6808930731E+00    0.3896653101E+00
    0.2900000000E+07    0.6920265220E-03    0.2929154759E+00    0.1640172797E-04    0.6809176460E+00    0.3897965640E+00
    0.3100000000E+07    0.6701259783E-03    0.2928268605E+00    0.1582155944E-04    0.6809391464E+00    0.3899184389E+00
    0.3300000000E+07    0.6502284068E-03    0.2927433471E+00    0.1529682414E-04    0.6809581258E+00    0.3900321644E+00
    0.3500000000E+07    0.6320445884E-03    0.2926643727E+00    0.1481927570E-04    0.6809750106E+00    0.3901387449E+00
    0.3700000000E+07    0.6153407047E-03    0.2925894633E+00    0.1438228501E-04    0.6809901354E+00    0.3902390112E+00
    0.3900000000E+07    0.5999253848E-03    0.2925182157E+00    0.1398045445E-04    0.6810037669E+00    0.3903336581E+00
    0.4100000000E+07    0.5856402731E-03    0.2924502843E+00    0.1360933891E-04    0.6810161200E+00    0.3904232726E+00
    0.4300000000E+07    0.5723530412E-03    0.2923853703E+00    0.1326524031E-04    0.6810273700E+00    0.3905083548E+00
    0.4500000000E+07    0.5599521275E-03    0.2923232140E+00    0.1294505375E-04    0.6810376615E+00    0.3905893344E+00
    0.4700000000E+07    0.5483427216E-03    0.2922635880E+00    0.1264615068E-04    0.6810471144E+00    0.3906665830E+00
    0.4900000000E+07    0.5374436593E-03    0.2922062919E+00    0.1236628903E-04    0.6810558295E+00    0.3907404245E+00
    0.1000000000E+07    0.1158314367E-02    0.2942483360E+00    0.2938841044E-04    0.6803043946E+00    0.3877535182E+00
    0.3000000000E+07    0.6808051874E-03    0.2928704912E+00    0.1610412249E-04    0.6809287423E+00    0.3898585909E+00
    0.5000000000E+07    0.5322382661E-03    0.2921784613E+00    0.1223288620E-04    0.6810599374E+00    0.3907761575E+00
    0.7000000000E+07    0.4526048710E-03    0.2917101381E+00    0.1021359487E-04    0.6811184372E+00    0.3913654476E+00
    0.9000000000E+07    0.4010091797E-03    0.2913550129E+00    0.8928016810E-05    0.6811520407E+00    0.3917990913E+00
    0.1100000000E+08    0.3640691145E-03    0.2910686018E+00    0.8019490217E-05    0.6811740585E+00    0.3921418445E+00
    0.1300000000E+08    0.3359266715E-03    0.2908284398E+00    0.7334458449E-05    0.6811897056E+00    0.3924250344E+00
    0.1500000000E+08    0.3135556626E-03    0.2906215703E+00    0.6794571740E-05    0.6812014566E+00    0.3926661926E+00
    0.1700000000E+08    0.2952134081E-03    0.2904398306E+00    0.6355155478E-05    0.6812106418E+00    0.3928761160E+00
    0.1900000000E+08    0.2798157567E-03    0.2902777415E+00    0.5988645343E-05    0.6812180424E+00    0.3930619225E+00
    0.2100000000E+08    0.2666479980E-03    0.2901314450E+00    0.5676998325E-05    0.6812241486E+00    0.3932285509E+00
    0.2300000000E+08    0.2552172019E-03    0.2899981208E+00    0.5407847389E-05    0.6812292840E+00    0.3933795671E+00
    0.2500000000E+08    0.2451708552E-03    0.2898756441E+00    0.5172397187E-05    0.6812336715E+00    0.3935176293E+00
    0.2700000000E+08    0.2362492540E-03    0.2897623742E+00    0.4964200246E-05    0.6812374696E+00    0.3936447715E+00
