  Pressure (Pa) 2mC6-400 (mol/kg) 3mC6-400 (mol/kg) 33mC5-400 (mol/kg) 23mC5-400 (mol/kg) C7-400 (mol/kg)
    0.1000000000E+01    0.1587340817E-02    0.2627757883E-02    0.2585074164E-03    0.5598231033E-03    0.5116966996E-02
    0.3000000000E+01    0.4646257579E-02    0.7675223658E-02    0.7568294232E-03    0.1670712700E-02    0.1494764966E-01
    0.5000000000E+01    0.7560771069E-02    0.1246352801E-01    0.1231839726E-02    0.2770121364E-02    0.2427596277E-01
    0.7000000000E+01    0.1034173517E-01    0.1701258352E-01    0.1685296353E-02    0.3858276944E-02    0.3314044792E-01
    0.9000000000E+01    0.1299890491E-01    0.2134030248E-01    0.2118778837E-02    0.4935401080E-02    0.4157577793E-01
    0.1100000000E+02    0.1554107294E-01    0.2546284228E-01    0.2533710420E-02    0.6001709413E-02    0.4961323134E-01
    0.1300000000E+02    0.1797618626E-01    0.2939481556E-01    0.2931377042E-02    0.7057411793E-02    0.5728109856E-01
    0.1500000000E+02    0.2031144628E-01    0.3314947082E-01    0.3312943624E-02    0.8102712469E-02    0.6460503120E-01
    0.1700000000E+02    0.2255339509E-01    0.3673884832E-01    0.3679468089E-02    0.9137810282E-02    0.7160834332E-01
    0.1900000000E+02    0.2470798995E-01    0.4017391494E-01    0.4031913486E-02    0.1016289884E-01    0.7831227243E-01
    0.2100000000E+02    0.2678066795E-01    0.4346468151E-01    0.4371158493E-02    0.1117816670E-01    0.8473620619E-01
    0.2300000000E+02    0.2877640226E-01    0.4662030498E-01    0.4698006565E-02    0.1218379751E-01    0.9089788001E-01
    0.2500000000E+02    0.3069975124E-01    0.4964917775E-01    0.5013193910E-02    0.1317997021E-01    0.9681354990E-01
    0.2700000000E+02    0.3255490140E-01    0.5255900606E-01    0.5317396474E-02    0.1416685915E-01    0.1024981440E+00
    0.2900000000E+02    0.3434570512E-01    0.5535687884E-01    0.5611236070E-02    0.1514463423E-01    0.1079653957E+00
    0.3100000000E+02    0.3607571393E-01    0.5804932855E-01    0.5895285776E-02    0.1611346110E-01    0.1132279614E+00
    0.3300000000E+02    0.3774820777E-01    0.6064238480E-01    0.6170074693E-02    0.1707350121E-01    0.1182975243E+00
    0.3500000000E+02    0.3936622098E-01    0.6314162201E-01    0.6436092162E-02    0.1802491203E-01    0.1231848864E+00
    0.3700000000E+02    0.4093256532E-01    0.6555220169E-01    0.6693791497E-02    0.1896784710E-01    0.1279000504E+00
    0.3900000000E+02    0.4244985041E-01    0.6787891008E-01    0.6943593309E-02    0.1990245620E-01    0.1324522925E+00
    0.4100000000E+02    0.4392050197E-01    0.7012619177E-01    0.7185888461E-02    0.2082888545E-01    0.1368502275E+00
    0.4300000000E+02    0.4534677816E-01    0.7229817975E-01    0.7421040716E-02    0.2174727742E-01    0.1411018668E+00
    0.4500000000E+02    0.4673078408E-01    0.7439872232E-01    0.7649389096E-02    0.2265777125E-01    0.1452146707E+00
    0.4700000000E+02    0.4807448491E-01    0.7643140732E-01    0.7871250005E-02    0.2356050275E-01    0.1491955950E+00
    0.4900000000E+02    0.4937971760E-01    0.7839958381E-01    0.8086919131E-02    0.2445560447E-01    0.1530511332E+00
    0.1000000000E+02    0.1428384887E-01    0.2342627252E-01    0.2328480104E-02    0.5469893973E-02    0.4564240537E-01
    0.3000000000E+02    0.3521809785E-01    0.5671589353E-01    0.5754450612E-02    0.1563015601E-01    0.1106215124E+00
    0.5000000000E+02    0.5001845002E-01    0.7936046755E-01    0.8192518938E-02    0.2490033473E-01    0.1549337947E+00
    0.7000000000E+02    0.6113789206E-01    0.9585229734E-01    0.1003805425E-01    0.3342435494E-01    0.1872859007E+00
    0.9000000000E+02    0.6983074849E-01    0.1084546892E+00    0.1149272018E-01    0.4131562149E-01    0.2120680738E+00
    0.1100000000E+03    0.7681577108E-01    0.1184345222E+00    0.1267186496E-01    0.4866478508E-01    0.2317397646E+00
    0.1300000000E+03    0.8254047658E-01    0.1265576949E+00    0.1364722895E-01    0.5554524131E-01    0.2477890588E+00
    0.1500000000E+03    0.8730152265E-01    0.1333153355E+00    0.1446634743E-01    0.6201710068E-01    0.2611709559E+00
    0.1700000000E+03    0.9130533472E-01    0.1390373975E+00    0.1516230128E-01    0.6813010477E-01    0.2725275665E+00
    0.1900000000E+03    0.9470115866E-01    0.1439540900E+00    0.1575902236E-01    0.7392580202E-01    0.2823072501E+00
    0.2100000000E+03    0.9760027195E-01    0.1482311334E+00    0.1627437192E-01    0.7943919420E-01    0.2908330237E+00
    0.2300000000E+03    0.1000877539E+00    0.1519910061E+00    0.1672202398E-01    0.8469999836E-01    0.2983438075E+00
    0.2500000000E+03    0.1022300216E+00    0.1553262838E+00    0.1711266985E-01    0.8973362558E-01    0.3050203319E+00
    0.2700000000E+03    0.1040798372E+00    0.1583083096E+00    0.1745481780E-01    0.9456194819E-01    0.3110019848E+00
    0.2900000000E+03    0.1056797421E+00    0.1609930009E+00    0.1775534129E-01    0.9920390721E-01    0.3163981011E+00
    0.3100000000E+03    0.1070644776E+00    0.1634248410E+00    0.1801986512E-01    0.1036759977E+00    0.3212957259E+00
    0.3300000000E+03    0.1082627308E+00    0.1656396866E+00    0.1825304415E-01    0.1079926599E+00    0.3257650777E+00
    0.3500000000E+03    0.1092984210E+00    0.1676667827E+00    0.1845876845E-01    0.1121665968E+00    0.3298634708E+00
    0.3700000000E+03    0.1101916640E+00    0.1695302345E+00    0.1864031735E-01    0.1162090339E+00    0.3336381826E+00
    0.3900000000E+03    0.1109595067E+00    0.1712501013E+00    0.1880047668E-01    0.1201299336E+00    0.3371285846E+00
    0.4100000000E+03    0.1116164946E+00    0.1728432202E+00    0.1894162952E-01    0.1239381722E+00    0.3403677492E+00
    0.4300000000E+03    0.1121751160E+00    0.1743238356E+00    0.1906582723E-01    0.1276416885E+00    0.3433836763E+00
    0.4500000000E+03    0.1126461534E+00    0.1757040854E+00    0.1917484564E-01    0.1312476073E+00    0.3462002433E+00
    0.4700000000E+03    0.1130389644E+00    0.1769943813E+00    0.1927023009E-01    0.1347623444E+00    0.3488379465E+00
    0.4900000000E+03    0.1133617080E+00    0.1782037088E+00    0.1935333172E-01    0.1381916956E+00    0.3513144877E+00
    0.1000000000E+03    0.7350423493E-01    0.1137162414E+00    0.1211152089E-01    0.4505302712E-01    0.2224335950E+00
    0.3000000000E+03    0.1063970881E+00    0.1622381109E+00    0.1789179220E-01    0.1014602394E+00    0.3189044940E+00
    0.5000000000E+03    0.1134990725E+00    0.1787804873E+00    0.1939065301E-01    0.1398760117E+00    0.3524972073E+00
    0.7000000000E+03    0.1139060474E+00    0.1875086264E+00    0.1971574659E-01    0.1701266631E+00    0.3705401056E+00
    0.9000000000E+03    0.1118614076E+00    0.1930192241E+00    0.1957880720E-01    0.1956596512E+00    0.3821142753E+00
    0.1100000000E+04    0.1088117440E+00    0.1968623737E+00    0.1923128524E-01    0.2180547333E+00    0.3903047454E+00
    0.1300000000E+04    0.1053566920E+00    0.1997184948E+00    0.1878199577E-01    0.2381624653E+00    0.3964748472E+00
    0.1500000000E+04    0.1017744455E+00    0.2019370149E+00    0.1828419411E-01    0.2564939302E+00    0.4013291282E+00
    0.1700000000E+04    0.9820293404E-01    0.2037173095E+00    0.1776615665E-01    0.2733819952E+00    0.4052719840E+00
    0.1900000000E+04    0.9471275621E-01    0.2051821119E+00    0.1724374437E-01    0.2890573772E+00    0.4085537733E+00
    0.2100000000E+04    0.9133990925E-01    0.2064114476E+00    0.1672617032E-01    0.3036881590E+00    0.4113386292E+00
    0.2300000000E+04    0.8810171349E-01    0.2074599034E+00    0.1621887815E-01    0.3174018962E+00    0.4137391011E+00
    0.2500000000E+04    0.8500505811E-01    0.2083660938E+00    0.1572507640E-01    0.3302987350E+00    0.4158352146E+00
    0.2700000000E+04    0.8205088510E-01    0.2091581665E+00    0.1524660070E-01    0.3424595757E+00    0.4176855934E+00
    0.2900000000E+04    0.7923672442E-01    0.2098571617E+00    0.1478442021E-01    0.3539513596E+00    0.4193342718E+00
    0.3100000000E+04    0.7655817177E-01    0.2104791473E+00    0.1433894599E-01    0.3648306097E+00    0.4208150373E+00
    0.3300000000E+04    0.7400977077E-01    0.2110366224E+00    0.1391022492E-01    0.3751458728E+00    0.4221542951E+00
    0.3500000000E+04    0.7158554836E-01    0.2115394671E+00    0.1349806471E-01    0.3849394464E+00    0.4233730130E+00
    0.3700000000E+04    0.6927934317E-01    0.2119956025E+00    0.1310211647E-01    0.3942486294E+00    0.4244880764E+00
    0.3900000000E+04    0.6708500715E-01    0.2124114589E+00    0.1272193023E-01    0.4031066460E+00    0.4255132530E+00
    0.4100000000E+04    0.6499652850E-01    0.2127923149E+00    0.1235699275E-01    0.4115433420E+00    0.4264598935E+00
    0.4300000000E+04    0.6300810472E-01    0.2131425473E+00    0.1200675379E-01    0.4195857191E+00    0.4273374494E+00
    0.4500000000E+04    0.6111418392E-01    0.2134658178E+00    0.1167064436E-01    0.4272583515E+00    0.4281538615E+00
    0.4700000000E+04    0.5930948556E-01    0.2137652156E+00    0.1134808945E-01    0.4345837165E+00    0.4289158559E+00
    0.4900000000E+04    0.5758900814E-01    0.2140433659E+00    0.1103851708E-01    0.4415824598E+00    0.4296291724E+00
    0.1000000000E+04    0.1104137433E+00    0.1950954932E+00    0.1942268824E-01    0.2071854517E+00    0.3865249925E+00
    0.3000000000E+04    0.7788082100E-01    0.2101769287E+00    0.1455958507E-01    0.3594643533E+00    0.4200938466E+00
    0.5000000000E+04    0.5675886552E-01    0.2141751882E+00    0.1088842300E-01    0.4449653536E+00    0.4299691449E+00
    0.7000000000E+04    0.4357186010E-01    0.2161026858E+00    0.8440317312E-02    0.4994084362E+00    0.4351118112E+00
    0.9000000000E+04    0.3492068682E-01    0.2172507477E+00    0.6766975436E-02    0.5361130095E+00    0.4383845326E+00
    0.1100000000E+05    0.2896887334E-01    0.2180154935E+00    0.5583121391E-02    0.5619809620E+00    0.4406997766E+00
    0.1300000000E+05    0.2470132121E-01    0.2185616715E+00    0.4717374607E-02    0.5809017022E+00    0.4424493145E+00
    0.1500000000E+05    0.2153170852E-01    0.2189707880E+00    0.4065273473E-02    0.5951823389E+00    0.4438323997E+00
    0.1700000000E+05    0.1910611329E-01    0.2192880354E+00    0.3561282572E-02    0.6062513842E+00    0.4449622858E+00
    0.1900000000E+05    0.1720205093E-01    0.2195405898E+00    0.3162978275E-02    0.6150275800E+00    0.4459086490E+00
    0.2100000000E+05    0.1567448694E-01    0.2197458197E+00    0.2842056864E-02    0.6221220887E+00    0.4467169840E+00
    0.2300000000E+05    0.1442578078E-01    0.2199153654E+00    0.2579102404E-02    0.6279538072E+00    0.4474184087E+00
    0.2500000000E+05    0.1338829969E-01    0.2200573317E+00    0.2360456122E-02    0.6328175573E+00    0.4480350167E+00
    0.2700000000E+05    0.1251400050E-01    0.2201775408E+00    0.2176289185E-02    0.6369257664E+00    0.4485829833E+00
    0.2900000000E+05    0.1176798315E-01    0.2202802862E+00    0.2019383494E-02    0.6404347245E+00    0.4490744578E+00
    0.3100000000E+05    0.1112438446E-01    0.2203688055E+00    0.1884340488E-02    0.6434615812E+00    0.4495187670E+00
    0.3300000000E+05    0.1056369302E-01    0.2204455865E+00    0.1767055502E-02    0.6460956256E+00    0.4499232057E+00
    0.3500000000E+05    0.1007095124E-01    0.2205125733E+00    0.1664360941E-02    0.6484059404E+00    0.4502935733E+00
    0.3700000000E+05    0.9634525393E-02    0.2205713072E+00    0.1573779221E-02    0.6504467040E+00    0.4506345463E+00
    0.3900000000E+05    0.9245247504E-02    0.2206230261E+00    0.1493348605E-02    0.6522609306E+00    0.4509499439E+00
    0.4100000000E+05    0.8895806076E-02    0.2206687355E+00    0.1421498361E-02    0.6538831544E+00    0.4512429198E+00
    0.4300000000E+05    0.8580306320E-02    0.2207092606E+00    0.1356957922E-02    0.6553413855E+00    0.4515161051E+00
    0.4500000000E+05    0.8293948021E-02    0.2207452850E+00    0.1298689836E-02    0.6566585553E+00    0.4517717145E+00
    0.4700000000E+05    0.8032786311E-02    0.2207773799E+00    0.1245839658E-02    0.6578535997E+00    0.4520116275E+00
    0.4900000000E+05    0.7793551765E-02    0.2208060259E+00    0.1197698030E-02    0.6589422789E+00    0.4522374516E+00
    0.1000000000E+05    0.3168414644E-01    0.2176678751E+00    0.6126585329E-02    0.5501096520E+00    0.4396307892E+00
    0.3000000000E+05    0.1143472535E-01    0.2203261539E+00    0.1949411191E-02    0.6420022856E+00    0.4493020118E+00
    0.5000000000E+05    0.7681285802E-02    0.2208191853E+00    0.1175203643E-02    0.6594509463E+00    0.4523455203E+00
    0.7000000000E+05    0.6112469665E-02    0.2209737725E+00    0.8693080296E-03    0.6663483198E+00    0.4540204868E+00
    0.9000000000E+05    0.5226764277E-02    0.2210187500E+00    0.7062507757E-03    0.6699746830E+00    0.4551354126E+00
    0.1100000000E+06    0.4644441451E-02    0.2210176938E+00    0.6043425933E-03    0.6721943378E+00    0.4559543494E+00
    0.1300000000E+06    0.4225339961E-02    0.2209946539E+00    0.5341049884E-03    0.6736875321E+00    0.4565933598E+00
    0.1500000000E+06    0.3905292191E-02    0.2209604276E+00    0.4824059098E-03    0.6747587398E+00    0.4571127951E+00
    0.1700000000E+06    0.3650512386E-02    0.2209204173E+00    0.4425237007E-03    0.6755638450E+00    0.4575476783E+00
    0.1900000000E+06    0.3441377503E-02    0.2208775302E+00    0.4106606921E-03    0.6761906590E+00    0.4579199776E+00
    0.2100000000E+06    0.3265632495E-02    0.2208334102E+00    0.3845066412E-03    0.6766923167E+00    0.4582442983E+00
    0.2300000000E+06    0.3115184849E-02    0.2207890177E+00    0.3625731513E-03    0.6771028108E+00    0.4585307995E+00
    0.2500000000E+06    0.2984449571E-02    0.2207449237E+00    0.3438563509E-03    0.6774448792E+00    0.4587868079E+00
    0.2700000000E+06    0.2869431839E-02    0.2207014691E+00    0.3276533580E-03    0.6777342959E+00    0.4590177668E+00
    0.2900000000E+06    0.2767188540E-02    0.2206588538E+00    0.3134564920E-03    0.6779823427E+00    0.4592278209E+00
    0.3100000000E+06    0.2675496926E-02    0.2206171903E+00    0.3008893131E-03    0.6781972987E+00    0.4594201932E+00
    0.3300000000E+06    0.2592642473E-02    0.2205765356E+00    0.2896663649E-03    0.6783853751E+00    0.4595974353E+00
    0.3500000000E+06    0.2517278420E-02    0.2205369109E+00    0.2795669479E-03    0.6785513223E+00    0.4597615989E+00
    0.3700000000E+06    0.2448330022E-02    0.2204983149E+00    0.2704175203E-03    0.6786988347E+00    0.4599143566E+00
    0.3900000000E+06    0.2384927630E-02    0.2204607318E+00    0.2620795773E-03    0.6788308283E+00    0.4600570881E+00
    0.4100000000E+06    0.2326358859E-02    0.2204241365E+00    0.2544411109E-03    0.6789496354E+00    0.4601909443E+00
    0.4300000000E+06    0.2272033742E-02    0.2203884988E+00    0.2474104700E-03    0.6790571432E+00    0.4603168940E+00
    0.4500000000E+06    0.2221458878E-02    0.2203537852E+00    0.2409118658E-03    0.6791548954E+00    0.4604357599E+00
    0.4700000000E+06    0.2174217973E-02    0.2203199609E+00    0.2348820270E-03    0.6792441667E+00    0.4605482463E+00
    0.4900000000E+06    0.2129956965E-02    0.2202869906E+00    0.2292676754E-03    0.6793260191E+00    0.4606549603E+00
    0.1000000000E+06    0.4909144751E-02    0.2210220063E+00    0.6500805936E-03    0.6712044278E+00    0.4555727380E+00
    0.3000000000E+06    0.2720140927E-02    0.2206378985E+00    0.3069888056E-03    0.6780935287E+00    0.4593260444E+00
    0.5000000000E+06    0.2108847411E-02    0.2202708148E+00    0.2266019053E-03    0.6793644475E+00    0.4607063200E+00
    0.7000000000E+06    0.1788011322E-02    0.2199842682E+00    0.1870127142E-03    0.6798999966E+00    0.4615281796E+00
    0.9000000000E+06    0.1581876906E-02    0.2197513497E+00    0.1624676430E-03    0.6801962125E+00    0.4621049546E+00
    0.1100000000E+07    0.1434934757E-02    0.2195553320E+00    0.1453817556E-03    0.6803847400E+00    0.4625457042E+00
    0.1300000000E+07    0.1323277654E-02    0.2193860801E+00    0.1326233119E-03    0.6805155498E+00    0.4629005890E+00
    0.1500000000E+07    0.1234668664E-02    0.2192370987E+00    0.1226354402E-03    0.6806117931E+00    0.4631966345E+00
    0.1700000000E+07    0.1162102082E-02    0.2191039968E+00    0.1145460429E-03    0.6806856761E+00    0.4634499889E+00
    0.1900000000E+07    0.1101236940E-02    0.2189836725E+00    0.1078239136E-03    0.6807442491E+00    0.4636710356E+00
    0.2100000000E+07    0.1049219746E-02    0.2188738547E+00    0.1021247051E-03    0.6807918721E+00    0.4638668286E+00
    0.2300000000E+07    0.1004086707E-02    0.2187728306E+00    0.9721418406E-04    0.6808313875E+00    0.4640423686E+00
    0.2500000000E+07    0.9644357683E-03    0.2186792768E+00    0.9292677858E-04    0.6808647287E+00    0.4642013240E+00
    0.2700000000E+07    0.9292353626E-03    0.2185921491E+00    0.8914171987E-04    0.6808932570E+00    0.4643464625E+00
    0.2900000000E+07    0.8977072154E-03    0.2185106092E+00    0.8576858625E-04    0.6809179593E+00    0.4644799213E+00
    0.3100000000E+07    0.8692515234E-03    0.2184339736E+00    0.8273816430E-04    0.6809395686E+00    0.4646033840E+00
    0.3300000000E+07    0.8433975058E-03    0.2183616778E+00    0.7999646103E-04    0.6809586407E+00    0.4647181993E+00
    0.3500000000E+07    0.8197697439E-03    0.2182932499E+00    0.7750065937E-04    0.6809756054E+00    0.4648254636E+00
    0.3700000000E+07    0.7980646742E-03    0.2182282917E+00    0.7521631319E-04    0.6809907998E+00    0.4649260802E+00
    0.3900000000E+07    0.7780338017E-03    0.2181664635E+00    0.7311535685E-04    0.6810044923E+00    0.4650208013E+00
    0.4100000000E+07    0.7594714736E-03    0.2181074737E+00    0.7117466386E-04    0.6810168995E+00    0.4651102600E+00
    0.4300000000E+07    0.7422058174E-03    0.2180510698E+00    0.6937498413E-04    0.6810281978E+00    0.4651949939E+00
    0.4500000000E+07    0.7260919184E-03    0.2179970317E+00    0.6770014783E-04    0.6810385325E+00    0.4652754632E+00
    0.4700000000E+07    0.7110066102E-03    0.2179451665E+00    0.6613646019E-04    0.6810480246E+00    0.4653520649E+00
    0.4900000000E+07    0.6968444459E-03    0.2178953040E+00    0.6467223550E-04    0.6810567752E+00    0.4654251436E+00
    0.1000000000E+07    0.1502898625E-02    0.2196494724E+00    0.1532423452E-03    0.6802998678E+00    0.4623384238E+00
    0.3000000000E+07    0.8831273055E-03    0.2184717160E+00    0.8421421282E-04    0.6809291124E+00    0.4645428112E+00
    0.5000000000E+07    0.6900806459E-03    0.2178710760E+00    0.6397422827E-04    0.6810608998E+00    0.4654604575E+00
    0.7000000000E+07    0.5866133360E-03    0.2174626508E+00    0.5340537469E-04    0.6811196267E+00    0.4660383163E+00
    0.9000000000E+07    0.5195866488E-03    0.2171521707E+00    0.4667443558E-04    0.6811533577E+00    0.4664584528E+00
    0.1100000000E+08    0.4716070775E-03    0.2169013740E+00    0.4191710830E-04    0.6811754620E+00    0.4667877348E+00
    0.1300000000E+08    0.4350602485E-03    0.2166908481E+00    0.3833000878E-04    0.6811911742E+00    0.4670580630E+00
    0.1500000000E+08    0.4060127666E-03    0.2165093623E+00    0.3550302268E-04    0.6812029776E+00    0.4672871065E+00
    0.1700000000E+08    0.3821996565E-03    0.2163498259E+00    0.3320223758E-04    0.6812122069E+00    0.4674856589E+00
    0.1900000000E+08    0.3622119379E-03    0.2162074708E+00    0.3128330352E-04    0.6812196457E+00    0.4676607892E+00
    0.2100000000E+08    0.3451208316E-03    0.2160789354E+00    0.2965172166E-04    0.6812257856E+00    0.4678173748E+00
    0.2300000000E+08    0.3302858147E-03    0.2159617597E+00    0.2824271622E-04    0.6812309515E+00    0.4679589206E+00
    0.2500000000E+08    0.3172488589E-03    0.2158540886E+00    0.2701021730E-04    0.6812353668E+00    0.4680880285E+00
    0.2700000000E+08    0.3056725498E-03    0.2157544884E+00    0.2592045244E-04    0.6812391904E+00    0.4682066823E+00
