  Pressure (Pa) 2mC6-400 (mol/kg) 3mC6-400 (mol/kg) 33mC5-400 (mol/kg) 23mC5-400 (mol/kg) C7-400 (mol/kg)
    0.1000000000E+01    0.1578975399E-02    0.2088665974E-02    0.6429059916E-04    0.6531618313E-03    0.1016834089E-01
    0.3000000000E+01    0.4576137428E-02    0.6026106024E-02    0.1863904284E-03    0.1949473650E-02    0.2934264512E-01
    0.5000000000E+01    0.7378942696E-02    0.9673541563E-02    0.3006595050E-03    0.3232652376E-02    0.4711153839E-01
    0.7000000000E+01    0.1000832317E-01    0.1306226831E-01    0.4079450918E-03    0.4502951208E-02    0.6362645087E-01
    0.9000000000E+01    0.1248223166E-01    0.1621922112E-01    0.5089734569E-03    0.5760616660E-02    0.7901772813E-01
    0.1100000000E+02    0.1481615271E-01    0.1916770867E-01    0.6043706605E-03    0.7005888771E-02    0.9339818158E-01
    0.1300000000E+02    0.1702351224E-01    0.2192800439E-01    0.6946792213E-03    0.8239001326E-02    0.1068659446E+00
    0.1500000000E+02    0.1911600866E-01    0.2451782546E-01    0.7803715798E-03    0.9460182060E-02    0.1195067875E+00
    0.1700000000E+02    0.2110388223E-01    0.2695272388E-01    0.8618610528E-03    0.1066965285E-01    0.1313960084E+00
    0.1900000000E+02    0.2299613589E-01    0.2924640780E-01    0.9395108054E-03    0.1186762990E-01    0.1425999859E+00
    0.2100000000E+02    0.2480071716E-01    0.3141100730E-01    0.1013641245E-02    0.1305432394E-01    0.1531774646E+00
    0.2300000000E+02    0.2652466907E-01    0.3345729547E-01    0.1084536153E-02    0.1422994038E-01    0.1631806237E+00
    0.2500000000E+02    0.2817425602E-01    0.3539487324E-01    0.1152447791E-02    0.1539467949E-01    0.1726559709E+00
    0.2700000000E+02    0.2975506917E-01    0.3723232490E-01    0.1217601186E-02    0.1654873656E-01    0.1816450941E+00
    0.2900000000E+02    0.3127211534E-01    0.3897734940E-01    0.1280197730E-02    0.1769230205E-01    0.1901852968E+00
    0.3100000000E+02    0.3272989210E-01    0.4063687183E-01    0.1340418234E-02    0.1882556175E-01    0.1983101369E+00
    0.3300000000E+02    0.3413245172E-01    0.4221713847E-01    0.1398425517E-02    0.1994869690E-01    0.2060498867E+00
    0.3500000000E+02    0.3548345563E-01    0.4372379812E-01    0.1454366616E-02    0.2106188437E-01    0.2134319263E+00
    0.3700000000E+02    0.3678622118E-01    0.4516197204E-01    0.1508374677E-02    0.2216529676E-01    0.2204810816E+00
    0.3900000000E+02    0.3804376179E-01    0.4653631426E-01    0.1560570586E-02    0.2325910254E-01    0.2272199164E+00
    0.4100000000E+02    0.3925882162E-01    0.4785106380E-01    0.1611064371E-02    0.2434346615E-01    0.2336689849E+00
    0.4300000000E+02    0.4043390564E-01    0.4911009002E-01    0.1659956421E-02    0.2541854819E-01    0.2398470514E+00
    0.4500000000E+02    0.4157130571E-01    0.5031693219E-01    0.1707338538E-02    0.2648450544E-01    0.2457712812E+00
    0.4700000000E+02    0.4267312334E-01    0.5147483401E-01    0.1753294860E-02    0.2754149106E-01    0.2514574082E+00
    0.4900000000E+02    0.4374128958E-01    0.5258677393E-01    0.1797902664E-02    0.2858965462E-01    0.2569198816E+00
    0.1000000000E+02    0.1366580747E-01    0.1771819092E-01    0.5573402599E-03    0.6384787127E-02    0.8632785994E-01
    0.3000000000E+02    0.3200814937E-01    0.3981739309E-01    0.1310594417E-02    0.1826020869E-01    0.1942976730E+00
    0.5000000000E+02    0.4426331460E-01    0.5312637304E-01    0.1819723320E-02    0.2911047393E-01    0.2595714442E+00
    0.7000000000E+02    0.5330231973E-01    0.6206633716E-01    0.2199935044E-02    0.3909759592E-01    0.3035833347E+00
    0.9000000000E+02    0.6035170394E-01    0.6851051052E-01    0.2500218013E-02    0.4835000817E-01    0.3354264160E+00
    0.1100000000E+03    0.6604049866E-01    0.7339071041E-01    0.2745621521E-02    0.5697091159E-01    0.3596296393E+00
    0.1300000000E+03    0.7073474158E-01    0.7722378266E-01    0.2950704765E-02    0.6504424130E-01    0.3787081890E+00
    0.1500000000E+03    0.7466775929E-01    0.8032000580E-01    0.3124751974E-02    0.7263901019E-01    0.3941738846E+00
    0.1700000000E+03    0.7799864350E-01    0.8287721394E-01    0.3274103740E-02    0.7981252303E-01    0.4069918586E+00
    0.1900000000E+03    0.8084150240E-01    0.8502767578E-01    0.3403319163E-02    0.8661279004E-01    0.4178081794E+00
    0.2100000000E+03    0.8328140823E-01    0.8686328322E-01    0.3515807678E-02    0.9308036400E-01    0.4270722467E+00
    0.2300000000E+03    0.8538372181E-01    0.8844993196E-01    0.3614197748E-02    0.9924975562E-01    0.4351067203E+00
    0.2500000000E+03    0.8719986830E-01    0.8983615010E-01    0.3700564969E-02    0.1051505363E+00    0.4421495093E+00
    0.2700000000E+03    0.8877109046E-01    0.9105849491E-01    0.3776580222E-02    0.1108082062E+00    0.4483800535E+00
    0.2900000000E+03    0.9013098747E-01    0.9214504927E-01    0.3843609912E-02    0.1162448844E+00    0.4539363636E+00
    0.3100000000E+03    0.9130729109E-01    0.9311775643E-01    0.3902786143E-02    0.1214798618E+00    0.4589264074E+00
    0.3300000000E+03    0.9232314416E-01    0.9399402075E-01    0.3955057291E-02    0.1265300483E+00    0.4634359226E+00
    0.3500000000E+03    0.9319804343E-01    0.9478783065E-01    0.4001225350E-02    0.1314103369E+00    0.4675339014E+00
    0.3700000000E+03    0.9394854933E-01    0.9551056276E-01    0.4041974107E-02    0.1361339027E+00    0.4712765210E+00
    0.3900000000E+03    0.9458882988E-01    0.9617156820E-01    0.4077890760E-02    0.1407124490E+00    0.4747100109E+00
    0.4100000000E+03    0.9513108394E-01    0.9677860712E-01    0.4109482786E-02    0.1451564128E+00    0.4778727806E+00
    0.4300000000E+03    0.9558587512E-01    0.9733817556E-01    0.4137191274E-02    0.1494751356E+00    0.4807970201E+00
    0.4500000000E+03    0.9596239812E-01    0.9785575454E-01    0.4161401584E-02    0.1536770075E+00    0.4835099211E+00
    0.4700000000E+03    0.9626869370E-01    0.9833600221E-01    0.4182451964E-02    0.1577695887E+00    0.4860346199E+00
    0.4900000000E+03    0.9651182350E-01    0.9878290382E-01    0.4200640582E-02    0.1617597125E+00    0.4883909330E+00
    0.1000000000E+03    0.6333917931E-01    0.7110734149E-01    0.2628705866E-02    0.5273375840E-01    0.3482944303E+00
    0.3000000000E+03    0.9074054687E-01    0.9264445463E-01    0.3874116621E-02    0.1188864777E+00    0.4564963625E+00
    0.5000000000E+03    0.9661167614E-01    0.9899494084E-01    0.4208745394E-02    0.1637183116E+00    0.4895113753E+00
    0.7000000000E+03    0.9647218928E-01    0.1021112325E+00    0.4270967265E-02    0.1987478216E+00    0.5062040320E+00
    0.9000000000E+03    0.9407718702E-01    0.1039805835E+00    0.4221977728E-02    0.2280489204E+00    0.5164980234E+00
    0.1100000000E+04    0.9076740522E-01    0.1052323318E+00    0.4121874606E-02    0.2534974896E+00    0.5235734562E+00
    0.1300000000E+04    0.8711318984E-01    0.1061311787E+00    0.3997534050E-02    0.2761095822E+00    0.5287825662E+00
    0.1500000000E+04    0.8338256866E-01    0.1068086400E+00    0.3862385441E-02    0.2965010596E+00    0.5328041939E+00
    0.1700000000E+04    0.7970848288E-01    0.1073377348E+00    0.3723638553E-02    0.3150777809E+00    0.5360190088E+00
    0.1900000000E+04    0.7615787510E-01    0.1077623723E+00    0.3585341442E-02    0.3321251512E+00    0.5386581446E+00
    0.2100000000E+04    0.7276333976E-01    0.1081105983E+00    0.3449818181E-02    0.3478545039E+00    0.5408706308E+00
    0.2300000000E+04    0.6953879367E-01    0.1084011932E+00    0.3318401511E-02    0.3624289608E+00    0.5427571899E+00
    0.2500000000E+04    0.6648771502E-01    0.1086472209E+00    0.3191830735E-02    0.3759787288E+00    0.5443885273E+00
    0.2700000000E+04    0.6360768431E-01    0.1088580586E+00    0.3070479236E-02    0.3886105991E+00    0.5458158509E+00
    0.2900000000E+04    0.6089298050E-01    0.1090406159E+00    0.2954490184E-02    0.4004140971E+00    0.5470772309E+00
    0.3100000000E+04    0.5833610753E-01    0.1092000997E+00    0.2843860349E-02    0.4114656107E+00    0.5482016074E+00
    0.3300000000E+04    0.5592870943E-01    0.1093405100E+00    0.2738493354E-02    0.4218312526E+00    0.5492114047E+00
    0.3500000000E+04    0.5366212518E-01    0.1094649714E+00    0.2638234302E-02    0.4315689036E+00    0.5501242908E+00
    0.3700000000E+04    0.5152772546E-01    0.1095759608E+00    0.2542892694E-02    0.4407297118E+00    0.5509543910E+00
    0.3900000000E+04    0.4951711471E-01    0.1096754677E+00    0.2452257794E-02    0.4493592194E+00    0.5517131453E+00
    0.4100000000E+04    0.4762224858E-01    0.1097651087E+00    0.2366109019E-02    0.4574982294E+00    0.5524099263E+00
    0.4300000000E+04    0.4583549767E-01    0.1098462110E+00    0.2284222976E-02    0.4651834869E+00    0.5530524926E+00
    0.4500000000E+04    0.4414967698E-01    0.1099198746E+00    0.2206378222E-02    0.4724482235E+00    0.5536473268E+00
    0.4700000000E+04    0.4255805344E-01    0.1099870190E+00    0.2132358433E-02    0.4793226023E+00    0.5541998912E+00
    0.4900000000E+04    0.4105433963E-01    0.1100484190E+00    0.2061954480E-02    0.4858340843E+00    0.5547148240E+00
    0.1000000000E+04    0.9249076543E-01    0.1046625478E+00    0.4176185774E-02    0.2411785105E+00    0.5203305233E+00
    0.3000000000E+04    0.5959532508E-01    0.1091229682E+00    0.2898509681E-02    0.4060295062E+00    0.5476550142E+00
    0.5000000000E+04    0.4033360238E-01    0.1100771743E+00    0.2028045384E-02    0.4889616587E+00    0.5549594407E+00
    0.7000000000E+04    0.2932147256E-01    0.1104678946E+00    0.1496155919E-02    0.5375212866E+00    0.5585932780E+00
    0.9000000000E+04    0.2256626573E-01    0.1106660250E+00    0.1155973492E-02    0.5684107493E+00    0.5608365459E+00
    0.1100000000E+05    0.1814702197E-01    0.1107768851E+00    0.9269271386E-03    0.5893392078E+00    0.5623885424E+00
    0.1300000000E+05    0.1509766387E-01    0.1108416290E+00    0.7655786349E-03    0.6042433603E+00    0.5635413350E+00
    0.1500000000E+05    0.1289982533E-01    0.1108795195E+00    0.6475182882E-03    0.6152895820E+00    0.5644402393E+00
    0.1700000000E+05    0.1125798944E-01    0.1109006998E+00    0.5583500659E-03    0.6237460689E+00    0.5651663631E+00
    0.1900000000E+05    0.9994532805E-02    0.1109109746E+00    0.4891899848E-03    0.6303947955E+00    0.5657688445E+00
    0.2100000000E+05    0.8997733286E-02    0.1109138783E+00    0.4343303656E-03    0.6357395623E+00    0.5662793472E+00
    0.2300000000E+05    0.8194529317E-02    0.1109116683E+00    0.3899728042E-03    0.6401172969E+00    0.5667192815E+00
    0.2500000000E+05    0.7535512206E-02    0.1109058427E+00    0.3535107008E-03    0.6437606528E+00    0.5671036962E+00
    0.2700000000E+05    0.6986283294E-02    0.1108974263E+00    0.3231066728E-03    0.6468347815E+00    0.5674435102E+00
    0.2900000000E+05    0.6522278684E-02    0.1108871381E+00    0.2974346833E-03    0.6494597711E+00    0.5677468596E+00
    0.3100000000E+05    0.6125561984E-02    0.1108754934E+00    0.2755176250E-03    0.6517248026E+00    0.5680199452E+00
    0.3300000000E+05    0.5782775321E-02    0.1108628678E+00    0.2566220907E-03    0.6536973484E+00    0.5682675850E+00
    0.3500000000E+05    0.5483794481E-02    0.1108495394E+00    0.2401884502E-03    0.6554293072E+00    0.5684935868E+00
    0.3700000000E+05    0.5220824613E-02    0.1108357162E+00    0.2257833172E-03    0.6569611926E+00    0.5687010042E+00
    0.3900000000E+05    0.4987778871E-02    0.1108215558E+00    0.2130665705E-03    0.6583250527E+00    0.5688923183E+00
    0.4100000000E+05    0.4779843032E-02    0.1108071783E+00    0.2017680439E-03    0.6595465442E+00    0.5690695686E+00
    0.4300000000E+05    0.4593164974E-02    0.1107926759E+00    0.1916707712E-03    0.6606464311E+00    0.5692344490E+00
    0.4500000000E+05    0.4424629620E-02    0.1107781198E+00    0.1825987562E-03    0.6616416847E+00    0.5693883797E+00
    0.4700000000E+05    0.4271693402E-02    0.1107635652E+00    0.1744079199E-03    0.6625463021E+00    0.5695325616E+00
    0.4900000000E+05    0.4132260847E-02    0.1107490546E+00    0.1669793132E-03    0.6633719236E+00    0.5696680179E+00
    0.1000000000E+05    0.2013948216E-01    0.1107290262E+00    0.1030872094E-02    0.5798172376E+00    0.5616756557E+00
    0.3000000000E+05    0.6316433112E-02    0.1108814591E+00    0.2860573841E-03    0.6506326394E+00    0.5678868569E+00
    0.5000000000E+05    0.4067052733E-02    0.1107418265E+00    0.1635192520E-03    0.6637582221E+00    0.5697327532E+00
    0.7000000000E+05    0.3171929691E-02    0.1106044500E+00    0.1172539739E-03    0.6690407740E+00    0.5707291891E+00
    0.9000000000E+05    0.2681201058E-02    0.1104835612E+00    0.9332119091E-04    0.6718652293E+00    0.5713858875E+00
    0.1100000000E+06    0.2364906237E-02    0.1103776247E+00    0.7869874602E-04    0.6736181099E+00    0.5718653732E+00
    0.1300000000E+06    0.2140494052E-02    0.1102838746E+00    0.6880085192E-04    0.6748107760E+00    0.5722380609E+00
    0.1500000000E+06    0.1970946301E-02    0.1101999727E+00    0.6162238460E-04    0.6756745549E+00    0.5725402059E+00
    0.1700000000E+06    0.1837089004E-02    0.1101241127E+00    0.5615273566E-04    0.6763290310E+00    0.5727926957E+00
    0.1900000000E+06    0.1727933980E-02    0.1100549132E+00    0.5182845601E-04    0.6768421501E+00    0.5730085598E+00
    0.2100000000E+06    0.1636695102E-02    0.1099913082E+00    0.4831076538E-04    0.6772553431E+00    0.5731964221E+00
    0.2300000000E+06    0.1558933384E-02    0.1099324627E+00    0.4538366615E-04    0.6775952970E+00    0.5733622603E+00
    0.2500000000E+06    0.1491609987E-02    0.1098777131E+00    0.4290283798E-04    0.6778799729E+00    0.5735103726E+00
    0.2700000000E+06    0.1432566455E-02    0.1098265242E+00    0.4076808954E-04    0.6781219006E+00    0.5736439444E+00
    0.2900000000E+06    0.1380222261E-02    0.1097784585E+00    0.3890761451E-04    0.6783300867E+00    0.5737653963E+00
    0.3100000000E+06    0.1333390109E-02    0.1097331542E+00    0.3726854720E-04    0.6785111714E+00    0.5738766073E+00
    0.3300000000E+06    0.1291158508E-02    0.1096903089E+00    0.3581106091E-04    0.6786701574E+00    0.5739790625E+00
    0.3500000000E+06    0.1252814493E-02    0.1096496671E+00    0.3450454939E-04    0.6788108859E+00    0.5740739547E+00
    0.3700000000E+06    0.1217791244E-02    0.1096110113E+00    0.3332508036E-04    0.6789363551E+00    0.5741622550E+00
    0.3900000000E+06    0.1185631663E-02    0.1095741545E+00    0.3225365223E-04    0.6790489392E+00    0.5742447638E+00
    0.4100000000E+06    0.1155962457E-02    0.1095389353E+00    0.3127497258E-04    0.6791505433E+00    0.5743221479E+00
    0.4300000000E+06    0.1128475338E-02    0.1095052129E+00    0.3037658455E-04    0.6792427137E+00    0.5743949686E+00
    0.4500000000E+06    0.1102913134E-02    0.1094728639E+00    0.2954823046E-04    0.6793267184E+00    0.5744637018E+00
    0.4700000000E+06    0.1079059361E-02    0.1094417798E+00    0.2878138057E-04    0.6794036075E+00    0.5745287549E+00
    0.4900000000E+06    0.1056730292E-02    0.1094118644E+00    0.2806887879E-04    0.6794742578E+00    0.5745904788E+00
    0.1000000000E+06    0.2508041188E-02    0.1104289018E+00    0.8522574540E-04    0.6728336963E+00    0.5716422186E+00
    0.3000000000E+06    0.1356179556E-02    0.1097554813E+00    0.3806314720E-04    0.6784236722E+00    0.5738221812E+00
    0.5000000000E+06    0.1046087526E-02    0.1093973179E+00    0.2773108002E-04    0.6795074786E+00    0.5746201890E+00
    0.7000000000E+06    0.8848353606E-03    0.1091511778E+00    0.2275200386E-04    0.6799743570E+00    0.5750960257E+00
    0.9000000000E+06    0.7816887118E-03    0.1089631253E+00    0.1969884175E-04    0.6802364252E+00    0.5754305946E+00
    0.1100000000E+07    0.7083559831E-03    0.1088107755E+00    0.1758774824E-04    0.6804051228E+00    0.5756867178E+00
    0.1300000000E+07    0.6527331842E-03    0.1086826420E+00    0.1601848231E-04    0.6805232755E+00    0.5758932772E+00
    0.1500000000E+07    0.6086506295E-03    0.1085720333E+00    0.1479402155E-04    0.6806109105E+00    0.5760658376E+00
    0.1700000000E+07    0.5725863225E-03    0.1084747039E+00    0.1380477706E-04    0.6806786669E+00    0.5762137039E+00
    0.1900000000E+07    0.5423625724E-03    0.1083877895E+00    0.1298435066E-04    0.6807327296E+00    0.5763428635E+00
    0.2100000000E+07    0.5165502645E-03    0.1083092650E+00    0.1228987925E-04    0.6807769446E+00    0.5764573864E+00
    0.2300000000E+07    0.4941671764E-03    0.1082376453E+00    0.1169230376E-04    0.6808138321E+00    0.5765601602E+00
    0.2500000000E+07    0.4745128153E-03    0.1081718085E+00    0.1117113981E-04    0.6808451138E+00    0.5766533047E+00
    0.2700000000E+07    0.4570722654E-03    0.1081108866E+00    0.1071148048E-04    0.6808720073E+00    0.5767384204E+00
    0.2900000000E+07    0.4414573499E-03    0.1080541935E+00    0.1030218664E-04    0.6808953985E+00    0.5768167441E+00
    0.3100000000E+07    0.4273691125E-03    0.1080011781E+00    0.9934746268E-05    0.6809159476E+00    0.5768892503E+00
    0.3300000000E+07    0.4145730461E-03    0.1079513904E+00    0.9602528994E-05    0.6809341574E+00    0.5769567207E+00
    0.3500000000E+07    0.4028822457E-03    0.1079044586E+00    0.9300283693E-05    0.6809504173E+00    0.5770197910E+00
    0.3700000000E+07    0.3921456526E-03    0.1078600717E+00    0.9023790742E-05    0.6809650342E+00    0.5770789850E+00
    0.3900000000E+07    0.3822396647E-03    0.1078179669E+00    0.8769615669E-05    0.6809782528E+00    0.5771347394E+00
    0.4100000000E+07    0.3730620299E-03    0.1077779205E+00    0.8534931050E-05    0.6809902713E+00    0.5771874219E+00
    0.4300000000E+07    0.3645273230E-03    0.1077397398E+00    0.8317385367E-05    0.6810012514E+00    0.5772373448E+00
    0.4500000000E+07    0.3565635413E-03    0.1077032583E+00    0.8115004887E-05    0.6810113268E+00    0.5772847757E+00
    0.4700000000E+07    0.3491095069E-03    0.1076683308E+00    0.7926119164E-05    0.6810206090E+00    0.5773299455E+00
    0.4900000000E+07    0.3421128581E-03    0.1076348299E+00    0.7749303724E-05    0.6810291914E+00    0.5773730547E+00
    0.1000000000E+07    0.7422546877E-03    0.1088833605E+00    0.1855758903E-04    0.6803289670E+00    0.5755662113E+00
    0.3000000000E+07    0.4342383359E-03    0.1080272563E+00    0.1011368646E-04    0.6809059938E+00    0.5768536716E+00
    0.5000000000E+07    0.3387717075E-03    0.1076185788E+00    0.7665033284E-05    0.6810332454E+00    0.5773938922E+00
    0.7000000000E+07    0.2876962090E-03    0.1073470455E+00    0.6390519882E-05    0.6810916816E+00    0.5777354009E+00
    0.9000000000E+07    0.2546452991E-03    0.1071433039E+00    0.5580236932E-05    0.6811260097E+00    0.5779843090E+00
    0.1100000000E+08    0.2310049588E-03    0.1069801526E+00    0.5008199056E-05    0.6811489198E+00    0.5781797317E+00
    0.1300000000E+08    0.2130085867E-03    0.1068440654E+00    0.4577237091E-05    0.6811654585E+00    0.5783403786E+00
    0.1500000000E+08    0.1987120659E-03    0.1067273243E+00    0.4237820612E-05    0.6811780506E+00    0.5784766337E+00
    0.1700000000E+08    0.1869966330E-03    0.1066251062E+00    0.3961729902E-05    0.6811880142E+00    0.5785948507E+00
    0.1900000000E+08    0.1771667006E-03    0.1065341938E+00    0.3731564835E-05    0.6811961308E+00    0.5786991964E+00
    0.2100000000E+08    0.1687639510E-03    0.1064523336E+00    0.3535942131E-05    0.6812028952E+00    0.5787925493E+00
    0.2300000000E+08    0.1614724305E-03    0.1063778854E+00    0.3367063352E-05    0.6812086369E+00    0.5788769797E+00
    0.2500000000E+08    0.1550662814E-03    0.1063096180E+00    0.3219384770E-05    0.6812135844E+00    0.5789540260E+00
    0.2700000000E+08    0.1493791711E-03    0.1062465838E+00    0.3088844150E-05    0.6812179013E+00    0.5790248621E+00
