  Pressure (Pa) 2mC6-400 (mol/kg) 3mC6-400 (mol/kg) 33mC5-400 (mol/kg) 23mC5-400 (mol/kg) C7-400 (mol/kg)
    0.1000000000E+01    0.1569377360E-02    0.5181426005E-03    0.1917154037E-03    0.3733398082E-03    0.1681727397E-01
    0.3000000000E+01    0.4498243105E-02    0.1473526934E-02    0.5497950441E-03    0.1114914572E-02    0.4783846199E-01
    0.5000000000E+01    0.7182989129E-02    0.2334499577E-02    0.8784130695E-03    0.1849783174E-02    0.7580919459E-01
    0.7000000000E+01    0.9659134956E-02    0.3114515919E-02    0.1181880513E-02    0.2578063415E-02    0.1011635369E+00
    0.9000000000E+01    0.1195554475E-01    0.3824584618E-02    0.1463697678E-02    0.3299870246E-02    0.1242566851E+00
    0.1100000000E+02    0.1409590487E-01    0.4473799911E-02    0.1726734487E-02    0.4015315850E-02    0.1453821169E+00
    0.1300000000E+02    0.1609982680E-01    0.5069740720E-02    0.1973365046E-02    0.4724509729E-02    0.1647844519E+00
    0.1500000000E+02    0.1798368136E-01    0.5618773906E-02    0.2205569397E-02    0.5427558784E-02    0.1826692240E+00
    0.1700000000E+02    0.1976123734E-01    0.6126287473E-02    0.2425011367E-02    0.6124567393E-02    0.1992103979E+00
    0.1900000000E+02    0.2144415581E-01    0.6596871913E-02    0.2633098808E-02    0.6815637486E-02    0.2145562139E+00
    0.2100000000E+02    0.2304237661E-01    0.7034462663E-02    0.2831030674E-02    0.7500868615E-02    0.2288337805E+00
    0.2300000000E+02    0.2456442339E-01    0.7442453069E-02    0.3019834158E-02    0.8180358030E-02    0.2421527165E+00
    0.2500000000E+02    0.2601764640E-01    0.7823784741E-02    0.3200394238E-02    0.8854200740E-02    0.2546080637E+00
    0.2700000000E+02    0.2740841739E-01    0.8181020410E-02    0.3373477382E-02    0.9522489580E-02    0.2662826367E+00
    0.2900000000E+02    0.2874228717E-01    0.8516403119E-02    0.3539750700E-02    0.1018531528E-01    0.2772489321E+00
    0.3100000000E+02    0.3002411383E-01    0.8831904643E-02    0.3699797528E-02    0.1084276650E-01    0.2875706894E+00
    0.3300000000E+02    0.3125816788E-01    0.9129265370E-02    0.3854130192E-02    0.1149492994E-01    0.2973041781E+00
    0.3500000000E+02    0.3244821891E-01    0.9410027332E-02    0.4003200528E-02    0.1214189034E-01    0.3064992630E+00
    0.3700000000E+02    0.3359760744E-01    0.9675561736E-02    0.4147408596E-02    0.1278373056E-01    0.3152002925E+00
    0.3900000000E+02    0.3470930485E-01    0.9927092031E-02    0.4287109948E-02    0.1342053165E-01    0.3234468428E+00
    0.4100000000E+02    0.3578596355E-01    0.1016571333E-01    0.4422621707E-02    0.1405237286E-01    0.3312743448E+00
    0.4300000000E+02    0.3682995933E-01    0.1039240884E-01    0.4554227687E-02    0.1467933173E-01    0.3387146142E+00
    0.4500000000E+02    0.3784342701E-01    0.1060806384E-01    0.4682182724E-02    0.1530148411E-01    0.3457963027E+00
    0.4700000000E+02    0.3882829092E-01    0.1081347761E-01    0.4806716343E-02    0.1591890422E-01    0.3525452828E+00
    0.4900000000E+02    0.3978629074E-01    0.1100937362E-01    0.4928035898E-02    0.1653166467E-01    0.3589849779E+00
    0.1000000000E+02    0.1304392068E-01    0.4156293691E-02    0.1597404952E-02    0.3658381296E-02    0.1350490590E+00
    0.3000000000E+02    0.2938942631E-01    0.8676525249E-02    0.3620518874E-02    0.1051470723E-01    0.2824866995E+00
    0.5000000000E+02    0.4025571531E-01    0.1110396002E-01    0.4987549803E-02    0.1683631980E-01    0.3620955644E+00
    0.7000000000E+02    0.4854875722E-01    0.1262704935E-01    0.6046548125E-02    0.2270134413E-01    0.4123146433E+00
    0.9000000000E+02    0.5530683349E-01    0.1367570351E-01    0.6920919728E-02    0.2817283267E-01    0.4470740919E+00
    0.1100000000E+03    0.6101214183E-01    0.1444375939E-01    0.7667738708E-02    0.3330227746E-01    0.4726658625E+00
    0.1300000000E+03    0.6593165711E-01    0.1503169671E-01    0.8318590604E-02    0.3813217849E-01    0.4923572716E+00
    0.1500000000E+03    0.7023261692E-01    0.1549691075E-01    0.8893311228E-02    0.4269795228E-01    0.5080179219E+00
    0.1700000000E+03    0.7402938114E-01    0.1587462376E-01    0.9405524905E-02    0.4702937096E-01    0.5207971540E+00
    0.1900000000E+03    0.7740519854E-01    0.1618767872E-01    0.9865203095E-02    0.5115166174E-01    0.5314416584E+00
    0.2100000000E+03    0.8042346221E-01    0.1645155528E-01    0.1027998227E-01    0.5508635713E-01    0.5404583145E+00
    0.2300000000E+03    0.8313406217E-01    0.1667712538E-01    0.1065590612E-01    0.5885195959E-01    0.5482037402E+00
    0.2500000000E+03    0.8557724000E-01    0.1687225504E-01    0.1099787568E-01    0.6246446652E-01    0.5549364016E+00
    0.2700000000E+03    0.8778607197E-01    0.1704278002E-01    0.1130993965E-01    0.6593778876E-01    0.5608483836E+00
    0.2900000000E+03    0.8978814982E-01    0.1719312369E-01    0.1159549124E-01    0.6928408716E-01    0.5660855331E+00
    0.3100000000E+03    0.9160676543E-01    0.1732670171E-01    0.1185740746E-01    0.7251404530E-01    0.5707606638E+00
    0.3300000000E+03    0.9326177425E-01    0.1744619472E-01    0.1209815092E-01    0.7563709233E-01    0.5749624639E+00
    0.3500000000E+03    0.9477024214E-01    0.1755373682E-01    0.1231984639E-01    0.7866158614E-01    0.5787616594E+00
    0.3700000000E+03    0.9614694092E-01    0.1765104869E-01    0.1252433977E-01    0.8159496506E-01    0.5822153724E+00
    0.3900000000E+03    0.9740473539E-01    0.1773953353E-01    0.1271324421E-01    0.8444387409E-01    0.5853702635E+00
    0.4100000000E+03    0.9855489021E-01    0.1782034738E-01    0.1288797692E-01    0.8721427076E-01    0.5882648392E+00
    0.4300000000E+03    0.9960731676E-01    0.1789445150E-01    0.1304978883E-01    0.8991151415E-01    0.5909311711E+00
    0.4500000000E+03    0.1005707738E+00    0.1796265187E-01    0.1319978878E-01    0.9254044036E-01    0.5933961959E+00
    0.4700000000E+03    0.1014530321E+00    0.1802562954E-01    0.1333896351E-01    0.9510542655E-01    0.5956827115E+00
    0.4900000000E+03    0.1022610113E+00    0.1808396398E-01    0.1346819423E-01    0.9761044582E-01    0.5978101482E+00
    0.1000000000E+03    0.5827122125E-01    0.1408714489E-01    0.7307924409E-02    0.3077746858E-01    0.4607669387E+00
    0.3000000000E+03    0.9071907735E-01    0.1726182617E-01    0.1172924115E-01    0.7091299236E-01    0.5684873252E+00
    0.5000000000E+03    0.1026391043E+00    0.1811154791E-01    0.1352933056E-01    0.9884161065E-01    0.5988195148E+00
    0.7000000000E+03    0.1075011627E+00    0.1850928654E-01    0.1438407422E-01    0.1210435866E+00    0.6136813645E+00
    0.9000000000E+03    0.1091752504E+00    0.1873968480E-01    0.1479238186E-01    0.1399236548E+00    0.6226743108E+00
    0.1100000000E+04    0.1092082348E+00    0.1888946466E-01    0.1495928990E-01    0.1566157338E+00    0.6287743996E+00
    0.1300000000E+04    0.1083282724E+00    0.1899417718E-01    0.1498400105E-01    0.1717392795E+00    0.6332212822E+00
    0.1500000000E+04    0.1069166783E+00    0.1907114000E-01    0.1491998602E-01    0.1856684298E+00    0.6366280894E+00
    0.1700000000E+04    0.1051888283E+00    0.1912981151E-01    0.1479840047E-01    0.1986462990E+00    0.6393346677E+00
    0.1900000000E+04    0.1032733915E+00    0.1917579885E-01    0.1463850081E-01    0.2108399312E+00    0.6415454040E+00
    0.2100000000E+04    0.1012505805E+00    0.1921263797E-01    0.1445275074E-01    0.2223692836E+00    0.6433910193E+00
    0.2300000000E+04    0.9917205454E-01    0.1924266915E-01    0.1424952034E-01    0.2333236506E+00    0.6449592439E+00
    0.2500000000E+04    0.9707191189E-01    0.1926750274E-01    0.1403460126E-01    0.2437715200E+00    0.6463112818E+00
    0.2700000000E+04    0.9497306413E-01    0.1928828287E-01    0.1381210016E-01    0.2537667726E+00    0.6474912144E+00
    0.2900000000E+04    0.9289108525E-01    0.1930584450E-01    0.1358498786E-01    0.2633527358E+00    0.6485316503E+00
    0.3100000000E+04    0.9083661685E-01    0.1932081099E-01    0.1335544881E-01    0.2725649238E+00    0.6494572654E+00
    0.3300000000E+04    0.8881691575E-01    0.1933365693E-01    0.1312511034E-01    0.2814329417E+00    0.6502871012E+00
    0.3500000000E+04    0.8683687525E-01    0.1934474987E-01    0.1289519708E-01    0.2899818426E+00    0.6510361039E+00
    0.3700000000E+04    0.8489971415E-01    0.1935437874E-01    0.1266663736E-01    0.2982331140E+00    0.6517161815E+00
    0.3900000000E+04    0.8300745061E-01    0.1936277369E-01    0.1244013812E-01    0.3062054088E+00    0.6523369482E+00
    0.4100000000E+04    0.8116123369E-01    0.1937012022E-01    0.1221623850E-01    0.3139150969E+00    0.6529062583E+00
    0.4300000000E+04    0.7936157885E-01    0.1937656945E-01    0.1199534902E-01    0.3213766856E+00    0.6534305968E+00
    0.4500000000E+04    0.7760853745E-01    0.1938224564E-01    0.1177778042E-01    0.3286031466E+00    0.6539153695E+00
    0.4700000000E+04    0.7590182025E-01    0.1938725189E-01    0.1156376536E-01    0.3356061709E+00    0.6543651221E+00
    0.4900000000E+04    0.7424088831E-01    0.1939167437E-01    0.1135347489E-01    0.3423963722E+00    0.6547837071E+00
    0.1000000000E+04    0.1093399261E+00    0.1882180043E-01    0.1489831246E-01    0.1484967175E+00    0.6259869388E+00
    0.3000000000E+04    0.9185989331E-01    0.1931361956E-01    0.1347040901E-01    0.2680035809E+00    0.6490075092E+00
    0.5000000000E+04    0.7342737211E-01    0.1939368983E-01    0.1124976616E-01    0.3457147268E+00    0.6549823587E+00
    0.7000000000E+04    0.5933479255E-01    0.1941611771E-01    0.9383742249E-02    0.4029032318E+00    0.6579125996E+00
    0.9000000000E+04    0.4867587787E-01    0.1942114468E-01    0.7889557656E-02    0.4464755713E+00    0.6596872648E+00
    0.1100000000E+05    0.4053603773E-01    0.1941930741E-01    0.6700614677E-02    0.4803503134E+00    0.6608844519E+00
    0.1300000000E+05    0.3423537310E-01    0.1941440521E-01    0.5750308417E-02    0.5071193444E+00    0.6617477172E+00
    0.1500000000E+05    0.2928829724E-01    0.1940807062E-01    0.4984352096E-02    0.5285871783E+00    0.6623995511E+00
    0.1700000000E+05    0.2534937323E-01    0.1940108561E-01    0.4360896143E-02    0.5460398507E+00    0.6629088916E+00
    0.1900000000E+05    0.2217130770E-01    0.1939385181E-01    0.3848253429E-02    0.5604084191E+00    0.6633176750E+00
    0.2100000000E+05    0.1957522434E-01    0.1938658460E-01    0.3422512624E-02    0.5723762274E+00    0.6636529144E+00
    0.2300000000E+05    0.1743016568E-01    0.1937940184E-01    0.3065569130E-02    0.5824514035E+00    0.6639327962E+00
    0.2500000000E+05    0.1563903657E-01    0.1937236787E-01    0.2763622468E-02    0.5910166156E+00    0.6641700057E+00
    0.2700000000E+05    0.1412893383E-01    0.1936551651E-01    0.2506064641E-02    0.5983636135E+00    0.6643736527E+00
    0.2900000000E+05    0.1284444248E-01    0.1935886377E-01    0.2284667196E-02    0.6047174698E+00    0.6645504426E+00
    0.3100000000E+05    0.1174294272E-01    0.1935241512E-01    0.2092987938E-02    0.6102537787E+00    0.6647054161E+00
    0.3300000000E+05    0.1079128820E-01    0.1934616980E-01    0.1925936659E-02    0.6151109959E+00    0.6648424329E+00
    0.3500000000E+05    0.9963427931E-02    0.1934012332E-01    0.1779455416E-02    0.6193993913E+00    0.6649644962E+00
    0.3700000000E+05    0.9238684410E-02    0.1933426914E-01    0.1650281432E-02    0.6232076163E+00    0.6650739766E+00
    0.3900000000E+05    0.8600492600E-02    0.1932859955E-01    0.1535769838E-02    0.6266075728E+00    0.6651727695E+00
    0.4100000000E+05    0.8035466482E-02    0.1932310639E-01    0.1433760045E-02    0.6296580622E+00    0.6652624080E+00
    0.4300000000E+05    0.7532700791E-02    0.1931778132E-01    0.1342474143E-02    0.6324075451E+00    0.6653441450E+00
    0.4500000000E+05    0.7083243433E-02    0.1931261617E-01    0.1260439008E-02    0.6348962513E+00    0.6654190143E+00
    0.4700000000E+05    0.6679693095E-02    0.1930760297E-01    0.1186426095E-02    0.6371578049E+00    0.6654878763E+00
    0.4900000000E+05    0.6315889532E-02    0.1930273412E-01    0.1119404533E-02    0.6392204896E+00    0.6655514526E+00
    0.1000000000E+05    0.4433880731E-01    0.1942076935E-01    0.7261342798E-02    0.4644404246E+00    0.6603386735E+00
    0.3000000000E+05    0.1227308068E-01    0.1935561387E-01    0.2185458402E-02    0.6075784124E+00    0.6646303919E+00
    0.5000000000E+05    0.6147246774E-02    0.1930035155E-01    0.1088238183E-02    0.6401848827E+00    0.6655814531E+00
    0.7000000000E+05    0.3964251755E-02    0.1925873380E-01    0.6789017883E-03    0.6532658501E+00    0.6660120532E+00
    0.9000000000E+05    0.2917247928E-02    0.1922558598E-01    0.4788069305E-03    0.6601012018E+00    0.6662643322E+00
    0.1100000000E+06    0.2321670140E-02    0.1919807050E-01    0.3643963730E-03    0.6642476387E+00    0.6664333140E+00
    0.1300000000E+06    0.1943378082E-02    0.1917455241E-01    0.2919546491E-03    0.6670138881E+00    0.6665561484E+00
    0.1500000000E+06    0.1683893759E-02    0.1915401471E-01    0.2426828881E-03    0.6689845443E+00    0.6666504860E+00
    0.1700000000E+06    0.1495562824E-02    0.1913578398E-01    0.2073473212E-03    0.6704572820E+00    0.6667258514E+00
    0.1900000000E+06    0.1352856677E-02    0.1911939180E-01    0.1809520133E-03    0.6715987081E+00    0.6667878688E+00
    0.2100000000E+06    0.1241001206E-02    0.1910449940E-01    0.1605875015E-03    0.6725089841E+00    0.6668400895E+00
    0.2300000000E+06    0.1150910795E-02    0.1909085388E-01    0.1444583430E-03    0.6732517926E+00    0.6668848762E+00
    0.2500000000E+06    0.1076717302E-02    0.1907826142E-01    0.1314034373E-03    0.6738694883E+00    0.6669238670E+00
    0.2700000000E+06    0.1014474347E-02    0.1906657026E-01    0.1206423132E-03    0.6743913019E+00    0.6669582373E+00
    0.2900000000E+06    0.9614364789E-03    0.1905565930E-01    0.1116330438E-03    0.6748380403E+00    0.6669888544E+00
    0.3100000000E+06    0.9156378909E-03    0.1904543035E-01    0.1039887893E-03    0.6752249080E+00    0.6670163738E+00
    0.3300000000E+06    0.8756356805E-03    0.1903580274E-01    0.9742675469E-04    0.6755632687E+00    0.6670413011E+00
    0.3500000000E+06    0.8403476827E-03    0.1902670933E-01    0.9173586989E-04    0.6758617831E+00    0.6670640333E+00
    0.3700000000E+06    0.8089467944E-03    0.1901809364E-01    0.8675569779E-04    0.6761271661E+00    0.6670848872E+00
    0.3900000000E+06    0.7807902073E-03    0.1900990776E-01    0.8236230160E-04    0.6763647031E+00    0.6671041185E+00
    0.4100000000E+06    0.7553708609E-03    0.1900211062E-01    0.7845855105E-04    0.6765786109E+00    0.6671219369E+00
    0.4300000000E+06    0.7322834166E-03    0.1899466682E-01    0.7496733341E-04    0.6767722942E+00    0.6671385154E+00
    0.4500000000E+06    0.7111999457E-03    0.1898754556E-01    0.7182670932E-04    0.6769485325E+00    0.6671539989E+00
    0.4700000000E+06    0.6918522561E-03    0.1898071994E-01    0.6898639777E-04    0.6771096167E+00    0.6671685093E+00
    0.4900000000E+06    0.6740188400E-03    0.1897416629E-01    0.6640518620E-04    0.6772574522E+00    0.6671821501E+00
    0.1000000000E+06    0.2582591205E-02    0.1921124555E-01    0.4145200076E-03    0.6624029512E+00    0.6663562304E+00
    0.3000000000E+06    0.9377324660E-03    0.1905046497E-01    0.1076599556E-03    0.6750381734E+00    0.6670029667E+00
    0.5000000000E+06    0.6656110712E-03    0.1897098481E-01    0.6520085722E-04    0.6773269113E+00    0.6671886727E+00
    0.7000000000E+06    0.5448853795E-03    0.1891762253E-01    0.4888068564E-04    0.6783003722E+00    0.6672895423E+00
    0.9000000000E+06    0.4733352492E-03    0.1887736715E-01    0.4015289023E-04    0.6788463809E+00    0.6673568256E+00
    0.1100000000E+07    0.4246439683E-03    0.1884502358E-01    0.3464677264E-04    0.6791990576E+00    0.6674065994E+00
    0.1300000000E+07    0.3887278972E-03    0.1881798290E-01    0.3081342621E-04    0.6794473338E+00    0.6674457873E+00
    0.1500000000E+07    0.3608024669E-03    0.1879474688E-01    0.2796542082E-04    0.6796325599E+00    0.6674779484E+00
    0.1700000000E+07    0.3382695543E-03    0.1877437487E-01    0.2575017332E-04    0.6797766454E+00    0.6675051348E+00
    0.1900000000E+07    0.3195805082E-03    0.1875623725E-01    0.2396756764E-04    0.6798923177E+00    0.6675286291E+00
    0.2100000000E+07    0.3037469467E-03    0.1873989174E-01    0.2249518195E-04    0.6799874939E+00    0.6675492829E+00
    0.2300000000E+07    0.2901042083E-03    0.1872501574E-01    0.2125367362E-04    0.6800673676E+00    0.6675676884E+00
    0.2500000000E+07    0.2781864762E-03    0.1871136665E-01    0.2018920970E-04    0.6801354930E+00    0.6675842731E+00
    0.2700000000E+07    0.2676561810E-03    0.1869875743E-01    0.1926388039E-04    0.6801943884E+00    0.6675993550E+00
    0.2900000000E+07    0.2582618290E-03    0.1868704081E-01    0.1845015365E-04    0.6802458900E+00    0.6676131768E+00
    0.3100000000E+07    0.2498116435E-03    0.1867609876E-01    0.1772750916E-04    0.6802913699E+00    0.6676259277E+00
    0.3300000000E+07    0.2421564562E-03    0.1866583524E-01    0.1708031082E-04    0.6803318750E+00    0.6676377578E+00
    0.3500000000E+07    0.2351782379E-03    0.1865617103E-01    0.1649641489E-04    0.6803682188E+00    0.6676487881E+00
    0.3700000000E+07    0.2287821940E-03    0.1864704003E-01    0.1596623218E-04    0.6804010435E+00    0.6676591176E+00
    0.3900000000E+07    0.2228911860E-03    0.1863838649E-01    0.1548207938E-04    0.6804308632E+00    0.6676688283E+00
    0.4100000000E+07    0.2174417077E-03    0.1863016301E-01    0.1503772028E-04    0.6804580945E+00    0.6676779887E+00
    0.4300000000E+07    0.2123809315E-03    0.1862232889E-01    0.1462803469E-04    0.6804830789E+00    0.6676866566E+00
    0.4500000000E+07    0.2076645001E-03    0.1861484895E-01    0.1424877508E-04    0.6805060993E+00    0.6676948813E+00
    0.4700000000E+07    0.2032548544E-03    0.1860769259E-01    0.1389638492E-04    0.6805273919E+00    0.6677027053E+00
    0.4900000000E+07    0.1991199468E-03    0.1860083299E-01    0.1356786109E-04    0.6805471556E+00    0.6677101650E+00
    0.1000000000E+07    0.4469490854E-03    0.1886040561E-01    0.3712490083E-04    0.6790396488E+00    0.6673833538E+00
    0.3000000000E+07    0.2539288813E-03    0.1868147941E-01    0.1807851881E-04    0.6802693109E+00    0.6676196760E+00
    0.5000000000E+07    0.1971467616E-03    0.1859750698E-01    0.1341173538E-04    0.6805565179E+00    0.6677137685E+00
    0.7000000000E+07    0.1670838311E-03    0.1854207411E-01    0.1108329183E-04    0.6806936775E+00    0.6677726643E+00
    0.9000000000E+07    0.1477172458E-03    0.1850063878E-01    0.9631495280E-05    0.6807766559E+00    0.6678154954E+00
    0.1100000000E+08    0.1338995820E-03    0.1846754505E-01    0.8617949255E-05    0.6808333483E+00    0.6678491320E+00
    0.1300000000E+08    0.1233977354E-03    0.1843999493E-01    0.7859865446E-05    0.6808750764E+00    0.6678768168E+00
    0.1500000000E+08    0.1150643980E-03    0.1841639774E-01    0.7265826965E-05    0.6809073756E+00    0.6679003363E+00
    0.1700000000E+08    0.1082413365E-03    0.1839576212E-01    0.6784420814E-05    0.6809333005E+00    0.6679207782E+00
    0.1900000000E+08    0.1025201745E-03    0.1837742830E-01    0.6384243114E-05    0.6809546870E+00    0.6679388540E+00
    0.2100000000E+08    0.9763226685E-04    0.1836093497E-01    0.6044895497E-05    0.6809727113E+00    0.6679550541E+00
    0.2300000000E+08    0.9339264615E-04    0.1834594688E-01    0.5752481588E-05    0.6809881653E+00    0.6679697310E+00
    0.2500000000E+08    0.8966922117E-04    0.1833221274E-01    0.5497167250E-05    0.6810016035E+00    0.6679831465E+00
    0.2700000000E+08    0.8636479314E-04    0.1831953933E-01    0.5271773090E-05    0.6810134271E+00    0.6679955001E+00
