  Pressure (Pa) 2mC6-400 (mol/kg) 3mC6-400 (mol/kg) 33mC5-400 (mol/kg) 23mC5-400 (mol/kg) C7-400 (mol/kg)
    0.1000000000E+01    0.1582544642E-02    0.3663498787E-02    0.3866085135E-03    0.9335568449E-04    0.6794271263E-02
    0.3000000000E+01    0.4606181822E-02    0.1061540104E-01    0.1125621212E-02    0.2789132619E-03    0.1969042232E-01
    0.5000000000E+01    0.7457228131E-02    0.1710919550E-01    0.1822918123E-02    0.4629532348E-03    0.3174083441E-01
    0.7000000000E+01    0.1015264808E-01    0.2318954159E-01    0.2482618920E-02    0.6455000521E-03    0.4302783124E-01
    0.9000000000E+01    0.1270720798E-01    0.2889545022E-01    0.3108307696E-02    0.8265776148E-03    0.5362333210E-01
    0.1100000000E+02    0.1513381953E-01    0.3426115056E-01    0.3703116840E-02    0.1006209292E-02    0.6359044771E-01
    0.1300000000E+02    0.1744382121E-01    0.3931680193E-01    0.4269795708E-02    0.1184417934E-02    0.7298479101E-01
    0.1500000000E+02    0.1964721025E-01    0.4408908217E-01    0.4810767207E-02    0.1361225890E-02    0.8185556045E-01
    0.1700000000E+02    0.2175283486E-01    0.4860167666E-01    0.5328174690E-02    0.1536655020E-02    0.9024644069E-01
    0.1900000000E+02    0.2376855450E-01    0.5287568727E-01    0.5823921041E-02    0.1710726707E-02    0.9819635558E-01
    0.2100000000E+02    0.2570137418E-01    0.5692997586E-01    0.6299701414E-02    0.1883461876E-02    0.1057401009E+00
    0.2300000000E+02    0.2755755756E-01    0.6078145442E-01    0.6757030797E-02    0.2054880997E-02    0.1129088787E+00
    0.2500000000E+02    0.2934272260E-01    0.6444533126E-01    0.7197267318E-02    0.2225004107E-02    0.1197307508E+00
    0.2700000000E+02    0.3106192287E-01    0.6793532068E-01    0.7621632057E-02    0.2393850817E-02    0.1262310252E+00
    0.2900000000E+02    0.3271971693E-01    0.7126382253E-01    0.8031225929E-02    0.2561440321E-02    0.1324325864E+00
    0.3100000000E+02    0.3432022771E-01    0.7444207636E-01    0.8427044156E-02    0.2727791414E-02    0.1383561801E+00
    0.3300000000E+02    0.3586719366E-01    0.7748029438E-01    0.8809988705E-02    0.2892922497E-02    0.1440206574E+00
    0.3500000000E+02    0.3736401282E-01    0.8038777656E-01    0.9180879012E-02    0.3056851590E-02    0.1494431875E+00
    0.3700000000E+02    0.3881378098E-01    0.8317301052E-01    0.9540461272E-02    0.3219596339E-02    0.1546394416E+00
    0.3900000000E+02    0.4021932494E-01    0.8584375864E-01    0.9889416508E-02    0.3381174032E-02    0.1596237532E+00
    0.4100000000E+02    0.4158323131E-01    0.8840713408E-01    0.1022836760E-01    0.3541601601E-02    0.1644092585E+00
    0.4300000000E+02    0.4290787188E-01    0.9086966753E-01    0.1055788541E-01    0.3700895636E-02    0.1690080194E+00
    0.4500000000E+02    0.4419542571E-01    0.9323736582E-01    0.1087849421E-01    0.3859072393E-02    0.1734311311E+00
    0.4700000000E+02    0.4544789863E-01    0.9551576357E-01    0.1119067633E-01    0.4016147800E-02    0.1776888180E+00
    0.4900000000E+02    0.4666714041E-01    0.9770996888E-01    0.1149487642E-01    0.4172137470E-02    0.1817905174E+00
    0.1000000000E+02    0.1393576470E-01    0.3161885351E-01    0.3409392126E-02    0.9165727488E-03    0.5868180021E-01
    0.3000000000E+02    0.3352689061E-01    0.7287106954E-01    0.8230798573E-02    0.2644769510E-02    0.1354279092E+00
    0.5000000000E+02    0.4726483877E-01    0.9877698909E-01    0.1164411275E-01    0.4249729947E-02    0.1837856244E+00
    0.7000000000E+02    0.5782719051E-01    0.1166732731E+00    0.1429452862E-01    0.5748154011E-02    0.2173021696E+00
    0.9000000000E+02    0.6640329413E-01    0.1298430614E+00    0.1646735513E-01    0.7153722272E-02    0.2420465912E+00
    0.1100000000E+03    0.7361259033E-01    0.1399803317E+00    0.1831069668E-01    0.8477760119E-02    0.2611536872E+00
    0.1300000000E+03    0.7981665079E-01    0.1480499483E+00    0.1991083244E-01    0.9729732572E-02    0.2764109096E+00
    0.1500000000E+03    0.8524534748E-01    0.1546430771E+00    0.2132257894E-01    0.1091761828E-01    0.2889145874E+00
    0.1700000000E+03    0.9005473365E-01    0.1601428430E+00    0.2258316785E-01    0.1204819596E-01    0.2993759887E+00
    0.1900000000E+03    0.9435631041E-01    0.1648088691E+00    0.2371923906E-01    0.1312726640E-01    0.3082776118E+00
    0.2100000000E+03    0.9823302569E-01    0.1688235922E+00    0.2475065217E-01    0.1415982645E-01    0.3159588648E+00
    0.2300000000E+03    0.1017486012E+00    0.1723191317E+00    0.2569270284E-01    0.1515020671E-01    0.3226658033E+00
    0.2500000000E+03    0.1049532713E+00    0.1753936301E+00    0.2655748399E-01    0.1610218163E-01    0.3285813961E+00
    0.2700000000E+03    0.1078874800E+00    0.1781215917E+00    0.2735476144E-01    0.1701905811E-01    0.3338446876E+00
    0.2900000000E+03    0.1105843575E+00    0.1805606481E+00    0.2809256017E-01    0.1790374758E-01    0.3385633447E+00
    0.3100000000E+03    0.1130714377E+00    0.1827561165E+00    0.2877757056E-01    0.1875882491E-01    0.3428221157E+00
    0.3300000000E+03    0.1153718822E+00    0.1847441488E+00    0.2941543841E-01    0.1958657701E-01    0.3466886788E+00
    0.3500000000E+03    0.1175053783E+00    0.1865539580E+00    0.3001097734E-01    0.2038904310E-01    0.3502177769E+00
    0.3700000000E+03    0.1194888092E+00    0.1882094210E+00    0.3056832799E-01    0.2116804832E-01    0.3534541995E+00
    0.3900000000E+03    0.1213367666E+00    0.1897302554E+00    0.3109107954E-01    0.2192523196E-01    0.3564349712E+00
    0.4100000000E+03    0.1230619477E+00    0.1911328963E+00    0.3158236424E-01    0.2266207120E-01    0.3591909830E+00
    0.4300000000E+03    0.1246754684E+00    0.1924311583E+00    0.3204493191E-01    0.2337990134E-01    0.3617482273E+00
    0.4500000000E+03    0.1261871124E+00    0.1936367434E+00    0.3248120958E-01    0.2407993299E-01    0.3641287426E+00
    0.4700000000E+03    0.1276055335E+00    0.1947596339E+00    0.3289334962E-01    0.2476326673E-01    0.3663513475E+00
    0.4900000000E+03    0.1289384194E+00    0.1958084006E+00    0.3328326916E-01    0.2543090579E-01    0.3684322154E+00
    0.1000000000E+03    0.7015211766E-01    0.1352188801E+00    0.1742384379E-01    0.7825302210E-02    0.2521716850E+00
    0.3000000000E+03    0.1118525840E+00    0.1816863862E+00    0.2844128936E-01    0.1833483859E-01    0.3407456412E+00
    0.5000000000E+03    0.1295749586E+00    0.1963073410E+00    0.3347043914E-01    0.2575912943E-01    0.3694239427E+00
    0.7000000000E+03    0.1391447481E+00    0.2037539459E+00    0.3638131047E-01    0.3168534566E-01    0.3843894567E+00
    0.9000000000E+03    0.1448663429E+00    0.2083472546E+00    0.3825891942E-01    0.3673115995E-01    0.3938260062E+00
    0.1100000000E+04    0.1484805947E+00    0.2114946385E+00    0.3955256560E-01    0.4119675592E-01    0.4004256444E+00
    0.1300000000E+04    0.1508287624E+00    0.2138003390E+00    0.4048404151E-01    0.4524966285E-01    0.4053546524E+00
    0.1500000000E+04    0.1523654858E+00    0.2155696072E+00    0.4117569498E-01    0.4899269107E-01    0.4092071938E+00
    0.1700000000E+04    0.1533566678E+00    0.2169743357E+00    0.4170055661E-01    0.5249346225E-01    0.4123205304E+00
    0.1900000000E+04    0.1539673456E+00    0.2181191797E+00    0.4210489519E-01    0.5579886474E-01    0.4149015701E+00
    0.2100000000E+04    0.1543048268E+00    0.2190717308E+00    0.4241942982E-01    0.5894278866E-01    0.4170849251E+00
    0.2300000000E+04    0.1544415440E+00    0.2198777092E+00    0.4266534297E-01    0.6195056251E-01    0.4189622958E+00
    0.2500000000E+04    0.1544279173E+00    0.2205692153E+00    0.4285770566E-01    0.6484164384E-01    0.4205985081E+00
    0.2700000000E+04    0.1542999598E+00    0.2211694897E+00    0.4300752690E-01    0.6763132744E-01    0.4220408087E+00
    0.2900000000E+04    0.1540839619E+00    0.2216957966E+00    0.4312303132E-01    0.7033187218E-01    0.4233245238E+00
    0.3100000000E+04    0.1537994787E+00    0.2221612447E+00    0.4321048388E-01    0.7295326883E-01    0.4244766471E+00
    0.3300000000E+04    0.1534612929E+00    0.2225759770E+00    0.4327473830E-01    0.7550377810E-01    0.4255181949E+00
    0.3500000000E+04    0.1530807383E+00    0.2229479712E+00    0.4331961150E-01    0.7799031688E-01    0.4264657983E+00
    0.3700000000E+04    0.1526666126E+00    0.2232835935E+00    0.4334814506E-01    0.8041874150E-01    0.4273328075E+00
    0.3900000000E+04    0.1522258197E+00    0.2235879891E+00    0.4336279148E-01    0.8279405936E-01    0.4281300762E+00
    0.4100000000E+04    0.1517638295E+00    0.2238653641E+00    0.4336554946E-01    0.8512058975E-01    0.4288665280E+00
    0.4300000000E+04    0.1512850133E+00    0.2241191920E+00    0.4335806352E-01    0.8740208784E-01    0.4295495746E+00
    0.4500000000E+04    0.1507928907E+00    0.2243523684E+00    0.4334169864E-01    0.8964184160E-01    0.4301854284E+00
    0.4700000000E+04    0.1502903148E+00    0.2245673269E+00    0.4331759679E-01    0.9184274852E-01    0.4307793398E+00
    0.4900000000E+04    0.1497796119E+00    0.2247661286E+00    0.4328672037E-01    0.9400737698E-01    0.4313357799E+00
    0.1000000000E+04    0.1468716373E+00    0.2100537304E+00    0.3896163608E-01    0.3902398313E-01    0.3973880920E+00
    0.3000000000E+04    0.1539492631E+00    0.2219354354E+00    0.4316993270E-01    0.7165191230E-01    0.4239156024E+00
    0.5000000000E+04    0.1495218228E+00    0.2248600303E+00    0.4326900178E-01    0.9507681179E-01    0.4316011679E+00
    0.7000000000E+04    0.1442565491E+00    0.2262061624E+00    0.4270432782E-01    0.1150063072E+00    0.4356382885E+00
    0.9000000000E+04    0.1391250689E+00    0.2269773000E+00    0.4193433605E-01    0.1329018495E+00    0.4382447614E+00
    0.1100000000E+05    0.1342738545E+00    0.2274726993E+00    0.4108669738E-01    0.1493945265E+00    0.4401183997E+00
    0.1300000000E+05    0.1297073817E+00    0.2278142259E+00    0.4020980499E-01    0.1648233459E+00    0.4415571052E+00
    0.1500000000E+05    0.1254018677E+00    0.2280611224E+00    0.3932553581E-01    0.1793946293E+00    0.4427121342E+00
    0.1700000000E+05    0.1213303353E+00    0.2282457338E+00    0.3844497698E-01    0.1932447180E+00    0.4436695252E+00
    0.1900000000E+05    0.1174684620E+00    0.2283872393E+00    0.3757420717E-01    0.2064692170E+00    0.4444823342E+00
    0.2100000000E+05    0.1137955574E+00    0.2284977373E+00    0.3671674595E-01    0.2191382954E+00    0.4451853198E+00
    0.2300000000E+05    0.1102942727E+00    0.2285852366E+00    0.3587470461E-01    0.2313053850E+00    0.4458023538E+00
    0.2500000000E+05    0.1069500461E+00    0.2286552477E+00    0.3504937121E-01    0.2430124500E+00    0.4463504635E+00
    0.2700000000E+05    0.1037505655E+00    0.2287116842E+00    0.3424152750E-01    0.2542933378E+00    0.4468421779E+00
    0.2900000000E+05    0.1006853186E+00    0.2287574002E+00    0.3345162957E-01    0.2651759975E+00    0.4472869592E+00
    0.3100000000E+05    0.9774523367E-01    0.2287945243E+00    0.3267991560E-01    0.2756839951E+00    0.4476921135E+00
    0.3300000000E+05    0.9492239756E-01    0.2288246746E+00    0.3192647261E-01    0.2858375768E+00    0.4480633905E+00
    0.3500000000E+05    0.9220983616E-01    0.2288491025E+00    0.3119127940E-01    0.2956544305E+00    0.4484053910E+00
    0.3700000000E+05    0.8960134272E-01    0.2288687895E+00    0.3047423503E-01    0.3051502428E+00    0.4487218503E+00
    0.3900000000E+05    0.8709134334E-01    0.2288845155E+00    0.2977517836E-01    0.3143391112E+00    0.4490158408E+00
    0.4100000000E+05    0.8467479093E-01    0.2288969077E+00    0.2909390195E-01    0.3232338548E+00    0.4492899187E+00
    0.4300000000E+05    0.8234708116E-01    0.2289064752E+00    0.2843016211E-01    0.3318462489E+00    0.4495462333E+00
    0.4500000000E+05    0.8010398534E-01    0.2289136355E+00    0.2778368657E-01    0.3401872068E+00    0.4497866082E+00
    0.4700000000E+05    0.7794159655E-01    0.2289187337E+00    0.2715418033E-01    0.3482669186E+00    0.4500126043E+00
    0.4900000000E+05    0.7585628604E-01    0.2289220571E+00    0.2654133037E-01    0.3560949611E+00    0.4502255678E+00
    0.1000000000E+05    0.1366629194E+00    0.2272496839E+00    0.4151626364E-01    0.1412981229E+00    0.4392495556E+00
    0.3000000000E+05    0.9920014978E-01    0.2287769251E+00    0.3306349120E-01    0.2704754960E+00    0.4474940994E+00
    0.5000000000E+05    0.7484146838E-01    0.2289231301E+00    0.2624104971E-01    0.3599174527E+00    0.4503275337E+00
    0.7000000000E+05    0.5787001701E-01    0.2288934323E+00    0.2102537068E-01    0.4251395808E+00    0.4519004323E+00
    0.9000000000E+05    0.4574235051E-01    0.2288195946E+00    0.1707400307E-01    0.4733591786E+00    0.4529153980E+00
    0.1100000000E+06    0.3690230209E-01    0.2287337066E+00    0.1406959715E-01    0.5094906240E+00    0.4536251941E+00
    0.1300000000E+06    0.3033159953E-01    0.2286461316E+00    0.1176201075E-01    0.5369870965E+00    0.4541494269E+00
    0.1500000000E+06    0.2535291933E-01    0.2285606360E+00    0.9966332717E-02    0.5582590804E+00    0.4545530327E+00
    0.1700000000E+06    0.2151066643E-01    0.2284785916E+00    0.8549297083E-02    0.5749861309E+00    0.4548743044E+00
    0.1900000000E+06    0.1849426325E-01    0.2284004070E+00    0.7415439825E-02    0.5883451170E+00    0.4551371574E+00
    0.2100000000E+06    0.1608867770E-01    0.2283260838E+00    0.6496106284E-02    0.5991694414E+00    0.4553572013E+00
    0.2300000000E+06    0.1414254186E-01    0.2282554521E+00    0.5741472708E-02    0.6080571284E+00    0.4555449989E+00
    0.2500000000E+06    0.1254750697E-01    0.2281882764E+00    0.5114961917E-02    0.6154434876E+00    0.4557079198E+00
    0.2700000000E+06    0.1122474380E-01    0.2281243039E+00    0.4589383101E-02    0.6216500120E+00    0.4558512444E+00
    0.2900000000E+06    0.1011600215E-01    0.2280632869E+00    0.4144264859E-02    0.6269175205E+00    0.4559788456E+00
    0.3100000000E+06    0.9177603885E-02    0.2280049928E+00    0.3764002080E-02    0.6314288601E+00    0.4560936240E+00
    0.3300000000E+06    0.8376346471E-02    0.2279492079E+00    0.3436556653E-02    0.6353246472E+00    0.4561977921E+00
    0.3500000000E+06    0.7686667083E-02    0.2278957375E+00    0.3152536735E-02    0.6387143257E+00    0.4562930667E+00
    0.3700000000E+06    0.7088650643E-02    0.2278444055E+00    0.2904536811E-02    0.6416840364E+00    0.4563807997E+00
    0.3900000000E+06    0.6566610856E-02    0.2277950532E+00    0.2686659185E-02    0.6443022898E+00    0.4564620707E+00
    0.4100000000E+06    0.6108065819E-02    0.2277475372E+00    0.2494163051E-02    0.6466241059E+00    0.4565377523E+00
    0.4300000000E+06    0.5702989090E-02    0.2277017283E+00    0.2323204278E-02    0.6486940724E+00    0.4566085582E+00
    0.4500000000E+06    0.5343255556E-02    0.2276575097E+00    0.2170640382E-02    0.6505486277E+00    0.4566750780E+00
    0.4700000000E+06    0.5022226814E-02    0.2276147756E+00    0.2033882882E-02    0.6522177856E+00    0.4567378036E+00
    0.4900000000E+06    0.4734437637E-02    0.2275734300E+00    0.1910784438E-02    0.6537264494E+00    0.4567971488E+00
    0.1000000000E+06    0.4098479171E-01    0.2287772686E+00    0.1547071856E-01    0.4926913924E+00    0.4532991667E+00
    0.3000000000E+06    0.9627792594E-02    0.2280338133E+00    0.3946850219E-02    0.6292580813E+00    0.4560376859E+00
    0.5000000000E+06    0.4601560670E-02    0.2275532504E+00    0.1853785099E-02    0.6544272348E+00    0.4568256657E+00
    0.7000000000E+06    0.2913273477E-02    0.2272050887E+00    0.1120449536E-02    0.6636235831E+00    0.4572813691E+00
    0.9000000000E+06    0.2125928061E-02    0.2269317819E+00    0.7735017253E-03    0.6681739629E+00    0.4576055876E+00
    0.1100000000E+07    0.1685078204E-02    0.2267065391E+00    0.5792174321E-03    0.6708354215E+00    0.4578589215E+00
    0.1300000000E+07    0.1407792973E-02    0.2265148025E+00    0.4580346769E-03    0.6725651249E+00    0.4580676043E+00
    0.1500000000E+07    0.1218809059E-02    0.2263477831E+00    0.3765686933E-03    0.6737734912E+00    0.4582454276E+00
    0.1700000000E+07    0.1082241687E-02    0.2261997640E+00    0.3187023651E-03    0.6746631050E+00    0.4584005731E+00
    0.1900000000E+07    0.9790697381E-03    0.2260668153E+00    0.2758285746E-03    0.6753445758E+00    0.4585383105E+00
    0.2100000000E+07    0.8983715927E-03    0.2259461180E+00    0.2429864211E-03    0.6758830599E+00    0.4586622423E+00
    0.2300000000E+07    0.8334712683E-03    0.2258355802E+00    0.2171404542E-03    0.6763192811E+00    0.4587749446E+00
    0.2500000000E+07    0.7800773074E-03    0.2257336063E+00    0.1963417607E-03    0.6766799323E+00    0.4588783260E+00
    0.2700000000E+07    0.7353145328E-03    0.2256389509E+00    0.1792884647E-03    0.6769832049E+00    0.4589738414E+00
    0.2900000000E+07    0.6971887982E-03    0.2255506232E+00    0.1650815598E-03    0.6772419066E+00    0.4590626263E+00
    0.3100000000E+07    0.6642757830E-03    0.2254678219E+00    0.1530824712E-03    0.6774653069E+00    0.4591455846E+00
    0.3300000000E+07    0.6355321622E-03    0.2253898895E+00    0.1428264595E-03    0.6776602750E+00    0.4592234476E+00
    0.3500000000E+07    0.6101767633E-03    0.2253162797E+00    0.1339680751E-03    0.6778320070E+00    0.4592968160E+00
    0.3700000000E+07    0.5876133635E-03    0.2252465338E+00    0.1262457314E-03    0.6779845045E+00    0.4593661891E+00
    0.3900000000E+07    0.5673791249E-03    0.2251802627E+00    0.1194580670E-03    0.6781208985E+00    0.4594319868E+00
    0.4100000000E+07    0.5491093018E-03    0.2251171336E+00    0.1134477952E-03    0.6782436732E+00    0.4594945655E+00
    0.4300000000E+07    0.5325125529E-03    0.2250568593E+00    0.1080904342E-03    0.6783548252E+00    0.4595542304E+00
    0.4500000000E+07    0.5173533322E-03    0.2249991907E+00    0.1032862919E-03    0.6784559769E+00    0.4596112449E+00
    0.4700000000E+07    0.5034391065E-03    0.2249439100E+00    0.9895466793E-04    0.6785484606E+00    0.4596658381E+00
    0.4900000000E+07    0.4906109284E-03    0.2248908256E+00    0.9502959461E-04    0.6786333804E+00    0.4597182103E+00
    0.1000000000E+07    0.1877569934E-02    0.2268142453E+00    0.6639276217E-03    0.6696612128E+00    0.4577390512E+00
    0.3000000000E+07    0.6801531903E-03    0.2255085758E+00    0.1588384027E-03    0.6773575439E+00    0.4591047846E+00
    0.5000000000E+07    0.4845618467E-03    0.2248650533E+00    0.9320212991E-04    0.6786732983E+00    0.4597436194E+00
    0.7000000000E+07    0.3976031247E-03    0.2244325051E+00    0.6871744686E-04    0.6792354403E+00    0.4601687148E+00
    0.9000000000E+07    0.3459474035E-03    0.2241057868E+00    0.5588299674E-04    0.6795552113E+00    0.4604886233E+00
    0.1100000000E+08    0.3107303403E-03    0.2238429841E+00    0.4790290674E-04    0.6797650733E+00    0.4607455383E+00
    0.1300000000E+08    0.2847157459E-03    0.2236230508E+00    0.4240800071E-04    0.6799151560E+00    0.4609603937E+00
    0.1500000000E+08    0.2644654027E-03    0.2234338973E+00    0.3836044853E-04    0.6800288112E+00    0.4611451324E+00
    0.1700000000E+08    0.2481098337E-03    0.2232679296E+00    0.3523368764E-04    0.6801184679E+00    0.4613072236E+00
    0.1900000000E+08    0.2345333968E-03    0.2231200623E+00    0.3273159372E-04    0.6801913885E+00    0.4614516541E+00
    0.2100000000E+08    0.2230233264E-03    0.2229867215E+00    0.3067444112E-04    0.6802521204E+00    0.4615819214E+00
    0.2300000000E+08    0.2130998672E-03    0.2228652990E+00    0.2894654856E-04    0.6803036670E+00    0.4617005741E+00
    0.2500000000E+08    0.2044265192E-03    0.2227538322E+00    0.2746990144E-04    0.6803480983E+00    0.4618095276E+00
    0.2700000000E+08    0.1967592513E-03    0.2226508077E+00    0.2618985413E-04    0.6803868910E+00    0.4619102580E+00
