  Pressure (Pa) 2mC6-400 (mol/kg) 3mC6-400 (mol/kg) 33mC5-400 (mol/kg) 23mC5-400 (mol/kg) C7-400 (mol/kg)
    0.1000000000E+01    0.1590767215E-02    0.5269777870E-03    0.5828794324E-03    0.4664337420E-03    0.5130783439E-02
    0.3000000000E+01    0.4675501152E-02    0.1547273826E-02    0.1713424916E-02    0.1391502327E-02    0.1506612723E-01
    0.5000000000E+01    0.7637901558E-02    0.2525109081E-02    0.2799474554E-02    0.2306359006E-02    0.2458991403E-01
    0.7000000000E+01    0.1048545016E-01    0.3463169817E-02    0.3843755882E-02    0.3211221923E-02    0.3372814299E-01
    0.9000000000E+01    0.1322500894E-01    0.4363918575E-02    0.4848769975E-02    0.4106302807E-02    0.4250464954E-01
    0.1100000000E+02    0.1586288386E-01    0.5229617046E-02    0.5816814751E-02    0.4991807213E-02    0.5094132649E-01
    0.1300000000E+02    0.1840488077E-01    0.6062346186E-02    0.6750005455E-02    0.5867934744E-02    0.5905831849E-01
    0.1500000000E+02    0.2085635475E-01    0.6864023961E-02    0.7650292697E-02    0.6734879273E-02    0.6687419364E-01
    0.1700000000E+02    0.2322225369E-01    0.7636421042E-02    0.8519478396E-02    0.7592829145E-02    0.7440609517E-01
    0.1900000000E+02    0.2550715685E-01    0.8381174721E-02    0.9359229896E-02    0.8441967375E-02    0.8166987600E-01
    0.2100000000E+02    0.2771530916E-01    0.9099801267E-02    0.1017109249E-01    0.9282471844E-02    0.8868021825E-01
    0.2300000000E+02    0.2985065167E-01    0.9793706946E-02    0.1095650059E-01    0.1011451547E-01    0.9545073975E-01
    0.2500000000E+02    0.3191684878E-01    0.1046419785E-01    0.1171678764E-01    0.1093826641E-01    0.1019940891E+00
    0.2700000000E+02    0.3391731255E-01    0.1111248868E-01    0.1245319503E-01    0.1175388816E-01    0.1083220306E+00
    0.2900000000E+02    0.3585522443E-01    0.1173971064E-01    0.1316688005E-01    0.1256153981E-01    0.1144455207E+00
    0.3100000000E+02    0.3773355486E-01    0.1234691852E-01    0.1385892301E-01    0.1336137612E-01    0.1203747763E+00
    0.3300000000E+02    0.3955508082E-01    0.1293509704E-01    0.1453033370E-01    0.1415354768E-01    0.1261193362E+00
    0.3500000000E+02    0.4132240165E-01    0.1350516663E-01    0.1518205714E-01    0.1493820111E-01    0.1316881171E+00
    0.3700000000E+02    0.4303795336E-01    0.1405798859E-01    0.1581497883E-01    0.1571547909E-01    0.1370894632E+00
    0.3900000000E+02    0.4470402154E-01    0.1459436979E-01    0.1642992943E-01    0.1648552060E-01    0.1423311921E+00
    0.4100000000E+02    0.4632275308E-01    0.1511506690E-01    0.1702768909E-01    0.1724846096E-01    0.1474206356E+00
    0.4300000000E+02    0.4789616677E-01    0.1562079028E-01    0.1760899127E-01    0.1800443199E-01    0.1523646770E+00
    0.4500000000E+02    0.4942616292E-01    0.1611220749E-01    0.1817452629E-01    0.1875356213E-01    0.1571697852E+00
    0.4700000000E+02    0.5091453222E-01    0.1658994643E-01    0.1872494454E-01    0.1949597652E-01    0.1618420456E+00
    0.4900000000E+02    0.5236296365E-01    0.1705459833E-01    0.1926085938E-01    0.2023179713E-01    0.1663871879E+00
    0.1000000000E+02    0.1455628291E-01    0.4801015020E-02    0.5337277266E-02    0.4550239457E-02    0.4676416881E-01
    0.3000000000E+02    0.3680165942E-01    0.1204575322E-01    0.1351554209E-01    0.1296242537E-01    0.1174338164E+00
    0.5000000000E+02    0.5307270448E-01    0.1728219200E-01    0.1952356025E-01    0.2059727204E-01    0.1686137896E+00
    0.7000000000E+02    0.6551461184E-01    0.2126661763E-01    0.2414095675E-01    0.2758803571E-01    0.2076317264E+00
    0.9000000000E+02    0.7532963644E-01    0.2441512226E-01    0.2780401949E-01    0.3403805860E-01    0.2385217723E+00
    0.1100000000E+03    0.8325117733E-01    0.2697605545E-01    0.3077860693E-01    0.4002881725E-01    0.2636933014E+00
    0.1300000000E+03    0.8975597340E-01    0.2910711252E-01    0.3323741844E-01    0.4562549082E-01    0.2846771697E+00
    0.1500000000E+03    0.9516952188E-01    0.3091342339E-01    0.3529832499E-01    0.5088090008E-01    0.3024945836E+00
    0.1700000000E+03    0.9972286920E-01    0.3246788790E-01    0.3704499064E-01    0.5583834905E-01    0.3178541127E+00
    0.1900000000E+03    0.1035852517E+00    0.3382272537E-01    0.3853871056E-01    0.6053371147E-01    0.3312636286E+00
    0.2100000000E+03    0.1068838744E+00    0.3501637523E-01    0.3982557681E-01    0.6499698711E-01    0.3430972103E+00
    0.2300000000E+03    0.1097164340E+00    0.3607779779E-01    0.4094101149E-01    0.6925347946E-01    0.3536368603E+00
    0.2500000000E+03    0.1121593460E+00    0.3702925267E-01    0.4191274252E-01    0.7332469841E-01    0.3630994624E+00
    0.2700000000E+03    0.1142733216E+00    0.3788814972E-01    0.4276282007E-01    0.7722906055E-01    0.3716547481E+00
    0.2900000000E+03    0.1161072524E+00    0.3866831551E-01    0.4350902022E-01    0.8098243825E-01    0.3794375951E+00
    0.3100000000E+03    0.1177009803E+00    0.3938088060E-01    0.4416584563E-01    0.8459859463E-01    0.3865566451E+00
    0.3300000000E+03    0.1190873126E+00    0.4003491402E-01    0.4474525357E-01    0.8808953118E-01    0.3931004691E+00
    0.3500000000E+03    0.1202935161E+00    0.4063788550E-01    0.4525719535E-01    0.9146576810E-01    0.3991420616E+00
    0.3700000000E+03    0.1213424411E+00    0.4119600787E-01    0.4571002255E-01    0.9473657205E-01    0.4047421691E+00
    0.3900000000E+03    0.1222533806E+00    0.4171449448E-01    0.4611079721E-01    0.9791014263E-01    0.4099517949E+00
    0.4100000000E+03    0.1230427343E+00    0.4219775535E-01    0.4646553195E-01    0.1009937661E+00    0.4148141074E+00
    0.4300000000E+03    0.1237245289E+00    0.4264954854E-01    0.4677937783E-01    0.1039939428E+00    0.4193659138E+00
    0.4500000000E+03    0.1243108288E+00    0.4307309819E-01    0.4705677301E-01    0.1069164939E+00    0.4236388098E+00
    0.4700000000E+03    0.1248120647E+00    0.4347118770E-01    0.4730156145E-01    0.1097666501E+00    0.4276600868E+00
    0.4900000000E+03    0.1252372975E+00    0.4384623375E-01    0.4751708857E-01    0.1125491278E+00    0.4314534538E+00
    0.1000000000E+03    0.7949284209E-01    0.2575762010E-01    0.2936496347E-01    0.3708644285E-01    0.2517115583E+00
    0.3000000000E+03    0.1169319460E+00    0.3903243912E-01    0.4384780486E-01    0.8280688130E-01    0.3830741480E+00
    0.5000000000E+03    0.1254239235E+00    0.4402578532E-01    0.4761480768E-01    0.1139163361E+00    0.4332712457E+00
    0.7000000000E+03    0.1266373605E+00    0.4680134033E-01    0.4857930930E-01    0.1385554661E+00    0.4615362591E+00
    0.9000000000E+03    0.1252236561E+00    0.4861901052E-01    0.4847394198E-01    0.1595126027E+00    0.4802563418E+00
    0.1100000000E+04    0.1227222606E+00    0.4992308653E-01    0.4788733686E-01    0.1780526365E+00    0.4938237819E+00
    0.1300000000E+04    0.1197586827E+00    0.5091486346E-01    0.4706674145E-01    0.1948524649E+00    0.5042385232E+00
    0.1500000000E+04    0.1166194972E+00    0.5170034768E-01    0.4613033549E-01    0.2103164774E+00    0.5125586348E+00
    0.1700000000E+04    0.1134460411E+00    0.5234131241E-01    0.4513970023E-01    0.2247061551E+00    0.5194033473E+00
    0.1900000000E+04    0.1103109671E+00    0.5287648406E-01    0.4412890156E-01    0.2382010237E+00    0.5251624463E+00
    0.2100000000E+04    0.1072520765E+00    0.5333152237E-01    0.4311757187E-01    0.2509303100E+00    0.5300952005E+00
    0.2300000000E+04    0.1042885609E+00    0.5372418377E-01    0.4211731858E-01    0.2629906817E+00    0.5343816879E+00
    0.2500000000E+04    0.1014293067E+00    0.5406719347E-01    0.4113507907E-01    0.2744568053E+00    0.5381514207E+00
    0.2700000000E+04    0.9867735768E-01    0.5436993784E-01    0.4017497308E-01    0.2853879420E+00    0.5415002575E+00
    0.2900000000E+04    0.9603240758E-01    0.5463950988E-01    0.3923937083E-01    0.2958322391E+00    0.5445008763E+00
    0.3100000000E+04    0.9349223554E-01    0.5488138101E-01    0.3832953163E-01    0.3058296166E+00    0.5472095192E+00
    0.3300000000E+04    0.9105355224E-01    0.5509984715E-01    0.3744599734E-01    0.3154137661E+00    0.5496704840E+00
    0.3500000000E+04    0.8871250714E-01    0.5529833377E-01    0.3658884128E-01    0.3246135691E+00    0.5519191997E+00
    0.3700000000E+04    0.8646499559E-01    0.5547960948E-01    0.3575782897E-01    0.3334541256E+00    0.5539843870E+00
    0.3900000000E+04    0.8430684537E-01    0.5564593902E-01    0.3495252400E-01    0.3419575142E+00    0.5558896077E+00
    0.4100000000E+04    0.8223392922E-01    0.5579919487E-01    0.3417235893E-01    0.3501433628E+00    0.5576543982E+00
    0.4300000000E+04    0.8024223147E-01    0.5594094017E-01    0.3341668318E-01    0.3580292845E+00    0.5592951129E+00
    0.4500000000E+04    0.7832788584E-01    0.5607249118E-01    0.3268479599E-01    0.3656312139E+00    0.5608255606E+00
    0.4700000000E+04    0.7648719513E-01    0.5619496501E-01    0.3197596911E-01    0.3729636714E+00    0.5622574925E+00
    0.4900000000E+04    0.7471663948E-01    0.5630931657E-01    0.3128946256E-01    0.3800399721E+00    0.5636009804E+00
    0.1000000000E+04    0.1240581636E+00    0.4931946896E-01    0.4822093296E-01    0.1690337590E+00    0.4875275792E+00
    0.3000000000E+04    0.9474941202E-01    0.5476361613E-01    0.3878118362E-01    0.3008845600E+00    0.5458886876E+00
    0.5000000000E+04    0.7385661121E-01    0.5636370781E-01    0.3095434774E-01    0.3834859366E+00    0.5642423202E+00
    0.7000000000E+04    0.5961722413E-01    0.5717519835E-01    0.2525024883E-01    0.4415164742E+00    0.5740204078E+00
    0.9000000000E+04    0.4954826619E-01    0.5767582509E-01    0.2103959587E-01    0.4838512332E+00    0.5803088587E+00
    0.1100000000E+05    0.4219177275E-01    0.5801870830E-01    0.1786928921E-01    0.5155530969E+00    0.5847791254E+00
    0.1300000000E+05    0.3666193216E-01    0.5826946793E-01    0.1543348653E-01    0.5398326659E+00    0.5881628000E+00
    0.1500000000E+05    0.3239997950E-01    0.5846131898E-01    0.1352557803E-01    0.5588073415E+00    0.5908370931E+00
    0.1700000000E+05    0.2904208891E-01    0.5861302289E-01    0.1200428694E-01    0.5739086840E+00    0.5930186115E+00
    0.1900000000E+05    0.2634461943E-01    0.5873603966E-01    0.1077144394E-01    0.5861254532E+00    0.5948416605E+00
    0.2100000000E+05    0.2414020811E-01    0.5883779381E-01    0.9757630622E-02    0.5961543895E+00    0.5963944629E+00
    0.2300000000E+05    0.2231118850E-01    0.5892332169E-01    0.8912887307E-02    0.6044958642E+00    0.5977376426E+00
    0.2500000000E+05    0.2077306168E-01    0.5899616822E-01    0.8200640070E-02    0.6115156949E+00    0.5989143973E+00
    0.2700000000E+05    0.1946396242E-01    0.5905890553E-01    0.7593677908E-02    0.6174858190E+00    0.5999564390E+00
    0.2900000000E+05    0.1833779082E-01    0.5911344791E-01    0.7071447041E-02    0.6226115323E+00    0.6008876368E+00
    0.3100000000E+05    0.1735963764E-01    0.5916125115E-01    0.6618202157E-02    0.6270500479E+00    0.6017263418E+00
    0.3300000000E+05    0.1650267644E-01    0.5920344315E-01    0.6221723213E-02    0.6309233527E+00    0.6024869235E+00
    0.3500000000E+05    0.1574601317E-01    0.5924091195E-01    0.5872411122E-02    0.6343272557E+00    0.6031808136E+00
    0.3700000000E+05    0.1507317252E-01    0.5927436677E-01    0.5562641123E-02    0.6373378523E+00    0.6038172346E+00
    0.3900000000E+05    0.1447101562E-01    0.5930438114E-01    0.5286293968E-02    0.6400162078E+00    0.6044037193E+00
    0.4100000000E+05    0.1392895467E-01    0.5933142409E-01    0.5038411594E-02    0.6424117957E+00    0.6049464886E+00
    0.4300000000E+05    0.1343837525E-01    0.5935588305E-01    0.4814941106E-02    0.6445650542E+00    0.6054507309E+00
    0.4500000000E+05    0.1299220603E-01    0.5937808096E-01    0.4612542227E-02    0.6465093073E+00    0.6059208121E+00
    0.4700000000E+05    0.1258459436E-01    0.5939828920E-01    0.4428440912E-02    0.6482722268E+00    0.6063604360E+00
    0.4900000000E+05    0.1221065910E-01    0.5941673758E-01    0.4260316932E-02    0.6498769537E+00    0.6067727678E+00
    0.1000000000E+05    0.4559611218E-01    0.5786177826E-01    0.1934633548E-01    0.5007985813E+00    0.5827135258E+00
    0.3000000000E+05    0.1783204908E-01    0.5913811494E-01    0.6837035630E-02    0.6249083611E+00    0.6013175736E+00
    0.5000000000E+05    0.1203501267E-01    0.5942536419E-01    0.4181623602E-02    0.6506262058E+00    0.6069695653E+00
    0.7000000000E+05    0.9571848037E-02    0.5954070594E-01    0.3103410657E-02    0.6607262420E+00    0.6099703348E+00
    0.9000000000E+05    0.8177431691E-02    0.5959561314E-01    0.2523321664E-02    0.6659575557E+00    0.6119063221E+00
    0.1100000000E+06    0.7260829913E-02    0.5962286497E-01    0.2159370284E-02    0.6691135221E+00    0.6132899190E+00
    0.1300000000E+06    0.6601705208E-02    0.5963552321E-01    0.1908082592E-02    0.6712097497E+00    0.6143435347E+00
    0.1500000000E+06    0.6098822236E-02    0.5963976922E-01    0.1722967955E-02    0.6726971721E+00    0.6151813853E+00
    0.1700000000E+06    0.5698822149E-02    0.5963887484E-01    0.1580114191E-02    0.6738045803E+00    0.6158689589E+00
    0.1900000000E+06    0.5370714382E-02    0.5963471380E-01    0.1465971258E-02    0.6746597106E+00    0.6164468635E+00
    0.2100000000E+06    0.5095153982E-02    0.5962842357E-01    0.1372280884E-02    0.6753392090E+00    0.6169418023E+00
    0.2300000000E+06    0.4859375219E-02    0.5962072606E-01    0.1293716196E-02    0.6758917272E+00    0.6173721559E+00
    0.2500000000E+06    0.4654574263E-02    0.5961209565E-01    0.1226681592E-02    0.6763495745E+00    0.6177510493E+00
    0.2700000000E+06    0.4474458410E-02    0.5960285275E-01    0.1168658256E-02    0.6767350173E+00    0.6180881401E+00
    0.2900000000E+06    0.4314394739E-02    0.5959321850E-01    0.1117826295E-02    0.6770638832E+00    0.6183907158E+00
    0.3100000000E+06    0.4170886468E-02    0.5958334820E-01    0.1072836016E-02    0.6773477221E+00    0.6186643935E+00
    0.3300000000E+06    0.4041237877E-02    0.5957335232E-01    0.1032663828E-02    0.6775951545E+00    0.6189135830E+00
    0.3500000000E+06    0.3923332561E-02    0.5956331024E-01    0.9965183100E-03    0.6778127411E+00    0.6191418016E+00
    0.3700000000E+06    0.3815482372E-02    0.5955327931E-01    0.9637771456E-03    0.6780055619E+00    0.6193518942E+00
    0.3900000000E+06    0.3716321887E-02    0.5954330110E-01    0.9339436744E-03    0.6781776096E+00    0.6195461902E+00
    0.4100000000E+06    0.3624733028E-02    0.5953340570E-01    0.9066162711E-03    0.6783320652E+00    0.6197266180E+00
    0.4300000000E+06    0.3539790165E-02    0.5952361476E-01    0.8814663261E-03    0.6784714938E+00    0.6198947901E+00
    0.4500000000E+06    0.3460719418E-02    0.5951394367E-01    0.8582221232E-03    0.6785979860E+00    0.6200520663E+00
    0.4700000000E+06    0.3386868028E-02    0.5950440316E-01    0.8366568439E-03    0.6787132629E+00    0.6201996030E+00
    0.4900000000E+06    0.3317680962E-02    0.5949500042E-01    0.8165795092E-03    0.6788187537E+00    0.6203383905E+00
    0.1000000000E+06    0.7677403431E-02    0.5961164045E-01    0.2322827037E-02    0.6677113124E+00    0.6126495906E+00
    0.3000000000E+06    0.4240755412E-02    0.5958830509E-01    0.1094671275E-02    0.6772108356E+00    0.6185308672E+00
    0.5000000000E+06    0.3284685288E-02    0.5949035223E-01    0.8070472008E-03    0.6788682111E+00    0.6204047749E+00
    0.7000000000E+06    0.2783339638E-02    0.5940491137E-01    0.6655378982E-03    0.6795526748E+00    0.6214297914E+00
    0.9000000000E+06    0.2461358822E-02    0.5933223967E-01    0.5778579483E-03    0.6799271861E+00    0.6221060241E+00
    0.1100000000E+07    0.2231895160E-02    0.5926950636E-01    0.5168510708E-03    0.6801639339E+00    0.6225981541E+00
    0.1300000000E+07    0.2057566975E-02    0.5921443602E-01    0.4713117155E-03    0.6803274407E+00    0.6229787351E+00
    0.1500000000E+07    0.1919246686E-02    0.5916538905E-01    0.4356718233E-03    0.6804473379E+00    0.6232854867E+00
    0.1700000000E+07    0.1805985906E-02    0.5912118174E-01    0.4068134673E-03    0.6805391474E+00    0.6235402654E+00
    0.1900000000E+07    0.1711001629E-02    0.5908094142E-01    0.3828380022E-03    0.6806117908E+00    0.6237567508E+00
    0.2100000000E+07    0.1629835608E-02    0.5904400955E-01    0.3625149402E-03    0.6806707631E+00    0.6239440140E+00
    0.2300000000E+07    0.1559419921E-02    0.5900987817E-01    0.3450074388E-03    0.6807196356E+00    0.6241083464E+00
    0.2500000000E+07    0.1497564393E-02    0.5897814775E-01    0.3297240629E-03    0.6807608307E+00    0.6242542723E+00
    0.2700000000E+07    0.1442657703E-02    0.5894849859E-01    0.3162334838E-03    0.6807960506E+00    0.6243851425E+00
    0.2900000000E+07    0.1393484256E-02    0.5892067097E-01    0.3042128031E-03    0.6808265265E+00    0.6245035007E+00
    0.3100000000E+07    0.1349107270E-02    0.5889445108E-01    0.2934148891E-03    0.6808531717E+00    0.6246113189E+00
    0.3300000000E+07    0.1308791514E-02    0.5886966079E-01    0.2836469783E-03    0.6808766777E+00    0.6247101537E+00
    0.3500000000E+07    0.1271950718E-02    0.5884615015E-01    0.2747562239E-03    0.6808975783E+00    0.6248012529E+00
    0.3700000000E+07    0.1238110851E-02    0.5882379174E-01    0.2666196738E-03    0.6809162919E+00    0.6248856307E+00
    0.3900000000E+07    0.1206883893E-02    0.5880247635E-01    0.2591371604E-03    0.6809331515E+00    0.6249641215E+00
    0.4100000000E+07    0.1177948738E-02    0.5878210970E-01    0.2522261515E-03    0.6809484251E+00    0.6250374191E+00
    0.4300000000E+07    0.1151037038E-02    0.5876260978E-01    0.2458179547E-03    0.6809623312E+00    0.6251061060E+00
    0.4500000000E+07    0.1125922545E-02    0.5874390485E-01    0.2398548744E-03    0.6809750496E+00    0.6251706756E+00
    0.4700000000E+07    0.1102412976E-02    0.5872593176E-01    0.2342880497E-03    0.6809867296E+00    0.6252315490E+00
    0.4900000000E+07    0.1080343716E-02    0.5870863465E-01    0.2290757913E-03    0.6809974964E+00    0.6252890884E+00
    0.1000000000E+07    0.2338020754E-02    0.5929978982E-01    0.5449151686E-03    0.6800575123E+00    0.6223693881E+00
    0.3000000000E+07    0.1370746171E-02    0.5890737193E-01    0.2986741265E-03    0.6808402804E+00    0.6245586217E+00
    0.5000000000E+07    0.1069804093E-02    0.5870022385E-01    0.2265912322E-03    0.6810025711E+00    0.6253167074E+00
    0.7000000000E+07    0.9086289934E-03    0.5855789296E-01    0.1889856347E-03    0.6810748233E+00    0.6257519131E+00
    0.9000000000E+07    0.8042795101E-03    0.5844911394E-01    0.1650520055E-03    0.6811163461E+00    0.6260493937E+00
    0.1100000000E+08    0.7296189050E-03    0.5836095336E-01    0.1481451690E-03    0.6811435841E+00    0.6262720954E+00
    0.1300000000E+08    0.6727718283E-03    0.5828678033E-01    0.1354028960E-03    0.6811629685E+00    0.6264484318E+00
    0.1500000000E+08    0.6276057164E-03    0.5822273261E-01    0.1253646449E-03    0.6811775484E+00    0.6265934733E+00
    0.1700000000E+08    0.5905902383E-03    0.5816635966E-01    0.1171976667E-03    0.6811889627E+00    0.6267161039E+00
    0.1900000000E+08    0.5595298294E-03    0.5811600772E-01    0.1103882173E-03    0.6811981738E+00    0.6268219686E+00
    0.2100000000E+08    0.5329775422E-03    0.5807050738E-01    0.1046000644E-03    0.6812057857E+00    0.6269148617E+00
    0.2300000000E+08    0.5099357178E-03    0.5802900085E-01    0.9960278848E-04    0.6812121974E+00    0.6269974476E+00
    0.2500000000E+08    0.4896910871E-03    0.5799084004E-01    0.9523254727E-04    0.6812176836E+00    0.6270716639E+00
    0.2700000000E+08    0.4717183051E-03    0.5795552326E-01    0.9136925797E-04    0.6812224399E+00    0.6271389608E+00
