  Pressure (Pa) 2mC6-400 (mol/kg) 3mC6-400 (mol/kg) 33mC5-400 (mol/kg) 23mC5-400 (mol/kg) C7-400 (mol/kg)
    0.1000000000E+01    0.1576445325E-02    0.3645937503E-02    0.2567588602E-03    0.9336753387E-04    0.1014279392E-01
    0.3000000000E+01    0.4555819458E-02    0.1046932721E-01    0.7423269898E-03    0.2790187891E-03    0.2913122622E-01
    0.5000000000E+01    0.7328473706E-02    0.1673301584E-01    0.1194618707E-02    0.4632433134E-03    0.4656967465E-01
    0.7000000000E+01    0.9919705509E-02    0.2250401301E-01    0.1617728604E-02    0.6460627211E-03    0.6264342387E-01
    0.9000000000E+01    0.1235079959E-01    0.2783900771E-01    0.2015099485E-02    0.8274981710E-03    0.7750924342E-01
    0.1100000000E+02    0.1463978750E-01    0.3278628335E-01    0.2389645970E-02    0.1007570378E-02    0.9130067634E-01
    0.1300000000E+02    0.1680204188E-01    0.3738722154E-01    0.2743851188E-02    0.1186299626E-02    0.1041321925E+00
    0.1500000000E+02    0.1885074590E-01    0.4167749412E-01    0.3079843116E-02    0.1363705779E-02    0.1161024812E+00
    0.1700000000E+02    0.2079726713E-01    0.4568801634E-01    0.3399455377E-02    0.1539808290E-02    0.1272970837E+00
    0.1900000000E+02    0.2265145785E-01    0.4944571512E-01    0.3704276050E-02    0.1714626216E-02    0.1377905165E+00
    0.2100000000E+02    0.2442189810E-01    0.5297415307E-01    0.3995687153E-02    0.1888178223E-02    0.1476479945E+00
    0.2300000000E+02    0.2611609357E-01    0.5629403884E-01    0.4274896798E-02    0.2060482602E-02    0.1569268415E+00
    0.2500000000E+02    0.2774063806E-01    0.5942364719E-01    0.4542965552E-02    0.2231557273E-02    0.1656776512E+00
    0.2700000000E+02    0.2930134739E-01    0.6237916704E-01    0.4800828184E-02    0.2401419798E-02    0.1739452486E+00
    0.2900000000E+02    0.3080337061E-01    0.6517499133E-01    0.5049311707E-02    0.2570087389E-02    0.1817694915E+00
    0.3100000000E+02    0.3225128280E-01    0.6782395986E-01    0.5289150415E-02    0.2737576917E-02    0.1891859413E+00
    0.3300000000E+02    0.3364916283E-01    0.7033756376E-01    0.5520998505E-02    0.2903904921E-02    0.1962264287E+00
    0.3500000000E+02    0.3500065899E-01    0.7272611837E-01    0.5745440696E-02    0.3069087616E-02    0.2029195311E+00
    0.3700000000E+02    0.3630904442E-01    0.7499891029E-01    0.5963001221E-02    0.3233140899E-02    0.2092909797E+00
    0.3900000000E+02    0.3757726435E-01    0.7716432276E-01    0.6174151468E-02    0.3396080362E-02    0.2153640057E+00
    0.4100000000E+02    0.3880797637E-01    0.7922994320E-01    0.6379316497E-02    0.3557921292E-02    0.2211596377E+00
    0.4300000000E+02    0.4000358496E-01    0.8120265571E-01    0.6578880627E-02    0.3718678687E-02    0.2266969579E+00
    0.4500000000E+02    0.4116627118E-01    0.8308872093E-01    0.6773192235E-02    0.3878367256E-02    0.2319933226E+00
    0.4700000000E+02    0.4229801829E-01    0.8489384526E-01    0.6962567902E-02    0.4037001430E-02    0.2370645536E+00
    0.4900000000E+02    0.4340063400E-01    0.8662324105E-01    0.7147295998E-02    0.4194595367E-02    0.2419251051E+00
    0.1000000000E+02    0.1351203974E-01    0.3035837759E-01    0.2205061449E-02    0.9177034022E-03    0.8453169905E-01
    0.3000000000E+02    0.3153382484E-01    0.6651708492E-01    0.5170269031E-02    0.2653978369E-02    0.1855266196E+00
    0.5000000000E+02    0.4394153927E-01    0.8746104757E-01    0.7238000382E-02    0.4273006599E-02    0.2442805549E+00
    0.7000000000E+02    0.5356428706E-01    0.1012090774E+00    0.8861279996E-02    0.5789873109E-02    0.2830133272E+00
    0.9000000000E+02    0.6151037287E-01    0.1109702214E+00    0.1021642164E-01    0.7217067783E-02    0.3106298563E+00
    0.1100000000E+03    0.6831408496E-01    0.1182841621E+00    0.1138802955E-01    0.8565029713E-02    0.3314086910E+00
    0.1300000000E+03    0.7427320539E-01    0.1239838426E+00    0.1242314938E-01    0.9842558899E-02    0.3476676867E+00
    0.1500000000E+03    0.7957248335E-01    0.1285602416E+00    0.1335096858E-01    0.1105713174E-01    0.3607750011E+00
    0.1700000000E+03    0.8433620420E-01    0.1323220700E+00    0.1419115874E-01    0.1221514566E-01    0.3715920756E+00
    0.1900000000E+03    0.8865328775E-01    0.1354734729E+00    0.1495783877E-01    0.1332211095E-01    0.3806893527E+00
    0.2100000000E+03    0.9259041503E-01    0.1381550276E+00    0.1566163890E-01    0.1438280260E-01    0.3884601878E+00
    0.2300000000E+03    0.9619942965E-01    0.1404668110E+00    0.1631086053E-01    0.1540138172E-01    0.3951849950E+00
    0.2500000000E+03    0.9952178334E-01    0.1424820770E+00    0.1691217127E-01    0.1638149335E-01    0.4010693109E+00
    0.2700000000E+03    0.1025913541E+00    0.1442557254E+00    0.1747104499E-01    0.1732634597E-01    0.4062673851E+00
    0.2900000000E+03    0.1054363168E+00    0.1458297441E+00    0.1799205384E-01    0.1823877660E-01    0.4108973481E+00
    0.3100000000E+03    0.1080804354E+00    0.1472368160E+00    0.1847907016E-01    0.1912130436E-01    0.4150512765E+00
    0.3300000000E+03    0.1105439857E+00    0.1485027770E+00    0.1893541085E-01    0.1997617500E-01    0.4188020553E+00
    0.3500000000E+03    0.1128444343E+00    0.1496483314E+00    0.1936394382E-01    0.2080539799E-01    0.4222081705E+00
    0.3700000000E+03    0.1149969503E+00    0.1506902737E+00    0.1976716849E-01    0.2161077769E-01    0.4253171276E+00
    0.3900000000E+03    0.1170147998E+00    0.1516423763E+00    0.2014727788E-01    0.2239393960E-01    0.4281679348E+00
    0.4100000000E+03    0.1189096544E+00    0.1525160442E+00    0.2050620750E-01    0.2315635267E-01    0.4307929386E+00
    0.4300000000E+03    0.1206918381E+00    0.1533208069E+00    0.2084567445E-01    0.2389934826E-01    0.4332192009E+00
    0.4500000000E+03    0.1223705257E+00    0.1540646910E+00    0.2116720902E-01    0.2462413641E-01    0.4354695455E+00
    0.4700000000E+03    0.1239539053E+00    0.1547545072E+00    0.2147218063E-01    0.2533181975E-01    0.4375633652E+00
    0.4900000000E+03    0.1254493128E+00    0.1553960745E+00    0.2176181935E-01    0.2602340562E-01    0.4395172486E+00
    0.1000000000E+03    0.6503283894E-01    0.1148702346E+00    0.1082166111E-01    0.7900368520E-02    0.3216991417E+00
    0.3000000000E+03    0.1067821416E+00    0.1465523962E+00    0.1823959214E-01    0.1868363204E-01    0.4130288758E+00
    0.5000000000E+03    0.1261661143E+00    0.1557003558E+00    0.2190123963E-01    0.2636345332E-01    0.4404462554E+00
    0.7000000000E+03    0.1371800709E+00    0.1601641625E+00    0.2410362393E-01    0.3250684742E-01    0.4542872644E+00
    0.9000000000E+03    0.1440491590E+00    0.1628352181E+00    0.2556258733E-01    0.3773911364E-01    0.4628345200E+00
    0.1100000000E+04    0.1485749228E+00    0.1646215472E+00    0.2658992547E-01    0.4236818736E-01    0.4687241002E+00
    0.1300000000E+04    0.1516574972E+00    0.1659034177E+00    0.2734432796E-01    0.4656725374E-01    0.4730735828E+00
    0.1500000000E+04    0.1537953454E+00    0.1668692615E+00    0.2791522176E-01    0.5044309593E-01    0.4764431944E+00
    0.1700000000E+04    0.1552857398E+00    0.1676235103E+00    0.2835686232E-01    0.5406615496E-01    0.4791468679E+00
    0.1900000000E+04    0.1563162683E+00    0.1682288821E+00    0.2870407786E-01    0.5748536277E-01    0.4813751576E+00
    0.2100000000E+04    0.1570107058E+00    0.1687253984E+00    0.2898024836E-01    0.6073612488E-01    0.4832509192E+00
    0.2300000000E+04    0.1574537318E+00    0.1691398393E+00    0.2920165032E-01    0.6384491795E-01    0.4848571901E+00
    0.2500000000E+04    0.1577050408E+00    0.1694908235E+00    0.2937996261E-01    0.6683208672E-01    0.4862522688E+00
    0.2700000000E+04    0.1578077885E+00    0.1697917090E+00    0.2952378157E-01    0.6971362369E-01    0.4874783855E+00
    0.2900000000E+04    0.1577938516E+00    0.1700523361E+00    0.2963957430E-01    0.7250234508E-01    0.4885669425E+00
    0.3100000000E+04    0.1576872163E+00    0.1702801177E+00    0.2973229878E-01    0.7520869318E-01    0.4895418163E+00
    0.3300000000E+04    0.1575062246E+00    0.1704807473E+00    0.2980581937E-01    0.7784129912E-01    0.4904215124E+00
    0.3500000000E+04    0.1572651025E+00    0.1706586720E+00    0.2986319220E-01    0.8040738711E-01    0.4912206146E+00
    0.3700000000E+04    0.1569750223E+00    0.1708174165E+00    0.2990686568E-01    0.8291307103E-01    0.4919507856E+00
    0.3900000000E+04    0.1566448561E+00    0.1709598118E+00    0.2993882418E-01    0.8536357614E-01    0.4926214738E+00
    0.4100000000E+04    0.1562817196E+00    0.1710881577E+00    0.2996069281E-01    0.8776340751E-01    0.4932404221E+00
    0.4300000000E+04    0.1558913707E+00    0.1712043429E+00    0.2997381503E-01    0.9011647998E-01    0.4938140425E+00
    0.4500000000E+04    0.1554785062E+00    0.1713099322E+00    0.2997931102E-01    0.9242621970E-01    0.4943476941E+00
    0.4700000000E+04    0.1550469851E+00    0.1714062342E+00    0.2997812212E-01    0.9469564447E-01    0.4948458945E+00
    0.4900000000E+04    0.1545999987E+00    0.1714943510E+00    0.2997104503E-01    0.9692742803E-01    0.4953124810E+00
    0.1000000000E+04    0.1465356765E+00    0.1638086212E+00    0.2611805795E-01    0.4011614752E-01    0.4660225997E+00
    0.3000000000E+04    0.1577508633E+00    0.1701699428E+00    0.2968855676E-01    0.7386523926E-01    0.4890673270E+00
    0.5000000000E+04    0.1543715537E+00    0.1715356379E+00    0.2996551453E-01    0.9802995881E-01    0.4955349639E+00
    0.7000000000E+04    0.1494454169E+00    0.1720984342E+00    0.2966751341E-01    0.1185674777E+00    0.4989191608E+00
    0.9000000000E+04    0.1443807691E+00    0.1723862091E+00    0.2917923996E-01    0.1369962449E+00    0.5011109428E+00
    0.1100000000E+05    0.1394664636E+00    0.1725490217E+00    0.2861230535E-01    0.1539693294E+00    0.5026955359E+00
    0.1300000000E+05    0.1347677173E+00    0.1726455975E+00    0.2801061376E-01    0.1698365134E+00    0.5039204332E+00
    0.1500000000E+05    0.1302911230E+00    0.1727034717E+00    0.2739475837E-01    0.1848102284E+00    0.5049105621E+00
    0.1700000000E+05    0.1260265763E+00    0.1727371705E+00    0.2677558341E-01    0.1990306672E+00    0.5057367239E+00
    0.1900000000E+05    0.1219598444E+00    0.1727550239E+00    0.2615928319E-01    0.2125960830E+00    0.5064424845E+00
    0.2100000000E+05    0.1180766001E+00    0.1727621148E+00    0.2554960988E-01    0.2255786109E+00    0.5070563560E+00
    0.2300000000E+05    0.1143636648E+00    0.1727616974E+00    0.2494893360E-01    0.2380332468E+00    0.5075979180E+00
    0.2500000000E+05    0.1108092828E+00    0.1727559360E+00    0.2435879342E-01    0.2500032742E+00    0.5080811462E+00
    0.2700000000E+05    0.1074030620E+00    0.1727463156E+00    0.2378020271E-01    0.2615237096E+00    0.5085163380E+00
    0.2900000000E+05    0.1041358123E+00    0.1727338810E+00    0.2321382743E-01    0.2726235770E+00    0.5089112863E+00
    0.3100000000E+05    0.1009993686E+00    0.1727193831E+00    0.2266009508E-01    0.2833274573E+00    0.5092720236E+00
    0.3300000000E+05    0.9798642829E-01    0.1727033713E+00    0.2211926397E-01    0.2936565727E+00    0.5096033127E+00
    0.3500000000E+05    0.9509041207E-01    0.1726862537E+00    0.2159146879E-01    0.3036295605E+00    0.5099089784E+00
    0.3700000000E+05    0.9230534865E-01    0.1726683370E+00    0.2107675176E-01    0.3132630365E+00    0.5101921391E+00
    0.3900000000E+05    0.8962578014E-01    0.1726498544E+00    0.2057508437E-01    0.3225720111E+00    0.5104553712E+00
    0.4100000000E+05    0.8704668524E-01    0.1726309848E+00    0.2008638319E-01    0.3315702001E+00    0.5107008294E+00
    0.4300000000E+05    0.8456341691E-01    0.1726118661E+00    0.1961052154E-01    0.3402702603E+00    0.5109303345E+00
    0.4500000000E+05    0.8217165166E-01    0.1725926057E+00    0.1914733845E-01    0.3486839687E+00    0.5111454406E+00
    0.4700000000E+05    0.7986734836E-01    0.1725732871E+00    0.1869664555E-01    0.3568223610E+00    0.5113474854E+00
    0.4900000000E+05    0.7764671443E-01    0.1725539757E+00    0.1825823262E-01    0.3646958390E+00    0.5115376297E+00
    0.1000000000E+05    0.1418984822E+00    0.1724784750E+00    0.2890204751E-01    0.1456384972E+00    0.5019594700E+00
    0.3000000000E+05    0.1025517146E+00    0.1727268517E+00    0.2293536140E-01    0.2780236207E+00    0.5090956084E+00
    0.5000000000E+05    0.7656664936E-01    0.1725443391E+00    0.1804356061E-01    0.3685363333E+00    0.5116285612E+00
    0.7000000000E+05    0.5858529259E-01    0.1723597119E+00    0.1433345972E-01    0.4336045331E+00    0.5130137137E+00
    0.9000000000E+05    0.4586660634E-01    0.1721958061E+00    0.1155266130E-01    0.4810855666E+00    0.5138726752E+00
    0.1100000000E+06    0.3668802240E-01    0.1720515044E+00    0.9459564934E-02    0.5162767758E+00    0.5144423947E+00
    0.1300000000E+06    0.2992579670E-01    0.1719234200E+00    0.7865884100E-02    0.5428246934E+00    0.5148387451E+00
    0.1500000000E+06    0.2484068928E-01    0.1718085454E+00    0.6634750259E-02    0.5632232338E+00    0.5151253092E+00
    0.1700000000E+06    0.2094153150E-01    0.1717045127E+00    0.5669073137E-02    0.5791795161E+00    0.5153394138E+00
    0.1900000000E+06    0.1789728981E-01    0.1716094922E+00    0.4900247203E-02    0.5918721971E+00    0.5155040419E+00
    0.2100000000E+06    0.1548104484E-01    0.1715220621E+00    0.4279496513E-02    0.6021258986E+00    0.5156338891E+00
    0.2300000000E+06    0.1353442265E-01    0.1714411036E+00    0.3771760710E-02    0.6105265079E+00    0.5157386555E+00
    0.2500000000E+06    0.1194488501E-01    0.1713657244E+00    0.3351505773E-02    0.6174970464E+00    0.5158249231E+00
    0.2700000000E+06    0.1063106473E-01    0.1712952024E+00    0.2999877103E-02    0.6233478475E+00    0.5158972684E+00
    0.2900000000E+06    0.9533158195E-02    0.1712289462E+00    0.2702759732E-02    0.6283100864E+00    0.5159589436E+00
    0.3100000000E+06    0.8606530367E-02    0.1711664659E+00    0.2449445818E-02    0.6325584818E+00    0.5160123055E+00
    0.3300000000E+06    0.7817388467E-02    0.1711073508E+00    0.2231709256E-02    0.6362268842E+00    0.5160590925E+00
    0.3500000000E+06    0.7139807690E-02    0.1710512540E+00    0.2043155183E-02    0.6394191374E+00    0.5161006078E+00
    0.3700000000E+06    0.6553654532E-02    0.1709978794E+00    0.1878756910E-02    0.6422167542E+00    0.5161378425E+00
    0.3900000000E+06    0.6043115213E-02    0.1709469726E+00    0.1734522152E-02    0.6446844177E+00    0.5161715607E+00
    0.4100000000E+06    0.5595638203E-02    0.1708983131E+00    0.1607249478E-02    0.6468739757E+00    0.5162023590E+00
    0.4300000000E+06    0.5201164221E-02    0.1708517090E+00    0.1494348530E-02    0.6488273779E+00    0.5162307082E+00
    0.4500000000E+06    0.4851558582E-02    0.1708069918E+00    0.1393705802E-02    0.6505788612E+00    0.5162569841E+00
    0.4700000000E+06    0.4540187822E-02    0.1707640132E+00    0.1303583377E-02    0.6521565945E+00    0.5162814894E+00
    0.4900000000E+06    0.4261600473E-02    0.1707226415E+00    0.1222541762E-02    0.6535839287E+00    0.5163044702E+00
    0.1000000000E+06    0.4091607122E-01    0.1721214161E+00    0.1043323643E-01    0.4999573774E+00    0.5141847515E+00
    0.3000000000E+06    0.9050760474E-02    0.1711972614E+00    0.2571190927E-02    0.6305143369E+00    0.5159865430E+00
    0.5000000000E+06    0.4133159133E-02    0.1707025212E+00    0.1185043118E-02    0.6542474169E+00    0.5163154535E+00
    0.7000000000E+06    0.2514820670E-02    0.1703617897E+00    0.7044218900E-03    0.6629976387E+00    0.5164891746E+00
    0.9000000000E+06    0.1773645708E-02    0.1701011585E+00    0.4787070360E-03    0.6673794847E+00    0.5166160530E+00
    0.1100000000E+07    0.1365803660E-02    0.1698898418E+00    0.3531385283E-03    0.6699736104E+00    0.5167202047E+00
    0.1300000000E+07    0.1113559579E-02    0.1697120102E+00    0.2753067761E-03    0.6716791864E+00    0.5168102916E+00
    0.1500000000E+07    0.9444029093E-03    0.1695584303E+00    0.2233042688E-03    0.6728837222E+00    0.5168904510E+00
    0.1700000000E+07    0.8240397936E-03    0.1694232385E+00    0.1865892565E-03    0.6737795633E+00    0.5169630494E+00
    0.1900000000E+07    0.7344361564E-03    0.1693024754E+00    0.1595489693E-03    0.6744723314E+00    0.5170296089E+00
    0.2100000000E+07    0.6653181959E-03    0.1691933403E+00    0.1389576447E-03    0.6750245992E+00    0.5170911878E+00
    0.2300000000E+07    0.6104546799E-03    0.1690937784E+00    0.1228470386E-03    0.6754756958E+00    0.5171485640E+00
    0.2500000000E+07    0.5658708649E-03    0.1690022367E+00    0.1099569192E-03    0.6758515408E+00    0.5172023314E+00
    0.2700000000E+07    0.5289240306E-03    0.1689175129E+00    0.9944774811E-04    0.6761698923E+00    0.5172529578E+00
    0.2900000000E+07    0.4977950251E-03    0.1688386571E+00    0.9074135791E-04    0.6764433175E+00    0.5173008198E+00
    0.3100000000E+07    0.4711941315E-03    0.1687649053E+00    0.8342817899E-04    0.6766809570E+00    0.5173462264E+00
    0.3300000000E+07    0.4481834946E-03    0.1686956341E+00    0.7721093884E-04    0.6768896172E+00    0.5173894348E+00
    0.3500000000E+07    0.4280659235E-03    0.1686303278E+00    0.7186926247E-04    0.6770744705E+00    0.5174306623E+00
    0.3700000000E+07    0.4103130152E-03    0.1685685555E+00    0.6723672058E-04    0.6772395181E+00    0.5174700938E+00
    0.3900000000E+07    0.3945173861E-03    0.1685099527E+00    0.6318554256E-04    0.6773879046E+00    0.5175078888E+00
    0.4100000000E+07    0.3803601395E-03    0.1684542088E+00    0.5961619002E-04    0.6775221353E+00    0.5175441855E+00
    0.4300000000E+07    0.3675882189E-03    0.1684010568E+00    0.5645009347E-04    0.6776442318E+00    0.5175791047E+00
    0.4500000000E+07    0.3559983337E-03    0.1683502656E+00    0.5362449593E-04    0.6777558436E+00    0.5176127529E+00
    0.4700000000E+07    0.3454253476E-03    0.1683016337E+00    0.5108872919E-04    0.6778583302E+00    0.5176452240E+00
    0.4900000000E+07    0.3357337546E-03    0.1682549843E+00    0.4880148310E-04    0.6779528224E+00    0.5176766019E+00
    0.1000000000E+07    0.1543031444E-02    0.1699905383E+00    0.4077901221E-03    0.6688253293E+00    0.5166702649E+00
    0.3000000000E+07    0.4839938826E-03    0.1688011850E+00    0.8693133745E-04    0.6765661400E+00    0.5173238129E+00
    0.5000000000E+07    0.3311826411E-03    0.1682323537E+00    0.4774019390E-04    0.6779973731E+00    0.5176919046E+00
    0.7000000000E+07    0.2671370673E-03    0.1678540998E+00    0.3379204851E-04    0.6786350631E+00    0.5179551942E+00
    0.9000000000E+07    0.2303267738E-03    0.1675701329E+00    0.2674664193E-04    0.6790081458E+00    0.5181616433E+00
    0.1100000000E+08    0.2057396549E-03    0.1673426521E+00    0.2249415881E-04    0.6792581242E+00    0.5183320387E+00
    0.1300000000E+08    0.1878246303E-03    0.1671528496E+00    0.1963586348E-04    0.6794398152E+00    0.5184774020E+00
    0.1500000000E+08    0.1740137827E-03    0.1669899895E+00    0.1757197207E-04    0.6795792284E+00    0.5186043174E+00
    0.1700000000E+08    0.1629387833E-03    0.1668473601E+00    0.1600393013E-04    0.6796904186E+00    0.5187170462E+00
    0.1900000000E+08    0.1537957695E-03    0.1667204835E+00    0.1476669717E-04    0.6797817039E+00    0.5188185115E+00
    0.2100000000E+08    0.1460775241E-03    0.1666062220E+00    0.1376164588E-04    0.6798583506E+00    0.5189108082E+00
    0.2300000000E+08    0.1394460676E-03    0.1665022918E+00    0.1292617868E-04    0.6799238710E+00    0.5189954908E+00
    0.2500000000E+08    0.1336662978E-03    0.1664069780E+00    0.1221861477E-04    0.6799807064E+00    0.5190737458E+00
    0.2700000000E+08    0.1285688915E-03    0.1663189607E+00    0.1161009567E-04    0.6800306121E+00    0.5191464996E+00
