  Pressure (Pa) 2mC6-400 (mol/kg) 3mC6-400 (mol/kg) 33mC5-400 (mol/kg) 23mC5-400 (mol/kg) C7-400 (mol/kg)
    0.1000000000E+01    0.1584246361E-02    0.2620817111E-02    0.3870168552E-03    0.2799904163E-03    0.6804689248E-02
    0.3000000000E+01    0.4620277535E-02    0.7616360604E-02    0.1128999996E-02    0.8360577393E-03    0.1977809756E-01
    0.5000000000E+01    0.7493335391E-02    0.1230917934E-01    0.1831563674E-02    0.1386986112E-02    0.3196908039E-01
    0.7000000000E+01    0.1021802859E-01    0.1672653006E-01    0.2498256062E-02    0.1932868325E-02    0.4344797973E-01
    0.9000000000E+01    0.1280722242E-01    0.2089247655E-01    0.3132200569E-02    0.2473794851E-02    0.5427690360E-01
    0.1100000000E+02    0.1527229134E-01    0.2482834448E-01    0.3736157481E-02    0.3009853922E-02    0.6451089855E-01
    0.1300000000E+02    0.1762332904E-01    0.2855310068E-01    0.4312575219E-02    0.3541131596E-02    0.7419892729E-01
    0.1500000000E+02    0.1986932407E-01    0.3208367105E-01    0.4863633190E-02    0.4067711826E-02    0.8338468818E-01
    0.1700000000E+02    0.2201830741E-01    0.3543520835E-01    0.5391277791E-02    0.4589676526E-02    0.9210730568E-01
    0.1900000000E+02    0.2407747710E-01    0.3862131889E-01    0.5897252800E-02    0.5107105631E-02    0.1004019148E+00
    0.2100000000E+02    0.2605330400E-01    0.4165425530E-01    0.6383125155E-02    0.5620077158E-02    0.1083001580E+00
    0.2300000000E+02    0.2795162181E-01    0.4454508116E-01    0.6850306903E-02    0.6128667268E-02    0.1158306101E+00
    0.2500000000E+02    0.2977770412E-01    0.4730381209E-01    0.7300073977E-02    0.6632950315E-02    0.1230191414E+00
    0.2700000000E+02    0.3153633057E-01    0.4993953731E-01    0.7733582312E-02    0.7132998907E-02    0.1298892321E+00
    0.2900000000E+02    0.3323184382E-01    0.5246052455E-01    0.8151881728E-02    0.7628883951E-02    0.1364622419E+00
    0.3100000000E+02    0.3486819888E-01    0.5487431109E-01    0.8555927939E-02    0.8120674710E-02    0.1427576455E+00
    0.3300000000E+02    0.3644900593E-01    0.5718778283E-01    0.8946592969E-02    0.8608438847E-02    0.1487932363E+00
    0.3500000000E+02    0.3797756750E-01    0.5940724344E-01    0.9324674216E-02    0.9092242473E-02    0.1545853047E+00
    0.3700000000E+02    0.3945691103E-01    0.6153847477E-01    0.9690902370E-02    0.9572150190E-02    0.1601487942E+00
    0.3900000000E+02    0.4088981739E-01    0.6358678991E-01    0.1004594834E-01    0.1004822514E-01    0.1654974379E+00
    0.4100000000E+02    0.4227884583E-01    0.6555707991E-01    0.1039042933E-01    0.1052052904E-01    0.1706438793E+00
    0.4300000000E+02    0.4362635606E-01    0.6745385501E-01    0.1072491421E-01    0.1098912223E-01    0.1755997788E+00
    0.4500000000E+02    0.4493452766E-01    0.6928128112E-01    0.1104992825E-01    0.1145406369E-01    0.1803759075E+00
    0.4700000000E+02    0.4620537736E-01    0.7104321217E-01    0.1136595726E-01    0.1191541113E-01    0.1849822307E+00
    0.4900000000E+02    0.4744077424E-01    0.7274321890E-01    0.1167345134E-01    0.1237322096E-01    0.1894279826E+00
    0.1000000000E+02    0.1405461382E-01    0.2288793362E-01    0.3437767678E-02    0.2742427390E-02    0.5946507473E-01
    0.3000000000E+02    0.3405718287E-01    0.5368037313E-01    0.8355630134E-02    0.7875286850E-02    0.1396434952E+00
    0.5000000000E+02    0.4804572498E-01    0.7357104543E-01    0.1182412950E-01    0.1260081657E-01    0.1915933464E+00
    0.7000000000E+02    0.5864529323E-01    0.8756628208E-01    0.1447665202E-01    0.1697984073E-01    0.2282548429E+00
    0.9000000000E+02    0.6708449404E-01    0.9799989544E-01    0.1660858187E-01    0.2106117742E-01    0.2556664117E+00
    0.1100000000E+03    0.7402680063E-01    0.1061096961E+00    0.1837902223E-01    0.2488450261E-01    0.2770338852E+00
    0.1300000000E+03    0.7986924640E-01    0.1126149125E+00    0.1988304090E-01    0.2848242623E-01    0.2942218309E+00
    0.1500000000E+03    0.8486836165E-01    0.1179629248E+00    0.2118203356E-01    0.3188202307E-01    0.3083911880E+00
    0.1700000000E+03    0.8919992099E-01    0.1224471413E+00    0.2231808524E-01    0.3510597920E-01    0.3203040797E+00
    0.1900000000E+03    0.9299000820E-01    0.1262683106E+00    0.2332141689E-01    0.3817346249E-01    0.3304824480E+00
    0.2100000000E+03    0.9633240107E-01    0.1295686251E+00    0.2421454287E-01    0.4110079204E-01    0.3392963447E+00
    0.2300000000E+03    0.9929890690E-01    0.1324517523E+00    0.2501473792E-01    0.4390195900E-01    0.3470158185E+00
    0.2500000000E+03    0.1019458255E+00    0.1349951428E+00    0.2573557742E-01    0.4658903603E-01    0.3538428159E+00
    0.2700000000E+03    0.1043181662E+00    0.1372578861E+00    0.2638794162E-01    0.4917250244E-01    0.3599315537E+00
    0.2900000000E+03    0.1064525021E+00    0.1392858901E+00    0.2698069465E-01    0.5166150467E-01    0.3654019586E+00
    0.3100000000E+03    0.1083789613E+00    0.1411153934E+00    0.2752115852E-01    0.5406406668E-01    0.3703487860E+00
    0.3300000000E+03    0.1101226559E+00    0.1427754059E+00    0.2801545299E-01    0.5638726135E-01    0.3748479606E+00
    0.3500000000E+03    0.1117047299E+00    0.1442894425E+00    0.2846874515E-01    0.5863735088E-01    0.3789610820E+00
    0.3700000000E+03    0.1131431438E+00    0.1456767774E+00    0.2888543646E-01    0.6081990289E-01    0.3827386877E+00
    0.3900000000E+03    0.1144532733E+00    0.1469533689E+00    0.2926930544E-01    0.6293988671E-01    0.3862226580E+00
    0.4100000000E+03    0.1156483725E+00    0.1481325498E+00    0.2962361823E-01    0.6500175399E-01    0.3894480155E+00
    0.4300000000E+03    0.1167399371E+00    0.1492255523E+00    0.2995121559E-01    0.6700950635E-01    0.3924442904E+00
    0.4500000000E+03    0.1177379933E+00    0.1502419098E+00    0.3025458199E-01    0.6896675260E-01    0.3952365701E+00
    0.4700000000E+03    0.1186513303E+00    0.1511897705E+00    0.3053590126E-01    0.7087675727E-01    0.3978463152E+00
    0.4900000000E+03    0.1194876877E+00    0.1520761429E+00    0.3079710182E-01    0.7274248205E-01    0.4002920007E+00
    0.1000000000E+03    0.7071364302E-01    0.1022919631E+00    0.1753201458E-01    0.2300290787E-01    0.2669674994E+00
    0.3000000000E+03    0.1074400430E+00    0.1402234949E+00    0.2725705535E-01    0.5287312814E-01    0.3679356929E+00
    0.5000000000E+03    0.1198791695E+00    0.1524981982E+00    0.3092069961E-01    0.7365959104E-01    0.4014584054E+00
    0.7000000000E+03    0.1249734658E+00    0.1588276199E+00    0.3266445918E-01    0.9021838235E-01    0.4191238632E+00
    0.9000000000E+03    0.1269103531E+00    0.1627631066E+00    0.3354393266E-01    0.1043399588E+00    0.4303249944E+00
    0.1100000000E+04    0.1272612462E+00    0.1654756634E+00    0.3396669812E-01    0.1168676299E+00    0.4381867239E+00
    0.1300000000E+04    0.1267400550E+00    0.1674720806E+00    0.3412331391E-01    0.1282624170E+00    0.4440724639E+00
    0.1500000000E+04    0.1257118377E+00    0.1690099066E+00    0.3411420965E-01    0.1388031021E+00    0.4486803472E+00
    0.1700000000E+04    0.1243791754E+00    0.1702348632E+00    0.3399695505E-01    0.1486710209E+00    0.4524082105E+00
    0.1900000000E+04    0.1228614251E+00    0.1712360234E+00    0.3380668850E-01    0.1579908165E+00    0.4555008966E+00
    0.2100000000E+04    0.1212321699E+00    0.1720711099E+00    0.3356592983E-01    0.1668519460E+00    0.4581181155E+00
    0.2300000000E+04    0.1195383845E+00    0.1727792832E+00    0.3328968642E-01    0.1753208817E+00    0.4603689049E+00
    0.2500000000E+04    0.1178108745E+00    0.1733881103E+00    0.3298828361E-01    0.1834484464E+00    0.4623304930E+00
    0.2700000000E+04    0.1160702600E+00    0.1739175961E+00    0.3266901615E-01    0.1912744356E+00    0.4640592581E+00
    0.2900000000E+04    0.1143305497E+00    0.1743826331E+00    0.3233715373E-01    0.1988306494E+00    0.4655974144E+00
    0.3100000000E+04    0.1126013530E+00    0.1747945510E+00    0.3199657567E-01    0.2061429457E+00    0.4669772599E+00
    0.3300000000E+04    0.1108892899E+00    0.1751621318E+00    0.3165018401E-01    0.2132326739E+00    0.4682239687E+00
    0.3500000000E+04    0.1091989131E+00    0.1754922943E+00    0.3130017971E-01    0.2201176985E+00    0.4693574820E+00
    0.3700000000E+04    0.1075333244E+00    0.1757905681E+00    0.3094825161E-01    0.2268131478E+00    0.4703938220E+00
    0.3900000000E+04    0.1058945950E+00    0.1760614284E+00    0.3059570850E-01    0.2333319706E+00    0.4713460248E+00
    0.4100000000E+04    0.1042840565E+00    0.1763085388E+00    0.3024357306E-01    0.2396853582E+00    0.4722248166E+00
    0.4300000000E+04    0.1027025057E+00    0.1765349285E+00    0.2989264978E-01    0.2458830680E+00    0.4730391122E+00
    0.4500000000E+04    0.1011503506E+00    0.1767431255E+00    0.2954357484E-01    0.2519336767E+00    0.4737963885E+00
    0.4700000000E+04    0.9962771547E-01    0.1769352569E+00    0.2919685327E-01    0.2578447787E+00    0.4745029681E+00
    0.4900000000E+04    0.9813451751E-01    0.1771131265E+00    0.2885288684E-01    0.2636231448E+00    0.4751642382E+00
    0.1000000000E+04    0.1272277869E+00    0.1642321006E+00    0.3379750835E-01    0.1107684558E+00    0.4345654953E+00
    0.3000000000E+04    0.1134641660E+00    0.1745946326E+00    0.3216775363E-01    0.2025158608E+00    0.4663054113E+00
    0.5000000000E+04    0.9739888905E-01    0.1771972032E+00    0.2868203947E-01    0.2664644747E+00    0.4754793524E+00
    0.7000000000E+04    0.8413243689E-01    0.1784075233E+00    0.2545893959E-01    0.3175272770E+00    0.4802432856E+00
    0.9000000000E+04    0.7325294778E-01    0.1791062628E+00    0.2263748224E-01    0.3597663926E+00    0.4832731851E+00
    0.1100000000E+05    0.6426759385E-01    0.1795581855E+00    0.2019753367E-01    0.3952371223E+00    0.4854143262E+00
    0.1300000000E+05    0.5678966752E-01    0.1798717110E+00    0.1809383821E-01    0.4252878184E+00    0.4870287176E+00
    0.1500000000E+05    0.5052147422E-01    0.1800997738E+00    0.1627940213E-01    0.4509150664E+00    0.4883007317E+00
    0.1700000000E+05    0.4523154351E-01    0.1802713790E+00    0.1471126427E-01    0.4728960915E+00    0.4893355367E+00
    0.1900000000E+05    0.4073807037E-01    0.1804037796E+00    0.1335192342E-01    0.4918519904E+00    0.4901981216E+00
    0.2100000000E+05    0.3689713113E-01    0.1805078893E+00    0.1216936281E-01    0.5082849590E+00    0.4909311109E+00
    0.2300000000E+05    0.3359405723E-01    0.1805909514E+00    0.1113657089E-01    0.5226037184E+00    0.4915637752E+00
    0.2500000000E+05    0.3073696449E-01    0.1806579617E+00    0.1023090285E-01    0.5351424322E+00    0.4921169637E+00
    0.2700000000E+05    0.2825182322E-01    0.1807124764E+00    0.9433430418E-02    0.5461753834E+00    0.4926059752E+00
    0.2900000000E+05    0.2607866700E-01    0.1807570941E+00    0.8728343232E-02    0.5559285756E+00    0.4930423175E+00
    0.3100000000E+05    0.2416865937E-01    0.1807937574E+00    0.8102424680E-02    0.5645889730E+00    0.4934348293E+00
    0.3300000000E+05    0.2248181405E-01    0.1808239458E+00    0.7544606071E-02    0.5723118837E+00    0.4937904228E+00
    0.3500000000E+05    0.2098521588E-01    0.1808488057E+00    0.7045593882E-02    0.5792268691E+00    0.4941145881E+00
    0.3700000000E+05    0.1965162699E-01    0.1808692381E+00    0.6597561350E-02    0.5854424811E+00    0.4944117460E+00
    0.3900000000E+05    0.1845839035E-01    0.1808859602E+00    0.6193894865E-02    0.5910500659E+00    0.4946854999E+00
    0.4100000000E+05    0.1738656352E-01    0.1808995498E+00    0.5828986090E-02    0.5961268262E+00    0.4949388191E+00
    0.4300000000E+05    0.1642023124E-01    0.1809104770E+00    0.5498061759E-02    0.6007382918E+00    0.4951741738E+00
    0.4500000000E+05    0.1554595740E-01    0.1809191280E+00    0.5197044304E-02    0.6049403201E+00    0.4953936378E+00
    0.4700000000E+05    0.1475234617E-01    0.1809258223E+00    0.4922437581E-02    0.6087807206E+00    0.4955989660E+00
    0.4900000000E+05    0.1402968885E-01    0.1809308268E+00    0.4671232994E-02    0.6123005796E+00    0.4957916540E+00
    0.1000000000E+05    0.6855006609E-01    0.1793543834E+00    0.2137248218E-01    0.3782528867E+00    0.4844261607E+00
    0.3000000000E+05    0.2509345320E-01    0.1807763185E+00    0.8406225306E-02    0.5603850006E+00    0.4932435819E+00
    0.5000000000E+05    0.1369232383E-01    0.1809327668E+00    0.4553580319E-02    0.6139515778E+00    0.4958836663E+00
    0.7000000000E+05    0.9178991126E-02    0.1809220632E+00    0.2955765720E-02    0.6365946447E+00    0.4972938246E+00
    0.9000000000E+05    0.6906721300E-02    0.1808673011E+00    0.2135634685E-02    0.6484779659E+00    0.4982172859E+00
    0.1100000000E+06    0.5577722707E-02    0.1807991664E+00    0.1653411720E-02    0.6556159610E+00    0.4988891673E+00
    0.1300000000E+06    0.4717995695E-02    0.1807278696E+00    0.1342408488E-02    0.6603102004E+00    0.4994103666E+00
    0.1500000000E+06    0.4120434151E-02    0.1806572935E+00    0.1128031839E-02    0.6636029935E+00    0.4998324487E+00
    0.1700000000E+06    0.3682297479E-02    0.1805889741E+00    0.9726835643E-03    0.6660263821E+00    0.5001849587E+00
    0.1900000000E+06    0.3347573724E-02    0.1805234765E+00    0.8556485861E-03    0.6678772288E+00    0.5004862523E+00
    0.2100000000E+06    0.3083418836E-02    0.1804609378E+00    0.7646989585E-03    0.6693329465E+00    0.5007484427E+00
    0.2300000000E+06    0.2869425969E-02    0.1804013030E+00    0.6922088291E-03    0.6705055027E+00    0.5009799067E+00
    0.2500000000E+06    0.2692304433E-02    0.1803444323E+00    0.6332044388E-03    0.6714687618E+00    0.5011866579E+00
    0.2700000000E+06    0.2543053595E-02    0.1802901533E+00    0.5843187387E-03    0.6722732726E+00    0.5013731467E+00
    0.2900000000E+06    0.2415374422E-02    0.1802382864E+00    0.5431996197E-03    0.6729547124E+00    0.5015427516E+00
    0.3100000000E+06    0.2304733203E-02    0.1801886563E+00    0.5081592431E-03    0.6735389337E+00    0.5016980932E+00
    0.3300000000E+06    0.2207786907E-02    0.1801410981E+00    0.4779579800E-03    0.6740451000E+00    0.5018412414E+00
    0.3500000000E+06    0.2122017976E-02    0.1800954595E+00    0.4516667341E-03    0.6744877000E+00    0.5019738578E+00
    0.3700000000E+06    0.2045495069E-02    0.1800516006E+00    0.4285766032E-03    0.6748778804E+00    0.5020972950E+00
    0.3900000000E+06    0.1976712084E-02    0.1800093942E+00    0.4081380537E-03    0.6752243491E+00    0.5022126672E+00
    0.4100000000E+06    0.1914477271E-02    0.1799687248E+00    0.3899190198E-03    0.6755340036E+00    0.5023209026E+00
    0.4300000000E+06    0.1857835198E-02    0.1799294874E+00    0.3735754462E-03    0.6758123742E+00    0.5024227822E+00
    0.4500000000E+06    0.1806010824E-02    0.1798915866E+00    0.3588301947E-03    0.6760639450E+00    0.5025189684E+00
    0.4700000000E+06    0.1758368697E-02    0.1798549356E+00    0.3454576893E-03    0.6762923884E+00    0.5026100281E+00
    0.4900000000E+06    0.1714382741E-02    0.1798194556E+00    0.3332725692E-03    0.6765007397E+00    0.5026964494E+00
    0.1000000000E+06    0.6163468805E-02    0.1808340379E+00    0.1865957439E-02    0.6524518950E+00    0.4985766842E+00
    0.3000000000E+06    0.2358155866E-02    0.1802132023E+00    0.5250056685E-03    0.6732576486E+00    0.5016220650E+00
    0.5000000000E+06    0.1693620633E-02    0.1798021319E+00    0.3275762129E-03    0.6765981882E+00    0.5027380553E+00
    0.7000000000E+06    0.1393724862E-02    0.1795026396E+00    0.2495709881E-03    0.6779309821E+00    0.5034051605E+00
    0.9000000000E+06    0.1214381922E-02    0.1792668961E+00    0.2070814833E-03    0.6786473658E+00    0.5038751459E+00
    0.1100000000E+07    0.1091652652E-02    0.1790722886E+00    0.1799151143E-03    0.6790956059E+00    0.5042355086E+00
    0.1300000000E+07    0.1000778354E-02    0.1789064434E+00    0.1608081235E-03    0.6794032568E+00    0.5045265185E+00
    0.1500000000E+07    0.9299252993E-03    0.1787618590E+00    0.1464981082E-03    0.6796279905E+00    0.5047699004E+00
    0.1700000000E+07    0.8726327965E-03    0.1786336421E+00    0.1352951427E-03    0.6797996803E+00    0.5049786548E+00
    0.1900000000E+07    0.8250338244E-03    0.1785184223E+00    0.1262319767E-03    0.6799353526E+00    0.5051611540E+00
    0.2100000000E+07    0.7846522103E-03    0.1784137777E+00    0.1187125857E-03    0.6800454270E+00    0.5053230941E+00
    0.2300000000E+07    0.7498183099E-03    0.1783179092E+00    0.1123482317E-03    0.6801366412E+00    0.5054685192E+00
    0.2500000000E+07    0.7193593676E-03    0.1782294430E+00    0.1068736902E-03    0.6802135475E+00    0.5056004001E+00
    0.2700000000E+07    0.6924239049E-03    0.1781473060E+00    0.1021012635E-03    0.6802793340E+00    0.5057209811E+00
    0.2900000000E+07    0.6683765344E-03    0.1780706437E+00    0.9789403535E-04    0.6803363014E+00    0.5058319975E+00
    0.3100000000E+07    0.6467320649E-03    0.1779987648E+00    0.9414955449E-04    0.6803861521E+00    0.5059348176E+00
    0.3300000000E+07    0.6271126410E-03    0.1779311014E+00    0.9078947642E-04    0.6804301738E+00    0.5060305392E+00
    0.3500000000E+07    0.6092189618E-03    0.1778671820E+00    0.8775275839E-04    0.6804693585E+00    0.5061200555E+00
    0.3700000000E+07    0.5928104145E-03    0.1778066099E+00    0.8499105632E-04    0.6805044835E+00    0.5062041031E+00
    0.3900000000E+07    0.5776910321E-03    0.1777490490E+00    0.8246553050E-04    0.6805361663E+00    0.5062832960E+00
    0.4100000000E+07    0.5636993551E-03    0.1776942112E+00    0.8014457864E-04    0.6805649040E+00    0.5063581515E+00
    0.4300000000E+07    0.5507009771E-03    0.1776418485E+00    0.7800219474E-04    0.6805911017E+00    0.5064291093E+00
    0.4500000000E+07    0.5385829708E-03    0.1775917450E+00    0.7601675996E-04    0.6806150924E+00    0.5064965461E+00
    0.4700000000E+07    0.5272496583E-03    0.1775437124E+00    0.7417013731E-04    0.6806371527E+00    0.5065607870E+00
    0.4900000000E+07    0.5166193580E-03    0.1774975847E+00    0.7244698425E-04    0.6806575145E+00    0.5066221147E+00
    0.1000000000E+07    0.1147941852E-02    0.1791653777E+00    0.1921801948E-03    0.6788945419E+00    0.5040658930E+00
    0.3000000000E+07    0.6572796781E-03    0.1780341443E+00    0.9596932002E-04    0.6803620278E+00    0.5058843580E+00
    0.5000000000E+07    0.5115455044E-03    0.1774751888E+00    0.7162754566E-04    0.6806671208E+00    0.5066517644E+00
    0.7000000000E+07    0.4341573308E-03    0.1770992088E+00    0.5936617274E-04    0.6808047200E+00    0.5071382592E+00
    0.9000000000E+07    0.3842192701E-03    0.1768151197E+00    0.5168404515E-04    0.6808847663E+00    0.5074935021E+00
    0.1100000000E+08    0.3485479108E-03    0.1765865613E+00    0.4630474305E-04    0.6809378453E+00    0.5077727969E+00
    0.1300000000E+08    0.3214126187E-03    0.1763952628E+00    0.4227286878E-04    0.6809759827E+00    0.5080026422E+00
    0.1500000000E+08    0.2998651736E-03    0.1762307233E+00    0.3910854873E-04    0.6810049129E+00    0.5081977646E+00
    0.1700000000E+08    0.2822124059E-03    0.1760863448E+00    0.3654107212E-04    0.6810277355E+00    0.5083671848E+00
    0.1900000000E+08    0.2674030024E-03    0.1759577074E+00    0.3440470024E-04    0.6810462806E+00    0.5085168243E+00
    0.2100000000E+08    0.2547449075E-03    0.1758417044E+00    0.3259158050E-04    0.6810617026E+00    0.5086507767E+00
    0.2300000000E+08    0.2437613572E-03    0.1757360683E+00    0.3102812914E-04    0.6810747680E+00    0.5087719887E+00
    0.2500000000E+08    0.2341117106E-03    0.1756390926E+00    0.2966220817E-04    0.6810860067E+00    0.5088826511E+00
    0.2700000000E+08    0.2255451992E-03    0.1755494610E+00    0.2845571439E-04    0.6810957979E+00    0.5089844364E+00
