  Pressure (Pa) 2mC6-400 (mol/kg) 3mC6-400 (mol/kg) 33mC5-400 (mol/kg) 23mC5-400 (mol/kg) C7-400 (mol/kg)
    0.1000000000E+01    0.1583070305E-02    0.5235294013E-02    0.2578242198E-03    0.9336770982E-04    0.5097374802E-02
    0.3000000000E+01    0.4610621314E-02    0.1517930740E-01    0.7511338196E-03    0.2790203569E-03    0.1478182330E-01
    0.5000000000E+01    0.7468831269E-02    0.2447916682E-01    0.1217159827E-02    0.4632476253E-03    0.2384194233E-01
    0.7000000000E+01    0.1017409969E-01    0.3319659582E-01    0.1658557244E-02    0.6460710896E-03    0.3233746532E-01
    0.9000000000E+01    0.1274073462E-01    0.4138564165E-01    0.2077641347E-02    0.8275118697E-03    0.4032070253E-01
    0.1100000000E+02    0.1518127434E-01    0.4909383416E-01    0.2476440034E-02    0.1007590643E-02    0.4783766118E-01
    0.1300000000E+02    0.1750675170E-01    0.5636314068E-01    0.2856736839E-02    0.1186327658E-02    0.5492896855E-01
    0.1500000000E+02    0.1972691273E-01    0.6323075789E-01    0.3220106488E-02    0.1363742742E-02    0.6163063742E-01
    0.1700000000E+02    0.2185039843E-01    0.6972977199E-01    0.3567944459E-02    0.1539855316E-02    0.6797470432E-01
    0.1900000000E+02    0.2388489671E-01    0.7588971222E-01    0.3901491687E-02    0.1714684402E-02    0.7398976472E-01
    0.2100000000E+02    0.2583727008E-01    0.8173701717E-01    0.4221855317E-02    0.1888248635E-02    0.7970142388E-01
    0.2300000000E+02    0.2771366342E-01    0.8729542963E-01    0.4530026223E-02    0.2060566274E-02    0.8513267863E-01
    0.2500000000E+02    0.2951959544E-01    0.9258633229E-01    0.4826893854E-02    0.2231655210E-02    0.9030424208E-01
    0.2700000000E+02    0.3126003649E-01    0.9762903455E-01    0.5113258879E-02    0.2401532975E-02    0.9523482094E-01
    0.2900000000E+02    0.3293947515E-01    0.1024410184E+00    0.5389844000E-02    0.2570216754E-02    0.9994135332E-01
    0.3100000000E+02    0.3456197540E-01    0.1070381502E+00    0.5657303227E-02    0.2737723390E-02    0.1044392135E+00
    0.3300000000E+02    0.3613122582E-01    0.1114348633E+00    0.5916229866E-02    0.2904069394E-02    0.1087423889E+00
    0.3500000000E+02    0.3765058222E-01    0.1156443170E+00    0.6167163428E-02    0.3069270956E-02    0.1128636333E+00
    0.3700000000E+02    0.3912310453E-01    0.1196785344E+00    0.6410595619E-02    0.3233343948E-02    0.1168146007E+00
    0.3900000000E+02    0.4055158895E-01    0.1235485226E+00    0.6646975547E-02    0.3396303937E-02    0.1206059613E+00
    0.4100000000E+02    0.4193859601E-01    0.1272643782E+00    0.6876714275E-02    0.3558166188E-02    0.1242475038E+00
    0.4300000000E+02    0.4328647512E-01    0.1308353798E+00    0.7100188794E-02    0.3718945674E-02    0.1277482248E+00
    0.4500000000E+02    0.4459738617E-01    0.1342700698E+00    0.7317745522E-02    0.3878657082E-02    0.1311164076E+00
    0.4700000000E+02    0.4587331844E-01    0.1375763255E+00    0.7529703370E-02    0.4037314823E-02    0.1343596920E+00
    0.4900000000E+02    0.4711610743E-01    0.1407614237E+00    0.7736356460E-02    0.4194933032E-02    0.1374851355E+00
    0.1000000000E+02    0.1397604431E-01    0.4529710123E-01    0.2279459618E-02    0.9177202319E-03    0.4413481103E-01
    0.3000000000E+02    0.3375760377E-01    0.1047655071E+00    0.5524675932E-02    0.2654116175E-02    0.1022154626E+00
    0.5000000000E+02    0.4772560840E-01    0.1423106623E+00    0.7837779450E-02    0.4273356658E-02    0.1390057267E+00
    0.7000000000E+02    0.5852635359E-01    0.1683282100E+00    0.9643869203E-02    0.5790503413E-02    0.1645829524E+00
    0.9000000000E+02    0.6734200780E-01    0.1875116253E+00    0.1113198026E-01    0.7218028890E-02    0.1835018438E+00
    0.1100000000E+03    0.7478946731E-01    0.2022966125E+00    0.1240041176E-01    0.8566359004E-02    0.1981286090E+00
    0.1300000000E+03    0.8122884401E-01    0.2140761111E+00    0.1350641765E-01    0.9844283713E-02    0.2098178730E+00
    0.1500000000E+03    0.8688893054E-01    0.2237060675E+00    0.1448633964E-01    0.1105927171E-01    0.2194029121E+00
    0.1700000000E+03    0.9192493833E-01    0.2317424248E+00    0.1536483763E-01    0.1221771450E-01    0.2274255110E+00
    0.1900000000E+03    0.9644772661E-01    0.2385625490E+00    0.1615954607E-01    0.1332511777E-01    0.2342538080E+00
    0.2100000000E+03    0.1005397775E+00    0.2444319612E+00    0.1688361096E-01    0.1438625293E-01    0.2401471008E+00
    0.2300000000E+03    0.1042644983E+00    0.2495431484E+00    0.1754716303E-01    0.1540527831E-01    0.2452935588E+00
    0.2500000000E+03    0.1076719347E+00    0.2540392131E+00    0.1815822068E-01    0.1638583679E-01    0.2498332193E+00
    0.2700000000E+03    0.1108024438E+00    0.2580288620E+00    0.1872326946E-01    0.1733113520E-01    0.2538725694E+00
    0.2900000000E+03    0.1136891494E+00    0.2615962278E+00    0.1924764915E-01    0.1824400921E-01    0.2574941083E+00
    0.3100000000E+03    0.1163596409E+00    0.2648074940E+00    0.1973582132E-01    0.1912697697E-01    0.2607628006E+00
    0.3300000000E+03    0.1188371833E+00    0.2677154773E+00    0.2019156002E-01    0.1998228344E-01    0.2637305426E+00
    0.3500000000E+03    0.1211416014E+00    0.2703628681E+00    0.2061809119E-01    0.2081193753E-01    0.2664393232E+00
    0.3700000000E+03    0.1232899413E+00    0.2727845669E+00    0.2101819701E-01    0.2161774314E-01    0.2689235035E+00
    0.3900000000E+03    0.1252969748E+00    0.2750093998E+00    0.2139429558E-01    0.2240132547E-01    0.2712114926E+00
    0.4100000000E+03    0.1271755905E+00    0.2770613970E+00    0.2174850274E-01    0.2316415326E-01    0.2733269965E+00
    0.4300000000E+03    0.1289371019E+00    0.2789607598E+00    0.2208268099E-01    0.2390755772E-01    0.2752899633E+00
    0.4500000000E+03    0.1305914932E+00    0.2807246013E+00    0.2239847846E-01    0.2463274880E-01    0.2771173086E+00
    0.4700000000E+03    0.1321476186E+00    0.2823675208E+00    0.2269736056E-01    0.2534082911E-01    0.2788234768E+00
    0.4900000000E+03    0.1336133640E+00    0.2839020537E+00    0.2298063583E-01    0.2603280599E-01    0.2804208827E+00
    0.1000000000E+03    0.7121018991E-01    0.1953502540E+00    0.1178942937E-01    0.7901509737E-02    0.1912509573E+00
    0.3000000000E+03    0.1150498782E+00    0.2632428022E+00    0.1949601102E-01    0.1868908513E-01    0.2591690526E+00
    0.5000000000E+03    0.1343145771E+00    0.2846321173E+00    0.2311679226E-01    0.2637304697E-01    0.2811822115E+00
    0.7000000000E+03    0.1449676953E+00    0.2955312195E+00    0.2525018816E-01    0.3252001244E-01    0.2926731602E+00
    0.9000000000E+03    0.1514700056E+00    0.3022595760E+00    0.2664423007E-01    0.3775536959E-01    0.2999232303E+00
    0.1100000000E+04    0.1556636107E+00    0.3068749325E+00    0.2761487591E-01    0.4238716729E-01    0.3049980085E+00
    0.1300000000E+04    0.1584526453E+00    0.3102603902E+00    0.2832033374E-01    0.4658867938E-01    0.3087919547E+00
    0.1500000000E+04    0.1603317232E+00    0.3128619203E+00    0.2884881674E-01    0.5046675406E-01    0.3117605789E+00
    0.1700000000E+04    0.1615930442E+00    0.3149305991E+00    0.2925342541E-01    0.5409187998E-01    0.3141623709E+00
    0.1900000000E+04    0.1624195330E+00    0.3166192728E+00    0.2956803300E-01    0.5751302457E-01    0.3161558865E+00
    0.2100000000E+04    0.1629310362E+00    0.3180266538E+00    0.2981525815E-01    0.6076562023E-01    0.3178442738E+00
    0.2300000000E+04    0.1632090122E+00    0.3192195163E+00    0.3001077441E-01    0.6387616445E-01    0.3192977992E+00
    0.2500000000E+04    0.1633105304E+00    0.3202447484E+00    0.3016578120E-01    0.6686501833E-01    0.3205661400E+00
    0.2700000000E+04    0.1632766028E+00    0.3211363022E+00    0.3028849061E-01    0.6974818747E-01    0.3216855063E+00
    0.2900000000E+04    0.1631373458E+00    0.3219194049E+00    0.3038505882E-01    0.7253849872E-01    0.3226829768E+00
    0.3100000000E+04    0.1629152897E+00    0.3226132164E+00    0.3046018981E-01    0.7524640310E-01    0.3235792474E+00
    0.3300000000E+04    0.1626275634E+00    0.3232325660E+00    0.3051753848E-01    0.7788053901E-01    0.3243904345E+00
    0.3500000000E+04    0.1622873745E+00    0.3237891214E+00    0.3055998668E-01    0.8044813676E-01    0.3251292951E+00
    0.3700000000E+04    0.1619050342E+00    0.3242921964E+00    0.3058983658E-01    0.8295531541E-01    0.3258060726E+00
    0.3900000000E+04    0.1614886812E+00    0.3247493214E+00    0.3060894893E-01    0.8540730464E-01    0.3264290969E+00
    0.4100000000E+04    0.1610448028E+00    0.3251666548E+00    0.3061884355E-01    0.8780861335E-01    0.3270052190E+00
    0.4300000000E+04    0.1605786150E+00    0.3255492846E+00    0.3062077361E-01    0.9016315969E-01    0.3275401311E+00
    0.4500000000E+04    0.1600943447E+00    0.3259014538E+00    0.3061578143E-01    0.9247437268E-01    0.3280386056E+00
    0.4700000000E+04    0.1595954411E+00    0.3262267300E+00    0.3060474078E-01    0.9474527268E-01    0.3285046775E+00
    0.4900000000E+04    0.1590847367E+00    0.3265281364E+00    0.3058838941E-01    0.9697853567E-01    0.3289417840E+00
    0.1000000000E+04    0.1537855346E+00    0.3047612828E+00    0.2717032007E-01    0.4013380516E-01    0.3026616985E+00
    0.3000000000E+04    0.1630354905E+00    0.3222764596E+00    0.3042505467E-01    0.7390217475E-01    0.3231426640E+00
    0.5000000000E+04    0.1588257065E+00    0.3266707096E+00    0.3057842193E-01    0.9808180836E-01    0.3291504132E+00
    0.7000000000E+04    0.1534203418E+00    0.3287336005E+00    0.3021227312E-01    0.1186347670E+00    0.3323384026E+00
    0.9000000000E+04    0.1480354918E+00    0.3299396010E+00    0.2968016229E-01    0.1370807270E+00    0.3344140059E+00
    0.1100000000E+05    0.1428882212E+00    0.3307309220E+00    0.2908241058E-01    0.1540732180E+00    0.3359166427E+00
    0.1300000000E+05    0.1380101008E+00    0.3312886978E+00    0.2845773076E-01    0.1699622036E+00    0.3370775055E+00
    0.1500000000E+05    0.1333896070E+00    0.3317015044E+00    0.2782396078E-01    0.1849601618E+00    0.3380144178E+00
    0.1700000000E+05    0.1290059218E+00    0.3320179909E+00    0.2719033477E-01    0.1992072553E+00    0.3387946365E+00
    0.1900000000E+05    0.1248380331E+00    0.3322671772E+00    0.2656203885E-01    0.2128016590E+00    0.3394597737E+00
    0.2100000000E+05    0.1208670996E+00    0.3324674798E+00    0.2594216060E-01    0.2258153973E+00    0.3400371769E+00
    0.2300000000E+05    0.1170768160E+00    0.3326311641E+00    0.2533261433E-01    0.2383033336E+00    0.3405456840E+00
    0.2500000000E+05    0.1134531920E+00    0.3327667210E+00    0.2473461676E-01    0.2503086037E+00    0.3409987702E+00
    0.2700000000E+05    0.1099841972E+00    0.3328802183E+00    0.2414894764E-01    0.2618660664E+00    0.3414063781E+00
    0.2900000000E+05    0.1066594152E+00    0.3329761083E+00    0.2357610032E-01    0.2730045822E+00    0.3417760361E+00
    0.3100000000E+05    0.1034697467E+00    0.3330577328E+00    0.2301637281E-01    0.2837485658E+00    0.3421135718E+00
    0.3300000000E+05    0.1004071675E+00    0.3331276485E+00    0.2246992509E-01    0.2941190728E+00    0.3424235827E+00
    0.3500000000E+05    0.9746453353E-01    0.3331878451E+00    0.2193681654E-01    0.3041345758E+00    0.3427097560E+00
    0.3700000000E+05    0.9463542713E-01    0.3332398935E+00    0.2141703122E-01    0.3138115295E+00    0.3429750922E+00
    0.3900000000E+05    0.9191403406E-01    0.3332850504E+00    0.2091049556E-01    0.3231647878E+00    0.3432220644E+00
    0.4100000000E+05    0.8929504632E-01    0.3333243330E+00    0.2041709105E-01    0.3322079163E+00    0.3434527348E+00
    0.4300000000E+05    0.8677358446E-01    0.3333585730E+00    0.1993666374E-01    0.3409534278E+00    0.3436688404E+00
    0.4500000000E+05    0.8434513536E-01    0.3333884567E+00    0.1946903137E-01    0.3494129628E+00    0.3438718581E+00
    0.4700000000E+05    0.8200550210E-01    0.3334145557E+00    0.1901398908E-01    0.3575974283E+00    0.3440630542E+00
    0.4900000000E+05    0.7975076340E-01    0.3334373491E+00    0.1857131387E-01    0.3655171053E+00    0.3442435228E+00
    0.1000000000E+05    0.1454284361E+00    0.3303725782E+00    0.2938633955E-01    0.1457323903E+00    0.3352186261E+00
    0.3000000000E+05    0.1050482159E+00    0.3330185285E+00    0.2329458387E-01    0.2784245061E+00    0.3419485074E+00
    0.5000000000E+05    0.7865407121E-01    0.3334476354E+00    0.1835454020E-01    0.3693807108E+00    0.3443300365E+00
    0.7000000000E+05    0.6038606958E-01    0.3335514135E+00    0.1460556635E-01    0.4348948867E+00    0.3456748923E+00
    0.9000000000E+05    0.4744451190E-01    0.3335555543E+00    0.1179111688E-01    0.4827550135E+00    0.3465569538E+00
    0.1100000000E+06    0.3808935788E-01    0.3335205787E+00    0.9669523674E-02    0.5182414820E+00    0.3471846984E+00
    0.1300000000E+06    0.3118620999E-01    0.3334685910E+00    0.8052164549E-02    0.5450081388E+00    0.3476570637E+00
    0.1500000000E+06    0.2598763967E-01    0.3334091379E+00    0.6801507892E-02    0.5655634097E+00    0.3480277879E+00
    0.1700000000E+06    0.2199611372E-01    0.3333467826E+00    0.5819729608E-02    0.5816288116E+00    0.3483285761E+00
    0.1900000000E+06    0.1887574874E-01    0.3332838455E+00    0.5037558185E-02    0.5943949741E+00    0.3485792624E+00
    0.2100000000E+06    0.1639597679E-01    0.3332215452E+00    0.4405663266E-02    0.6046957878E+00    0.3487928329E+00
    0.2300000000E+06    0.1439568882E-01    0.3331605243E+00    0.3888541137E-02    0.6131240906E+00    0.3489781156E+00
    0.2500000000E+06    0.1276029026E-01    0.3331011107E+00    0.3460309507E-02    0.6201080448E+00    0.3491413061E+00
    0.2700000000E+06    0.1140685730E-01    0.3330434544E+00    0.3101841861E-02    0.6259617697E+00    0.3492868740E+00
    0.2900000000E+06    0.1027439722E-01    0.3329876039E+00    0.2798810856E-02    0.6309192309E+00    0.3494181236E+00
    0.3100000000E+06    0.9317357459E-02    0.3329335485E+00    0.2540342107E-02    0.6351572097E+00    0.3495375498E+00
    0.3300000000E+06    0.8501229716E-02    0.3328812442E+00    0.2318078123E-02    0.6388110878E+00    0.3496470731E+00
    0.3500000000E+06    0.7799525317E-02    0.3328306286E+00    0.2125519645E-02    0.6419858512E+00    0.3497481970E+00
    0.3700000000E+06    0.7191661803E-02    0.3327816297E+00    0.1957556408E-02    0.6447638687E+00    0.3498421168E+00
    0.3900000000E+06    0.6661464395E-02    0.3327341720E+00    0.1810128689E-02    0.6472104671E+00    0.3499297960E+00
    0.4100000000E+06    0.6196088530E-02    0.3326881794E+00    0.1679980229E-02    0.6493779804E+00    0.3500120207E+00
    0.4300000000E+06    0.5785234944E-02    0.3326435775E+00    0.1564475749E-02    0.6513087260E+00    0.3500894399E+00
    0.4500000000E+06    0.5420570748E-02    0.3326002947E+00    0.1461464677E-02    0.6530372194E+00    0.3501625947E+00
    0.4700000000E+06    0.5095297478E-02    0.3325582627E+00    0.1369178294E-02    0.6545918404E+00    0.3502319407E+00
    0.4900000000E+06    0.4803825283E-02    0.3325174170E+00    0.1286151339E-02    0.6559960996E+00    0.3502978646E+00
    0.1000000000E+06    0.4240064267E-01    0.3335411286E+00    0.1065680920E-01    0.5017847842E+00    0.3468949448E+00
    0.3000000000E+06    0.9776324618E-02    0.3329603540E+00    0.2664578712E-02    0.6331188717E+00    0.3494791833E+00
    0.5000000000E+06    0.4669285895E-02    0.3324974199E+00    0.1247720090E-02    0.6566481031E+00    0.3503296486E+00
    0.7000000000E+06    0.2961734452E-02    0.3321469378E+00    0.7540165159E-03    0.6651872500E+00    0.3508457768E+00
    0.9000000000E+06    0.2166182099E-02    0.3318659510E+00    0.5208848607E-03    0.6694000659E+00    0.3512203434E+00
    0.1100000000E+07    0.1720651232E-02    0.3316313850E+00    0.3904308592E-03    0.6718595410E+00    0.3515158014E+00
    0.1300000000E+07    0.1440233813E-02    0.3314299388E+00    0.3090794149E-03    0.6734556170E+00    0.3517603944E+00
    0.1500000000E+07    0.1248946592E-02    0.3312533083E+00    0.2543879150E-03    0.6745691354E+00    0.3519693899E+00
    0.1700000000E+07    0.1110580670E-02    0.3310959710E+00    0.2155322961E-03    0.6753878569E+00    0.3521520142E+00
    0.1900000000E+07    0.1005945998E-02    0.3309540701E+00    0.1867355108E-03    0.6760142141E+00    0.3523142862E+00
    0.2100000000E+07    0.9240231223E-03    0.3308248054E+00    0.1646690178E-03    0.6765085100E+00    0.3524603574E+00
    0.2300000000E+07    0.8580747893E-03    0.3307060791E+00    0.1472965909E-03    0.6769084164E+00    0.3525932168E+00
    0.2500000000E+07    0.8037688069E-03    0.3305962785E+00    0.1333110104E-03    0.6772386150E+00    0.3527150896E+00
    0.2700000000E+07    0.7582016206E-03    0.3304941369E+00    0.1218390841E-03    0.6775159196E+00    0.3528276785E+00
    0.2900000000E+07    0.7193585642E-03    0.3303986408E+00    0.1122778223E-03    0.6777521636E+00    0.3529323160E+00
    0.3100000000E+07    0.6858000217E-03    0.3303089665E+00    0.1041988910E-03    0.6779559078E+00    0.3530300654E+00
    0.3300000000E+07    0.6564709763E-03    0.3302244357E+00    0.9729053232E-04    0.6781334939E+00    0.3531217883E+00
    0.3500000000E+07    0.6305811286E-03    0.3301444824E+00    0.9132098573E-04    0.6782897169E+00    0.3532081934E+00
    0.3700000000E+07    0.6075270010E-03    0.3300686299E+00    0.8611473158E-04    0.6784282682E+00    0.3532898708E+00
    0.3900000000E+07    0.5868398994E-03    0.3299964727E+00    0.8153664096E-04    0.6785520345E+00    0.3533673166E+00
    0.4100000000E+07    0.5681502868E-03    0.3299276630E+00    0.7748114629E-04    0.6786633058E+00    0.3534409525E+00
    0.4300000000E+07    0.5511628554E-03    0.3298619001E+00    0.7386468418E-04    0.6787639212E+00    0.3535111397E+00
    0.4500000000E+07    0.5356387404E-03    0.3297989222E+00    0.7062032084E-04    0.6788553749E+00    0.3535781904E+00
    0.4700000000E+07    0.5213826064E-03    0.3297385003E+00    0.6769386405E-04    0.6789388931E+00    0.3536423756E+00
    0.4900000000E+07    0.5082331198E-03    0.3296804325E+00    0.6504100665E-04    0.6790154916E+00    0.3537039328E+00
    0.1000000000E+07    0.1915214971E-02    0.3317438517E+00    0.4473040363E-03    0.6707749226E+00    0.3513757590E+00
    0.3000000000E+07    0.7019920192E-03    0.3303531213E+00    0.1080747753E-03    0.6778576591E+00    0.3529819938E+00
    0.5000000000E+07    0.5020304574E-03    0.3296522247E+00    0.6380549949E-04    0.6790514668E+00    0.3537337921E+00
    0.7000000000E+07    0.4127084599E-03    0.3291773362E+00    0.4722359116E-04    0.6795555092E+00    0.3542327299E+00
    0.9000000000E+07    0.3595024938E-03    0.3288169894E+00    0.3850287969E-04    0.6798393963E+00    0.3546074284E+00
    0.1100000000E+08    0.3231632063E-03    0.3285262352E+00    0.3306616246E-04    0.6800241396E+00    0.3549078609E+00
    0.1300000000E+08    0.2962854785E-03    0.3282823499E+00    0.2931444622E-04    0.6801552963E+00    0.3551587879E+00
    0.1500000000E+08    0.2753433278E-03    0.3280722186E+00    0.2654597274E-04    0.6802539844E+00    0.3553743162E+00
    0.1700000000E+08    0.2584164177E-03    0.3278875743E+00    0.2440409048E-04    0.6803313924E+00    0.3555632566E+00
    0.1900000000E+08    0.2443572695E-03    0.3277228659E+00    0.2268792276E-04    0.6803940299E+00    0.3557314852E+00
    0.2100000000E+08    0.2324320080E-03    0.3275741828E+00    0.2127538439E-04    0.6804459569E+00    0.3558831188E+00
    0.2300000000E+08    0.2221462393E-03    0.3274386661E+00    0.2008779663E-04    0.6804898449E+00    0.3560211547E+00
    0.2500000000E+08    0.2131529424E-03    0.3273141612E+00    0.1907203898E-04    0.6805275286E+00    0.3561478432E+00
    0.2700000000E+08    0.2052002985E-03    0.3271990037E+00    0.1819086457E-04    0.6805603126E+00    0.3562649176E+00
