  Pressure (Pa) 2mC6-400 (mol/kg) 3mC6-400 (mol/kg) 33mC5-400 (mol/kg) 23mC5-400 (mol/kg) C7-400 (mol/kg)
    0.1000000000E+01    0.1590970584E-02    0.4215678481E-02    0.2590919140E-03    0.4665836629E-03    0.1710203667E-02
    0.3000000000E+01    0.4677304974E-02    0.1237691386E-01    0.7618273233E-03    0.1392833106E-02    0.5021532008E-02
    0.5000000000E+01    0.7642840238E-02    0.2019737513E-01    0.1245046679E-02    0.2310005290E-02    0.8195239532E-02
    0.7000000000E+01    0.1049499210E-01    0.2769859952E-01    0.1709951339E-02    0.3218272076E-02    0.1124001120E-01
    0.9000000000E+01    0.1324055940E-01    0.3490033401E-01    0.2157642465E-02    0.4117800853E-02    0.1416381061E-01
    0.1100000000E+02    0.1588578756E-01    0.4182071799E-01    0.2589131347E-02    0.5008754677E-02    0.1697395353E-01
    0.1300000000E+02    0.1843642439E-01    0.4847644393E-01    0.3005348486E-02    0.5891292415E-02    0.1967717261E-01
    0.1500000000E+02    0.2089776927E-01    0.5488289915E-01    0.3407151585E-02    0.6765568882E-02    0.2227967452E-01
    0.1700000000E+02    0.2327471657E-01    0.6105429123E-01    0.3795332616E-02    0.7631734969E-02    0.2478719045E-01
    0.1900000000E+02    0.2557179413E-01    0.6700375924E-01    0.4170624076E-02    0.8489937767E-02    0.2720502089E-01
    0.2100000000E+02    0.2779319745E-01    0.7274347259E-01    0.4533704542E-02    0.9340320689E-02    0.2953807552E-01
    0.2300000000E+02    0.2994282002E-01    0.7828471910E-01    0.4885203609E-02    0.1018302359E-01    0.3179090861E-01
    0.2500000000E+02    0.3202428053E-01    0.8363798363E-01    0.5225706301E-02    0.1101818286E-01    0.3396775077E-01
    0.2700000000E+02    0.3404094700E-01    0.8881301844E-01    0.5555757005E-02    0.1184593157E-01    0.3607253726E-01
    0.2900000000E+02    0.3599595857E-01    0.9381890628E-01    0.5875862998E-02    0.1266639952E-01    0.3810893340E-01
    0.3100000000E+02    0.3789224492E-01    0.9866411704E-01    0.6186497612E-02    0.1347971340E-01    0.4008035745E-01
    0.3300000000E+02    0.3973254378E-01    0.1033565587E+00    0.6488103076E-02    0.1428599682E-01    0.4199000109E-01
    0.3500000000E+02    0.4151941675E-01    0.1079036236E+00    0.6781093082E-02    0.1508537047E-01    0.4384084802E-01
    0.3700000000E+02    0.4325526349E-01    0.1123122293E+00    0.7065855090E-02    0.1587795215E-01    0.4563569066E-01
    0.3900000000E+02    0.4494233460E-01    0.1165888571E+00    0.7342752422E-02    0.1666385690E-01    0.4737714529E-01
    0.4100000000E+02    0.4658274327E-01    0.1207395853E+00    0.7612126151E-02    0.1744319706E-01    0.4906766579E-01
    0.4300000000E+02    0.4817847587E-01    0.1247701204E+00    0.7874296818E-02    0.1821608233E-01    0.5070955611E-01
    0.4500000000E+02    0.4973140152E-01    0.1286858255E+00    0.8129565988E-02    0.1898261990E-01    0.5230498159E-01
    0.4700000000E+02    0.5124328082E-01    0.1324917453E+00    0.8378217666E-02    0.1974291448E-01    0.5385597926E-01
    0.4900000000E+02    0.5271577385E-01    0.1361926299E+00    0.8620519593E-02    0.2049706840E-01    0.5536446726E-01
    0.1000000000E+02    0.1457534558E-01    0.3839461937E-01    0.2375352235E-02    0.4564339608E-02    0.1558265538E-01
    0.3000000000E+02    0.3695126699E-01    0.9626108943E-01    0.6032335890E-02    0.1307394292E-01    0.3910256237E-01
    0.5000000000E+02    0.5343774359E-01    0.1380050931E+00    0.8739368912E-02    0.2087187394E-01    0.5610333917E-01
    0.7000000000E+02    0.6614695333E-01    0.1697012311E+00    0.1083741180E-01    0.2806880957E-01    0.6903725249E-01
    0.9000000000E+02    0.7625862804E-01    0.1946931037E+00    0.1251656342E-01    0.3475279006E-01    0.7925498051E-01
    0.1100000000E+03    0.8449086677E-01    0.2149765677E+00    0.1389237844E-01    0.4099479009E-01    0.8756329316E-01
    0.1300000000E+03    0.9131008922E-01    0.2318187508E+00    0.1503984130E-01    0.4685271353E-01    0.9447472136E-01
    0.1500000000E+03    0.9703490870E-01    0.2460641284E+00    0.1601014628E-01    0.5237431008E-01    0.1003310583E+00
    0.1700000000E+03    0.1018918596E+00    0.2582980139E+00    0.1683968569E-01    0.5759933954E-01    0.1053693537E+00
    0.1900000000E+03    0.1060473063E+00    0.2689394425E+00    0.1755518886E-01    0.6256120162E-01    0.1097594217E+00
    0.2100000000E+03    0.1096267164E+00    0.2782966753E+00    0.1817682224E-01    0.6728817959E-01    0.1136262632E+00
    0.2300000000E+03    0.1127268331E+00    0.2866017939E+00    0.1872014498E-01    0.7180440090E-01    0.1170640464E+00
    0.2500000000E+03    0.1154236576E+00    0.2940330478E+00    0.1919739031E-01    0.7613058747E-01    0.1201451412E+00
    0.2700000000E+03    0.1177778558E+00    0.3007297406E+00    0.1961833261E-01    0.8028464776E-01    0.1229261403E+00
    0.2900000000E+03    0.1198385224E+00    0.3068024137E+00    0.1999089086E-01    0.8428214824E-01    0.1254519788E+00
    0.3100000000E+03    0.1216458660E+00    0.3123399790E+00    0.2032155881E-01    0.8813669235E-01    0.1277588211E+00
    0.3300000000E+03    0.1232331653E+00    0.3174148176E+00    0.2061571827E-01    0.9186022740E-01    0.1298761257E+00
    0.3500000000E+03    0.1246282201E+00    0.3220864942E+00    0.2087787162E-01    0.9546329497E-01    0.1318281493E+00
    0.3700000000E+03    0.1258544471E+00    0.3264045062E+00    0.2111181712E-01    0.9895523685E-01    0.1336350610E+00
    0.3900000000E+03    0.1269317174E+00    0.3304103511E+00    0.2132078319E-01    0.1023443652E+00    0.1353137799E+00
    0.4100000000E+03    0.1278770072E+00    0.3341391001E+00    0.2150753254E-01    0.1056381046E+00    0.1368786133E+00
    0.4300000000E+03    0.1287049077E+00    0.3376206123E+00    0.2167444393E-01    0.1088431102E+00    0.1383417497E+00
    0.4500000000E+03    0.1294280303E+00    0.3408804815E+00    0.2182357708E-01    0.1119653680E+00    0.1397136421E+00
    0.4700000000E+03    0.1300573302E+00    0.3439407827E+00    0.2195672457E-01    0.1150102795E+00    0.1410033118E+00
    0.4900000000E+03    0.1306023690E+00    0.3468206650E+00    0.2207545396E-01    0.1179827328E+00    0.1422185888E+00
    0.1000000000E+03    0.8057616742E-01    0.2053316550E+00    0.1323699960E-01    0.3792515080E-01    0.8361071734E-01
    0.3000000000E+03    0.1207716363E+00    0.3096332227E+00    0.2016110175E-01    0.8622650750E-01    0.1266307960E+00
    0.5000000000E+03    0.1308459506E+00    0.3481982524E+00    0.2212984875E-01    0.1194431904E+00    0.1428004996E+00
    0.7000000000E+03    0.1328665353E+00    0.3693941947E+00    0.2272019168E-01    0.1457358738E+00    0.1518093870E+00
    0.9000000000E+03    0.1318266045E+00    0.3831684718E+00    0.2275830105E-01    0.1680320156E+00    0.1577340649E+00
    0.1100000000E+04    0.1294492711E+00    0.3929975000E+00    0.2253676065E-01    0.1876877592E+00    0.1620074344E+00
    0.1300000000E+04    0.1264603828E+00    0.4004441895E+00    0.2218276002E-01    0.2054366590E+00    0.1652770662E+00
    0.1500000000E+04    0.1232042460E+00    0.4063261345E+00    0.2175900187E-01    0.2217195297E+00    0.1678833660E+00
    0.1700000000E+04    0.1198570766E+00    0.4111170360E+00    0.2129915051E-01    0.2368223896E+00    0.1700244605E+00
    0.1900000000E+04    0.1165134728E+00    0.4151123815E+00    0.2082240828E-01    0.2509420627E+00    0.1718244728E+00
    0.2100000000E+04    0.1132254974E+00    0.4185071054E+00    0.2034021434E-01    0.2642204891E+00    0.1733656250E+00
    0.2300000000E+04    0.1100218421E+00    0.4214355861E+00    0.1985959174E-01    0.2767640365E+00    0.1747048215E+00
    0.2500000000E+04    0.1069178376E+00    0.4239938027E+00    0.1938493286E-01    0.2886550212E+00    0.1758828600E+00
    0.2700000000E+04    0.1039209499E+00    0.4262523407E+00    0.1891900353E-01    0.2999589169E+00    0.1769298544E+00
    0.2900000000E+04    0.1010339230E+00    0.4282643990E+00    0.1846353280E-01    0.3107290441E+00    0.1778685818E+00
    0.3100000000E+04    0.9825663545E-01    0.4300709182E+00    0.1801957226E-01    0.3210097248E+00    0.1787166311E+00
    0.3300000000E+04    0.9558722635E-01    0.4317039763E+00    0.1758772197E-01    0.3308384652E+00    0.1794878299E+00
    0.3500000000E+04    0.9302279360E-01    0.4331891037E+00    0.1716827620E-01    0.3402475018E+00    0.1801932195E+00
    0.3700000000E+04    0.9055983361E-01    0.4345469011E+00    0.1676131983E-01    0.3492649225E+00    0.1808417374E+00
    0.3900000000E+04    0.8819452175E-01    0.4357941950E+00    0.1636679329E-01    0.3579154931E+00    0.1814407067E+00
    0.4100000000E+04    0.8592289255E-01    0.4369448792E+00    0.1598453714E-01    0.3662212777E+00    0.1819961924E+00
    0.4300000000E+04    0.8374095560E-01    0.4380105381E+00    0.1561432321E-01    0.3742021117E+00    0.1825132666E+00
    0.4500000000E+04    0.8164476978E-01    0.4390009165E+00    0.1525587650E-01    0.3818759676E+00    0.1829962086E+00
    0.4700000000E+04    0.7963049012E-01    0.4399242769E+00    0.1490889094E-01    0.3892592408E+00    0.1834486570E+00
    0.4900000000E+04    0.7769439649E-01    0.4407876762E+00    0.1457304068E-01    0.3963669770E+00    0.1838737283E+00
    0.1000000000E+04    0.1307467511E+00    0.3884533905E+00    0.2266985686E-01    0.1781347898E+00    0.1600263729E+00
    0.3000000000E+04    0.9963164712E-01    0.4291911697E+00    0.1824006767E-01    0.3159280820E+00    0.1783030020E+00
    0.5000000000E+04    0.7675454531E-01    0.4411988203E+00    0.1440918614E-01    0.3998218967E+00    0.1840768520E+00
    0.7000000000E+04    0.6127509654E-01    0.4473809044E+00    0.1163405368E-01    0.4573446133E+00    0.1871948253E+00
    0.9000000000E+04    0.5046305630E-01    0.4512624671E+00    0.9609975797E-02    0.4984697532E+00    0.1892291251E+00
    0.1100000000E+05    0.4265883449E-01    0.4539702377E+00    0.8104213937E-02    0.5287714882E+00    0.1906957356E+00
    0.1300000000E+05    0.3685476118E-01    0.4559876498E+00    0.6959529921E-02    0.5516851165E+00    0.1918209114E+00
    0.1500000000E+05    0.3242187300E-01    0.4575601402E+00    0.6070968687E-02    0.5694149779E+00    0.1927216728E+00
    0.1700000000E+05    0.2895586725E-01    0.4588268989E+00    0.5367799376E-02    0.5834164270E+00    0.1934654698E+00
    0.1900000000E+05    0.2618936953E-01    0.4598733388E+00    0.4801554843E-02    0.5946748614E+00    0.1940942964E+00
    0.2100000000E+05    0.2394078876E-01    0.4607550715E+00    0.4338388363E-02    0.6038733050E+00    0.1946358574E+00
    0.2300000000E+05    0.2208372650E-01    0.4615100176E+00    0.3954204818E-02    0.6114956384E+00    0.1951092752E+00
    0.2500000000E+05    0.2052820127E-01    0.4621650124E+00    0.3631530178E-02    0.6178916463E+00    0.1955282373E+00
    0.2700000000E+05    0.1920883117E-01    0.4627396338E+00    0.3357468864E-02    0.6233189104E+00    0.1959028372E+00
    0.2900000000E+05    0.1807721603E-01    0.4632485338E+00    0.3122348328E-02    0.6279703614E+00    0.1962407067E+00
    0.3100000000E+05    0.1709691524E-01    0.4637029178E+00    0.2918803855E-02    0.6319927661E+00    0.1965477394E+00
    0.3300000000E+05    0.1624006683E-01    0.4641115161E+00    0.2741149916E-02    0.6354993687E+00    0.1968285709E+00
    0.3500000000E+05    0.1548506671E-01    0.4644812416E+00    0.2584941168E-02    0.6385786890E+00    0.1970869054E+00
    0.3700000000E+05    0.1481494694E-01    0.4648176463E+00    0.2446661043E-02    0.6413007481E+00    0.1973257439E+00
    0.3900000000E+05    0.1421622339E-01    0.4651252456E+00    0.2323497578E-02    0.6437215421E+00    0.1975475483E+00
    0.4100000000E+05    0.1367806432E-01    0.4654077528E+00    0.2213179778E-02    0.6458863027E+00    0.1977543603E+00
    0.4300000000E+05    0.1319168188E-01    0.4656682529E+00    0.2113856635E-02    0.6478319065E+00    0.1979478896E+00
    0.4500000000E+05    0.1274988088E-01    0.4659093317E+00    0.2024006582E-02    0.6495886759E+00    0.1981295809E+00
    0.4700000000E+05    0.1234672010E-01    0.4661331745E+00    0.1942368961E-02    0.6511817422E+00    0.1983006646E+00
    0.4900000000E+05    0.1197725509E-01    0.4663416422E+00    0.1867891605E-02    0.6526320878E+00    0.1984621965E+00
    0.1000000000E+05    0.4625927499E-01    0.4527247459E+00    0.8803617330E-02    0.5147223127E+00    0.1900155483E+00
    0.3000000000E+05    0.1757006246E-01    0.4634819456E+00    0.3017017895E-02    0.6300524492E+00    0.1963977628E+00
    0.5000000000E+05    0.1180383639E-01    0.4664406179E+00    0.1833056077E-02    0.6533093648E+00    0.1985396703E+00
    0.7000000000E+05    0.9380485084E-02    0.4679026020E+00    0.1357401346E-02    0.6624531562E+00    0.1997554692E+00
    0.9000000000E+05    0.8015490223E-02    0.4687891626E+00    0.1102817599E-02    0.6672092680E+00    0.2005816467E+00
    0.1100000000E+06    0.7120681199E-02    0.4693880171E+00    0.9435890014E-03    0.6700907743E+00    0.2011979557E+00
    0.1300000000E+06    0.6478257814E-02    0.4698205943E+00    0.8338794789E-03    0.6720118640E+00    0.2016848212E+00
    0.1500000000E+06    0.5988589647E-02    0.4701477120E+00    0.7531783764E-03    0.6733793453E+00    0.2020846417E+00
    0.1700000000E+06    0.5599325597E-02    0.4704034498E+00    0.6909666286E-03    0.6744001779E+00    0.2024222999E+00
    0.1900000000E+06    0.5280129714E-02    0.4706084914E+00    0.6412966689E-03    0.6751902263E+00    0.2027135528E+00
    0.2100000000E+06    0.5012098623E-02    0.4707761649E+00    0.6005500388E-03    0.6758191956E+00    0.2029689631E+00
    0.2300000000E+06    0.4782774911E-02    0.4709154689E+00    0.5663960722E-03    0.6763314409E+00    0.2031959313E+00
    0.2500000000E+06    0.4583576586E-02    0.4710327107E+00    0.5372634797E-03    0.6767564851E+00    0.2033998300E+00
    0.2700000000E+06    0.4408374755E-02    0.4711324490E+00    0.5120526540E-03    0.6771147165E+00    0.2035846737E+00
    0.2900000000E+06    0.4252660203E-02    0.4712180646E+00    0.4899698024E-03    0.6774206560E+00    0.2037535360E+00
    0.3100000000E+06    0.4113031404E-02    0.4712921199E+00    0.4704266646E-03    0.6776849183E+00    0.2039088188E+00
    0.3300000000E+06    0.3986867247E-02    0.4713565935E+00    0.4529774024E-03    0.6779154389E+00    0.2040524322E+00
    0.3500000000E+06    0.3872110649E-02    0.4714130387E+00    0.4372774988E-03    0.6781182661E+00    0.2041859186E+00
    0.3700000000E+06    0.3767121257E-02    0.4714626920E+00    0.4230561854E-03    0.6782980893E+00    0.2043105405E+00
    0.3900000000E+06    0.3670572615E-02    0.4715065506E+00    0.4100974609E-03    0.6784585991E+00    0.2044273433E+00
    0.4100000000E+06    0.3581378759E-02    0.4715454274E+00    0.3982267225E-03    0.6786027391E+00    0.2045372016E+00
    0.4300000000E+06    0.3498640771E-02    0.4715799922E+00    0.3873011586E-03    0.6787328855E+00    0.2046408544E+00
    0.4500000000E+06    0.3421607192E-02    0.4716108014E+00    0.3772027184E-03    0.6788509767E+00    0.2047389314E+00
    0.4700000000E+06    0.3349644223E-02    0.4716383216E+00    0.3678328832E-03    0.6789586102E+00    0.2048319728E+00
    0.4900000000E+06    0.3282212988E-02    0.4716629466E+00    0.3591087206E-03    0.6790571136E+00    0.2049204460E+00
    0.1000000000E+06    0.7527127844E-02    0.4691148876E+00    0.1015052874E-02    0.6688090912E+00    0.2009097263E+00
    0.3000000000E+06    0.4181014243E-02    0.4712564021E+00    0.4799114087E-03    0.6775574489E+00    0.2038327456E+00
    0.5000000000E+06    0.3250049916E-02    0.4716742800E+00    0.3549663546E-03    0.6791032963E+00    0.2049630985E+00
    0.7000000000E+06    0.2760911069E-02    0.4718087964E+00    0.2934383108E-03    0.6797422146E+00    0.2056520604E+00
    0.9000000000E+06    0.2446228418E-02    0.4718490670E+00    0.2552678745E-03    0.6800910878E+00    0.2061429128E+00
    0.1100000000E+07    0.2221638735E-02    0.4718489440E+00    0.2286773580E-03    0.6803109483E+00    0.2065221397E+00
    0.1300000000E+07    0.2050799974E-02    0.4718291684E+00    0.2088067016E-03    0.6804622597E+00    0.2068301011E+00
    0.1500000000E+07    0.1915100493E-02    0.4717991926E+00    0.1932400705E-03    0.6805728067E+00    0.2070887849E+00
    0.1700000000E+07    0.1803878418E-02    0.4717638102E+00    0.1806240308E-03    0.6806571416E+00    0.2073114477E+00
    0.1900000000E+07    0.1710523139E-02    0.4717256349E+00    0.1701339852E-03    0.6807236237E+00    0.2075066779E+00
    0.2100000000E+07    0.1630686600E-02    0.4716861650E+00    0.1612352382E-03    0.6807773969E+00    0.2076803473E+00
    0.2300000000E+07    0.1561374708E-02    0.4716462885E+00    0.1535639573E-03    0.6808218005E+00    0.2078366421E+00
    0.2500000000E+07    0.1500448660E-02    0.4716065430E+00    0.1468628739E-03    0.6808590970E+00    0.2079786484E+00
    0.2700000000E+07    0.1446334021E-02    0.4715672561E+00    0.1409442712E-03    0.6808908737E+00    0.2081087050E+00
    0.2900000000E+07    0.1397842372E-02    0.4715286259E+00    0.1356675555E-03    0.6809182776E+00    0.2082286252E+00
    0.3100000000E+07    0.1354057408E-02    0.4714907692E+00    0.1309250734E-03    0.6809421577E+00    0.2083398424E+00
    0.3300000000E+07    0.1314259619E-02    0.4714537500E+00    0.1266328186E-03    0.6809631566E+00    0.2084435088E+00
    0.3500000000E+07    0.1277875012E-02    0.4714175986E+00    0.1227241522E-03    0.6809817689E+00    0.2085405642E+00
    0.3700000000E+07    0.1244439279E-02    0.4713823229E+00    0.1191454477E-03    0.6809983823E+00    0.2086317849E+00
    0.3900000000E+07    0.1213572204E-02    0.4713479164E+00    0.1158529992E-03    0.6810133044E+00    0.2087178189E+00
    0.4100000000E+07    0.1184959015E-02    0.4713143633E+00    0.1128107822E-03    0.6810267827E+00    0.2087992133E+00
    0.4300000000E+07    0.1158336558E-02    0.4712816416E+00    0.1099888027E-03    0.6810390187E+00    0.2088764335E+00
    0.4500000000E+07    0.1133482886E-02    0.4712497262E+00    0.1073618592E-03    0.6810501777E+00    0.2089498789E+00
    0.4700000000E+07    0.1110209304E-02    0.4712185896E+00    0.1049086027E-03    0.6810603970E+00    0.2090198946E+00
    0.4900000000E+07    0.1088354219E-02    0.4711882037E+00    0.1026108116E-03    0.6810697916E+00    0.2090867810E+00
    0.1000000000E+07    0.2325547405E-02    0.4718523628E+00    0.2409131857E-03    0.6802122092E+00    0.2063433451E+00
    0.3000000000E+07    0.1375410443E-02    0.4715095959E+00    0.1332352548E-03    0.6809306139E+00    0.2082852440E+00
    0.5000000000E+07    0.1077914319E-02    0.4711732833E+00    0.1015152349E-03    0.6810742104E+00    0.2091191341E+00
    0.7000000000E+07    0.9180432419E-03    0.4709077355E+00    0.8490945088E-04    0.6811363770E+00    0.2096514114E+00
    0.9000000000E+07    0.8142923423E-03    0.4706903670E+00    0.7431509124E-04    0.6811712803E+00    0.2100416928E+00
    0.1100000000E+08    0.7399238967E-03    0.4705065286E+00    0.6681702359E-04    0.6811937165E+00    0.2103494242E+00
    0.1300000000E+08    0.6832145089E-03    0.4703471932E+00    0.6115717150E-04    0.6812093973E+00    0.2106032293E+00
    0.1500000000E+08    0.6381007577E-03    0.4702065165E+00    0.5669255320E-04    0.6812209996E+00    0.2108190720E+00
    0.1700000000E+08    0.6010876268E-03    0.4700805194E+00    0.5305608032E-04    0.6812299470E+00    0.2110067575E+00
    0.1900000000E+08    0.5699991101E-03    0.4699663758E+00    0.5002102932E-04    0.6812370673E+00    0.2111727362E+00
    0.2100000000E+08    0.5433997563E-03    0.4698620073E+00    0.4743886710E-04    0.6812428752E+00    0.2113214756E+00
    0.2300000000E+08    0.5202989749E-03    0.4697658408E+00    0.4520771319E-04    0.6812477078E+00    0.2114561967E+00
    0.2500000000E+08    0.4999879952E-03    0.4696766573E+00    0.4325506584E-04    0.6812517954E+00    0.2115792973E+00
    0.2700000000E+08    0.4819444126E-03    0.4695934922E+00    0.4152774804E-04    0.6812553004E+00    0.2116926102E+00
