  Pressure (Pa) 2mC6-400 (mol/kg) 3mC6-400 (mol/kg) 33mC5-400 (mol/kg) 23mC5-400 (mol/kg) C7-400 (mol/kg)
    0.1000000000E+01    0.1569065840E-02    0.2589584518E-02    0.6389296353E-04    0.2800792461E-03    0.1512898831E-01
    0.3000000000E+01    0.4495957766E-02    0.7358498295E-02    0.1831764659E-03    0.8368481132E-03    0.4300151134E-01
    0.5000000000E+01    0.7177854663E-02    0.1164954064E-01    0.2926074983E-03    0.1389156783E-02    0.6809481882E-01
    0.7000000000E+01    0.9651091260E-02    0.1553167262E-01    0.3936559931E-03    0.1937075065E-02    0.9080934744E-01
    0.9000000000E+01    0.1194510148E-01    0.1906116764E-01    0.4875116706E-03    0.2480671257E-02    0.1114719180E+00
    0.1100000000E+02    0.1408396827E-01    0.2228440276E-01    0.5751470949E-03    0.3020012190E-02    0.1303519231E+00
    0.1300000000E+02    0.1608757615E-01    0.2523994393E-01    0.6573645521E-03    0.3555163264E-02    0.1476734221E+00
    0.1500000000E+02    0.1797248018E-01    0.2796012536E-01    0.7348313746E-03    0.4086188492E-02    0.1636243018E+00
    0.1700000000E+02    0.1975256900E-01    0.3047226038E-01    0.8081068887E-03    0.4613150532E-02    0.1783633018E+00
    0.1900000000E+02    0.2143957670E-01    0.3279958052E-01    0.8776632032E-03    0.5136110726E-02    0.1920254626E+00
    0.2100000000E+02    0.2304348187E-01    0.3496197134E-01    0.9439014148E-03    0.5655129133E-02    0.2047263952E+00
    0.2300000000E+02    0.2457282189E-01    0.3697655453E-01    0.1007164360E-02    0.6170264566E-02    0.2165656595E+00
    0.2500000000E+02    0.2603494248E-01    0.3885815264E-01    0.1067746737E-02    0.6681574622E-02    0.2276294611E+00
    0.2700000000E+02    0.2743619757E-01    0.4061966287E-01    0.1125903211E-02    0.7189115714E-02    0.2379928211E+00
    0.2900000000E+02    0.2878211053E-01    0.4227236037E-01    0.1181854945E-02    0.7692943104E-02    0.2477213367E+00
    0.3100000000E+02    0.3007750524E-01    0.4382614582E-01    0.1235794910E-02    0.8193110928E-02    0.2568726189E+00
    0.3300000000E+02    0.3132661324E-01    0.4528974901E-01    0.1287892218E-02    0.8689672231E-02    0.2654974738E+00
    0.3500000000E+02    0.3253316199E-01    0.4667089725E-01    0.1338295698E-02    0.9182678990E-02    0.2736408814E+00
    0.3700000000E+02    0.3370044787E-01    0.4797645553E-01    0.1387136843E-02    0.9672182143E-02    0.2813428088E+00
    0.3900000000E+02    0.3483139700E-01    0.4921254373E-01    0.1434532269E-02    0.1015823162E-01    0.2886388917E+00
    0.4100000000E+02    0.3592861611E-01    0.5038463526E-01    0.1480585770E-02    0.1064087635E-01    0.2955610067E+00
    0.4300000000E+02    0.3699443529E-01    0.5149764041E-01    0.1525390040E-02    0.1112016431E-01    0.3021377557E+00
    0.4500000000E+02    0.3803094412E-01    0.5255597706E-01    0.1569028137E-02    0.1159614255E-01    0.3083948772E+00
    0.4700000000E+02    0.3904002237E-01    0.5356363108E-01    0.1611574713E-02    0.1206885717E-01    0.3143555964E+00
    0.4900000000E+02    0.4002336603E-01    0.5452420797E-01    0.1653097065E-02    0.1253835342E-01    0.3200409262E+00
    0.1000000000E+02    0.1303259797E-01    0.2070849483E-01    0.5320532420E-03    0.2750869510E-02    0.1211197945E+00
    0.3000000000E+02    0.2943584543E-01    0.4306104617E-01    0.1209065315E-02    0.7943481121E-02    0.2523658095E+00
    0.5000000000E+02    0.4050587271E-01    0.5498787626E-01    0.1673493402E-02    0.1277190854E-01    0.3227863458E+00
    0.7000000000E+02    0.4911011092E-01    0.6244154686E-01    0.2039729954E-02    0.1728442519E-01    0.3670377672E+00
    0.9000000000E+02    0.5625137313E-01    0.6755891383E-01    0.2347438554E-02    0.2152080707E-01    0.3975840224E+00
    0.1100000000E+03    0.6238677446E-01    0.7129885675E-01    0.2614605779E-02    0.2551414865E-01    0.4200282100E+00
    0.1300000000E+03    0.6776582354E-01    0.7415675881E-01    0.2851037195E-02    0.2929222918E-01    0.4372702229E+00
    0.1500000000E+03    0.7254348052E-01    0.7641486050E-01    0.3062835897E-02    0.3287855469E-01    0.4509651948E+00
    0.1700000000E+03    0.7682539097E-01    0.7824600785E-01    0.3254181390E-02    0.3629316234E-01    0.4621285428E+00
    0.1900000000E+03    0.8068858142E-01    0.7976210422E-01    0.3428138314E-02    0.3955324832E-01    0.4714188312E+00
    0.2100000000E+03    0.8419199542E-01    0.8103886923E-01    0.3587066136E-02    0.4267366305E-01    0.4792824690E+00
    0.2300000000E+03    0.8738235221E-01    0.8212941472E-01    0.3732846225E-02    0.4566730540E-01    0.4860331340E+00
    0.2500000000E+03    0.9029765504E-01    0.8307212394E-01    0.3867017653E-02    0.4854543929E-01    0.4918979176E+00
    0.2700000000E+03    0.9296942750E-01    0.8389544376E-01    0.3990863796E-02    0.5131795005E-01    0.4970454202E+00
    0.2900000000E+03    0.9542421569E-01    0.8462091618E-01    0.4105470608E-02    0.5399355350E-01    0.5016035429E+00
    0.3100000000E+03    0.9768464236E-01    0.8526516134E-01    0.4211767654E-02    0.5657996772E-01    0.5056711373E+00
    0.3300000000E+03    0.9977017384E-01    0.8584121264E-01    0.4310558060E-02    0.5908405516E-01    0.5093258580E+00
    0.3500000000E+03    0.1016976950E+00    0.8635943859E-01    0.4402541077E-02    0.6151194076E-01    0.5126295892E+00
    0.3700000000E+03    0.1034819508E+00    0.8682819350E-01    0.4488329480E-02    0.6386911087E-01    0.5156322807E+00
    0.3900000000E+03    0.1051358930E+00    0.8725428594E-01    0.4568463283E-02    0.6616049647E-01    0.5183747105E+00
    0.4100000000E+03    0.1066709560E+00    0.8764332186E-01    0.4643420710E-02    0.6839054355E-01    0.5208905121E+00
    0.4300000000E+03    0.1080972806E+00    0.8799996003E-01    0.4713627124E-02    0.7056327290E-01    0.5232076843E+00
    0.4500000000E+03    0.1094238964E+00    0.8832810480E-01    0.4779462345E-02    0.7268233115E-01    0.5253497320E+00
    0.4700000000E+03    0.1106588739E+00    0.8863105349E-01    0.4841266743E-02    0.7475103456E-01    0.5273365397E+00
    0.4900000000E+03    0.1118094499E+00    0.8891161043E-01    0.4899346325E-02    0.7677240670E-01    0.5291850476E+00
    0.1000000000E+03    0.5942618125E-01    0.6956326025E-01    0.2485358073E-02    0.2354601067E-01    0.4095976964E+00
    0.3000000000E+03    0.9657744109E-01    0.8495230592E-01    0.4159604987E-02    0.5529746179E-01    0.5036933789E+00
    0.5000000000E+03    0.1123551474E+00    0.8904425592E-01    0.4927076616E-02    0.7776621647E-01    0.5300620608E+00
    0.7000000000E+03    0.1201173024E+00    0.9095580608E-01    0.5340616892E-02    0.9571732617E-01    0.5429772261E+00
    0.9000000000E+03    0.1240214996E+00    0.9206265510E-01    0.5577910553E-02    0.1110116681E+00    0.5508005103E+00
    0.1100000000E+04    0.1258216297E+00    0.9278252257E-01    0.5715635741E-02    0.1245514593E+00    0.5561165111E+00
    0.1300000000E+04    0.1263784128E+00    0.9328628709E-01    0.5792231739E-02    0.1368379164E+00    0.5600001814E+00
    0.1500000000E+04    0.1261589766E+00    0.9365706706E-01    0.5829013415E-02    0.1481769536E+00    0.5629827221E+00
    0.1700000000E+04    0.1254360365E+00    0.9394021325E-01    0.5838705210E-02    0.1587686271E+00    0.5653584221E+00
    0.1900000000E+04    0.1243778927E+00    0.9416259132E-01    0.5829345798E-02    0.1687508627E+00    0.5673042276E+00
    0.2100000000E+04    0.1230930279E+00    0.9434113473E-01    0.5806246773E-02    0.1782228048E+00    0.5689333030E+00
    0.2300000000E+04    0.1216538494E+00    0.9448704728E-01    0.5773048155E-02    0.1872581727E+00    0.5703216008E+00
    0.2500000000E+04    0.1201100770E+00    0.9460803691E-01    0.5732320913E-02    0.1959133375E+00    0.5715221168E+00
    0.2700000000E+04    0.1184966567E+00    0.9470957949E-01    0.5685927598E-02    0.2042324329E+00    0.5725730294E+00
    0.2900000000E+04    0.1168386267E+00    0.9479567124E-01    0.5635246980E-02    0.2122507159E+00    0.5735025879E+00
    0.3100000000E+04    0.1151542126E+00    0.9486929588E-01    0.5581318779E-02    0.2199968486E+00    0.5743321758E+00
    0.3300000000E+04    0.1134568520E+00    0.9493272548E-01    0.5524939685E-02    0.2274944920E+00    0.5750782992E+00
    0.3500000000E+04    0.1117565550E+00    0.9498771995E-01    0.5466728712E-02    0.2347634456E+00    0.5757539185E+00
    0.3700000000E+04    0.1100608358E+00    0.9503566316E-01    0.5407172673E-02    0.2418204798E+00    0.5763693632E+00
    0.3900000000E+04    0.1083753660E+00    0.9507765778E-01    0.5346658481E-02    0.2486799559E+00    0.5769329753E+00
    0.4100000000E+04    0.1067044383E+00    0.9511459294E-01    0.5285496478E-02    0.2553542947E+00    0.5774515726E+00
    0.4300000000E+04    0.1050513021E+00    0.9514719317E-01    0.5223937584E-02    0.2618543368E+00    0.5779307856E+00
    0.4500000000E+04    0.1034184100E+00    0.9517605458E-01    0.5162186057E-02    0.2681896225E+00    0.5783753096E+00
    0.4700000000E+04    0.1018075996E+00    0.9520167189E-01    0.5100409142E-02    0.2743686126E+00    0.5787890937E+00
    0.4900000000E+04    0.1002202312E+00    0.9522445890E-01    0.5038744434E-02    0.2803988637E+00    0.5791754863E+00
    0.1000000000E+04    0.1251179556E+00    0.9245724908E-01    0.5656262103E-02    0.1179634198E+00    0.5536860287E+00
    0.3000000000E+04    0.1159987841E+00    0.9483388598E-01    0.5608634222E-02    0.2161562201E+00    0.5739287503E+00
    0.5000000000E+04    0.9943565822E-01    0.9523490219E-01    0.5007990477E-02    0.2833603617E+00    0.5793593208E+00
    0.7000000000E+04    0.8508902994E-01    0.9535657385E-01    0.4417776929E-02    0.3361355426E+00    0.5821141700E+00
    0.9000000000E+04    0.7319606144E-01    0.9539254490E-01    0.3894345116E-02    0.3790725648E+00    0.5838368375E+00
    0.1100000000E+05    0.6338734357E-01    0.9539392773E-01    0.3442053692E-02    0.4145542954E+00    0.5850325986E+00
    0.1300000000E+05    0.5527717306E-01    0.9537934468E-01    0.3054504204E-02    0.4441636478E+00    0.5859161613E+00
    0.1500000000E+05    0.4853819158E-01    0.9535690238E-01    0.2723039766E-02    0.4690667045E+00    0.5865970247E+00
    0.1700000000E+05    0.4290526225E-01    0.9533054774E-01    0.2439178547E-02    0.4901605930E+00    0.5871379644E+00
    0.1900000000E+05    0.3816686470E-01    0.9530235086E-01    0.2195363138E-02    0.5081489627E+00    0.5875779855E+00
    0.2100000000E+05    0.3415506524E-01    0.9527345284E-01    0.1985128711E-02    0.5235892284E+00    0.5879427734E+00
    0.2300000000E+05    0.3073656721E-01    0.9524450235E-01    0.1803054527E-02    0.5369258566E+00    0.5882499980E+00
    0.2500000000E+05    0.2780532799E-01    0.9521587332E-01    0.1644640313E-02    0.5485151915E+00    0.5885122355E+00
    0.2700000000E+05    0.2527666925E-01    0.9518778032E-01    0.1506166356E-02    0.5586444316E+00    0.5887386851E+00
    0.2900000000E+05    0.2308265544E-01    0.9516034268E-01    0.1384561417E-02    0.5675462829E+00    0.5889362292E+00
    0.3100000000E+05    0.2116849682E-01    0.9513362171E-01    0.1277287138E-02    0.5754103293E+00    0.5891101161E+00
    0.3300000000E+05    0.1948975952E-01    0.9510764280E-01    0.1182240699E-02    0.5823918805E+00    0.5892644138E+00
    0.3500000000E+05    0.1801020208E-01    0.9508240908E-01    0.1097674550E-02    0.5886188780E+00    0.5894023216E+00
    0.3700000000E+05    0.1670009524E-01    0.9505790994E-01    0.1022131010E-02    0.5941973021E+00    0.5895263869E+00
    0.3900000000E+05    0.1553491305E-01    0.9503412639E-01    0.9543892872E-03    0.5992154206E+00    0.5896386621E+00
    0.4100000000E+05    0.1449430935E-01    0.9501103459E-01    0.8934226934E-03    0.6037471418E+00    0.5897408171E+00
    0.4300000000E+05    0.1356131386E-01    0.9498860811E-01    0.8383640993E-03    0.6078546720E+00    0.5898342238E+00
    0.4500000000E+05    0.1272169764E-01    0.9496681934E-01    0.7884780140E-03    0.6115906310E+00    0.5899200188E+00
    0.4700000000E+05    0.1196346982E-01    0.9494564050E-01    0.7431379710E-03    0.6149997457E+00    0.5899991511E+00
    0.4900000000E+05    0.1127647629E-01    0.9492504422E-01    0.7018081618E-03    0.6181202114E+00    0.5900724188E+00
    0.1000000000E+05    0.6805640141E-01    0.9539602180E-01    0.3659603940E-02    0.3976340195E+00    0.5844835603E+00
    0.3000000000E+05    0.2209358604E-01    0.9514689038E-01    0.1329273561E-02    0.5715976107E+00    0.5890258521E+00
    0.5000000000E+05    0.1095694099E-01    0.9491495620E-01    0.6825007023E-03    0.6195826259E+00    0.5901070688E+00
    0.7000000000E+05    0.6769509553E-02    0.9473794053E-01    0.4238200941E-03    0.6395886703E+00    0.5906121357E+00
    0.9000000000E+05    0.4746529938E-02    0.9459612829E-01    0.2942527016E-03    0.6500977946E+00    0.5909195535E+00
    0.1100000000E+06    0.3606637696E-02    0.9447801344E-01    0.2195769402E-03    0.6564472995E+00    0.5911344311E+00
    0.1300000000E+06    0.2894658253E-02    0.9437682917E-01    0.1722716065E-03    0.6606547860E+00    0.5912975639E+00
    0.1500000000E+06    0.2416038212E-02    0.9428832183E-01    0.1402069703E-03    0.6636302259E+00    0.5914282678E+00
    0.1700000000E+06    0.2076109188E-02    0.9420965641E-01    0.1173418166E-03    0.6658379954E+00    0.5915369808E+00
    0.1900000000E+06    0.1824175098E-02    0.9413885224E-01    0.1003814612E-03    0.6675376573E+00    0.5916298997E+00
    0.2100000000E+06    0.1631011925E-02    0.9407447204E-01    0.8739881935E-04    0.6688847773E+00    0.5917109716E+00
    0.2300000000E+06    0.1478759589E-02    0.9401544012E-01    0.7720226873E-04    0.6699778770E+00    0.5917828505E+00
    0.2500000000E+06    0.1355972136E-02    0.9396093054E-01    0.6902085963E-04    0.6708821994E+00    0.5918474000E+00
    0.2700000000E+06    0.1255019714E-02    0.9391029535E-01    0.6233673103E-04    0.6716425727E+00    0.5919059752E+00
    0.2900000000E+06    0.1170644783E-02    0.9386301689E-01    0.5679084520E-04    0.6722907658E+00    0.5919595905E+00
    0.3100000000E+06    0.1099120436E-02    0.9381867497E-01    0.5212745769E-04    0.6728498939E+00    0.5920090241E+00
    0.3300000000E+06    0.1037739352E-02    0.9377692388E-01    0.4816009433E-04    0.6733371611E+00    0.5920548853E+00
    0.3500000000E+06    0.9844924208E-03    0.9373747572E-01    0.4474998743E-04    0.6737656274E+00    0.5920976599E+00
    0.3700000000E+06    0.9378603958E-03    0.9370008819E-01    0.4179199960E-04    0.6741453798E+00    0.5921377412E+00
    0.3900000000E+06    0.8966751492E-03    0.9366455540E-01    0.3920519400E-04    0.6744843294E+00    0.5921754519E+00
    0.4100000000E+06    0.8600250587E-03    0.9363070096E-01    0.3692637065E-04    0.6747887657E+00    0.5922110601E+00
    0.4300000000E+06    0.8271891096E-03    0.9359837256E-01    0.3490554408E-04    0.6750637509E+00    0.5922447908E+00
    0.4500000000E+06    0.7975901172E-03    0.9356743778E-01    0.3310272074E-04    0.6753134040E+00    0.5922768348E+00
    0.4700000000E+06    0.7707609463E-03    0.9353778078E-01    0.3148556395E-04    0.6755411104E+00    0.5923073551E+00
    0.4900000000E+06    0.7463197366E-03    0.9350929960E-01    0.3002767654E-04    0.6757496778E+00    0.5923364921E+00
    0.1000000000E+06    0.4104020505E-02    0.9453460899E-01    0.2523205996E-03    0.6536272274E+00    0.5910352554E+00
    0.3000000000E+06    0.1133464932E-02    0.9384050199E-01    0.5436181890E-04    0.6725802735E+00    0.5919847886E+00
    0.5000000000E+06    0.7348939680E-03    0.9349547136E-01    0.2935151178E-04    0.6758475334E+00    0.5923505806E+00
    0.7000000000E+06    0.5779624901E-03    0.9326334697E-01    0.2049430457E-04    0.6772093040E+00    0.5925823638E+00
    0.9000000000E+06    0.4913747084E-03    0.9308802315E-01    0.1605758073E-04    0.6779648161E+00    0.5927530285E+00
    0.1100000000E+07    0.4351106905E-03    0.9294703654E-01    0.1340178204E-04    0.6784495045E+00    0.5928884469E+00
    0.1300000000E+07    0.3949027398E-03    0.9282908804E-01    0.1163012818E-04    0.6787891397E+00    0.5930008537E+00
    0.1500000000E+07    0.3643434259E-03    0.9272768157E-01    0.1035941409E-04    0.6790416819E+00    0.5930970240E+00
    0.1700000000E+07    0.3400996970E-03    0.9263873502E-01    0.9399670412E-05    0.6792376415E+00    0.5931811098E+00
    0.1900000000E+07    0.3202516474E-03    0.9255951423E-01    0.8646327763E-05    0.6793946539E+00    0.5932558431E+00
    0.2100000000E+07    0.3036074295E-03    0.9248809757E-01    0.8037158602E-05    0.6795236466E+00    0.5933231191E+00
    0.2300000000E+07    0.2893835966E-03    0.9242308259E-01    0.7532828473E-05    0.6796317646E+00    0.5933843070E+00
    0.2500000000E+07    0.2770413938E-03    0.9236341426E-01    0.7107248220E-05    0.6797238853E+00    0.5934404290E+00
    0.2700000000E+07    0.2661965793E-03    0.9230827883E-01    0.6742421196E-05    0.6798034564E+00    0.5934922684E+00
    0.2900000000E+07    0.2565667514E-03    0.9225703541E-01    0.6425521563E-05    0.6798729873E+00    0.5935404392E+00
    0.3100000000E+07    0.2479390639E-03    0.9220917021E-01    0.6147153637E-05    0.6799343502E+00    0.5935854313E+00
    0.3300000000E+07    0.2401496248E-03    0.9216426499E-01    0.5900270766E-05    0.6799889716E+00    0.5936276426E+00
    0.3500000000E+07    0.2330698932E-03    0.9212197471E-01    0.5679479579E-05    0.6800379586E+00    0.5936674000E+00
    0.3700000000E+07    0.2265974294E-03    0.9208201139E-01    0.5480578281E-05    0.6800821841E+00    0.5937049758E+00
    0.3900000000E+07    0.2206494419E-03    0.9204413220E-01    0.5300241966E-05    0.6801223462E+00    0.5937405993E+00
    0.4100000000E+07    0.2151581846E-03    0.9200813045E-01    0.5135803022E-05    0.6801590105E+00    0.5937744651E+00
    0.4300000000E+07    0.2100676077E-03    0.9197382876E-01    0.4985094655E-05    0.6801926400E+00    0.5938067400E+00
    0.4500000000E+07    0.2053308783E-03    0.9194107379E-01    0.4846337307E-05    0.6802236179E+00    0.5938375683E+00
    0.4700000000E+07    0.2009085145E-03    0.9190973204E-01    0.4718054808E-05    0.6802522640E+00    0.5938670750E+00
    0.4900000000E+07    0.1967669622E-03    0.9187968661E-01    0.4599011535E-05    0.6802788478E+00    0.5938953699E+00
    0.1000000000E+07    0.4606261658E-03    0.9301410017E-01    0.1458178077E-04    0.6782307516E+00    0.5928241976E+00
    0.3000000000E+07    0.2521388451E-03    0.9223270862E-01    0.6282007032E-05    0.6799045919E+00    0.5935633058E+00
    0.5000000000E+07    0.1947923498E-03    0.9186511736E-01    0.4542622264E-05    0.6802914390E+00    0.5939090935E+00
    0.7000000000E+07    0.1648315120E-03    0.9162218656E-01    0.3715060450E-05    0.6804757770E+00    0.5941382832E+00
    0.9000000000E+07    0.1456326419E-03    0.9144046456E-01    0.3210790472E-05    0.6805871954E+00    0.5943102498E+00
    0.1100000000E+08    0.1319716201E-03    0.9129524596E-01    0.2863428100E-05    0.6806632809E+00    0.5944480405E+00
    0.1300000000E+08    0.1216051579E-03    0.9117430007E-01    0.2605866794E-05    0.6807192651E+00    0.5945630651E+00
    0.1500000000E+08    0.1133874282E-03    0.9107066986E-01    0.2405258341E-05    0.6807625889E+00    0.5946618193E+00
    0.1700000000E+08    0.1066634890E-03    0.9098001756E-01    0.2243404655E-05    0.6807973560E+00    0.5947483582E+00
    0.1900000000E+08    0.1010280382E-03    0.9089945522E-01    0.2109312759E-05    0.6808260321E+00    0.5948253849E+00
    0.2100000000E+08    0.9621493968E-04    0.9082696290E-01    0.1995902678E-05    0.6808501965E+00    0.5948947925E+00
    0.2300000000E+08    0.9204120278E-04    0.9076107229E-01    0.1898383474E-05    0.6808709121E+00    0.5949579589E+00
    0.2500000000E+08    0.8837628416E-04    0.9070068250E-01    0.1813383054E-05    0.6808889232E+00    0.5950159181E+00
    0.2700000000E+08    0.8512420263E-04    0.9064494687E-01    0.1738450597E-05    0.6809047682E+00    0.5950694667E+00
