  Pressure (Pa) 2mC6-400 (mol/kg) 3mC6-400 (mol/kg) 33mC5-400 (mol/kg) 23mC5-400 (mol/kg) C7-400 (mol/kg)
    0.1000000000E+01    0.1592689124E-02    0.3165932448E-02    0.4538940490E-03    0.3732462855E-03    0.1712449802E-02
    0.3000000000E+01    0.4692110486E-02    0.9318746790E-02    0.1337359122E-02    0.1114083442E-02    0.5040940554E-02
    0.5000000000E+01    0.7682243893E-02    0.1524428352E-01    0.2189902587E-02    0.1847503284E-02    0.8247046081E-02
    0.7000000000E+01    0.1056905259E-01    0.2095537631E-01    0.3013215338E-02    0.2573650195E-02    0.1133766716E-01
    0.9000000000E+01    0.1335805805E-01    0.2646390205E-01    0.3808862724E-02    0.3292664685E-02    0.1431919046E-01
    0.1100000000E+02    0.1605438071E-01    0.3178086863E-01    0.4578296129E-02    0.4004683520E-02    0.1719753571E-01
    0.1300000000E+02    0.1866277619E-01    0.3691649316E-01    0.5322863301E-02    0.4709839845E-02    0.1997819771E-01
    0.1500000000E+02    0.2118766775E-01    0.4188027196E-01    0.6043817565E-02    0.5408263309E-02    0.2266628390E-01
    0.1700000000E+02    0.2363317523E-01    0.4668104319E-01    0.6742326075E-02    0.6100080177E-02    0.2526654803E-01
    0.1900000000E+02    0.2600314103E-01    0.5132704308E-01    0.7419477200E-02    0.6785413444E-02    0.2778342034E-01
    0.2100000000E+02    0.2830115352E-01    0.5582595648E-01    0.8076287176E-02    0.7464382938E-02    0.3022103472E-01
    0.2300000000E+02    0.3053056798E-01    0.6018496236E-01    0.8713706077E-02    0.8137105428E-02    0.3258325319E-01
    0.2500000000E+02    0.3269452563E-01    0.6441077494E-01    0.9332623208E-02    0.8803694719E-02    0.3487368793E-01
    0.2700000000E+02    0.3479597070E-01    0.6850968084E-01    0.9933871975E-02    0.9464261747E-02    0.3709572126E-01
    0.2900000000E+02    0.3683766594E-01    0.7248757264E-01    0.1051823429E-01    0.1011891467E-01    0.3925252372E-01
    0.3100000000E+02    0.3882220668E-01    0.7634997948E-01    0.1108644456E-01    0.1076775896E-01    0.4134707043E-01
    0.3300000000E+02    0.4075203355E-01    0.8010209468E-01    0.1163919331E-01    0.1141089748E-01    0.4338215600E-01
    0.3500000000E+02    0.4262944411E-01    0.8374880103E-01    0.1217713051E-01    0.1204843058E-01    0.4536040808E-01
    0.3700000000E+02    0.4445660339E-01    0.8729469369E-01    0.1270086850E-01    0.1268045614E-01    0.4728429966E-01
    0.3900000000E+02    0.4623555350E-01    0.9074410118E-01    0.1321098481E-01    0.1330706969E-01    0.4915616040E-01
    0.4100000000E+02    0.4796822247E-01    0.9410110453E-01    0.1370802463E-01    0.1392836445E-01    0.5097818684E-01
    0.4300000000E+02    0.4965643226E-01    0.9736955476E-01    0.1419250305E-01    0.1454443144E-01    0.5275245187E-01
    0.4500000000E+02    0.5130190613E-01    0.1005530890E+00    0.1466490722E-01    0.1515535948E-01    0.5448091335E-01
    0.4700000000E+02    0.5290627541E-01    0.1036551451E+00    0.1512569822E-01    0.1576123531E-01    0.5616542198E-01
    0.4900000000E+02    0.5447108567E-01    0.1066789754E+00    0.1557531286E-01    0.1636214364E-01    0.5780772863E-01
    0.1000000000E+02    0.1471749935E-01    0.2914567399E-01    0.4196769623E-02    0.3649540154E-02    0.1577090742E-01
    0.3000000000E+02    0.3783692460E-01    0.7443287953E-01    0.1080431428E-01    0.1044405641E-01    0.4030740031E-01
    0.5000000000E+02    0.5523911713E-01    0.1081625244E+00    0.1579605930E-01    0.1666076092E-01    0.5861357769E-01
    0.7000000000E+02    0.6884168010E-01    0.1343939257E+00    0.1971428383E-01    0.2239149131E-01    0.7287425567E-01
    0.9000000000E+02    0.7976881056E-01    0.1554694564E+00    0.2287648486E-01    0.2770887699E-01    0.8435087665E-01
    0.1100000000E+03    0.8872897902E-01    0.1728380485E+00    0.2548255037E-01    0.3267117549E-01    0.9382417646E-01
    0.1300000000E+03    0.9619412952E-01    0.1874456483E+00    0.2766554179E-01    0.3732570891E-01    0.1018041476E+00
    0.1500000000E+03    0.1024926838E+00    0.1999370393E+00    0.2951801590E-01    0.4171135297E-01    0.1086386061E+00
    0.1700000000E+03    0.1078613609E+00    0.2107675103E+00    0.3110667330E-01    0.4586037109E-01    0.1145732819E+00
    0.1900000000E+03    0.1124757625E+00    0.2202681441E+00    0.3248099489E-01    0.4979978686E-01    0.1197869642E+00
    0.2100000000E+03    0.1164693053E+00    0.2286857741E+00    0.3367858273E-01    0.5355242549E-01    0.1244130177E+00
    0.2300000000E+03    0.1199454182E+00    0.2362083964E+00    0.3472859816E-01    0.5713771432E-01    0.1285530709E+00
    0.2500000000E+03    0.1229856729E+00    0.2429818716E+00    0.3565405179E-01    0.6057230514E-01    0.1322860156E+00
    0.2700000000E+03    0.1256553628E+00    0.2491212185E+00    0.3647337402E-01    0.6387056333E-01    0.1356740947E+00
    0.2900000000E+03    0.1280074297E+00    0.2547184425E+00    0.3720151994E-01    0.6704495598E-01    0.1387671231E+00
    0.3100000000E+03    0.1300852892E+00    0.2598480827E+00    0.3785076398E-01    0.7010636276E-01    0.1416054796E+00
    0.3300000000E+03    0.1319249035E+00    0.2645712192E+00    0.3843128273E-01    0.7306432687E-01    0.1442222689E+00
    0.3500000000E+03    0.1335563278E+00    0.2689384183E+00    0.3895158985E-01    0.7592725939E-01    0.1466449113E+00
    0.3700000000E+03    0.1350048830E+00    0.2729919319E+00    0.3941886555E-01    0.7870260670E-01    0.1488963300E+00
    0.3900000000E+03    0.1362920561E+00    0.2767673637E+00    0.3983920984E-01    0.8139698875E-01    0.1509958511E+00
    0.4100000000E+03    0.1374362005E+00    0.2802949461E+00    0.4021783939E-01    0.8401631381E-01    0.1529598930E+00
    0.4300000000E+03    0.1384530873E+00    0.2836005326E+00    0.4055924250E-01    0.8656587444E-01    0.1548025031E+00
    0.4500000000E+03    0.1393563427E+00    0.2867063750E+00    0.4086730215E-01    0.8905042808E-01    0.1565357779E+00
    0.4700000000E+03    0.1401577995E+00    0.2896317405E+00    0.4114539479E-01    0.9147426509E-01    0.1581701961E+00
    0.4900000000E+03    0.1408677805E+00    0.2923934041E+00    0.4139647024E-01    0.9384126656E-01    0.1597148858E+00
    0.1000000000E+03    0.8446108682E-01    0.1645491702E+00    0.2423953755E-01    0.3023123115E-01    0.8930131413E-01
    0.3000000000E+03    0.1290782333E+00    0.2573376164E+00    0.3753532518E-01    0.6858915743E-01    0.1402159167E+00
    0.5000000000E+03    0.1411913385E+00    0.2937175079E+00    0.4151269794E-01    0.9500456718E-01    0.1604561193E+00
    0.7000000000E+03    0.1445558970E+00    0.3143609861E+00    0.4290562912E-01    0.1159906583E+00    0.1720716405E+00
    0.9000000000E+03    0.1445547409E+00    0.3280841393E+00    0.4326286044E-01    0.1338689011E+00    0.1798689223E+00
    0.1100000000E+04    0.1430414957E+00    0.3380516598E+00    0.4312826499E-01    0.1497131437E+00    0.1855816783E+00
    0.1300000000E+04    0.1407982622E+00    0.3457135866E+00    0.4273692800E-01    0.1641040887E+00    0.1900077659E+00
    0.1500000000E+04    0.1381981871E+00    0.3518400624E+00    0.4220437507E-01    0.1773904917E+00    0.1935726578E+00
    0.1700000000E+04    0.1354343063E+00    0.3568830541E+00    0.4159258103E-01    0.1897982460E+00    0.1965269920E+00
    0.1900000000E+04    0.1326120711E+00    0.3611276624E+00    0.4093696430E-01    0.2014822698E+00    0.1990294340E+00
    0.2100000000E+04    0.1297911433E+00    0.3647638489E+00    0.4025873912E-01    0.2125536788E+00    0.2011860588E+00
    0.2300000000E+04    0.1270059029E+00    0.3679237432E+00    0.3957106542E-01    0.2230951105E+00    0.2030708847E+00
    0.2500000000E+04    0.1242761747E+00    0.3707024901E+00    0.3888231901E-01    0.2331698928E+00    0.2047373754E+00
    0.2700000000E+04    0.1216131330E+00    0.3731705869E+00    0.3819792531E-01    0.2428277991E+00    0.2062252612E+00
    0.2900000000E+04    0.1190226867E+00    0.3753815334E+00    0.3752143320E-01    0.2521088079E+00    0.2075647789E+00
    0.3100000000E+04    0.1165074871E+00    0.3773767659E+00    0.3685516713E-01    0.2610456425E+00    0.2087794111E+00
    0.3300000000E+04    0.1140681517E+00    0.3791889443E+00    0.3620063558E-01    0.2696655366E+00    0.2098877161E+00
    0.3500000000E+04    0.1117040267E+00    0.3808442074E+00    0.3555879359E-01    0.2779914928E+00    0.2109045847E+00
    0.3700000000E+04    0.1094136706E+00    0.3823637570E+00    0.3493021548E-01    0.2860431981E+00    0.2118421255E+00
    0.3900000000E+04    0.1071951656E+00    0.3837649956E+00    0.3431521064E-01    0.2938377037E+00    0.2127103013E+00
    0.4100000000E+04    0.1050463198E+00    0.3850623594E+00    0.3371390258E-01    0.3013899377E+00    0.2135173963E+00
    0.4300000000E+04    0.1029647995E+00    0.3862679378E+00    0.3312628364E-01    0.3087130969E+00    0.2142703643E+00
    0.4500000000E+04    0.1009482155E+00    0.3873919426E+00    0.3255225342E-01    0.3158189517E+00    0.2149750922E+00
    0.4700000000E+04    0.9899417954E-01    0.3884430662E+00    0.3199164599E-01    0.3227180847E+00    0.2156366021E+00
    0.4900000000E+04    0.9710034061E-01    0.3894287610E+00    0.3144424949E-01    0.3294200801E+00    0.2162592090E+00
    0.1000000000E+04    0.1439243118E+00    0.3334239828E+00    0.4323829631E-01    0.1420016130E+00    0.1829235582E+00
    0.3000000000E+04    0.1177556054E+00    0.3764038974E+00    0.3718691213E-01    0.2566184330E+00    0.2081864473E+00
    0.5000000000E+04    0.9617527636E-01    0.3898991169E+00    0.3117543012E-01    0.3326999114E+00    0.2165571099E+00
    0.7000000000E+04    0.8032129058E-01    0.3970516970E+00    0.2642567884E-01    0.3897374275E+00    0.2211603566E+00
    0.9000000000E+04    0.6839491689E-01    0.4016260987E+00    0.2267922197E-01    0.4339263672E+00    0.2241926868E+00
    0.1100000000E+05    0.5922230147E-01    0.4048598462E+00    0.1969743760E-01    0.4687792392E+00    0.2263909562E+00
    0.1300000000E+05    0.5203242026E-01    0.4072940427E+00    0.1729874045E-01    0.4966560964E+00    0.2280828793E+00
    0.1500000000E+05    0.4630101709E-01    0.4092073085E+00    0.1534760843E-01    0.5192358399E+00    0.2294397268E+00
    0.1700000000E+05    0.4166218456E-01    0.4107594267E+00    0.1374301260E-01    0.5377415017E+00    0.2305610227E+00
    0.1900000000E+05    0.3785527388E-01    0.4120493505E+00    0.1240934452E-01    0.5530765773E+00    0.2315091348E+00
    0.2100000000E+05    0.3469136041E-01    0.4131420081E+00    0.1128964998E-01    0.5659161086E+00    0.2323254254E+00
    0.2300000000E+05    0.3203134418E-01    0.4140819693E+00    0.1034067695E-01    0.5767698700E+00    0.2330385664E+00
    0.2500000000E+05    0.2977131300E-01    0.4149009591E+00    0.9529281369E-02    0.5860269088E+00    0.2336691514E+00
    0.2700000000E+05    0.2783258090E-01    0.4156222430E+00    0.8829823924E-02    0.5939872407E+00    0.2342324097E+00
    0.2900000000E+05    0.2615480130E-01    0.4162633136E+00    0.8222280874E-02    0.6008845891E+00    0.2347398822E+00
    0.3100000000E+05    0.2469113743E-01    0.4168376049E+00    0.7690866527E-02    0.6069028342E+00    0.2352004986E+00
    0.3300000000E+05    0.2340482945E-01    0.4173556235E+00    0.7223022239E-02    0.6121880149E+00    0.2356212923E+00
    0.3500000000E+05    0.2226672314E-01    0.4178257181E+00    0.6808668767E-02    0.6168571655E+00    0.2360078903E+00
    0.3700000000E+05    0.2125346894E-01    0.4182546157E+00    0.6439648814E-02    0.6210048815E+00    0.2363648561E+00
    0.3900000000E+05    0.2034619429E-01    0.4186478034E+00    0.6109307878E-02    0.6247082422E+00    0.2366959358E+00
    0.4100000000E+05    0.1952951401E-01    0.4190098068E+00    0.5812176369E-02    0.6280305357E+00    0.2370042379E+00
    0.4300000000E+05    0.1879078494E-01    0.4193443949E+00    0.5543726515E-02    0.6310241021E+00    0.2372923668E+00
    0.4500000000E+05    0.1811953891E-01    0.4196547350E+00    0.5300184900E-02    0.6337325223E+00    0.2375625238E+00
    0.4700000000E+05    0.1750704732E-01    0.4199435102E+00    0.5078386767E-02    0.6361923164E+00    0.2378165838E+00
    0.4900000000E+05    0.1694598380E-01    0.4202130098E+00    0.4875661888E-02    0.6384342730E+00    0.2380561561E+00
    0.1000000000E+05    0.6351975003E-01    0.4033678335E+00    0.2110532472E-01    0.4523527243E+00    0.2253703165E+00
    0.3000000000E+05    0.2539870574E-01    0.4165580918E+00    0.7947908319E-02    0.6039937017E+00    0.2349755700E+00
    0.5000000000E+05    0.1668276543E-01    0.4203411569E+00    0.4780730135E-02    0.6394818790E+00    0.2381709511E+00
    0.7000000000E+05    0.1302674079E-01    0.4222505142E+00    0.3481084202E-02    0.6536269780E+00    0.2399619576E+00
    0.9000000000E+05    0.1100277947E-01    0.4234268142E+00    0.2788134994E-02    0.6609310422E+00    0.2411656913E+00
    0.1100000000E+06    0.9698439702E-02    0.4242321297E+00    0.2358920474E-02    0.6653064113E+00    0.2420551816E+00
    0.1300000000E+06    0.8775338961E-02    0.4248209723E+00    0.2066345786E-02    0.6681900737E+00    0.2427520730E+00
    0.1500000000E+06    0.8079885897E-02    0.4252713975E+00    0.1853332078E-02    0.6702208977E+00    0.2433202096E+00
    0.1700000000E+06    0.7532219168E-02    0.4256274576E+00    0.1690656518E-02    0.6717223238E+00    0.2437968961E+00
    0.1900000000E+06    0.7086564035E-02    0.4259160549E+00    0.1561865552E-02    0.6728742756E+00    0.2442056570E+00
    0.2100000000E+06    0.6714692940E-02    0.4261546205E+00    0.1457002364E-02    0.6737842554E+00    0.2445621987E+00
    0.2300000000E+06    0.6398182193E-02    0.4263549828E+00    0.1369691008E-02    0.6745201995E+00    0.2448774843E+00
    0.2500000000E+06    0.6124450170E-02    0.4265254709E+00    0.1295658477E-02    0.6751270249E+00    0.2451594432E+00
    0.2700000000E+06    0.5884582164E-02    0.4266721318E+00    0.1231932021E-02    0.6756355534E+00    0.2454139809E+00
    0.2900000000E+06    0.5672065637E-02    0.4267994679E+00    0.1176377875E-02    0.6760676035E+00    0.2456456038E+00
    0.3100000000E+06    0.5482018979E-02    0.4269109055E+00    0.1127423405E-02    0.6764390339E+00    0.2458578221E+00
    0.3300000000E+06    0.5310701989E-02    0.4270091006E+00    0.1083882935E-02    0.6767616360E+00    0.2460534196E+00
    0.3500000000E+06    0.5155194348E-02    0.4270961455E+00    0.1044844778E-02    0.6770443521E+00    0.2462346376E+00
    0.3700000000E+06    0.5013178111E-02    0.4271737120E+00    0.1009595763E-02    0.6772940823E+00    0.2464033054E+00
    0.3900000000E+06    0.4882786723E-02    0.4272431527E+00    0.9775694899E-03    0.6775162323E+00    0.2465609341E+00
    0.4100000000E+06    0.4762497832E-02    0.4273055743E+00    0.9483100264E-03    0.6777150957E+00    0.2467087849E+00
    0.4300000000E+06    0.4651055634E-02    0.4273618915E+00    0.9214459298E-03    0.6778941243E+00    0.2468479205E+00
    0.4500000000E+06    0.4547413618E-02    0.4274128669E+00    0.8966713033E-03    0.6780561239E+00    0.2469792443E+00
    0.4700000000E+06    0.4450691662E-02    0.4274591417E+00    0.8737317621E-03    0.6782033979E+00    0.2471035302E+00
    0.4900000000E+06    0.4360143416E-02    0.4275012590E+00    0.8524138801E-03    0.6783378543E+00    0.2472214454E+00
    0.1000000000E+06    0.1028837751E-01    0.4238635772E+00    0.2550993896E-02    0.6633665640E+00    0.2416401634E+00
    0.3000000000E+06    0.5574489694E-02    0.4268569928E+00    0.1151157304E-02    0.6762600806E+00    0.2457539500E+00
    0.5000000000E+06    0.4316981477E-02    0.4275209060E+00    0.8423055457E-03    0.6784007846E+00    0.2472781981E+00
    0.7000000000E+06    0.3662520025E-02    0.4277788416E+00    0.6931722746E-03    0.6792638030E+00    0.2481863867E+00
    0.9000000000E+06    0.3243087819E-02    0.4278944483E+00    0.6015479427E-03    0.6797285277E+00    0.2488235403E+00
    0.1100000000E+07    0.2944322748E-02    0.4279453561E+00    0.5380833799E-03    0.6800187701E+00    0.2493101588E+00
    0.1300000000E+07    0.2717319781E-02    0.4279624679E+00    0.4908334104E-03    0.6802172565E+00    0.2497017434E+00
    0.1500000000E+07    0.2537138848E-02    0.4279603682E+00    0.4539138515E-03    0.6803615869E+00    0.2500282158E+00
    0.1700000000E+07    0.2389531066E-02    0.4279467441E+00    0.4240491732E-03    0.6804712945E+00    0.2503074587E+00
    0.1900000000E+07    0.2265677935E-02    0.4279259730E+00    0.3992531410E-03    0.6805575278E+00    0.2505509714E+00
    0.2100000000E+07    0.2159786748E-02    0.4279006935E+00    0.3782424920E-03    0.6806271124E+00    0.2507665651E+00
    0.2300000000E+07    0.2067872479E-02    0.4278725659E+00    0.3601465390E-03    0.6806844604E+00    0.2509597762E+00
    0.2500000000E+07    0.1987090562E-02    0.4278426695E+00    0.3443510414E-03    0.6807325506E+00    0.2511346657E+00
    0.2700000000E+07    0.1915348232E-02    0.4278117246E+00    0.3304086729E-03    0.6807734666E+00    0.2512942964E+00
    0.2900000000E+07    0.1851066552E-02    0.4277802208E+00    0.3179849359E-03    0.6808087099E+00    0.2514410329E+00
    0.3100000000E+07    0.1793028562E-02    0.4277484958E+00    0.3068240509E-03    0.6808393898E+00    0.2515767375E+00
    0.3300000000E+07    0.1740278962E-02    0.4277167844E+00    0.2967266536E-03    0.6808663435E+00    0.2517029015E+00
    0.3500000000E+07    0.1692055847E-02    0.4276852512E+00    0.2875347555E-03    0.6808902151E+00    0.2518207372E+00
    0.3700000000E+07    0.1647743035E-02    0.4276540107E+00    0.2791213292E-03    0.6809115080E+00    0.2519312430E+00
    0.3900000000E+07    0.1606836035E-02    0.4276231427E+00    0.2713829264E-03    0.6809306214E+00    0.2520352499E+00
    0.4100000000E+07    0.1568917251E-02    0.4275927015E+00    0.2642343385E-03    0.6809478760E+00    0.2521334575E+00
    0.4300000000E+07    0.1533637614E-02    0.4275627231E+00    0.2576046636E-03    0.6809635325E+00    0.2522264594E+00
    0.4500000000E+07    0.1500702749E-02    0.4275332303E+00    0.2514343617E-03    0.6809778047E+00    0.2523147639E+00
    0.4700000000E+07    0.1469862409E-02    0.4275042361E+00    0.2456730188E-03    0.6809908699E+00    0.2523988092E+00
    0.4900000000E+07    0.1440902306E-02    0.4274757461E+00    0.2402776252E-03    0.6810028764E+00    0.2524789758E+00
    0.1000000000E+07    0.3082496684E-02    0.4279254909E+00    0.5672521391E-03    0.6798886852E+00    0.2490813425E+00
    0.3000000000E+07    0.1821332012E-02    0.4277643693E+00    0.3122602156E-03    0.6808245627E+00    0.2515101635E+00
    0.5000000000E+07    0.1427068610E-02    0.4274616905E+00    0.2377054074E-03    0.6810085224E+00    0.2525177100E+00
    0.7000000000E+07    0.1215239606E-02    0.4272056593E+00    0.1987386793E-03    0.6810878671E+00    0.2531511224E+00
    0.9000000000E+07    0.1077780927E-02    0.4269899637E+00    0.1738963398E-03    0.6811323585E+00    0.2536111964E+00
    0.1100000000E+08    0.9792558464E-03    0.4268045419E+00    0.1563217975E-03    0.6811609479E+00    0.2539715480E+00
    0.1300000000E+08    0.9041289558E-03    0.4266421090E+00    0.1430595177E-03    0.6811809306E+00    0.2542672519E+00
    0.1500000000E+08    0.8443657554E-03    0.4264976005E+00    0.1326000558E-03    0.6811957206E+00    0.2545177161E+00
    0.1700000000E+08    0.7953352496E-03    0.4263674246E+00    0.1240820574E-03    0.6812071313E+00    0.2547347871E+00
    0.1900000000E+08    0.7541542381E-03    0.4262489603E+00    0.1169737097E-03    0.6812162165E+00    0.2549262184E+00
    0.2100000000E+08    0.7189207869E-03    0.4261402430E+00    0.1109266973E-03    0.6812236314E+00    0.2550973570E+00
    0.2300000000E+08    0.6883224100E-03    0.4260397642E+00    0.1057021555E-03    0.6812298049E+00    0.2552520433E+00
    0.2500000000E+08    0.6614200310E-03    0.4259463411E+00    0.1011301276E-03    0.6812350298E+00    0.2553931272E+00
    0.2700000000E+08    0.6375215056E-03    0.4258590298E+00    0.9708597467E-04    0.6812395130E+00    0.2555227807E+00
