  Pressure (Pa) 2mC6-400 (mol/kg) 3mC6-400 (mol/kg) 33mC5-400 (mol/kg) 23mC5-400 (mol/kg) C7-400 (mol/kg)
    0.1000000000E+01    0.1583408136E-02    0.3143760096E-02    0.6446881056E-04    0.6531626514E-03    0.6802063576E-02
    0.3000000000E+01    0.4613057055E-02    0.9129284176E-02    0.1878738233E-03    0.1949480939E-02    0.1975583142E-01
    0.5000000000E+01    0.7474102168E-02    0.1474387842E-01    0.3044806156E-03    0.3232672373E-02    0.3191068696E-01
    0.7000000000E+01    0.1018181580E-01    0.2002153224E-01    0.4149074905E-03    0.4502989925E-02    0.4333972513E-01
    0.9000000000E+01    0.1274962336E-01    0.2499218896E-01    0.5196977388E-03    0.5760679886E-02    0.5410734627E-01
    0.1100000000E+02    0.1518937473E-01    0.2968233111E-01    0.6193306834E-03    0.7005982084E-02    0.6427051333E-01
    0.1300000000E+02    0.1751156943E-01    0.3411546699E-01    0.7142308362E-03    0.8239130101E-02    0.7387979695E-01
    0.1500000000E+02    0.1972554426E-01    0.3831253733E-01    0.8047755317E-03    0.9460351473E-02    0.8298024913E-01
    0.1700000000E+02    0.2183963064E-01    0.4229225702E-01    0.8913013239E-03    0.1066986789E-01    0.9161213725E-01
    0.1900000000E+02    0.2386128712E-01    0.4607140363E-01    0.9741093735E-03    0.1186789538E-01    0.9981156400E-01
    0.2100000000E+02    0.2579721154E-01    0.4966506215E-01    0.1053470006E-02    0.1305464449E-01    0.1076109932E+00
    0.2300000000E+02    0.2765343631E-01    0.5308683358E-01    0.1129626583E-02    0.1423032047E-01    0.1150396981E+00
    0.2500000000E+02    0.2943540982E-01    0.5634901332E-01    0.1202798811E-02    0.1539512343E-01    0.1221241445E+00
    0.2700000000E+02    0.3114806616E-01    0.5946274449E-01    0.1273185571E-02    0.1654924850E-01    0.1288883203E+00
    0.2900000000E+02    0.3279588510E-01    0.6243815006E-01    0.1340967353E-02    0.1769288599E-01    0.1353540198E+00
    0.3100000000E+02    0.3438294385E-01    0.6528444727E-01    0.1406308361E-02    0.1882622154E-01    0.1415410890E+00
    0.3300000000E+02    0.3591296198E-01    0.6801004688E-01    0.1469358331E-02    0.1994943627E-01    0.1474676394E+00
    0.3500000000E+02    0.3738934034E-01    0.7062263974E-01    0.1530254114E-02    0.2106270690E-01    0.1531502340E+00
    0.3700000000E+02    0.3881519513E-01    0.7312927235E-01    0.1589121055E-02    0.2216620590E-01    0.1586040496E+00
    0.3900000000E+02    0.4019338757E-01    0.7553641315E-01    0.1646074196E-02    0.2326010162E-01    0.1638430193E+00
    0.4100000000E+02    0.4152655002E-01    0.7785001072E-01    0.1701219339E-02    0.2434455839E-01    0.1688799579E+00
    0.4300000000E+02    0.4281710889E-01    0.8007554517E-01    0.1754653969E-02    0.2541973668E-01    0.1737266719E+00
    0.4500000000E+02    0.4406730487E-01    0.8221807346E-01    0.1806468074E-02    0.2648579317E-01    0.1783940575E+00
    0.4700000000E+02    0.4527921079E-01    0.8428226957E-01    0.1856744874E-02    0.2754288090E-01    0.1828921867E+00
    0.4900000000E+02    0.4645474750E-01    0.8627246026E-01    0.1905561457E-02    0.2859114936E-01    0.1872303840E+00
    0.1000000000E+02    0.1398482056E-01    0.2737079050E-01    0.5701311536E-03    0.6384864712E-02    0.5926118706E-01
    0.3000000000E+02    0.3359676913E-01    0.6387689371E-01    0.1373933276E-02    0.1826083008E-01    0.1384812129E+00
    0.5000000000E+02    0.4702943959E-01    0.8724106860E-01    0.1929444723E-02    0.2911202212E-01    0.1893422348E+00
    0.7000000000E+02    0.5698568873E-01    0.1035616012E+00    0.2345354260E-02    0.3910033648E-01    0.2249800002E+00
    0.9000000000E+02    0.6472838653E-01    0.1156551998E+00    0.2672262931E-02    0.4835412482E-01    0.2514680533E+00
    0.1100000000E+03    0.7094054662E-01    0.1250057676E+00    0.2937470214E-02    0.5697653031E-01    0.2720093616E+00
    0.1300000000E+03    0.7603201740E-01    0.1324709686E+00    0.3157335982E-02    0.6505144691E-01    0.2884570611E+00
    0.1500000000E+03    0.8026833878E-01    0.1385819549E+00    0.3342457226E-02    0.7264785797E-01    0.3019599650E+00
    0.1700000000E+03    0.8383183792E-01    0.1436857605E+00    0.3500114912E-02    0.7982304690E-01    0.3132694221E+00
    0.1900000000E+03    0.8685344152E-01    0.1480190308E+00    0.3635544549E-02    0.8662500852E-01    0.3228982986E+00
    0.2100000000E+03    0.8943053010E-01    0.1517488781E+00    0.3752647609E-02    0.9309428444E-01    0.3312091294E+00
    0.2300000000E+03    0.9163759226E-01    0.1549968000E+00    0.3854415292E-02    0.9926537728E-01    0.3384657564E+00
    0.2500000000E+03    0.9353291423E-01    0.1578533345E+00    0.3943194230E-02    0.1051678527E+00    0.3448649850E+00
    0.2700000000E+03    0.9516296314E-01    0.1603873891E+00    0.4020860452E-02    0.1108272068E+00    0.3505567499E+00
    0.2900000000E+03    0.9656536448E-01    0.1626523770E+00    0.4088937504E-02    0.1162655557E+00    0.3556573873E+00
    0.3100000000E+03    0.9777098762E-01    0.1646903701E+00    0.4148679182E-02    0.1215021885E+00    0.3602586203E+00
    0.3300000000E+03    0.9880544539E-01    0.1665349784E+00    0.4201129051E-02    0.1265540139E+00    0.3644337955E+00
    0.3500000000E+03    0.9969019699E-01    0.1682133910E+00    0.4247164238E-02    0.1314359243E+00    0.3682423055E+00
    0.3700000000E+03    0.1004433753E+00    0.1697478518E+00    0.4287528321E-02    0.1361610943E+00    0.3717327864E+00
    0.3900000000E+03    0.1010804178E+00    0.1711567436E+00    0.4322856436E-02    0.1407412273E+00    0.3749454707E+00
    0.4100000000E+03    0.1016145557E+00    0.1724553977E+00    0.4353694751E-02    0.1451867604E+00    0.3779139449E+00
    0.4300000000E+03    0.1020571971E+00    0.1736567076E+00    0.4380515773E-02    0.1495070356E+00    0.3806664810E+00
    0.4500000000E+03    0.1024182318E+00    0.1747715987E+00    0.4403730512E-02    0.1537104433E+00    0.3832270587E+00
    0.4700000000E+03    0.1027062755E+00    0.1758093938E+00    0.4423698258E-02    0.1578045442E+00    0.3856161588E+00
    0.4900000000E+03    0.1029288680E+00    0.1767780989E+00    0.4440734520E-02    0.1617961722E+00    0.3878513859E+00
    0.1000000000E+03    0.6799575504E-01    0.1206097013E+00    0.2811380339E-02    0.5273861323E-01    0.2623445416E+00
    0.3000000000E+03    0.9719106384E-01    0.1636974762E+00    0.4119780691E-02    0.1189079787E+00    0.3580154734E+00
    0.5000000000E+03    0.1030177222E+00    0.1772387412E+00    0.4448241590E-02    0.1637555178E+00    0.3889161356E+00
    0.7000000000E+03    0.1026066355E+00    0.1840943075E+00    0.4497259589E-02    0.1987992895E+00    0.4049327375E+00
    0.9000000000E+03    0.9992179811E-01    0.1882994833E+00    0.4435337651E-02    0.2281137191E+00    0.4149697528E+00
    0.1100000000E+04    0.9634377737E-01    0.1911668092E+00    0.4323709948E-02    0.2535750324E+00    0.4219512080E+00
    0.1300000000E+04    0.9244920144E-01    0.1932582807E+00    0.4189279671E-02    0.2761994673E+00    0.4271400901E+00
    0.1500000000E+04    0.8850446582E-01    0.1948569769E+00    0.4045289939E-02    0.2966029733E+00    0.4311778343E+00
    0.1700000000E+04    0.8463919741E-01    0.1961218530E+00    0.3898747871E-02    0.3151914435E+00    0.4344274679E+00
    0.1900000000E+04    0.8091701756E-01    0.1971494288E+00    0.3753525794E-02    0.3322502882E+00    0.4371111060E+00
    0.2100000000E+04    0.7736761586E-01    0.1980018859E+00    0.3611804218E-02    0.3479908304E+00    0.4393729008E+00
    0.2300000000E+04    0.7400247602E-01    0.1987211871E+00    0.3474800490E-02    0.3625761757E+00    0.4413108336E+00
    0.2500000000E+04    0.7082306598E-01    0.1993367310E+00    0.3343161250E-02    0.3761365130E+00    0.4429940314E+00
    0.2700000000E+04    0.6782530843E-01    0.1998697582E+00    0.3217185078E-02    0.3887786164E+00    0.4444727836E+00
    0.2900000000E+04    0.6500211069E-01    0.2003360175E+00    0.3096954291E-02    0.4005919971E+00    0.4457846293E+00
    0.3100000000E+04    0.6234483533E-01    0.2007474453E+00    0.2982415722E-02    0.4116530321E+00    0.4469582093E+00
    0.3300000000E+04    0.5984417034E-01    0.2011132614E+00    0.2873431661E-02    0.4220278262E+00    0.4480157913E+00
    0.3500000000E+04    0.5749064832E-01    0.2014407061E+00    0.2769812697E-02    0.4317742562E+00    0.4489749741E+00
    0.3700000000E+04    0.5527495510E-01    0.2017355480E+00    0.2671339281E-02    0.4409434691E+00    0.4498498680E+00
    0.3900000000E+04    0.5318810956E-01    0.2020024425E+00    0.2577776039E-02    0.4495810087E+00    0.4506519315E+00
    0.4100000000E+04    0.5122156355E-01    0.2022451901E+00    0.2488881335E-02    0.4577276821E+00    0.4513905758E+00
    0.4300000000E+04    0.4936725156E-01    0.2024669250E+00    0.2404413673E-02    0.4654202402E+00    0.4520736098E+00
    0.4500000000E+04    0.4761760895E-01    0.2026702565E+00    0.2324135939E-02    0.4726919225E+00    0.4527075725E+00
    0.4700000000E+04    0.4596557044E-01    0.2028573749E+00    0.2247818170E-02    0.4795729010E+00    0.4532979854E+00
    0.4900000000E+04    0.4440455643E-01    0.2030301332E+00    0.2175239294E-02    0.4860906469E+00    0.4538495461E+00
    0.1000000000E+04    0.9819784334E-01    0.1898557382E+00    0.4383596242E-02    0.2412497401E+00    0.4187423352E+00
    0.3000000000E+04    0.6365330628E-01    0.2005479554E+00    0.3038980558E-02    0.4062122127E+00    0.4463871845E+00
    0.5000000000E+04    0.4365625527E-01    0.2031116299E+00    0.2140285552E-02    0.4892212306E+00    0.4541120374E+00
    0.7000000000E+04    0.3220709823E-01    0.2042711249E+00    0.1591973001E-02    0.5378262293E+00    0.4580522448E+00
    0.9000000000E+04    0.2515442871E-01    0.2049252490E+00    0.1240772576E-02    0.5687403041E+00    0.4605308024E+00
    0.1100000000E+05    0.2051610666E-01    0.2053393261E+00    0.1003706509E-02    0.5896809661E+00    0.4622718191E+00
    0.1300000000E+05    0.1729676707E-01    0.2056205584E+00    0.8361984291E-03    0.6045900485E+00    0.4635815182E+00
    0.1500000000E+05    0.1496205498E-01    0.2058207138E+00    0.7132223862E-03    0.6156369288E+00    0.4646138972E+00
    0.1700000000E+05    0.1320690330E-01    0.2059678896E+00    0.6200167725E-03    0.6240915573E+00    0.4654557302E+00
    0.1900000000E+05    0.1184759359E-01    0.2060786554E+00    0.5474657566E-03    0.6307369499E+00    0.4661600392E+00
    0.2100000000E+05    0.1076830976E-01    0.2061634101E+00    0.4897068587E-03    0.6360775359E+00    0.4667612563E+00
    0.2300000000E+05    0.9893126053E-02    0.2062290039E+00    0.4428339914E-03    0.6404506294E+00    0.4672828291E+00
    0.2500000000E+05    0.9170562298E-02    0.2062801278E+00    0.4041630961E-03    0.6440891241E+00    0.4677413449E+00
    0.2700000000E+05    0.8564679659E-02    0.2063200981E+00    0.3717994961E-03    0.6471583221E+00    0.4681489112E+00
    0.2900000000E+05    0.8049742084E-02    0.2063513225E+00    0.3443737639E-03    0.6497784058E+00    0.4685145994E+00
    0.3100000000E+05    0.7606903136E-02    0.2063755882E+00    0.3208752603E-03    0.6520386148E+00    0.4688453585E+00
    0.3300000000E+05    0.7222086099E-02    0.2063942485E+00    0.3005442078E-03    0.6540064569E+00    0.4691466142E+00
    0.3500000000E+05    0.6884590328E-02    0.2064083446E+00    0.2827999176E-03    0.6557338516E+00    0.4694226731E+00
    0.3700000000E+05    0.6586152570E-02    0.2064186899E+00    0.2671919588E-03    0.6572613231E+00    0.4696770036E+00
    0.3900000000E+05    0.6320300855E-02    0.2064259278E+00    0.2533662485E-03    0.6586209237E+00    0.4699124351E+00
    0.4100000000E+05    0.6081900963E-02    0.2064305732E+00    0.2410410606E-03    0.6598383104E+00    0.4701313019E+00
    0.4300000000E+05    0.5866832370E-02    0.2064330425E+00    0.2299897654E-03    0.6609342447E+00    0.4703355496E+00
    0.4500000000E+05    0.5671752944E-02    0.2064336753E+00    0.2200282181E-03    0.6619256936E+00    0.4705268151E+00
    0.4700000000E+05    0.5493925545E-02    0.2064327509E+00    0.2110054142E-03    0.6628266488E+00    0.4707064867E+00
    0.4900000000E+05    0.5331088513E-02    0.2064305009E+00    0.2027964756E-03    0.6636487449E+00    0.4708757509E+00
    0.1000000000E+05    0.2261057681E-01    0.2051536715E+00    0.1111374934E-02    0.5801540612E+00    0.4614691508E+00
    0.3000000000E+05    0.7820282801E-02    0.2063642321E+00    0.3321859959E-03    0.6509488497E+00    0.4686839757E+00
    0.5000000000E+05    0.5254690025E-02    0.2064289406E+00    0.1989639874E-03    0.6640333301E+00    0.4709568050E+00
    0.7000000000E+05    0.4187378357E-02    0.2063615228E+00    0.1470251454E-03    0.6692873583E+00    0.4722183022E+00
    0.9000000000E+05    0.3584092080E-02    0.2062663144E+00    0.1194451931E-03    0.6720911169E+00    0.4730649865E+00
    0.1100000000E+06    0.3186732789E-02    0.2061670057E+00    0.1022288914E-03    0.6738281660E+00    0.4736915535E+00
    0.1300000000E+06    0.2900294733E-02    0.2060704781E+00    0.9036625668E-04    0.6750082212E+00    0.4741837304E+00
    0.1500000000E+06    0.2681276208E-02    0.2059787835E+00    0.8163389945E-04    0.6758616422E+00    0.4745862080E+00
    0.1700000000E+06    0.2506748031E-02    0.2058923492E+00    0.7489598261E-04    0.6765074074E+00    0.4749249947E+00
    0.1900000000E+06    0.2363375212E-02    0.2058110203E+00    0.6951141567E-04    0.6770130626E+00    0.4752164526E+00
    0.2100000000E+06    0.2242818785E-02    0.2057344418E+00    0.6509039642E-04    0.6774197627E+00    0.4754714910E+00
    0.2300000000E+06    0.2139565456E-02    0.2056622076E+00    0.6138184156E-04    0.6777539977E+00    0.4756977202E+00
    0.2500000000E+06    0.2049806075E-02    0.2055939195E+00    0.5821640893E-04    0.6780335835E+00    0.4759006439E+00
    0.2700000000E+06    0.1970813379E-02    0.2055292095E+00    0.5547552090E-04    0.6782709407E+00    0.4760843616E+00
    0.2900000000E+06    0.1900576379E-02    0.2054677463E+00    0.5307351881E-04    0.6784749912E+00    0.4762520033E+00
    0.3100000000E+06    0.1837575149E-02    0.2054092352E+00    0.5094687664E-04    0.6786523091E+00    0.4764060088E+00
    0.3300000000E+06    0.1780636512E-02    0.2053534154E+00    0.4904741288E-04    0.6788078444E+00    0.4765483144E+00
    0.3500000000E+06    0.1728838394E-02    0.2053000562E+00    0.4733786872E-04    0.6789453954E+00    0.4766804804E+00
    0.3700000000E+06    0.1681444582E-02    0.2052489535E+00    0.4578894059E-04    0.6790679252E+00    0.4768037819E+00
    0.3900000000E+06    0.1637859085E-02    0.2051999263E+00    0.4437723644E-04    0.6791777793E+00    0.4769192729E+00
    0.4100000000E+06    0.1597593493E-02    0.2051528138E+00    0.4308383556E-04    0.6792768383E+00    0.4770278343E+00
    0.4300000000E+06    0.1560243178E-02    0.2051074725E+00    0.4189325312E-04    0.6793666282E+00    0.4771302091E+00
    0.4500000000E+06    0.1525469638E-02    0.2050637741E+00    0.4079268194E-04    0.6794483996E+00    0.4772270296E+00
    0.4700000000E+06    0.1492987186E-02    0.2050216034E+00    0.3977142833E-04    0.6795231877E+00    0.4773188382E+00
    0.4900000000E+06    0.1462552785E-02    0.2049808568E+00    0.3882048606E-04    0.6795918563E+00    0.4774061030E+00
    0.1000000000E+06    0.3367443559E-02    0.2062165628E+00    0.1099546586E-03    0.6730511840E+00    0.4733990367E+00
    0.3000000000E+06    0.1868251440E-02    0.2054381388E+00    0.5197908810E-04    0.6785666508E+00    0.4763305795E+00
    0.5000000000E+06    0.1448037342E-02    0.2049609879E+00    0.3836894683E-04    0.6796241276E+00    0.4774481608E+00
    0.7000000000E+06    0.1227414829E-02    0.2046198255E+00    0.3166194693E-04    0.6800762155E+00    0.4781265059E+00
    0.9000000000E+06    0.1085677105E-02    0.2043537588E+00    0.2750286352E-04    0.6803284197E+00    0.4786087804E+00
    0.1100000000E+07    0.9846552438E-03    0.2041353676E+00    0.2460760954E-04    0.6804899058E+00    0.4789808956E+00
    0.1300000000E+07    0.9079040322E-03    0.2039499831E+00    0.2244570533E-04    0.6806024738E+00    0.4792828085E+00
    0.1500000000E+07    0.8470050219E-03    0.2037888322E+00    0.2075335515E-04    0.6806856091E+00    0.4795362395E+00
    0.1700000000E+07    0.7971386013E-03    0.2036462450E+00    0.1938276568E-04    0.6807496337E+00    0.4797542639E+00
    0.1900000000E+07    0.7553185230E-03    0.2035183422E+00    0.1824390530E-04    0.6808005324E+00    0.4799453427E+00
    0.2100000000E+07    0.7195819495E-03    0.2034023510E+00    0.1727840927E-04    0.6808420178E+00    0.4801152554E+00
    0.2300000000E+07    0.6885781515E-03    0.2032962199E+00    0.1644657563E-04    0.6808765169E+00    0.4802681195E+00
    0.2500000000E+07    0.6613428556E-03    0.2031983878E+00    0.1572034025E-04    0.6809056846E+00    0.4804069690E+00
    0.2700000000E+07    0.6371666542E-03    0.2031076388E+00    0.1507923321E-04    0.6809306883E+00    0.4805341015E+00
    0.2900000000E+07    0.6155143733E-03    0.2030230072E+00    0.1450792862E-04    0.6809523761E+00    0.4806512979E+00
    0.3100000000E+07    0.5959735967E-03    0.2029437129E+00    0.1399469549E-04    0.6809713790E+00    0.4807599655E+00
    0.3300000000E+07    0.5782206472E-03    0.2028691168E+00    0.1353038280E-04    0.6809881763E+00    0.4808612353E+00
    0.3500000000E+07    0.5619974314E-03    0.2027986887E+00    0.1310773391E-04    0.6810031389E+00    0.4809560292E+00
    0.3700000000E+07    0.5470952697E-03    0.2027319835E+00    0.1272091103E-04    0.6810165582E+00    0.4810451087E+00
    0.3900000000E+07    0.5333433499E-03    0.2026686244E+00    0.1236515788E-04    0.6810286669E+00    0.4811291096E+00
    0.4100000000E+07    0.5206003182E-03    0.2026082889E+00    0.1203655534E-04    0.6810396523E+00    0.4812085679E+00
    0.4300000000E+07    0.5087480466E-03    0.2025506994E+00    0.1173184131E-04    0.6810496678E+00    0.4812839402E+00
    0.4500000000E+07    0.4976869410E-03    0.2024956150E+00    0.1144827574E-04    0.6810588395E+00    0.4813556178E+00
    0.4700000000E+07    0.4873323589E-03    0.2024428251E+00    0.1118353808E-04    0.6810672725E+00    0.4814239390E+00
    0.4900000000E+07    0.4776118388E-03    0.2023921449E+00    0.1093564825E-04    0.6810750549E+00    0.4814891980E+00
    0.1000000000E+07    0.1031377970E-02    0.2042397085E+00    0.2593960806E-04    0.6804171045E+00    0.4788055027E+00
    0.3000000000E+07    0.6055020438E-03    0.2029827357E+00    0.1424467624E-04    0.6809621803E+00    0.4807066215E+00
    0.5000000000E+07    0.4729694954E-03    0.2023675442E+00    0.1081748018E-04    0.6810787260E+00    0.4815207610E+00
    0.7000000000E+07    0.4019664787E-03    0.2019550385E+00    0.9028488271E-05    0.6811312204E+00    0.4820397504E+00
    0.9000000000E+07    0.3559828691E-03    0.2016438787E+00    0.7889404826E-05    0.6811616068E+00    0.4824199272E+00
    0.1100000000E+08    0.3230729602E-03    0.2013938132E+00    0.7084456402E-05    0.6811816437E+00    0.4827194608E+00
    0.1300000000E+08    0.2980087209E-03    0.2011846741E+00    0.6477595068E-05    0.6811959613E+00    0.4829663428E+00
    0.1500000000E+08    0.2780900435E-03    0.2010048929E+00    0.5999382055E-05    0.6812067659E+00    0.4831761770E+00
    0.1700000000E+08    0.2617623764E-03    0.2008472107E+00    0.5610217705E-05    0.6812152481E+00    0.4833585439E+00
    0.1900000000E+08    0.2480588063E-03    0.2007067709E+00    0.5285667421E-05    0.6812221094E+00    0.4835197437E+00
    0.2100000000E+08    0.2363420315E-03    0.2005801624E+00    0.5009736650E-05    0.6812277913E+00    0.4836641387E+00
    0.2300000000E+08    0.2261725873E-03    0.2004648972E+00    0.4771462612E-05    0.6812325861E+00    0.4837948729E+00
    0.2500000000E+08    0.2172362461E-03    0.2003591043E+00    0.4563048940E-05    0.6812366954E+00    0.4839142862E+00
    0.2700000000E+08    0.2093015450E-03    0.2002613414E+00    0.4378780747E-05    0.6812402633E+00    0.4840241671E+00
