  Pressure (Pa) 2mC6-400 (mol/kg) 3mC6-400 (mol/kg) 33mC5-400 (mol/kg) 23mC5-400 (mol/kg) C7-400 (mol/kg)
    0.1000000000E+01    0.1588192791E-02    0.2103508603E-02    0.3879667249E-03    0.4665233280E-03    0.5120120756E-02
    0.3000000000E+01    0.4653526426E-02    0.6151306767E-02    0.1136997554E-02    0.1392297273E-02    0.1497459984E-01
    0.5000000000E+01    0.7579940048E-02    0.1000021078E-01    0.1852381744E-02    0.2308536401E-02    0.2434714273E-01
    0.7000000000E+01    0.1037745406E-01    0.1366490410E-01    0.2536553890E-02    0.3215430575E-02    0.3327327574E-01
    0.9000000000E+01    0.1305511403E-01    0.1715865057E-01    0.3191711077E-02    0.4113164452E-02    0.4178509309E-01
    0.1100000000E+02    0.1562110724E-01    0.2049346228E-01    0.3819841332E-02    0.5001917668E-02    0.4991166241E-01
    0.1300000000E+02    0.1808286301E-01    0.2368024409E-01    0.4422748089E-02    0.5881865009E-02    0.5767937410E-01
    0.1500000000E+02    0.2044713917E-01    0.2672891857E-01    0.5002071295E-02    0.6753176572E-02    0.6511224328E-01
    0.1700000000E+02    0.2272009700E-01    0.2964853443E-01    0.5559305698E-02    0.7616017929E-02    0.7223217180E-01
    0.1900000000E+02    0.2490736638E-01    0.3244736081E-01    0.6095816721E-02    0.8470550272E-02    0.7905917629E-01
    0.2100000000E+02    0.2701410253E-01    0.3513296973E-01    0.6612854306E-02    0.9316930565E-02    0.8561158722E-01
    0.2300000000E+02    0.2904503563E-01    0.3771230816E-01    0.7111565012E-02    0.1015531168E-01    0.9190622330E-01
    0.2500000000E+02    0.3100451434E-01    0.4019176138E-01    0.7593002627E-02    0.1098584253E-01    0.9795854465E-01
    0.2700000000E+02    0.3289654411E-01    0.4257720882E-01    0.8058137490E-02    0.1180866821E-01    0.1037827876E+00
    0.2900000000E+02    0.3472482087E-01    0.4487407326E-01    0.8507864718E-02    0.1262393009E-01    0.1093920840E+00
    0.3100000000E+02    0.3649276089E-01    0.4708736450E-01    0.8943011468E-02    0.1343176597E-01    0.1147985663E+00
    0.3300000000E+02    0.3820352718E-01    0.4922171803E-01    0.9364343378E-02    0.1423231018E-01    0.1200134616E+00
    0.3500000000E+02    0.3986005303E-01    0.5128142947E-01    0.9772570283E-02    0.1502569369E-01    0.1250471744E+00
    0.3700000000E+02    0.4146506282E-01    0.5327048524E-01    0.1016835131E-01    0.1581204421E-01    0.1299093613E+00
    0.3900000000E+02    0.4302109077E-01    0.5519259002E-01    0.1055229940E-01    0.1659148629E-01    0.1346089968E+00
    0.4100000000E+02    0.4453049754E-01    0.5705119127E-01    0.1092498539E-01    0.1736414145E-01    0.1391544333E+00
    0.4300000000E+02    0.4599548523E-01    0.5884950123E-01    0.1128694164E-01    0.1813012823E-01    0.1435534536E+00
    0.4500000000E+02    0.4741811074E-01    0.6059051678E-01    0.1163866530E-01    0.1888956230E-01    0.1478133195E+00
    0.4700000000E+02    0.4880029788E-01    0.6227703721E-01    0.1198062123E-01    0.1964255655E-01    0.1519408144E+00
    0.4900000000E+02    0.5014384822E-01    0.6391168032E-01    0.1231324465E-01    0.2038922119E-01    0.1559422824E+00
    0.1000000000E+02    0.1435158796E-01    0.1884521732E-01    0.3509037793E-02    0.4558652607E-02    0.4589482536E-01
    0.3000000000E+02    0.3561612964E-01    0.4599086746E-01    0.8727211429E-02    0.1302876780E-01    0.1121199550E+00
    0.5000000000E+02    0.5080166659E-01    0.6471031993E-01    0.1247618517E-01    0.2076021363E-01    0.1578976275E+00
    0.7000000000E+02    0.6228880740E-01    0.7847884464E-01    0.1533175855E-01    0.2787266997E-01    0.1916469088E+00
    0.9000000000E+02    0.7131778256E-01    0.8908058561E-01    0.1759322391E-01    0.3446035941E-01    0.2176934287E+00
    0.1100000000E+03    0.7860805857E-01    0.9752784048E-01    0.1943391552E-01    0.4059855263E-01    0.2384933999E+00
    0.1300000000E+03    0.8461127772E-01    0.1044389389E+00    0.2096253106E-01    0.4634816561E-01    0.2555482777E+00
    0.1500000000E+03    0.8962846119E-01    0.1102136267E+00    0.2225148471E-01    0.5175907285E-01    0.2698294834E+00
    0.1700000000E+03    0.9386981572E-01    0.1151222548E+00    0.2335134633E-01    0.5687253769E-01    0.2819944951E+00
    0.1900000000E+03    0.9748766711E-01    0.1193544978E+00    0.2429877832E-01    0.6172302340E-01    0.2925049379E+00
    0.2100000000E+03    0.1005957493E+00    0.1230475446E+00    0.2512117697E-01    0.6633956229E-01    0.3016949484E+00
    0.2300000000E+03    0.1032810920E+00    0.1263032038E+00    0.2583952914E-01    0.7074680424E-01    0.3098126765E+00
    0.2500000000E+03    0.1056116650E+00    0.1291987061E+00    0.2647024745E-01    0.7496582928E-01    0.3170465044E+00
    0.2700000000E+03    0.1076414751E+00    0.1317937605E+00    0.2702639275E-01    0.7901478430E-01    0.3235421825E+00
    0.2900000000E+03    0.1094140696E+00    0.1341353014E+00    0.2751851419E-01    0.8290938678E-01    0.3294143619E+00
    0.3100000000E+03    0.1109650100E+00    0.1362607641E+00    0.2795524205E-01    0.8666332726E-01    0.3347545561E+00
    0.3300000000E+03    0.1123236587E+00    0.1382003971E+00    0.2834371594E-01    0.9028859342E-01    0.3396367624E+00
    0.3500000000E+03    0.1135144965E+00    0.1399789255E+00    0.2868990043E-01    0.9379573326E-01    0.3441215109E+00
    0.3700000000E+03    0.1145581098E+00    0.1416167714E+00    0.2899882190E-01    0.9719407041E-01    0.3482588322E+00
    0.3900000000E+03    0.1154719440E+00    0.1431309618E+00    0.2927474901E-01    0.1004918814E+00    0.3520904688E+00
    0.4100000000E+03    0.1162708845E+00    0.1445358142E+00    0.2952133228E-01    0.1036965428E+00    0.3556515462E+00
    0.4300000000E+03    0.1169677125E+00    0.1458434621E+00    0.2974171327E-01    0.1068146534E+00    0.3589718520E+00
    0.4500000000E+03    0.1175734639E+00    0.1470642614E+00    0.2993861112E-01    0.1098521375E+00    0.3620768274E+00
    0.4700000000E+03    0.1180977180E+00    0.1482071085E+00    0.3011439160E-01    0.1128143312E+00    0.3649883435E+00
    0.4900000000E+03    0.1185488284E+00    0.1492796924E+00    0.3027112299E-01    0.1157060562E+00    0.3677253161E+00
    0.1000000000E+03    0.7514752037E-01    0.9352829020E-01    0.1855828568E-01    0.3758154330E-01    0.2286394208E+00
    0.3000000000E+03    0.1102152834E+00    0.1352230056E+00    0.2774332531E-01    0.8480315398E-01    0.3321459754E+00
    0.5000000000E+03    0.1187492776E+00    0.1497917588E+00    0.3034292163E-01    0.1171268746E+00    0.3690335745E+00
    0.7000000000E+03    0.1202897185E+00    0.1575841128E+00    0.3112096623E-01    0.1427154770E+00    0.3890912960E+00
    0.9000000000E+03    0.1191897000E+00    0.1625518202E+00    0.3116747318E-01    0.1644404780E+00    0.4020664950E+00
    0.1100000000E+04    0.1169438315E+00    0.1660425642E+00    0.3086861736E-01    0.1836201157E+00    0.4113063505E+00
    0.1300000000E+04    0.1141793280E+00    0.1686528027E+00    0.3039256520E-01    0.2009640837E+00    0.4183015527E+00
    0.1500000000E+04    0.1111926767E+00    0.1706908801E+00    0.2982242832E-01    0.2168977363E+00    0.4238272211E+00
    0.1700000000E+04    0.1081350769E+00    0.1723337153E+00    0.2920297184E-01    0.2316966249E+00    0.4283305385E+00
    0.1900000000E+04    0.1050873656E+00    0.1736907451E+00    0.2855983162E-01    0.2455501688E+00    0.4320895634E+00
    0.2100000000E+04    0.1020938027E+00    0.1748336294E+00    0.2790835397E-01    0.2585948525E+00    0.4352872800E+00
    0.2300000000E+04    0.9917860244E-01    0.1758114355E+00    0.2725801776E-01    0.2709328733E+00    0.4380495837E+00
    0.2500000000E+04    0.9635454990E-01    0.1766589927E+00    0.2661479681E-01    0.2826432542E+00    0.4404662541E+00
    0.2700000000E+04    0.9362772368E-01    0.1774017691E+00    0.2598249074E-01    0.2937887916E+00    0.4426032350E+00
    0.2900000000E+04    0.9100018981E-01    0.1780588564E+00    0.2536350821E-01    0.3044205751E+00    0.4445101775E+00
    0.3100000000E+04    0.8847158997E-01    0.1786448735E+00    0.2475934516E-01    0.3145810280E+00    0.4462252613E+00
    0.3300000000E+04    0.8604010268E-01    0.1791712199E+00    0.2417088610E-01    0.3243060106E+00    0.4477783832E+00
    0.3500000000E+04    0.8370303744E-01    0.1796469272E+00    0.2359859912E-01    0.3336263125E+00    0.4491933263E+00
    0.3700000000E+04    0.8145720799E-01    0.1800792519E+00    0.2304266512E-01    0.3425687334E+00    0.4504892751E+00
    0.3900000000E+04    0.7929916948E-01    0.1804740964E+00    0.2250306522E-01    0.3511568814E+00    0.4516818962E+00
    0.4100000000E+04    0.7722537018E-01    0.1808363153E+00    0.2197964096E-01    0.3594117718E+00    0.4527841238E+00
    0.4300000000E+04    0.7523224866E-01    0.1811699406E+00    0.2147213643E-01    0.3673522842E+00    0.4538067425E+00
    0.4500000000E+04    0.7331629556E-01    0.1814783519E+00    0.2098022815E-01    0.3749955158E+00    0.4547588245E+00
    0.4700000000E+04    0.7147409222E-01    0.1817644044E+00    0.2050354659E-01    0.3823570575E+00    0.4556480631E+00
    0.4900000000E+04    0.6970233412E-01    0.1820305286E+00    0.2004169166E-01    0.3894512133E+00    0.4564810304E+00
    0.1000000000E+04    0.1181595184E+00    0.1644347990E+00    0.3104782977E-01    0.1742950621E+00    0.4070360352E+00
    0.3000000000E+04    0.8972361100E-01    0.1783599723E+00    0.2505950732E-01    0.3095573427E+00    0.4453896684E+00
    0.5000000000E+04    0.6884187398E-01    0.1821567801E+00    0.1981619371E-01    0.3929021835E+00    0.4568782101E+00
    0.7000000000E+04    0.5463204276E-01    0.1840133960E+00    0.1598023346E-01    0.4506328860E+00    0.4628996411E+00
    0.9000000000E+04    0.4466444607E-01    0.1851305611E+00    0.1316263564E-01    0.4922561702E+00    0.4667424654E+00
    0.1100000000E+05    0.3745224648E-01    0.1858809323E+00    0.1105640467E-01    0.5231325319E+00    0.4694636913E+00
    0.1300000000E+05    0.3208399778E-01    0.1864207527E+00    0.9450266101E-02    0.5466050199E+00    0.4715198579E+00
    0.1500000000E+05    0.2798579590E-01    0.1868278037E+00    0.8201283430E-02    0.5648430566E+00    0.4731442218E+00
    0.1700000000E+05    0.2478606017E-01    0.1871454333E+00    0.7212136048E-02    0.5792929072E+00    0.4744698246E+00
    0.1900000000E+05    0.2223765871E-01    0.1873998229E+00    0.6415607018E-02    0.5909417817E+00    0.4755787265E+00
    0.2100000000E+05    0.2017202115E-01    0.1876077695E+00    0.5764467303E-02    0.6004785636E+00    0.4765246063E+00
    0.2300000000E+05    0.1847143594E-01    0.1877805694E+00    0.5224934888E-02    0.6083939975E+00    0.4773442262E+00
    0.2500000000E+05    0.1705191405E-01    0.1879261125E+00    0.4772420367E-02    0.6150444664E+00    0.4780637089E+00
    0.2700000000E+05    0.1585233385E-01    0.1880500833E+00    0.4388725625E-02    0.6206934201E+00    0.4787021881E+00
    0.2900000000E+05    0.1482740698E-01    0.1881566852E+00    0.4060171351E-02    0.6255388208E+00    0.4792740393E+00
    0.3100000000E+05    0.1394302112E-01    0.1882490956E+00    0.3776325230E-02    0.6297316721E+00    0.4797902979E+00
    0.3300000000E+05    0.1317309399E-01    0.1883297623E+00    0.3529124103E-02    0.6333887560E+00    0.4802595950E+00
    0.3500000000E+05    0.1249740802E-01    0.1884006024E+00    0.3312258520E-02    0.6366015365E+00    0.4806887901E+00
    0.3700000000E+05    0.1190009384E-01    0.1884631394E+00    0.3120734733E-02    0.6394424855E+00    0.4810834135E+00
    0.3900000000E+05    0.1136855096E-01    0.1885185993E+00    0.2950558535E-02    0.6419696421E+00    0.4814479795E+00
    0.4100000000E+05    0.1089266792E-01    0.1885679799E+00    0.2798503970E-02    0.6442299470E+00    0.4817862148E+00
    0.4300000000E+05    0.1046425116E-01    0.1886121022E+00    0.2661942009E-02    0.6462617106E+00    0.4821012268E+00
    0.4500000000E+05    0.1007660106E-01    0.1886516472E+00    0.2538712137E-02    0.6480964639E+00    0.4823956299E+00
    0.4700000000E+05    0.9724193696E-02    0.1886871852E+00    0.2427025036E-02    0.6497603611E+00    0.4826716420E+00
    0.4900000000E+05    0.9402439086E-02    0.1887191968E+00    0.2325388084E-02    0.6512752538E+00    0.4829311587E+00
    0.1000000000E+05    0.4078093903E-01    0.1855391381E+00    0.1203572488E-01    0.5087941311E+00    0.4682071447E+00
    0.3000000000E+05    0.1436943557E-01    0.1882044969E+00    0.3913210998E-02    0.6277088336E+00    0.4795385304E+00
    0.5000000000E+05    0.9251831017E-02    0.1887340103E+00    0.2277938649E-02    0.6519826840E+00    0.4830552499E+00
    0.7000000000E+05    0.7180094904E-02    0.1889180141E+00    0.1637341308E-02    0.6615322618E+00    0.4849693075E+00
    0.9000000000E+05    0.6046442067E-02    0.1889868145E+00    0.1302302940E-02    0.6664960993E+00    0.4862322944E+00
    0.1100000000E+06    0.5319389357E-02    0.1890056321E+00    0.1096898725E-02    0.6695012777E+00    0.4871532985E+00
    0.1300000000E+06    0.4806091537E-02    0.1889995980E+00    0.9577745533E-03    0.6715036970E+00    0.4878675224E+00
    0.1500000000E+06    0.4419936847E-02    0.1889802172E+00    0.8569270977E-03    0.6729285375E+00    0.4884449698E+00
    0.1700000000E+06    0.4116145020E-02    0.1889533723E+00    0.7801621233E-03    0.6739919665E+00    0.4889261091E+00
    0.1900000000E+06    0.3869132140E-02    0.1889223087E+00    0.7195421301E-03    0.6748149226E+00    0.4893362360E+00
    0.2100000000E+06    0.3663152372E-02    0.1888889169E+00    0.6702874858E-03    0.6754701174E+00    0.4896921136E+00
    0.2300000000E+06    0.3487941298E-02    0.1888543421E+00    0.6293489911E-03    0.6760037923E+00    0.4900053673E+00
    0.2500000000E+06    0.3336494988E-02    0.1888192975E+00    0.5946891912E-03    0.6764467099E+00    0.4902843582E+00
    0.2700000000E+06    0.3203853603E-02    0.1887842350E+00    0.5648940297E-03    0.6768201058E+00    0.4905352815E+00
    0.2900000000E+06    0.3086395281E-02    0.1887494436E+00    0.5389505669E-03    0.6771390980E+00    0.4907628432E+00
    0.3100000000E+06    0.2981406058E-02    0.1887151078E+00    0.5161135164E-03    0.6774147343E+00    0.4909706944E+00
    0.3300000000E+06    0.2886807100E-02    0.1886813437E+00    0.4958218061E-03    0.6776552715E+00    0.4911617189E+00
    0.3500000000E+06    0.2800975652E-02    0.1886482218E+00    0.4776445798E-03    0.6778670016E+00    0.4913382310E+00
    0.3700000000E+06    0.2722623963E-02    0.1886157822E+00    0.4612451888E-03    0.6780548019E+00    0.4915021134E+00
    0.3900000000E+06    0.2650715270E-02    0.1885840440E+00    0.4463565459E-03    0.6782225102E+00    0.4916549165E+00
    0.4100000000E+06    0.2584404165E-02    0.1885530124E+00    0.4327638610E-03    0.6783731874E+00    0.4917979306E+00
    0.4300000000E+06    0.2522993398E-02    0.1885226829E+00    0.4202922989E-03    0.6785093037E+00    0.4919322405E+00
    0.4500000000E+06    0.2465902041E-02    0.1884930445E+00    0.4087979929E-03    0.6786328748E+00    0.4920587657E+00
    0.4700000000E+06    0.2412641627E-02    0.1884640820E+00    0.3981613925E-03    0.6787455610E+00    0.4921782922E+00
    0.4900000000E+06    0.2362798013E-02    0.1884357774E+00    0.3882822664E-03    0.6788487426E+00    0.4922914961E+00
    0.1000000000E+06    0.5647942390E-02    0.1890004227E+00    0.1188622461E-02    0.6681648254E+00    0.4867248820E+00
    0.3000000000E+06    0.3032484397E-02    0.1887322102E+00    0.5271823828E-03    0.6772817655E+00    0.4908690371E+00
    0.5000000000E+06    0.2339044908E-02    0.1884218658E+00    0.3835997611E-03    0.6788971382E+00    0.4923459134E+00
    0.7000000000E+06    0.1979399583E-02    0.1881732234E+00    0.3146661619E-03    0.6795683705E+00    0.4932107422E+00
    0.9000000000E+06    0.1749491165E-02    0.1879688246E+00    0.2724656824E-03    0.6799369288E+00    0.4938107968E+00
    0.1100000000E+07    0.1586044865E-02    0.1877956878E+00    0.2433098220E-03    0.6801704498E+00    0.4942654196E+00
    0.1300000000E+07    0.1462053065E-02    0.1876455491E+00    0.2216458745E-03    0.6803319930E+00    0.4946289856E+00
    0.1500000000E+07    0.1363764960E-02    0.1875129838E+00    0.2047454141E-03    0.6804505965E+00    0.4949305706E+00
    0.1700000000E+07    0.1283335356E-02    0.1873942711E+00    0.1910926511E-03    0.6805415030E+00    0.4951874390E+00
    0.1900000000E+07    0.1215914864E-02    0.1872867567E+00    0.1797699579E-03    0.6806134875E+00    0.4954106320E+00
    0.2100000000E+07    0.1158321450E-02    0.1871884832E+00    0.1701853140E-03    0.6806719620E+00    0.4956076148E+00
    0.2300000000E+07    0.1108368175E-02    0.1870979666E+00    0.1619375300E-03    0.6807204475E+00    0.4957836578E+00
    0.2500000000E+07    0.1064495323E-02    0.1870140549E+00    0.1547438868E-03    0.6807613348E+00    0.4959426126E+00
    0.2700000000E+07    0.1025556304E-02    0.1869358363E+00    0.1483986906E-03    0.6807963048E+00    0.4960873752E+00
    0.2900000000E+07    0.9906866659E-03    0.1868625766E+00    0.1427482633E-03    0.6808265745E+00    0.4962201748E+00
    0.3100000000E+07    0.9592205722E-03    0.1867936755E+00    0.1376751852E-03    0.6808530469E+00    0.4963427627E+00
    0.3300000000E+07    0.9306356698E-03    0.1867286363E+00    0.1330880010E-03    0.6808764064E+00    0.4964565377E+00
    0.3500000000E+07    0.9045155867E-03    0.1866670431E+00    0.1289142842E-03    0.6808971812E+00    0.4965626347E+00
    0.3700000000E+07    0.8805237650E-03    0.1866085441E+00    0.1250958375E-03    0.6809157859E+00    0.4966619860E+00
    0.3900000000E+07    0.8583847867E-03    0.1865528389E+00    0.1215852933E-03    0.6809325502E+00    0.4967553668E+00
    0.4100000000E+07    0.8378707799E-03    0.1864996694E+00    0.1183436568E-03    0.6809477399E+00    0.4968434278E+00
    0.4300000000E+07    0.8187913488E-03    0.1864488116E+00    0.1153384966E-03    0.6809615714E+00    0.4969267208E+00
    0.4500000000E+07    0.8009859949E-03    0.1864000704E+00    0.1125425912E-03    0.6809742232E+00    0.4970057172E+00
    0.4700000000E+07    0.7843183332E-03    0.1863532742E+00    0.1099329016E-03    0.6809858433E+00    0.4970808230E+00
    0.4900000000E+07    0.7686716202E-03    0.1863082718E+00    0.1074897809E-03    0.6809965559E+00    0.4971523900E+00
    0.1000000000E+07    0.1661601089E-02    0.1878789496E+00    0.2567021057E-03    0.6800654244E+00    0.4940520403E+00
    0.3000000000E+07    0.9745636791E-03    0.1868276144E+00    0.1401457861E-03    0.6808402383E+00    0.4962826507E+00
    0.5000000000E+07    0.7611991312E-03    0.1862864008E+00    0.1063253175E-03    0.6810016054E+00    0.4971869439E+00
    0.7000000000E+07    0.6469156505E-03    0.1859173077E+00    0.8870775163E-04    0.6810735199E+00    0.4977497171E+00
    0.9000000000E+07    0.5729052954E-03    0.1856362968E+00    0.7750026223E-04    0.6811148612E+00    0.4981558847E+00
    0.1100000000E+08    0.5199370591E-03    0.1854090852E+00    0.6958416576E-04    0.6811419806E+00    0.4984725613E+00
    0.1300000000E+08    0.4795960107E-03    0.1852182289E+00    0.6361791141E-04    0.6811612781E+00    0.4987315100E+00
    0.1500000000E+08    0.4475364226E-03    0.1850536177E+00    0.5891740175E-04    0.6811757896E+00    0.4989502182E+00
    0.1700000000E+08    0.4212563693E-03    0.1849088593E+00    0.5509274340E-04    0.6811871474E+00    0.4991393176E+00
    0.1900000000E+08    0.3991996957E-03    0.1847796511E+00    0.5190345806E-04    0.6811963103E+00    0.4993057438E+00
    0.2100000000E+08    0.3803407240E-03    0.1846629572E+00    0.4919218109E-04    0.6812038799E+00    0.4994542662E+00
    0.2300000000E+08    0.3639721728E-03    0.1845565542E+00    0.4685107940E-04    0.6812102538E+00    0.4995883024E+00
    0.2500000000E+08    0.3495883153E-03    0.1844587647E+00    0.4480348016E-04    0.6812157058E+00    0.4997103828E+00
    0.2700000000E+08    0.3368166247E-03    0.1843682917E+00    0.4299318922E-04    0.6812204308E+00    0.4998224328E+00
