  Pressure (Pa) 2mC6-400 (mol/kg) 3mC6-400 (mol/kg) 33mC5-400 (mol/kg) 23mC5-400 (mol/kg) C7-400 (mol/kg)
    0.1000000000E+01    0.1571239513E-02    0.3112785985E-02    0.6398033892E-04    0.2800794220E-03    0.1347074650E-01
    0.3000000000E+01    0.4513413464E-02    0.8872991997E-02    0.1838774891E-03    0.8368496804E-03    0.3840787924E-01
    0.5000000000E+01    0.7221360463E-02    0.1408698471E-01    0.2943531077E-03    0.1389161093E-02    0.6099195722E-01
    0.7000000000E+01    0.9727986318E-02    0.1882960782E-01    0.3967385265E-03    0.1937083427E-02    0.8154489926E-01
    0.9000000000E+01    0.1206025245E-01    0.2316259743E-01    0.4921236902E-03    0.2480684943E-02    0.1003322893E+00
    0.1100000000E+02    0.1424044917E-01    0.2713733289E-01    0.5814089630E-03    0.3020032432E-02    0.1175751938E+00
    0.1300000000E+02    0.1628715707E-01    0.3079692279E-01    0.6653442319E-03    0.3555191259E-02    0.1334591237E+00
    0.1500000000E+02    0.1821598184E-01    0.3417780611E-01    0.7445587822E-03    0.4086225400E-02    0.1481409141E+00
    0.1700000000E+02    0.2004012221E-01    0.3731099528E-01    0.8195843798E-03    0.4613197479E-02    0.1617540657E+00
    0.1900000000E+02    0.2177081342E-01    0.4022305108E-01    0.8908732890E-03    0.5136168804E-02    0.1744129348E+00
    0.2100000000E+02    0.2341767689E-01    0.4293685460E-01    0.9588124684E-03    0.5655199402E-02    0.1862160509E+00
    0.2300000000E+02    0.2498899814E-01    0.4547222391E-01    0.1023734855E-02    0.6170348055E-02    0.1972487679E+00
    0.2500000000E+02    0.2649194969E-01    0.4784641068E-01    0.1085928409E-02    0.6681672329E-02    0.2075853982E+00
    0.2700000000E+02    0.2793277114E-01    0.5007450314E-01    0.1145643409E-02    0.7189228608E-02    0.2172909459E+00
    0.2900000000E+02    0.2931691549E-01    0.5216975539E-01    0.1203098394E-02    0.7693072125E-02    0.2264225227E+00
    0.3100000000E+02    0.3064916917E-01    0.5414385838E-01    0.1258485015E-02    0.8193256988E-02    0.2350305125E+00
    0.3300000000E+02    0.3193375074E-01    0.5600716406E-01    0.1311972040E-02    0.8689836216E-02    0.2431595361E+00
    0.3500000000E+02    0.3317439275E-01    0.5776887212E-01    0.1363708664E-02    0.9182861759E-02    0.2508492539E+00
    0.3700000000E+02    0.3437441000E-01    0.5943718627E-01    0.1413827269E-02    0.9672384531E-02    0.2581350385E+00
    0.3900000000E+02    0.3553675659E-01    0.6101944572E-01    0.1462445732E-02    0.1015845443E-01    0.2650485400E+00
    0.4100000000E+02    0.3666407401E-01    0.6252223636E-01    0.1509669370E-02    0.1064112038E-01    0.2716181643E+00
    0.4300000000E+02    0.3775873176E-01    0.6395148521E-01    0.1555592574E-02    0.1112043032E-01    0.2778694801E+00
    0.4500000000E+02    0.3882286185E-01    0.6531254099E-01    0.1600300210E-02    0.1159643127E-01    0.2838255645E+00
    0.4700000000E+02    0.3985838823E-01    0.6661024311E-01    0.1643868798E-02    0.1206916933E-01    0.2895073010E+00
    0.4900000000E+02    0.4086705190E-01    0.6784898104E-01    0.1686367533E-02    0.1253868971E-01    0.2949336344E+00
    0.1000000000E+02    0.1316812080E-01    0.2519187957E-01    0.5374788065E-03    0.2750886322E-02    0.1091344637E+00
    0.3000000000E+02    0.2998925273E-01    0.5317127452E-01    0.1231039207E-02    0.7943618549E-02    0.2307890522E+00
    0.5000000000E+02    0.4136180967E-01    0.6844749987E-01    0.1707235541E-02    0.1277225716E-01    0.2975564701E+00
    0.7000000000E+02    0.5016237986E-01    0.7812166637E-01    0.2080948293E-02    0.1728505218E-01    0.3400564625E+00
    0.9000000000E+02    0.5743121330E-01    0.8482229733E-01    0.2393391918E-02    0.2152176225E-01    0.3696426798E+00
    0.1100000000E+03    0.6365038594E-01    0.8975079950E-01    0.2663570475E-02    0.2551546881E-01    0.3915132465E+00
    0.1300000000E+03    0.6908466242E-01    0.9353562137E-01    0.2901904750E-02    0.2929394123E-01    0.4083918201E+00
    0.1500000000E+03    0.7389843253E-01    0.9653807280E-01    0.3114874448E-02    0.3288067806E-01    0.4218469050E+00
    0.1700000000E+03    0.7820333693E-01    0.9898096200E-01    0.3306896257E-02    0.3629571069E-01    0.4328473552E+00
    0.1900000000E+03    0.8208032797E-01    0.1010093360E+00    0.3481188652E-02    0.3955623092E-01    0.4420249368E+00
    0.2100000000E+03    0.8559099054E-01    0.1027217852E+00    0.3640213584E-02    0.4267708576E-01    0.4498097802E+00
    0.2300000000E+03    0.8878386399E-01    0.1041877254E+00    0.3785922317E-02    0.4567117146E-01    0.4565052344E+00
    0.2500000000E+03    0.9169823213E-01    0.1054574848E+00    0.3919902569E-02    0.4854974991E-01    0.4623315976E+00
    0.2700000000E+03    0.9436653586E-01    0.1065684673E+00    0.4043472159E-02    0.5132270488E-01    0.4674528660E+00
    0.2900000000E+03    0.9681598867E-01    0.1075490680E+00    0.4157741796E-02    0.5399875100E-01    0.4719937396E+00
    0.3100000000E+03    0.9906970535E-01    0.1084212420E+00    0.4263659049E-02    0.5658560545E-01    0.4760507961E+00
    0.3300000000E+03    0.1011475192E+00    0.1092022404E+00    0.4362040285E-02    0.5909012996E-01    0.4797000438E+00
    0.3500000000E+03    0.1030665915E+00    0.1099058113E+00    0.4453594562E-02    0.6151844898E-01    0.4830021559E+00
    0.3700000000E+03    0.1048418772E+00    0.1105430503E+00    0.4538941977E-02    0.6387604849E-01    0.4860061783E+00
    0.3900000000E+03    0.1064864883E+00    0.1111230133E+00    0.4618628026E-02    0.6616785921E-01    0.4887522063E+00
    0.4100000000E+03    0.1080119827E+00    0.1116531672E+00    0.4693135057E-02    0.6839832694E-01    0.4912733519E+00
    0.4300000000E+03    0.1094285961E+00    0.1121397249E+00    0.4762891527E-02    0.7057147237E-01    0.4935972119E+00
    0.4500000000E+03    0.1107454320E+00    0.1125878997E+00    0.4828279584E-02    0.7269094209E-01    0.4957469786E+00
    0.4700000000E+03    0.1119706177E+00    0.1130020993E+00    0.4889641335E-02    0.7476005234E-01    0.4977422918E+00
    0.4900000000E+03    0.1131114343E+00    0.1133860761E+00    0.4947284073E-02    0.7678182672E-01    0.4995998990E+00
    0.1000000000E+03    0.6065225437E-01    0.8746024905E-01    0.2532986951E-02    0.2354714442E-01    0.3813352910E+00
    0.3000000000E+03    0.9796600550E-01    0.1079975360E+00    0.4211690685E-02    0.5530287976E-01    0.4740775828E+00
    0.5000000000E+03    0.1136522752E+00    0.1135677542E+00    0.4974798423E-02    0.7777583591E-01    0.5004816354E+00
    0.7000000000E+03    0.1213239435E+00    0.1161971937E+00    0.5384442129E-02    0.9573071373E-01    0.5134984676E+00
    0.9000000000E+03    0.1251528332E+00    0.1177321490E+00    0.5618620584E-02    0.1110284842E+00    0.5214154880E+00
    0.1100000000E+04    0.1268908479E+00    0.1187376060E+00    0.5753840662E-02    0.1245714716E+00    0.5268109803E+00
    0.1300000000E+04    0.1273957224E+00    0.1194459250E+00    0.5828382527E-02    0.1368609726E+00    0.5307616723E+00
    0.1500000000E+04    0.1271322123E+00    0.1199706101E+00    0.5863446773E-02    0.1482029577E+00    0.5338012421E+00
    0.1700000000E+04    0.1263712911E+00    0.1203738138E+00    0.5871677844E-02    0.1587975225E+00    0.5362260531E+00
    0.1900000000E+04    0.1252799861E+00    0.1206924731E+00    0.5861057650E-02    0.1687826207E+00    0.5382146491E+00
    0.2100000000E+04    0.1239658370E+00    0.1209499370E+00    0.5836856626E-02    0.1782574165E+00    0.5398814068E+00
    0.2300000000E+04    0.1225005413E+00    0.1211616959E+00    0.5802684278E-02    0.1872956436E+00    0.5413032044E+00
    0.2500000000E+04    0.1209332744E+00    0.1213384341E+00    0.5761088477E-02    0.1959536831E+00    0.5425337530E+00
    0.2700000000E+04    0.1192985581E+00    0.1214877602E+00    0.5713913968E-02    0.2042756760E+00    0.5436117903E+00
    0.2900000000E+04    0.1176210951E+00    0.1216152400E+00    0.5662525558E-02    0.2122968841E+00    0.5445660098E+00
    0.3100000000E+04    0.1159188414E+00    0.1217250384E+00    0.5607951860E-02    0.2200459729E+00    0.5454181518E+00
    0.3300000000E+04    0.1142050167E+00    0.1218203339E+00    0.5550980616E-02    0.2275466054E+00    0.5461850123E+00
    0.3500000000E+04    0.1124894513E+00    0.1219035939E+00    0.5492223538E-02    0.2348185820E+00    0.5468797899E+00
    0.3700000000E+04    0.1107795112E+00    0.1219767626E+00    0.5432161429E-02    0.2418786733E+00    0.5475130117E+00
    0.3900000000E+04    0.1090807433E+00    0.1220413924E+00    0.5371176197E-02    0.2487412403E+00    0.5480931853E+00
    0.4100000000E+04    0.1073973357E+00    0.1220987376E+00    0.5309573994E-02    0.2554187028E+00    0.5486272678E+00
    0.4300000000E+04    0.1057324487E+00    0.1221498225E+00    0.5247602192E-02    0.2619219001E+00    0.5491210087E+00
    0.4500000000E+04    0.1040884588E+00    0.1221954913E+00    0.5185462035E-02    0.2682603711E+00    0.5495792046E+00
    0.4700000000E+04    0.1024671381E+00    0.1222364463E+00    0.5123318184E-02    0.2744425745E+00    0.5500058925E+00
    0.4900000000E+04    0.1008697902E+00    0.1222732759E+00    0.5061306011E-02    0.2804760653E+00    0.5504044962E+00
    0.1000000000E+04    0.1262167796E+00    0.1182824412E+00    0.5695654372E-02    0.1179818575E+00    0.5243424677E+00
    0.3000000000E+04    0.1167721482E+00    0.1216721313E+00    0.5635582868E-02    0.2162038624E+00    0.5450036931E+00
    0.5000000000E+04    0.1000804108E+00    0.1222903020E+00    0.5030385011E-02    0.2834391923E+00    0.5505941976E+00
    0.7000000000E+04    0.8565637173E-01    0.1225020423E+00    0.4437498545E-02    0.3362477784E+00    0.5534423129E+00
    0.9000000000E+04    0.7370810062E-01    0.1225845767E+00    0.3912154900E-02    0.3792182798E+00    0.5552306917E+00
    0.1100000000E+05    0.6385635367E-01    0.1226127262E+00    0.3458355231E-02    0.4147318107E+00    0.5564779377E+00
    0.1300000000E+05    0.5571111261E-01    0.1226143876E+00    0.3069554301E-02    0.4443702206E+00    0.5574045179E+00
    0.1500000000E+05    0.4894275533E-01    0.1226020184E+00    0.2737023068E-02    0.4692991040E+00    0.5581227998E+00
    0.1700000000E+05    0.4328478346E-01    0.1225818637E+00    0.2452238263E-02    0.4904154940E+00    0.5586971408E+00
    0.1900000000E+05    0.3852476944E-01    0.1225573140E+00    0.2207615350E-02    0.5084231819E+00    0.5591674922E+00
    0.2100000000E+05    0.3449412969E-01    0.1225303175E+00    0.1996669918E-02    0.5238798476E+00    0.5595601477E+00
    0.2300000000E+05    0.3105907864E-01    0.1225020411E+00    0.1813966141E-02    0.5372302730E+00    0.5598931932E+00
    0.2500000000E+05    0.2811319382E-01    0.1224732045E+00    0.1654991665E-02    0.5488311249E+00    0.5601795052E+00
    0.2700000000E+05    0.2557149527E-01    0.1224442602E+00    0.1516016869E-02    0.5589699079E+00    0.5604285100E+00
    0.2900000000E+05    0.2336580422E-01    0.1224154956E+00    0.1393962289E-02    0.5678796062E+00    0.5606472687E+00
    0.3100000000E+05    0.2144113265E-01    0.1223870933E+00    0.1286282672E-02    0.5757500499E+00    0.5608411740E+00
    0.3300000000E+05    0.1975288351E-01    0.1223591678E+00    0.1190869391E-02    0.5827367632E+00    0.5610144140E+00
    0.3500000000E+05    0.1826468007E-01    0.1223317890E+00    0.1105969986E-02    0.5889678724E+00    0.5611702893E+00
    0.3700000000E+05    0.1694668018E-01    0.1223049964E+00    0.1030122598E-02    0.5945495156E+00    0.5613114346E+00
    0.3900000000E+05    0.1577426310E-01    0.1222788097E+00    0.9621028786E-03    0.5995700953E+00    0.5614399778E+00
    0.4100000000E+05    0.1472700266E-01    0.1222532347E+00    0.9008810954E-03    0.6041036341E+00    0.5615576552E+00
    0.4300000000E+05    0.1378786061E-01    0.1222282681E+00    0.8455875066E-03    0.6082124353E+00    0.5616658974E+00
    0.4500000000E+05    0.1294255007E-01    0.1222039006E+00    0.7954843710E-03    0.6119492010E+00    0.5617658931E+00
    0.4700000000E+05    0.1217903046E-01    0.1221801185E+00    0.7499432772E-03    0.6153587279E+00    0.5618586377E+00
    0.4900000000E+05    0.1148710489E-01    0.1221569059E+00    0.7084267304E-03    0.6184792708E+00    0.5619449713E+00
    0.1000000000E+05    0.6854573181E-01    0.1226031598E+00    0.3676620934E-02    0.3977959266E+00    0.5559044770E+00
    0.3000000000E+05    0.2237134374E-01    0.1224012407E+00    0.1338466611E-02    0.5719342997E+00    0.5607470423E+00
    0.5000000000E+05    0.1116522669E-01    0.1221455077E+00    0.6890308034E-03    0.6199416143E+00    0.5619859613E+00
    0.7000000000E+05    0.6943035351E-02    0.1219429997E+00    0.4290613423E-03    0.6399375059E+00    0.5625965986E+00
    0.9000000000E+05    0.4898628502E-02    0.1217781990E+00    0.2987288452E-03    0.6504307796E+00    0.5629819409E+00
    0.1100000000E+06    0.3743878340E-02    0.1216396965E+00    0.2235392869E-03    0.6567645776E+00    0.5632579270E+00
    0.1300000000E+06    0.3020814222E-02    0.1215203388E+00    0.1758604787E-03    0.6609577873E+00    0.5634709925E+00
    0.1500000000E+06    0.2533507271E-02    0.1214154869E+00    0.1435092671E-03    0.6639205317E+00    0.5636437225E+00
    0.1700000000E+06    0.2186526726E-02    0.1213219903E+00    0.1204154864E-03    0.6661170469E+00    0.5637886021E+00
    0.1900000000E+06    0.1928716001E-02    0.1212376195E+00    0.1032673324E-03    0.6678066993E+00    0.5639131878E+00
    0.2100000000E+06    0.1730554368E-02    0.1211607419E+00    0.9012690100E-04    0.6691448682E+00    0.5640223714E+00
    0.2300000000E+06    0.1573980754E-02    0.1210901267E+00    0.7979536658E-04    0.6702299144E+00    0.5641194888E+00
    0.2500000000E+06    0.1447407510E-02    0.1210248235E+00    0.7149677929E-04    0.6711269478E+00    0.5642069101E+00
    0.2700000000E+06    0.1343101587E-02    0.1209640835E+00    0.6470968660E-04    0.6718806864E+00    0.5642863765E+00
    0.2900000000E+06    0.1255728236E-02    0.1209073059E+00    0.5907239668E-04    0.6725228088E+00    0.5643592030E+00
    0.3100000000E+06    0.1181501456E-02    0.1208540016E+00    0.5432715609E-04    0.6730763556E+00    0.5644264060E+00
    0.3300000000E+06    0.1117667804E-02    0.1208037670E+00    0.5028593848E-04    0.6735584690E+00    0.5644887869E+00
    0.3500000000E+06    0.1062181570E-02    0.1207562653E+00    0.4680875548E-04    0.6739821571E+00    0.5645469880E+00
    0.3700000000E+06    0.1013494035E-02    0.1207112121E+00    0.4378949476E-04    0.6743574633E+00    0.5646015322E+00
    0.3900000000E+06    0.9704130245E-03    0.1206683657E+00    0.4114643018E-04    0.6746922618E+00    0.5646528505E+00
    0.4100000000E+06    0.9320070786E-03    0.1206275184E+00    0.3881571492E-04    0.6749928107E+00    0.5647013023E+00
    0.4300000000E+06    0.8975386445E-03    0.1205884906E+00    0.3674682783E-04    0.6752641450E+00    0.5647471903E+00
    0.4500000000E+06    0.8664166246E-03    0.1205511260E+00    0.3489932727E-04    0.6755103605E+00    0.5647907718E+00
    0.4700000000E+06    0.8381620824E-03    0.1205152876E+00    0.3324049862E-04    0.6757348223E+00    0.5648322674E+00
    0.4900000000E+06    0.8123830709E-03    0.1204808549E+00    0.3174362326E-04    0.6759403205E+00    0.5648718676E+00
    0.1000000000E+06    0.4248092752E-02    0.1217061830E+00    0.2565173638E-03    0.6539522155E+00    0.5631298704E+00
    0.3000000000E+06    0.1217163310E-02    0.1208802465E+00    0.5660135598E-04    0.6728094688E+00    0.5643934531E+00
    0.5000000000E+06    0.8003184796E-03    0.1204641317E+00    0.3104888342E-04    0.6760367024E+00    0.5648910095E+00
    0.7000000000E+06    0.6336205620E-03    0.1201829399E+00    0.2191112474E-04    0.6773752925E+00    0.5652051988E+00
    0.9000000000E+06    0.5407080916E-03    0.1199700344E+00    0.1729621986E-04    0.6781151434E+00    0.5654353889E+00
    0.1100000000E+07    0.4799156888E-03    0.1197985495E+00    0.1451461113E-04    0.6785882994E+00    0.5656172030E+00
    0.1300000000E+07    0.4362571452E-03    0.1196549179E+00    0.1264812668E-04    0.6789189624E+00    0.5657675207E+00
    0.1500000000E+07    0.4029542274E-03    0.1195313187E+00    0.1130268073E-04    0.6791642523E+00    0.5658956827E+00
    0.1700000000E+07    0.3764604398E-03    0.1194228276E+00    0.1028211034E-04    0.6793541831E+00    0.5660074041E+00
    0.1900000000E+07    0.3547231093E-03    0.1193261416E+00    0.9478028560E-05    0.6795060746E+00    0.5661064376E+00
    0.2100000000E+07    0.3364628647E-03    0.1192389360E+00    0.8825710421E-05    0.6796306429E+00    0.5661953808E+00
    0.2300000000E+07    0.3208358909E-03    0.1191595128E+00    0.8284110324E-05    0.6797348852E+00    0.5662761062E+00
    0.2500000000E+07    0.3072602574E-03    0.1190865934E+00    0.7825922424E-05    0.6798235718E+00    0.5663500087E+00
    0.2700000000E+07    0.2953199102E-03    0.1190191909E+00    0.7432258286E-05    0.6799000707E+00    0.5664181555E+00
    0.2900000000E+07    0.2847084181E-03    0.1189565276E+00    0.7089621637E-05    0.6799668306E+00    0.5664813809E+00
    0.3100000000E+07    0.2751943970E-03    0.1188979794E+00    0.6788101811E-05    0.6800256764E+00    0.5665403501E+00
    0.3300000000E+07    0.2665993926E-03    0.1188430384E+00    0.6520249210E-05    0.6800779973E+00    0.5665956015E+00
    0.3500000000E+07    0.2587832428E-03    0.1187912851E+00    0.6280350083E-05    0.6801248702E+00    0.5666475776E+00
    0.3700000000E+07    0.2516341048E-03    0.1187423695E+00    0.6063944296E-05    0.6801671437E+00    0.5666966460E+00
    0.3900000000E+07    0.2450614854E-03    0.1186959960E+00    0.5867496027E-05    0.6802054956E+00    0.5667431157E+00
    0.4100000000E+07    0.2389912616E-03    0.1186519131E+00    0.5688163548E-05    0.6802404748E+00    0.5667872489E+00
    0.4300000000E+07    0.2333620518E-03    0.1186099051E+00    0.5523634898E-05    0.6802725301E+00    0.5668292699E+00
    0.4500000000E+07    0.2281225254E-03    0.1185697851E+00    0.5372008401E-05    0.6803020328E+00    0.5668693722E+00
    0.4700000000E+07    0.2232293765E-03    0.1185313907E+00    0.5231704321E-05    0.6803292926E+00    0.5669077238E+00
    0.4900000000E+07    0.2186457763E-03    0.1184945792E+00    0.5101398557E-05    0.6803545700E+00    0.5669444716E+00
    0.1000000000E+07    0.5075275247E-03    0.1198801491E+00    0.1575266425E-04    0.6783749190E+00    0.5655310380E+00
    0.3000000000E+07    0.2798264180E-03    0.1189267732E+00    0.6934235428E-05    0.6799971474E+00    0.5665113613E+00
    0.5000000000E+07    0.2164600187E-03    0.1184767274E+00    0.5039638495E-05    0.6803665357E+00    0.5669622850E+00
    0.7000000000E+07    0.1832672644E-03    0.1181789045E+00    0.4130613621E-05    0.6805411609E+00    0.5672588525E+00
    0.9000000000E+07    0.1619727348E-03    0.1179559420E+00    0.3574332640E-05    0.6806461289E+00    0.5674803060E+00
    0.1100000000E+08    0.1468105751E-03    0.1177776678E+00    0.3190152855E-05    0.6807175093E+00    0.5676571479E+00
    0.1300000000E+08    0.1353000789E-03    0.1176291288E+00    0.2904800752E-05    0.6807698547E+00    0.5678043927E+00
    0.1500000000E+08    0.1261726841E-03    0.1175018135E+00    0.2682272713E-05    0.6808102493E+00    0.5679305519E+00
    0.1700000000E+08    0.1187027345E-03    0.1173904115E+00    0.2502568038E-05    0.6808425884E+00    0.5680409210E+00
    0.1900000000E+08    0.1124409189E-03    0.1172913860E+00    0.2353579997E-05    0.6808692067E+00    0.5681390205E+00
    0.2100000000E+08    0.1070920802E-03    0.1172022622E+00    0.2227498808E-05    0.6808915962E+00    0.5682273098E+00
    0.2300000000E+08    0.1024532077E-03    0.1171212404E+00    0.2119032894E-05    0.6809107590E+00    0.5683075757E+00
    0.2500000000E+08    0.9837943769E-04    0.1170469710E+00    0.2024453869E-05    0.6809273958E+00    0.5683811568E+00
    0.2700000000E+08    0.9476423723E-04    0.1169784159E+00    0.1941049587E-05    0.6809420123E+00    0.5684490823E+00
