  Pressure (Pa) 2mC6-400 (mol/kg) 3mC6-400 (mol/kg) 33mC5-400 (mol/kg) 23mC5-400 (mol/kg) C7-400 (mol/kg)
    0.1000000000E+01    0.2351623490E-02    0.5176179269E-03    0.2553558770E-03    0.1865647498E-03    0.1680031029E-01
    0.3000000000E+01    0.6727491198E-02    0.1469330972E-02    0.7309055540E-03    0.5565239202E-03    0.4770276965E-01
    0.5000000000E+01    0.1072423397E-01    0.2324080855E-02    0.1165766600E-02    0.9223343086E-03    0.7547219530E-01
    0.7000000000E+01    0.1439849769E-01    0.3096163720E-02    0.1566049455E-02    0.1284087370E-02    0.1005698041E+00
    0.9000000000E+01    0.1779598407E-01    0.3797187252E-02    0.1936679840E-02    0.1641871764E-02    0.1233701454E+00
    0.1100000000E+02    0.2095395891E-01    0.4436674891E-02    0.2281670805E-02    0.1995773466E-02    0.1441805705E+00
    0.1300000000E+02    0.2390310415E-01    0.5022514074E-02    0.2604323538E-02    0.2345875866E-02    0.1632556765E+00
    0.1500000000E+02    0.2666890505E-01    0.5561293522E-02    0.2907377700E-02    0.2692259870E-02    0.1808081773E+00
    0.1700000000E+02    0.2927270273E-01    0.6058560357E-02    0.3193125445E-02    0.3035003990E-02    0.1970171907E+00
    0.1900000000E+02    0.3173250210E-01    0.6519018434E-02    0.3463498904E-02    0.3374184439E-02    0.2120346322E+00
    0.2100000000E+02    0.3406359893E-01    0.6946682994E-02    0.3720138051E-02    0.3709875210E-02    0.2259902002E+00
    0.2300000000E+02    0.3627907139E-01    0.7345002461E-02    0.3964443874E-02    0.4042148162E-02    0.2389953040E+00
    0.2500000000E+02    0.3839016876E-01    0.7716955257E-02    0.4197620406E-02    0.4371073096E-02    0.2511461849E+00
    0.2700000000E+02    0.4040662165E-01    0.8065127410E-02    0.4420708248E-02    0.4696717830E-02    0.2625264197E+00
    0.2900000000E+02    0.4233689140E-01    0.8391775266E-02    0.4634611505E-02    0.5019148272E-02    0.2732089431E+00
    0.3100000000E+02    0.4418837213E-01    0.8698876534E-02    0.4840119601E-02    0.5338428483E-02    0.2832576940E+00
    0.3300000000E+02    0.4596755556E-01    0.8988172119E-02    0.5037925055E-02    0.5654620749E-02    0.2927289654E+00
    0.3500000000E+02    0.4768016626E-01    0.9261200636E-02    0.5228638075E-02    0.5967785638E-02    0.3016725179E+00
    0.3700000000E+02    0.4933127343E-01    0.9519327046E-02    0.5412798595E-02    0.6277982065E-02    0.3101325035E+00
    0.3900000000E+02    0.5092538370E-01    0.9763766559E-02    0.5590886274E-02    0.6585267342E-02    0.3181482372E+00
    0.4100000000E+02    0.5246651864E-01    0.9995604686E-02    0.5763328840E-02    0.6889697241E-02    0.3257548440E+00
    0.4300000000E+02    0.5395827979E-01    0.1021581415E-01    0.5930509087E-02    0.7191326042E-02    0.3329838048E+00
    0.4500000000E+02    0.5540390360E-01    0.1042526922E-01    0.6092770776E-02    0.7490206585E-02    0.3398634190E+00
    0.4700000000E+02    0.5680630783E-01    0.1062475790E-01    0.6250423625E-02    0.7786390316E-02    0.3464191980E+00
    0.4900000000E+02    0.5816813114E-01    0.1081499234E-01    0.6403747563E-02    0.8079927337E-02    0.3526742019E+00
    0.1000000000E+02    0.1940285666E-01    0.4124096157E-02    0.2112159210E-02    0.1819302680E-02    0.1340070908E+00
    0.3000000000E+02    0.4327205522E-01    0.8547655303E-02    0.4738369579E-02    0.5179178222E-02    0.2783088566E+00
    0.5000000000E+02    0.5883458163E-01    0.1090684327E-01    0.6478866423E-02    0.8225718631E-02    0.3556955212E+00
    0.7000000000E+02    0.7051161761E-01    0.1238647816E-01    0.7804662899E-02    0.1101383554E-01    0.4044931428E+00
    0.9000000000E+02    0.7988413977E-01    0.1340739728E-01    0.8883148927E-02    0.1358578817E-01    0.4383401033E+00
    0.1100000000E+03    0.8769339169E-01    0.1415760054E-01    0.9792623676E-02    0.1597468488E-01    0.4633400916E+00
    0.1300000000E+03    0.9435309659E-01    0.1473406285E-01    0.1057683893E-01    0.1820687402E-01    0.4826471719E+00
    0.1500000000E+03    0.1001230562E+00    0.1519203772E-01    0.1126336580E-01    0.2030361639E-01    0.4980616313E+00
    0.1700000000E+03    0.1051802717E+00    0.1556539697E-01    0.1187107944E-01    0.2228228014E-01    0.5106890383E+00
    0.1900000000E+03    0.1096524745E+00    0.1587610497E-01    0.1241367480E-01    0.2415721091E-01    0.5212475623E+00
    0.2100000000E+03    0.1136357562E+00    0.1613905344E-01    0.1290151135E-01    0.2594037617E-01    0.5302249667E+00
    0.2300000000E+03    0.1172046736E+00    0.1636471112E-01    0.1334267012E-01    0.2764184974E-01    0.5379647377E+00
    0.2500000000E+03    0.1204184563E+00    0.1656066161E-01    0.1374360379E-01    0.2927018114E-01    0.5447161269E+00
    0.2700000000E+03    0.1233250384E+00    0.1673253925E-01    0.1410955974E-01    0.3083268075E-01    0.5506646340E+00
    0.2900000000E+03    0.1259637967E+00    0.1688462151E-01    0.1444486829E-01    0.3233564238E-01    0.5559513257E+00
    0.3100000000E+03    0.1283674803E+00    0.1702021696E-01    0.1475314639E-01    0.3378451903E-01    0.5606854987E+00
    0.3300000000E+03    0.1305636104E+00    0.1714192678E-01    0.1503744606E-01    0.3518406278E-01    0.5649532242E+00
    0.3500000000E+03    0.1325755228E+00    0.1725182551E-01    0.1530036519E-01    0.3653843735E-01    0.5688232616E+00
    0.3700000000E+03    0.1344231581E+00    0.1735158891E-01    0.1554413197E-01    0.3785130926E-01    0.5723512437E+00
    0.3900000000E+03    0.1361236735E+00    0.1744258605E-01    0.1577067039E-01    0.3912592232E-01    0.5755826961E+00
    0.4100000000E+03    0.1376919220E+00    0.1752594696E-01    0.1598165180E-01    0.4036515889E-01    0.5785552556E+00
    0.4300000000E+03    0.1391408325E+00    0.1760261298E-01    0.1617853588E-01    0.4157159060E-01    0.5813003252E+00
    0.4500000000E+03    0.1404817162E+00    0.1767337488E-01    0.1636260382E-01    0.4274752068E-01    0.5838443271E+00
    0.4700000000E+03    0.1417245143E+00    0.1773890203E-01    0.1653498516E-01    0.4389501932E-01    0.5862096624E+00
    0.4900000000E+03    0.1428780005E+00    0.1779976503E-01    0.1669667992E-01    0.4501595357E-01    0.5884154566E+00
    0.1000000000E+03    0.8395344312E-01    0.1380893717E-01    0.9355765474E-02    0.1480133570E-01    0.4517053719E+00
    0.3000000000E+03    0.1271931939E+00    0.1695430337E-01    0.1460218361E-01    0.3306652933E-01    0.5583816328E+00
    0.5000000000E+03    0.1434237161E+00    0.1782860322E-01    0.1677380147E-01    0.4556699327E-01    0.5894637531E+00
    0.7000000000E+03    0.1511366621E+00    0.1824939888E-01    0.1792622796E-01    0.5552934559E-01    0.6050467644E+00
    0.9000000000E+03    0.1551022541E+00    0.1849873409E-01    0.1861005283E-01    0.6406029800E-01    0.6146379883E+00
    0.1100000000E+04    0.1571297044E+00    0.1866404164E-01    0.1904037718E-01    0.7166515251E-01    0.6212322482E+00
    0.1300000000E+04    0.1580485820E+00    0.1878168460E-01    0.1931866007E-01    0.7861622444E-01    0.6260933764E+00
    0.1500000000E+04    0.1582883890E+00    0.1886959750E-01    0.1949894630E-01    0.8507718397E-01    0.6298533056E+00
    0.1700000000E+04    0.1580913731E+00    0.1893768380E-01    0.1961262002E-01    0.9115430949E-01    0.6328655860E+00
    0.1900000000E+04    0.1576031700E+00    0.1899187289E-01    0.1967912695E-01    0.9692070437E-01    0.6353445837E+00
    0.2100000000E+04    0.1569157655E+00    0.1903593795E-01    0.1971114127E-01    0.1024289411E+00    0.6374283924E+00
    0.2300000000E+04    0.1560895850E+00    0.1907239735E-01    0.1971726653E-01    0.1077181884E+00    0.6392102879E+00
    0.2500000000E+04    0.1551656054E+00    0.1910299762E-01    0.1970354153E-01    0.1128184786E+00    0.6407557209E+00
    0.2700000000E+04    0.1541723521E+00    0.1912898889E-01    0.1967432508E-01    0.1177533933E+00    0.6421120788E+00
    0.2900000000E+04    0.1531301200E+00    0.1915128989E-01    0.1963283894E-01    0.1225418217E+00    0.6433145834E+00
    0.3100000000E+04    0.1520536132E+00    0.1917059116E-01    0.1958151365E-01    0.1271991540E+00    0.6443900035E+00
    0.3300000000E+04    0.1509536502E+00    0.1918742185E-01    0.1952221558E-01    0.1317381141E+00    0.6453590783E+00
    0.3500000000E+04    0.1498382930E+00    0.1920219429E-01    0.1945640048E-01    0.1361693564E+00    0.6462381451E+00
    0.3700000000E+04    0.1487136140E+00    0.1921523459E-01    0.1938521948E-01    0.1405019020E+00    0.6470402638E+00
    0.3900000000E+04    0.1475842278E+00    0.1922680404E-01    0.1930959412E-01    0.1447434652E+00    0.6477760106E+00
    0.4100000000E+04    0.1464536655E+00    0.1923711444E-01    0.1923027026E-01    0.1489007005E+00    0.6484540494E+00
    0.4300000000E+04    0.1453246439E+00    0.1924633929E-01    0.1914785759E-01    0.1529793939E+00    0.6490815519E+00
    0.4500000000E+04    0.1441992608E+00    0.1925462206E-01    0.1906285900E-01    0.1569846114E+00    0.6496645098E+00
    0.4700000000E+04    0.1430791397E+00    0.1926208238E-01    0.1897569265E-01    0.1609208180E+00    0.6502079722E+00
    0.4900000000E+04    0.1419655368E+00    0.1926882080E-01    0.1888670887E-01    0.1647919712E+00    0.6507162261E+00
    0.1000000000E+04    0.1562930661E+00    0.1858898478E-01    0.1884899319E-01    0.6795801133E-01    0.6182090987E+00
    0.3000000000E+04    0.1525953991E+00    0.1916127925E-01    0.1960827840E-01    0.1248860250E+00    0.6438667636E+00
    0.5000000000E+04    0.1414114924E+00    0.1927194643E-01    0.1884162964E-01    0.1667042699E+00    0.6509583167E+00
    0.7000000000E+04    0.1308136009E+00    0.1931167091E-01    0.1789670516E-01    0.2022214340E+00    0.6546148555E+00
    0.9000000000E+04    0.1212040414E+00    0.1932819674E-01    0.1693725158E-01    0.2336920157E+00    0.6569460671E+00
    0.1100000000E+05    0.1125120622E+00    0.1933471952E-01    0.1600587241E-01    0.2620990867E+00    0.6586023669E+00
    0.1300000000E+05    0.1046291221E+00    0.1933625206E-01    0.1511709313E-01    0.2879872313E+00    0.6598581209E+00
    0.1500000000E+05    0.9745913784E-01    0.1933507042E-01    0.1427611951E-01    0.3117080988E+00    0.6608517190E+00
    0.1700000000E+05    0.9092178828E-01    0.1933233390E-01    0.1348429668E-01    0.3335151819E+00    0.6616617023E+00
    0.1900000000E+05    0.8494953637E-01    0.1932868204E-01    0.1274111331E-01    0.3536064625E+00    0.6623365748E+00
    0.2100000000E+05    0.7948462968E-01    0.1932448867E-01    0.1204507790E-01    0.3721455721E+00    0.6629082620E+00
    0.2300000000E+05    0.7447688778E-01    0.1931998185E-01    0.1139415982E-01    0.3892730385E+00    0.6633988511E+00
    0.2500000000E+05    0.6988216343E-01    0.1931530523E-01    0.1078603803E-01    0.4051125957E+00    0.6638242435E+00
    0.2700000000E+05    0.6566126949E-01    0.1931055140E-01    0.1021825328E-01    0.4197749073E+00    0.6641962641E+00
    0.2900000000E+05    0.6177920949E-01    0.1930578099E-01    0.9688306539E-02    0.4333598854E+00    0.6645239440E+00
    0.3100000000E+05    0.5820460387E-01    0.1930103401E-01    0.9193724310E-02    0.4459582287E+00    0.6648143349E+00
    0.3300000000E+05    0.5490924324E-01    0.1929633693E-01    0.8732102124E-02    0.4576525163E+00    0.6650730457E+00
    0.3500000000E+05    0.5186772621E-01    0.1929170707E-01    0.8301132996E-02    0.4685180436E+00    0.6653046080E+00
    0.3700000000E+05    0.4905715574E-01    0.1928715556E-01    0.7898625105E-02    0.4786235039E+00    0.6655127317E+00
    0.3900000000E+05    0.4645687758E-01    0.1928268926E-01    0.7522511729E-02    0.4880315732E+00    0.6657004888E+00
    0.4100000000E+05    0.4404825096E-01    0.1927831201E-01    0.7170855573E-02    0.4967994293E+00    0.6658704479E+00
    0.4300000000E+05    0.4181444502E-01    0.1927402561E-01    0.6841849082E-02    0.5049792229E+00    0.6660247750E+00
    0.4500000000E+05    0.3974025673E-01    0.1926983039E-01    0.6533811918E-02    0.5126185105E+00    0.6661653104E+00
    0.4700000000E+05    0.3781194732E-01    0.1926572568E-01    0.6245186512E-02    0.5197606535E+00    0.6662936277E+00
    0.4900000000E+05    0.3601709515E-01    0.1926171009E-01    0.5974532344E-02    0.5264451874E+00    0.6664110805E+00
    0.1000000000E+05    0.1167502763E+00    0.1933229885E-01    0.1646681721E-01    0.2482382110E+00    0.6578367682E+00
    0.3000000000E+05    0.5995530769E-01    0.1930340266E-01    0.9436747153E-02    0.4397770456E+00    0.6646734212E+00
    0.5000000000E+05    0.3516616103E-01    0.1925973516E-01    0.5845524733E-02    0.5296272438E+00    0.6664661047E+00
    0.7000000000E+05    0.2294193277E-01    0.1922436039E-01    0.3938166077E-02    0.5764416197E+00    0.6672107595E+00
    0.9000000000E+05    0.1620775788E-01    0.1919526040E-01    0.2836038334E-02    0.6034314348E+00    0.6675834895E+00
    0.1100000000E+06    0.1214749295E-01    0.1917064192E-01    0.2148333566E-02    0.6203617645E+00    0.6677931432E+00
    0.1300000000E+06    0.9520112963E-02    0.1914932931E-01    0.1691570719E-02    0.6317119984E+00    0.6679209773E+00
    0.1500000000E+06    0.7723010657E-02    0.1913054338E-01    0.1372696970E-02    0.6397289715E+00    0.6680036109E+00
    0.1700000000E+06    0.6438353326E-02    0.1911374777E-01    0.1140996111E-02    0.6456312923E+00    0.6680594022E+00
    0.1900000000E+06    0.5486620048E-02    0.1909855939E-01    0.9670622597E-03    0.6501246157E+00    0.6680983353E+00
    0.2100000000E+06    0.4760498451E-02    0.1908469570E-01    0.8329327964E-03    0.6536404412E+00    0.6681262000E+00
    0.2300000000E+06    0.4192735771E-02    0.1907194257E-01    0.7271421981E-03    0.6564549250E+00    0.6681465316E+00
    0.2500000000E+06    0.3739472871E-02    0.1906013393E-01    0.6420940383E-03    0.6587517301E+00    0.6681615832E+00
    0.2700000000E+06    0.3371120848E-02    0.1904913840E-01    0.5725922577E-03    0.6606570707E+00    0.6681728418E+00
    0.2900000000E+06    0.3067127644E-02    0.1903885032E-01    0.5149835285E-03    0.6622601594E+00    0.6681813194E+00
    0.3100000000E+06    0.2812852335E-02    0.1902918340E-01    0.4666369685E-03    0.6636256148E+00    0.6681877221E+00
    0.3300000000E+06    0.2597631432E-02    0.1902006627E-01    0.4256177897E-03    0.6648012532E+00    0.6681925537E+00
    0.3500000000E+06    0.2413545136E-02    0.1901143924E-01    0.3904764816E-03    0.6658231307E+00    0.6681961806E+00
    0.3700000000E+06    0.2254608434E-02    0.1900325186E-01    0.3601090344E-03    0.6667188943E+00    0.6681988740E+00
    0.3900000000E+06    0.2116227740E-02    0.1899546114E-01    0.3336620859E-03    0.6675100620E+00    0.6682008373E+00
    0.4100000000E+06    0.1994827906E-02    0.1898803010E-01    0.3104672010E-03    0.6682136079E+00    0.6682022253E+00
    0.4300000000E+06    0.1887591148E-02    0.1898092672E-01    0.2899944753E-03    0.6688430849E+00    0.6682031571E+00
    0.4500000000E+06    0.1792271055E-02    0.1897412311E-01    0.2718192202E-03    0.6694094333E+00    0.6682037252E+00
    0.4700000000E+06    0.1707057955E-02    0.1896759478E-01    0.2555976706E-03    0.6699215737E+00    0.6682040023E+00
    0.4900000000E+06    0.1630480019E-02    0.1896132016E-01    0.2410490192E-03    0.6703868463E+00    0.6682040460E+00
    0.1000000000E+06    0.1394251687E-01    0.1918247612E-01    0.2454843749E-02    0.6127996032E+00    0.6677020584E+00
    0.3000000000E+06    0.2934517899E-02    0.1903394398E-01    0.4897868158E-03    0.6629692783E+00    0.6681847448E+00
    0.5000000000E+06    0.1595043158E-02    0.1895827192E-01    0.2343281104E-03    0.6706038521E+00    0.6682039950E+00
    0.7000000000E+06    0.1135642040E-02    0.1890694601E-01    0.1484445938E-03    0.6735315521E+00    0.6681980482E+00
    0.9000000000E+06    0.9085242730E-03    0.1886800786E-01    0.1077478769E-03    0.6750747866E+00    0.6681900161E+00
    0.1100000000E+07    0.7729560054E-03    0.1883660630E-01    0.8463003332E-04    0.6760317787E+00    0.6681829516E+00
    0.1300000000E+07    0.6822702524E-03    0.1881028274E-01    0.6993137784E-04    0.6766866038E+00    0.6681771847E+00
    0.1500000000E+07    0.6168504304E-03    0.1878761650E-01    0.5983894867E-04    0.6771651382E+00    0.6681725671E+00
    0.1700000000E+07    0.5670772790E-03    0.1876771151E-01    0.5251202041E-04    0.6775316523E+00    0.6681688895E+00
    0.1900000000E+07    0.5276925008E-03    0.1874996587E-01    0.4696350234E-04    0.6778224006E+00    0.6681659670E+00
    0.2100000000E+07    0.4955796633E-03    0.1873395556E-01    0.4262072709E-04    0.6780594057E+00    0.6681636509E+00
    0.2300000000E+07    0.4687726583E-03    0.1871937055E-01    0.3913047295E-04    0.6782568332E+00    0.6681618249E+00
    0.2500000000E+07    0.4459678907E-03    0.1870597724E-01    0.3626391448E-04    0.6784242198E+00    0.6681603980E+00
    0.2700000000E+07    0.4262653685E-03    0.1869359520E-01    0.3386672927E-04    0.6785682283E+00    0.6681592990E+00
    0.2900000000E+07    0.4090225762E-03    0.1868208216E-01    0.3183128684E-04    0.6786936603E+00    0.6681584716E+00
    0.3100000000E+07    0.3937677042E-03    0.1867132395E-01    0.3008035493E-04    0.6788040668E+00    0.6681578706E+00
    0.3300000000E+07    0.3801458771E-03    0.1866122753E-01    0.2855714404E-04    0.6789021331E+00    0.6681574599E+00
    0.3500000000E+07    0.3678845950E-03    0.1865171611E-01    0.2721900229E-04    0.6789899297E+00    0.6681572101E+00
    0.3700000000E+07    0.3567708146E-03    0.1864272554E-01    0.2603329599E-04    0.6790690797E+00    0.6681570970E+00
    0.3900000000E+07    0.3466353288E-03    0.1863420167E-01    0.2497464426E-04    0.6791408746E+00    0.6681571006E+00
    0.4100000000E+07    0.3373418606E-03    0.1862609841E-01    0.2402301749E-04    0.6792063556E+00    0.6681572045E+00
    0.4300000000E+07    0.3287792854E-03    0.1861837616E-01    0.2316240173E-04    0.6792663721E+00    0.6681573947E+00
    0.4500000000E+07    0.3208559784E-03    0.1861100069E-01    0.2237984262E-04    0.6793216241E+00    0.6681576594E+00
    0.4700000000E+07    0.3134956345E-03    0.1860394218E-01    0.2166474904E-04    0.6793726945E+00    0.6681579889E+00
    0.4900000000E+07    0.3066341315E-03    0.1859717449E-01    0.2100837813E-04    0.6794200722E+00    0.6681583745E+00
    0.1000000000E+07    0.8332026982E-03    0.1885155236E-01    0.9475959061E-04    0.6756031274E+00    0.6681863211E+00
    0.3000000000E+07    0.4011710947E-03    0.1867661494E-01    0.3092419830E-04    0.6787505570E+00    0.6681581452E+00
    0.5000000000E+07    0.3033731386E-03    0.1859389240E-01    0.2069988983E-04    0.6794425082E+00    0.6681585861E+00
    0.7000000000E+07    0.2546456817E-03    0.1853913304E-01    0.1635060105E-04    0.6797709668E+00    0.6681644643E+00
    0.9000000000E+07    0.2240581175E-03    0.1849813645E-01    0.1385931025E-04    0.6799699399E+00    0.6681717070E+00
    0.1100000000E+08    0.2025370081E-03    0.1846535854E-01    0.1220885010E-04    0.6801062984E+00    0.6681791866E+00
    0.1300000000E+08    0.1863197476E-03    0.1843805031E-01    0.1101731479E-04    0.6802070078E+00    0.6681865243E+00
    0.1500000000E+08    0.1735244282E-03    0.1841464642E-01    0.1010703517E-04    0.6802852229E+00    0.6681935871E+00
    0.1700000000E+08    0.1630902636E-03    0.1839417010E-01    0.9383261397E-05    0.6803482009E+00    0.6682003354E+00
    0.1900000000E+08    0.1543672434E-03    0.1837597069E-01    0.8790427038E-05    0.6804003066E+00    0.6682067668E+00
    0.2100000000E+08    0.1469316546E-03    0.1835959287E-01    0.8293580787E-05    0.6804443398E+00    0.6682128946E+00
    0.2300000000E+08    0.1404937888E-03    0.1834470554E-01    0.7869523300E-05    0.6804821879E+00    0.6682187377E+00
    0.2500000000E+08    0.1348478838E-03    0.1833106038E-01    0.7502185272E-05    0.6805151750E+00    0.6682243168E+00
    0.2700000000E+08    0.1298431931E-03    0.1831846636E-01    0.7180044244E-05    0.6805442604E+00    0.6682296519E+00
