  Pressure (Pa) 2mC6-400 (mol/kg) 3mC6-400 (mol/kg) 33mC5-400 (mol/kg) 23mC5-400 (mol/kg) C7-400 (mol/kg)
    0.1000000000E+01    0.2378983488E-02    0.5251215797E-03    0.6457173847E-03    0.1864938474E-03    0.6817058256E-02
    0.3000000000E+01    0.6952130515E-02    0.1531411061E-02    0.1887381347E-02    0.5558958843E-03    0.1988317215E-01
    0.5000000000E+01    0.1129575662E-01    0.2483212758E-02    0.3067248911E-02    0.9206170870E-03    0.3224507835E-01
    0.7000000000E+01    0.1542818572E-01    0.3384990705E-02    0.4190266398E-02    0.1280773855E-02    0.4396038709E-01
    0.9000000000E+01    0.1936577244E-01    0.4240730225E-02    0.5260847223E-02    0.1636478578E-02    0.5508053520E-01
    0.1100000000E+02    0.2312316225E-01    0.5054000586E-02    0.6282942406E-02    0.1987839809E-02    0.6565159371E-01
    0.1300000000E+02    0.2671351141E-01    0.5828008053E-02    0.7260100176E-02    0.2334962434E-02    0.7571495172E-01
    0.1500000000E+02    0.3014867374E-01    0.6565641020E-02    0.8195516578E-02    0.2677947823E-02    0.8530789822E-01
    0.1700000000E+02    0.3343935991E-01    0.7269508567E-02    0.9092078618E-02    0.3016893982E-02    0.9446411921E-01
    0.1900000000E+02    0.3659527388E-01    0.7941973525E-02    0.9952401218E-02    0.3351895692E-02    0.1032141240E+00
    0.2100000000E+02    0.3962523015E-01    0.8585180961E-02    0.1077885897E-01    0.3683044647E-02    0.1115856125E+00
    0.2300000000E+02    0.4253725499E-01    0.9201082778E-02    0.1157361354E-01    0.4010429576E-02    0.1196037923E+00
    0.2500000000E+02    0.4533867408E-01    0.9791459063E-02    0.1233863738E-01    0.4334136368E-02    0.1272916542E+00
    0.2700000000E+02    0.4803618865E-01    0.1035793665E-01    0.1307573435E-01    0.4654248185E-02    0.1346702113E+00
    0.2900000000E+02    0.5063594188E-01    0.1090200535E-01    0.1378655769E-01    0.4970845573E-02    0.1417587085E+00
    0.3100000000E+02    0.5314357691E-01    0.1142503209E-01    0.1447262567E-01    0.5284006563E-02    0.1485748051E+00
    0.3300000000E+02    0.5556428780E-01    0.1192827344E-01    0.1513533541E-01    0.5593806774E-02    0.1551347357E+00
    0.3500000000E+02    0.5790286425E-01    0.1241288654E-01    0.1577597498E-01    0.5900319507E-02    0.1614534517E+00
    0.3700000000E+02    0.6016373111E-01    0.1287993881E-01    0.1639573404E-01    0.6203615831E-02    0.1675447463E+00
    0.3900000000E+02    0.6235098327E-01    0.1333041649E-01    0.1699571332E-01    0.6503764674E-02    0.1734213651E+00
    0.4100000000E+02    0.6446841661E-01    0.1376523230E-01    0.1757693293E-01    0.6800832901E-02    0.1790951040E+00
    0.4300000000E+02    0.6651955553E-01    0.1418523215E-01    0.1814033984E-01    0.7094885395E-02    0.1845768970E+00
    0.4500000000E+02    0.6850767737E-01    0.1459120121E-01    0.1868681447E-01    0.7385985130E-02    0.1898768934E+00
    0.4700000000E+02    0.7043583432E-01    0.1498386928E-01    0.1921717658E-01    0.7674193241E-02    0.1950045277E+00
    0.4900000000E+02    0.7230687295E-01    0.1536391562E-01    0.1973219057E-01    0.7959569094E-02    0.1999685816E+00
    0.1000000000E+02    0.2126613713E-01    0.4652465715E-02    0.5777724947E-02    0.1812695491E-02    0.6043201138E-01
    0.3000000000E+02    0.5190093957E-01    0.1116606797E-01    0.1413259608E-01    0.5127850836E-02    0.1451997606E+00
    0.5000000000E+02    0.7322181058E-01    0.1554940516E-01    0.1998416694E-01    0.8101213008E-02    0.2023918457E+00
    0.7000000000E+02    0.8908286147E-01    0.1872948639E-01    0.2436848882E-01    0.1079859909E-01    0.2439882253E+00
    0.9000000000E+02    0.1014081982E+00    0.2115948208E-01    0.2780183036E-01    0.1326925123E-01    0.2758503697E+00
    0.1100000000E+03    0.1112827327E+00    0.2308802711E-01    0.3057495863E-01    0.1555082503E-01    0.3011969144E+00
    0.1300000000E+03    0.1193734416E+00    0.2466337372E-01    0.3286654078E-01    0.1767266520E-01    0.3219486029E+00
    0.1500000000E+03    0.1261174867E+00    0.2597966826E-01    0.3479368684E-01    0.1965802019E-01    0.3393261807E+00
    0.1700000000E+03    0.1318157843E+00    0.2709972701E-01    0.3643704676E-01    0.2152557826E-01    0.3541448087E+00
    0.1900000000E+03    0.1366835848E+00    0.2806716563E-01    0.3785435837E-01    0.2329055682E-01    0.3669709339E+00
    0.2100000000E+03    0.1408796847E+00    0.2891327796E-01    0.3908826334E-01    0.2496549059E-01    0.3782112972E+00
    0.2300000000E+03    0.1445242274E+00    0.2966114259E-01    0.4017106630E-01    0.2656081191E-01    0.3881660963E+00
    0.2500000000E+03    0.1477100411E+00    0.3032818174E-01    0.4112776449E-01    0.2808528496E-01    0.3970621280E+00
    0.2700000000E+03    0.1505101329E+00    0.3092781454E-01    0.4197804970E-01    0.2954633523E-01    0.4050742118E+00
    0.2900000000E+03    0.1529827995E+00    0.3147055889E-01    0.4273767340E-01    0.3095030287E-01    0.4123394750E+00
    0.3100000000E+03    0.1551752071E+00    0.3196478598E-01    0.4341940320E-01    0.3230263987E-01    0.4189671392E+00
    0.3300000000E+03    0.1571259577E+00    0.3241724933E-01    0.4403370858E-01    0.3360806503E-01    0.4250453847E+00
    0.3500000000E+03    0.1588669669E+00    0.3283346341E-01    0.4458926280E-01    0.3487068721E-01    0.4306462672E+00
    0.3700000000E+03    0.1604248611E+00    0.3321797995E-01    0.4509331670E-01    0.3609410406E-01    0.4358293053E+00
    0.3900000000E+03    0.1618220348E+00    0.3357459267E-01    0.4555198166E-01    0.3728148185E-01    0.4406441421E+00
    0.4100000000E+03    0.1630774615E+00    0.3390649154E-01    0.4597044663E-01    0.3843562061E-01    0.4451325498E+00
    0.4300000000E+03    0.1642073228E+00    0.3421638045E-01    0.4635314694E-01    0.3955900754E-01    0.4493299602E+00
    0.4500000000E+03    0.1652255033E+00    0.3450656804E-01    0.4670389689E-01    0.4065386119E-01    0.4532666476E+00
    0.4700000000E+03    0.1661439825E+00    0.3477903882E-01    0.4702599506E-01    0.4172216823E-01    0.4569686533E+00
    0.4900000000E+03    0.1669731492E+00    0.3503550919E-01    0.4732230874E-01    0.4276571417E-01    0.4604585158E+00
    0.1000000000E+03    0.1066031951E+00    0.2217552293E-01    0.2925789611E-01    0.1443167408E-01    0.2891967398E+00
    0.3000000000E+03    0.1541114471E+00    0.3172328212E-01    0.4308757345E-01    0.3163261467E-01    0.4157270679E+00
    0.5000000000E+03    0.1673571154E+00    0.3515821847E-01    0.4746159158E-01    0.4327871118E-01    0.4621301248E+00
    0.7000000000E+03    0.1720292769E+00    0.3704995262E-01    0.4936107338E-01    0.5255743777E-01    0.4880767931E+00
    0.9000000000E+03    0.1734542026E+00    0.3828493875E-01    0.5027148627E-01    0.6051538873E-01    0.5052380430E+00
    0.1100000000E+04    0.1734016611E+00    0.3916976858E-01    0.5070115161E-01    0.6762179897E-01    0.5176777331E+00
    0.1300000000E+04    0.1726057853E+00    0.3984222952E-01    0.5086812159E-01    0.7412741550E-01    0.5272331481E+00
    0.1500000000E+04    0.1714148681E+00    0.4037459375E-01    0.5087990443E-01    0.8018236414E-01    0.5348732239E+00
    0.1700000000E+04    0.1700096874E+00    0.4080888477E-01    0.5079483466E-01    0.8588398700E-01    0.5411641970E+00
    0.1900000000E+04    0.1684901886E+00    0.4117141416E-01    0.5064686948E-01    0.9129923325E-01    0.5464622677E+00
    0.2100000000E+04    0.1669141700E+00    0.4147960208E-01    0.5045686813E-01    0.9647628124E-01    0.5510043162E+00
    0.2300000000E+04    0.1653161212E+00    0.4174549725E-01    0.5023819911E-01    0.1014510651E+00    0.5549548737E+00
    0.2500000000E+04    0.1637170361E+00    0.4197773159E-01    0.4999972803E-01    0.1062511744E+00    0.5584322893E+00
    0.2700000000E+04    0.1621298079E+00    0.4218267080E-01    0.4974750105E-01    0.1108983045E+00    0.5615241783E+00
    0.2900000000E+04    0.1605623269E+00    0.4236512450E-01    0.4948573814E-01    0.1154098602E+00    0.5642969858E+00
    0.3100000000E+04    0.1590193250E+00    0.4252880236E-01    0.4921744202E-01    0.1198000446E+00    0.5668021450E+00
    0.3300000000E+04    0.1575035073E+00    0.4267661685E-01    0.4894478404E-01    0.1240806178E+00    0.5690801768E+00
    0.3500000000E+04    0.1560162629E+00    0.4281089016E-01    0.4866935565E-01    0.1282614417E+00    0.5711634989E+00
    0.3700000000E+04    0.1545581224E+00    0.4293349911E-01    0.4839233630E-01    0.1323508788E+00    0.5730783976E+00
    0.3900000000E+04    0.1531290554E+00    0.4304597890E-01    0.4811460811E-01    0.1363560898E+00    0.5748464434E+00
    0.4100000000E+04    0.1517286690E+00    0.4314959883E-01    0.4783683553E-01    0.1402832600E+00    0.5764855259E+00
    0.4300000000E+04    0.1503563391E+00    0.4324541844E-01    0.4755952173E-01    0.1441377740E+00    0.5780106246E+00
    0.4500000000E+04    0.1490113006E+00    0.4333432995E-01    0.4728304907E-01    0.1479243522E+00    0.5794343903E+00
    0.4700000000E+04    0.1476927071E+00    0.4341709055E-01    0.4700770856E-01    0.1516471591E+00    0.5807675910E+00
    0.4900000000E+04    0.1463996724E+00    0.4349434750E-01    0.4673372155E-01    0.1553098904E+00    0.5820194577E+00
    0.1000000000E+04    0.1735535005E+00    0.3876030738E-01    0.5052902386E-01    0.6415615265E-01    0.5119040867E+00
    0.3000000000E+04    0.1597875594E+00    0.4244911249E-01    0.4935225498E-01    0.1176193388E+00    0.5655802710E+00
    0.5000000000E+04    0.1457624589E+00    0.4353108924E-01    0.4659728979E-01    0.1571197718E+00    0.5826174230E+00
    0.7000000000E+04    0.1341520247E+00    0.4407870970E-01    0.4396324375E-01    0.1908060755E+00    0.5917689590E+00
    0.9000000000E+04    0.1242452818E+00    0.4441578081E-01    0.4151840706E-01    0.2207894432E+00    0.5976991836E+00
    0.1100000000E+05    0.1155838580E+00    0.4464607201E-01    0.3924914502E-01    0.2479925502E+00    0.6019436106E+00
    0.1300000000E+05    0.1078880954E+00    0.4481404504E-01    0.3713768232E-01    0.2729229198E+00    0.6051754821E+00
    0.1500000000E+05    0.1009760673E+00    0.4494219921E-01    0.3516921498E-01    0.2959033973E+00    0.6077426797E+00
    0.1700000000E+05    0.9472129835E-01    0.4504323907E-01    0.3333170701E-01    0.3171621974E+00    0.6098455212E+00
    0.1900000000E+05    0.8903069439E-01    0.4512492201E-01    0.3161506180E-01    0.3368740159E+00    0.6116086256E+00
    0.2100000000E+05    0.8383243652E-01    0.4519227160E-01    0.3001049642E-01    0.3551807741E+00    0.6131141643E+00
    0.2300000000E+05    0.7906899093E-01    0.4524869397E-01    0.2851014413E-01    0.3722028335E+00    0.6144188396E+00
    0.2500000000E+05    0.7469288131E-01    0.4529658541E-01    0.2710681473E-01    0.3880453779E+00    0.6155632354E+00
    0.2700000000E+05    0.7066402279E-01    0.4533768367E-01    0.2579385280E-01    0.4028022041E+00    0.6165772838E+00
    0.2900000000E+05    0.6694797447E-01    0.4537328137E-01    0.2456505412E-01    0.4165580642E+00    0.6174836217E+00
    0.3100000000E+05    0.6351475094E-01    0.4540436095E-01    0.2341461550E-01    0.4293901791E+00    0.6182997365E+00
    0.3300000000E+05    0.6033798476E-01    0.4543168309E-01    0.2233710329E-01    0.4413692655E+00    0.6190393865E+00
    0.3500000000E+05    0.5739431548E-01    0.4545584637E-01    0.2132743160E-01    0.4525602740E+00    0.6197135683E+00
    0.3700000000E+05    0.5466292909E-01    0.4547732850E-01    0.2038084539E-01    0.4630229528E+00    0.6203311930E+00
    0.3900000000E+05    0.5212519992E-01    0.4549651553E-01    0.1949290552E-01    0.4728123040E+00    0.6208995708E+00
    0.4100000000E+05    0.4976440462E-01    0.4551372299E-01    0.1865947441E-01    0.4819789714E+00    0.6214247629E+00
    0.4300000000E+05    0.4756548803E-01    0.4552921130E-01    0.1787670154E-01    0.4905695826E+00    0.6219118439E+00
    0.4500000000E+05    0.4551486771E-01    0.4554319739E-01    0.1714100875E-01    0.4986270592E+00    0.6223650991E+00
    0.4700000000E+05    0.4360026799E-01    0.4555586342E-01    0.1644907523E-01    0.5061909022E+00    0.6227881756E+00
    0.4900000000E+05    0.4181057735E-01    0.4556736354E-01    0.1579782241E-01    0.5132974572E+00    0.6231841992E+00
    0.1000000000E+05    0.1197793792E+00    0.4454074602E-01    0.4036299722E-01    0.2347008552E+00    0.5999790158E+00
    0.3000000000E+05    0.6519773433E-01    0.4538933399E-01    0.2398038778E-01    0.4230850273E+00    0.6179020227E+00
    0.5000000000E+05    0.4095938805E-01    0.4557271819E-01    0.1548655173E-01    0.5166898077E+00    0.6233729235E+00
    0.7000000000E+05    0.2849842482E-01    0.4564215967E-01    0.1081138364E-01    0.5673183799E+00    0.6262217121E+00
    0.9000000000E+05    0.2138166626E-01    0.4567220798E-01    0.8034195226E-02    0.5971197302E+00    0.6280234767E+00
    0.1100000000E+06    0.1695528928E-01    0.4568457890E-01    0.6264195426E-02    0.6160169664E+00    0.6292904530E+00
    0.1300000000E+06    0.1400963087E-01    0.4568783592E-01    0.5068217628E-02    0.6287494817E+00    0.6302431198E+00
    0.1500000000E+06    0.1194139304E-01    0.4568598508E-01    0.4220880695E-02    0.6377565517E+00    0.6309932143E+00
    0.1700000000E+06    0.1042546420E-01    0.4568111969E-01    0.3596988379E-02    0.6443835643E+00    0.6316039317E+00
    0.1900000000E+06    0.9274871704E-02    0.4567442147E-01    0.3122875459E-02    0.6494183291E+00    0.6321139665E+00
    0.2100000000E+06    0.8376074241E-02    0.4566659627E-01    0.2753006886E-02    0.6533461963E+00    0.6325484804E+00
    0.2300000000E+06    0.7656894812E-02    0.4565808394E-01    0.2458027689E-02    0.6564793349E+00    0.6329246255E+00
    0.2500000000E+06    0.7069636779E-02    0.4564916750E-01    0.2218321085E-02    0.6590260293E+00    0.6332545464E+00
    0.2700000000E+06    0.6581717443E-02    0.4564003350E-01    0.2020366059E-02    0.6611296949E+00    0.6335471144E+00
    0.2900000000E+06    0.6170232070E-02    0.4563080712E-01    0.1854589806E-02    0.6628918078E+00    0.6338089808E+00
    0.3100000000E+06    0.5818672753E-02    0.4562157331E-01    0.1714054184E-02    0.6643858933E+00    0.6340452438E+00
    0.3300000000E+06    0.5514878787E-02    0.4561239010E-01    0.1593625888E-02    0.6656663478E+00    0.6342598860E+00
    0.3500000000E+06    0.5249717041E-02    0.4560329709E-01    0.1489437009E-02    0.6667741637E+00    0.6344560702E+00
    0.3700000000E+06    0.5016209273E-02    0.4559432113E-01    0.1398525324E-02    0.6677407435E+00    0.6346363445E+00
    0.3900000000E+06    0.4808941079E-02    0.4558548011E-01    0.1318588931E-02    0.6685904988E+00    0.6348027881E+00
    0.4100000000E+06    0.4623652926E-02    0.4557678551E-01    0.1247815416E-02    0.6693426593E+00    0.6349571170E+00
    0.4300000000E+06    0.4456951671E-02    0.4556824428E-01    0.1184760710E-02    0.6700125546E+00    0.6351007615E+00
    0.4500000000E+06    0.4306103487E-02    0.4555986008E-01    0.1128261734E-02    0.6706125383E+00    0.6352349250E+00
    0.4700000000E+06    0.4168882846E-02    0.4555163422E-01    0.1077372438E-02    0.6711526652E+00    0.6353606285E+00
    0.4900000000E+06    0.4043460778E-02    0.4554356631E-01    0.1031316321E-02    0.6716411928E+00    0.6354787443E+00
    0.1000000000E+06    0.1892803746E-01    0.4567990908E-01    0.7057161465E-02    0.6075594992E+00    0.6287063279E+00
    0.3000000000E+06    0.5987805412E-02    0.4562618701E-01    0.1781522642E-02    0.6636685845E+00    0.6339300417E+00
    0.5000000000E+06    0.3984690030E-02    0.4553959112E-01    0.1009895436E-02    0.6718682912E+00    0.6355351955E+00
    0.7000000000E+06    0.3167945950E-02    0.4546766834E-01    0.7251563159E-03    0.6748738217E+00    0.6364031467E+00
    0.9000000000E+06    0.2709017327E-02    0.4540763373E-01    0.5787704715E-03    0.6763984614E+00    0.6369719787E+00
    0.1100000000E+07    0.2407377362E-02    0.4535633627E-01    0.4894172019E-03    0.6773135053E+00    0.6373840292E+00
    0.1300000000E+07    0.2190117955E-02    0.4531159777E-01    0.4288737759E-03    0.6779221508E+00    0.6377015417E+00
    0.1500000000E+07    0.2024051571E-02    0.4527193449E-01    0.3848877589E-03    0.6783560147E+00    0.6379567120E+00
    0.1700000000E+07    0.1891738494E-02    0.4523630673E-01    0.3513057312E-03    0.6786810479E+00    0.6381681256E+00
    0.1900000000E+07    0.1783052678E-02    0.4520396215E-01    0.3247024925E-03    0.6789338173E+00    0.6383473792E+00
    0.2100000000E+07    0.1691667361E-02    0.4517434028E-01    0.3030196042E-03    0.6791361852E+00    0.6385021434E+00
    0.2300000000E+07    0.1613401518E-02    0.4514701285E-01    0.2849444031E-03    0.6793020087E+00    0.6386377268E+00
    0.2500000000E+07    0.1545367099E-02    0.4512164547E-01    0.2695992860E-03    0.6794404895E+00    0.6387579396E+00
    0.2700000000E+07    0.1485496506E-02    0.4509797209E-01    0.2563744658E-03    0.6795579749E+00    0.6388655991E+00
    0.2900000000E+07    0.1432265175E-02    0.4507577759E-01    0.2448324660E-03    0.6796589842E+00    0.6389628406E+00
    0.3100000000E+07    0.1384520789E-02    0.4505488558E-01    0.2346508475E-03    0.6797468223E+00    0.6390513175E+00
    0.3300000000E+07    0.1341373863E-02    0.4503514958E-01    0.2255864194E-03    0.6798239618E+00    0.6391323328E+00
    0.3500000000E+07    0.1302125255E-02    0.4501644664E-01    0.2174520751E-03    0.6798922900E+00    0.6392069301E+00
    0.3700000000E+07    0.1266216707E-02    0.4499867256E-01    0.2101013392E-03    0.6799532721E+00    0.6392759567E+00
    0.3900000000E+07    0.1233196263E-02    0.4498173820E-01    0.2034177819E-03    0.6800080636E+00    0.6393401087E+00
    0.4100000000E+07    0.1202693526E-02    0.4496556676E-01    0.1973075970E-03    0.6800575880E+00    0.6393999647E+00
    0.4300000000E+07    0.1174401621E-02    0.4495009157E-01    0.1916942900E-03    0.6801025923E+00    0.6394560098E+00
    0.4500000000E+07    0.1148063815E-02    0.4493525438E-01    0.1865148055E-03    0.6801436874E+00    0.6395086546E+00
    0.4700000000E+07    0.1123463421E-02    0.4492100400E-01    0.1817166577E-03    0.6801813778E+00    0.6395582493E+00
    0.4900000000E+07    0.1100416098E-02    0.4490729521E-01    0.1772557709E-03    0.6802160840E+00    0.6396050947E+00
    0.1000000000E+07    0.2544511953E-02    0.4538104895E-01    0.5293060701E-03    0.6769070356E+00    0.6371926920E+00
    0.3000000000E+07    0.1407767879E-02    0.4506517854E-01    0.2395883477E-03    0.6797043790E+00    0.6390080862E+00
    0.5000000000E+07    0.1089424576E-02    0.4490063118E-01    0.1751399131E-03    0.6802324307E+00    0.6396275692E+00
    0.7000000000E+07    0.9224304183E-03    0.4478803213E-01    0.1438830437E-03    0.6804647829E+00    0.6399807049E+00
    0.9000000000E+07    0.8152299179E-03    0.4470216376E-01    0.1246541808E-03    0.6805985892E+00    0.6402209618E+00
    0.1100000000E+08    0.7388753831E-03    0.4463266911E-01    0.1113331401E-03    0.6806868995E+00    0.6404002031E+00
    0.1300000000E+08    0.6808986690E-03    0.4457425913E-01    0.1014188983E-03    0.6807502116E+00    0.6405417421E+00
    0.1500000000E+08    0.6349196322E-03    0.4452386107E-01    0.9367656036E-04    0.6807981976E+00    0.6406579035E+00
    0.1700000000E+08    0.5972869796E-03    0.4447952896E-01    0.8741775587E-04    0.6808360492E+00    0.6407559334E+00
    0.1900000000E+08    0.5657391725E-03    0.4443995140E-01    0.8222473791E-04    0.6808668173E+00    0.6408404258E+00
    0.2100000000E+08    0.5387902219E-03    0.4440420210E-01    0.7782749625E-04    0.6808924200E+00    0.6409144625E+00
    0.2300000000E+08    0.5154178655E-03    0.4437160226E-01    0.7404279769E-04    0.6809141277E+00    0.6409802036E+00
    0.2500000000E+08    0.4948925352E-03    0.4434163941E-01    0.7074137503E-04    0.6809328176E+00    0.6410392179E+00
    0.2700000000E+08    0.4766776420E-03    0.4431391710E-01    0.6782909700E-04    0.6809491162E+00    0.6410926778E+00
