  Pressure (Pa) 2mC6-400 (mol/kg) 3mC6-400 (mol/kg) 33mC5-400 (mol/kg) 23mC5-400 (mol/kg) C7-400 (mol/kg)
    0.1000000000E+01    0.2381846571E-02    0.3154765841E-02    0.5171906383E-03    0.9327171517E-04    0.3412874869E-02
    0.3000000000E+01    0.6976549182E-02    0.9222833895E-02    0.1515164118E-02    0.2781675060E-03    0.9978590678E-02
    0.5000000000E+01    0.1136013926E-01    0.1498973380E-01    0.2467662843E-02    0.4609088024E-03    0.1621994478E-01
    0.7000000000E+01    0.1554814639E-01    0.2047818908E-01    0.3378040424E-02    0.6415450049E-03    0.2216137554E-01
    0.9000000000E+01    0.1955455880E-01    0.2570867317E-01    0.4249316805E-02    0.8201239408E-03    0.2782490317E-01
    0.1100000000E+02    0.2339201174E-01    0.3069968189E-01    0.5084219113E-02    0.9966919267E-03    0.3323042245E-01
    0.1300000000E+02    0.2707194899E-01    0.3546796731E-01    0.5885216664E-02    0.1171293830E-02    0.3839595395E-01
    0.1500000000E+02    0.3060476164E-01    0.4002873907E-01    0.6654551044E-02    0.1343973124E-02    0.4333786034E-01
    0.1700000000E+02    0.3399990789E-01    0.4439583854E-01    0.7394262082E-02    0.1514771945E-02    0.4807103342E-01
    0.1900000000E+02    0.3726601688E-01    0.4858188973E-01    0.8106210328E-02    0.1683731145E-02    0.5260905633E-01
    0.2100000000E+02    0.4041097882E-01    0.5259843072E-01    0.8792096598E-02    0.1850890339E-02    0.5696434478E-01
    0.2300000000E+02    0.4344202368E-01    0.5645602842E-01    0.9453478997E-02    0.2016287951E-02    0.6114827028E-01
    0.2500000000E+02    0.4636578987E-01    0.6016437900E-01    0.1009178782E-01    0.2179961264E-02    0.6517126813E-01
    0.2700000000E+02    0.4918838462E-01    0.6373239610E-01    0.1070833858E-01    0.2341946460E-02    0.6904293221E-01
    0.2900000000E+02    0.5191543698E-01    0.6716828857E-01    0.1130434356E-01    0.2502278662E-02    0.7277209848E-01
    0.3100000000E+02    0.5455214463E-01    0.7047962904E-01    0.1188092183E-01    0.2660991972E-02    0.7636691874E-01
    0.3300000000E+02    0.5710331522E-01    0.7367341468E-01    0.1243910831E-01    0.2818119509E-02    0.7983492586E-01
    0.3500000000E+02    0.5957340303E-01    0.7675612106E-01    0.1297986162E-01    0.2973693448E-02    0.8318309175E-01
    0.3700000000E+02    0.6196654158E-01    0.7973375011E-01    0.1350407117E-01    0.3127745050E-02    0.8641787884E-01
    0.3900000000E+02    0.6428657261E-01    0.8261187286E-01    0.1401256342E-01    0.3280304695E-02    0.8954528608E-01
    0.4100000000E+02    0.6653707200E-01    0.8539566761E-01    0.1450610748E-01    0.3431401917E-02    0.9257088995E-01
    0.4300000000E+02    0.6872137291E-01    0.8808995412E-01    0.1498542014E-01    0.3581065432E-02    0.9549988119E-01
    0.4500000000E+02    0.7084258657E-01    0.9069922426E-01    0.1545117030E-01    0.3729323165E-02    0.9833709781E-01
    0.4700000000E+02    0.7290362093E-01    0.9322766960E-01    0.1590398307E-01    0.3876202281E-02    0.1010870547E+00
    0.4900000000E+02    0.7490719739E-01    0.9567920625E-01    0.1634444336E-01    0.4021729208E-02    0.1037539704E+00
    0.1000000000E+02    0.2149366377E-01    0.2823302658E-01    0.4671154718E-02    0.9086564650E-03    0.3055874633E-01
    0.3000000000E+02    0.5324477473E-01    0.6883907766E-01    0.1159499447E-01    0.2581835586E-02    0.7458581727E-01
    0.5000000000E+02    0.7588824212E-01    0.9687728782E-01    0.1656021393E-01    0.4093993664E-02    0.1050575310E+00
    0.7000000000E+02    0.9303421390E-01    0.1175759784E+00    0.2034346839E-01    0.5474205955E-02    0.1276038712E+00
    0.9000000000E+02    0.1065506622E+00    0.1335931644E+00    0.2334591384E-01    0.6744641912E-02    0.1450892854E+00
    0.1100000000E+03    0.1175159723E+00    0.1464278321E+00    0.2579887191E-01    0.7922533987E-02    0.1591304068E+00
    0.1300000000E+03    0.1266041543E+00    0.1569921545E+00    0.2784683486E-01    0.9021503756E-02    0.1707117358E+00
    0.1500000000E+03    0.1342624322E+00    0.1658745459E+00    0.2958566395E-01    0.1005247863E-01    0.1804688112E+00
    0.1700000000E+03    0.1408016207E+00    0.1734725122E+00    0.3108199814E-01    0.1102434017E-01    0.1888312870E+00
    0.1900000000E+03    0.1464458151E+00    0.1800648497E+00    0.3238391085E-01    0.1194439185E-01    0.1961007247E+00
    0.2100000000E+03    0.1513614608E+00    0.1858532647E+00    0.3352713775E-01    0.1281870277E-01    0.2024954566E+00
    0.2300000000E+03    0.1556752471E+00    0.1909875559E+00    0.3453890677E-01    0.1365236422E-01    0.2081777432E+00
    0.2500000000E+03    0.1594855959E+00    0.1955814831E+00    0.3544039595E-01    0.1444968406E-01    0.2132708947E+00
    0.2700000000E+03    0.1628703069E+00    0.1997231186E+00    0.3624836809E-01    0.1521433588E-01    0.2178704435E+00
    0.2900000000E+03    0.1658918002E+00    0.2034818034E+00    0.3697629166E-01    0.1594947494E-01    0.2220516553E+00
    0.3100000000E+03    0.1686008074E+00    0.2069129434E+00    0.3763512977E-01    0.1665782913E-01    0.2258747116E+00
    0.3300000000E+03    0.1710390289E+00    0.2100613939E+00    0.3823390841E-01    0.1734177123E-01    0.2293883663E+00
    0.3500000000E+03    0.1732410862E+00    0.2129638958E+00    0.3878013380E-01    0.1800337673E-01    0.2326325805E+00
    0.3700000000E+03    0.1752359799E+00    0.2156508607E+00    0.3928010445E-01    0.1864447049E-01    0.2356404530E+00
    0.3900000000E+03    0.1770481970E+00    0.2181477006E+00    0.3973914803E-01    0.1926666483E-01    0.2384396595E+00
    0.4100000000E+03    0.1786985631E+00    0.2204758332E+00    0.4016180379E-01    0.1987139068E-01    0.2410535406E+00
    0.4300000000E+03    0.1802049053E+00    0.2226534512E+00    0.4055196473E-01    0.2045992331E-01    0.2435019351E+00
    0.4500000000E+03    0.1815825756E+00    0.2246961188E+00    0.4091298971E-01    0.2103340380E-01    0.2458018263E+00
    0.4700000000E+03    0.1828448667E+00    0.2266172395E+00    0.4124779266E-01    0.2159285690E-01    0.2479678489E+00
    0.4900000000E+03    0.1840033462E+00    0.2284284256E+00    0.4155891436E-01    0.2213920606E-01    0.2500126899E+00
    0.1000000000E+03    0.1123032867E+00    0.1403415260E+00    0.2463058978E-01    0.7344232282E-02    0.1524683166E+00
    0.3000000000E+03    0.1672825723E+00    0.2052352981E+00    0.3731374236E-01    0.1630684426E-01    0.2240046729E+00
    0.5000000000E+03    0.1845468675E+00    0.2292960063E+00    0.4170630125E-01    0.2240773074E-01    0.2509931797E+00
    0.7000000000E+03    0.1918579977E+00    0.2427619856E+00    0.4382858932E-01    0.2725626258E-01    0.2663050720E+00
    0.9000000000E+03    0.1952232693E+00    0.2516608534E+00    0.4501174967E-01    0.3139875240E-01    0.2765416704E+00
    0.1100000000E+04    0.1967047182E+00    0.2581019784E+00    0.4572384392E-01    0.3508404934E-01    0.2840273056E+00
    0.1300000000E+04    0.1971834970E+00    0.2630410050E+00    0.4617029489E-01    0.3844633585E-01    0.2898207273E+00
    0.1500000000E+04    0.1970902014E+00    0.2669824517E+00    0.4645450992E-01    0.4156640829E-01    0.2944836437E+00
    0.1700000000E+04    0.1966554180E+00    0.2702213315E+00    0.4663372392E-01    0.4449686117E-01    0.2983460031E+00
    0.1900000000E+04    0.1960110893E+00    0.2729432919E+00    0.4674191546E-01    0.4727397291E-01    0.3016163188E+00
    0.2100000000E+04    0.1952365657E+00    0.2752718158E+00    0.4680037715E-01    0.4992391095E-01    0.3044338362E+00
    0.2300000000E+04    0.1943814223E+00    0.2772926781E+00    0.4682303896E-01    0.5246623086E-01    0.3068956449E+00
    0.2500000000E+04    0.1934775561E+00    0.2790675773E+00    0.4681933981E-01    0.5491597357E-01    0.3090718331E+00
    0.2700000000E+04    0.1925459559E+00    0.2806421864E+00    0.4679586485E-01    0.5728498612E-01    0.3110144625E+00
    0.2900000000E+04    0.1916006639E+00    0.2820511380E+00    0.4675732286E-01    0.5958278801E-01    0.3127631401E+00
    0.3100000000E+04    0.1906511811E+00    0.2833212353E+00    0.4670715252E-01    0.6181715951E-01    0.3143486162E+00
    0.3300000000E+04    0.1897039752E+00    0.2844735904E+00    0.4664791103E-01    0.6399455297E-01    0.3157951858E+00
    0.3500000000E+04    0.1887634502E+00    0.2855250888E+00    0.4658153037E-01    0.6612038778E-01    0.3171223376E+00
    0.3700000000E+04    0.1878325851E+00    0.2864894186E+00    0.4650949062E-01    0.6819926664E-01    0.3183459153E+00
    0.3900000000E+04    0.1869133637E+00    0.2873778085E+00    0.4643293958E-01    0.7023513713E-01    0.3194789519E+00
    0.4100000000E+04    0.1860070670E+00    0.2881995680E+00    0.4635277713E-01    0.7223141466E-01    0.3205322821E+00
    0.4300000000E+04    0.1851144774E+00    0.2889624892E+00    0.4626971560E-01    0.7419107732E-01    0.3215149983E+00
    0.4500000000E+04    0.1842360212E+00    0.2896731502E+00    0.4618432380E-01    0.7611674018E-01    0.3224347962E+00
    0.4700000000E+04    0.1833718704E+00    0.2903371480E+00    0.4609705940E-01    0.7801071409E-01    0.3232982402E+00
    0.4900000000E+04    0.1825220157E+00    0.2909592785E+00    0.4600829326E-01    0.7987505292E-01    0.3241109685E+00
    0.1000000000E+04    0.1961290708E+00    0.2551137632E+00    0.4541039316E-01    0.3328846479E-01    0.2805455273E+00
    0.3000000000E+04    0.1911259844E+00    0.2827021103E+00    0.4673351425E-01    0.6070747208E-01    0.3135746308E+00
    0.5000000000E+04    0.1821024100E+00    0.2912559586E+00    0.4596344380E-01    0.8079669029E-01    0.3244998637E+00
    0.7000000000E+04    0.1743940617E+00    0.2957502052E+00    0.4503764006E-01    0.9803240079E-01    0.3305131960E+00
    0.9000000000E+04    0.1677457859E+00    0.2986034156E+00    0.4411108189E-01    0.1135951471E+00    0.3344824819E+00
    0.1100000000E+05    0.1618650646E+00    0.3006071691E+00    0.4320859725E-01    0.1280048184E+00    0.3373676489E+00
    0.1300000000E+05    0.1565566790E+00    0.3021063389E+00    0.4233348467E-01    0.1415442927E+00    0.3395947979E+00
    0.1500000000E+05    0.1516917441E+00    0.3032779503E+00    0.4148454932E-01    0.1543871961E+00    0.3413862805E+00
    0.1700000000E+05    0.1471822695E+00    0.3042232382E+00    0.4065979160E-01    0.1666488524E+00    0.3428711692E+00
    0.1900000000E+05    0.1429659438E+00    0.3050047351E+00    0.3985730206E-01    0.1784102971E+00    0.3441303031E+00
    0.2100000000E+05    0.1389971606E+00    0.3056633725E+00    0.3907545376E-01    0.1897309536E+00    0.3452172872E+00
    0.2300000000E+05    0.1352415711E+00    0.3062271835E+00    0.3831290593E-01    0.2006558964E+00    0.3461692879E+00
    0.2500000000E+05    0.1316726573E+00    0.3067160788E+00    0.3756856111E-01    0.2112202826E+00    0.3470130133E+00
    0.2700000000E+05    0.1282695016E+00    0.3071446295E+00    0.3684151717E-01    0.2214521921E+00    0.3477682295E+00
    0.2900000000E+05    0.1250152885E+00    0.3075237690E+00    0.3613102524E-01    0.2313745211E+00    0.3484499288E+00
    0.3100000000E+05    0.1218962710E+00    0.3078618776E+00    0.3543645578E-01    0.2410062871E+00    0.3490697238E+00
    0.3300000000E+05    0.1189010403E+00    0.3081654972E+00    0.3475727181E-01    0.2503635514E+00    0.3496367719E+00
    0.3500000000E+05    0.1160199976E+00    0.3084398162E+00    0.3409300821E-01    0.2594600884E+00    0.3501584088E+00
    0.3700000000E+05    0.1132449659E+00    0.3086890080E+00    0.3344325557E-01    0.2683078788E+00    0.3506405919E+00
    0.3900000000E+05    0.1105689000E+00    0.3089164705E+00    0.3280764781E-01    0.2769174797E+00    0.3510882185E+00
    0.4100000000E+05    0.1079856651E+00    0.3091250015E+00    0.3218585249E-01    0.2852983063E+00    0.3515053587E+00
    0.4300000000E+05    0.1054898679E+00    0.3093169271E+00    0.3157756335E-01    0.2934588491E+00    0.3518954277E+00
    0.4500000000E+05    0.1030767238E+00    0.3094941988E+00    0.3098249444E-01    0.3014068423E+00    0.3522613170E+00
    0.4700000000E+05    0.1007419536E+00    0.3096584669E+00    0.3040037558E-01    0.3091493966E+00    0.3526054939E+00
    0.4900000000E+05    0.9848170061E-01    0.3098111375E+00    0.2983094891E-01    0.3166931038E+00    0.3529300793E+00
    0.1000000000E+05    0.1647236213E+00    0.2996842219E+00    0.4365643561E-01    0.1209229669E+00    0.3360270675E+00
    0.3000000000E+05    0.1234396411E+00    0.3076975068E+00    0.3578178566E-01    0.2362256602E+00    0.3487669430E+00
    0.5000000000E+05    0.9737841185E-01    0.3098835073E+00    0.2955091721E-01    0.3203923287E+00    0.3530856084E+00
    0.7000000000E+05    0.7851267776E-01    0.3109411352E+00    0.2455898886E-01    0.3852687302E+00    0.3555066011E+00
    0.9000000000E+05    0.6438447601E-01    0.3115669313E+00    0.2057801179E-01    0.4357283919E+00    0.3571158307E+00
    0.1100000000E+06    0.5362127258E-01    0.3119785094E+00    0.1740744109E-01    0.4752011378E+00    0.3582848665E+00
    0.1300000000E+06    0.4530645303E-01    0.3122674342E+00    0.1487410710E-01    0.5063134728E+00    0.3591831036E+00
    0.1500000000E+06    0.3879617164E-01    0.3124793580E+00    0.1283678371E-01    0.5310670123E+00    0.3599010484E+00
    0.1700000000E+06    0.3363089114E-01    0.3126397250E+00    0.1118462165E-01    0.5509674711E+00    0.3604921582E+00
    0.1900000000E+06    0.2947973866E-01    0.3127638859E+00    0.9832385666E-02    0.5671394530E+00    0.3609902739E+00
    0.2100000000E+06    0.2610243789E-01    0.3128616698E+00    0.8715102735E-02    0.5804221935E+00    0.3614179479E+00
    0.2300000000E+06    0.2332281101E-01    0.3129396688E+00    0.7783307407E-02    0.5914442880E+00    0.3617908245E+00
    0.2500000000E+06    0.2101030297E-01    0.3130024716E+00    0.6999217587E-02    0.6006796722E+00    0.3621201160E+00
    0.2700000000E+06    0.1906708593E-01    0.3130533716E+00    0.6333803698E-02    0.6084886448E+00    0.3624140801E+00
    0.2900000000E+06    0.1741902653E-01    0.3130947930E+00    0.5764595158E-02    0.6151476326E+00    0.3626789415E+00
    0.3100000000E+06    0.1600932029E-01    0.3131285597E+00    0.5274055730E-02    0.6208707386E+00    0.3629194877E+00
    0.3300000000E+06    0.1479397001E-01    0.3131560694E+00    0.4848383608E-02    0.6258253775E+00    0.3631394661E+00
    0.3500000000E+06    0.1373854460E-01    0.3131784109E+00    0.4476623658E-02    0.6301436820E+00    0.3633418562E+00
    0.3700000000E+06    0.1281583314E-01    0.3131964439E+00    0.4150007690E-02    0.6339308804E+00    0.3635290598E+00
    0.3900000000E+06    0.1200412973E-01    0.3132108563E+00    0.3861461202E-02    0.6372714993E+00    0.3637030371E+00
    0.4100000000E+06    0.1128596699E-01    0.3132222044E+00    0.3605231999E-02    0.6402339955E+00    0.3638654059E+00
    0.4300000000E+06    0.1064717153E-01    0.3132309425E+00    0.3376608482E-02    0.6428742428E+00    0.3640175149E+00
    0.4500000000E+06    0.1007615281E-01    0.3132374450E+00    0.3171704296E-02    0.6452381819E+00    0.3641604988E+00
    0.4700000000E+06    0.9563362721E-02    0.3132420231E+00    0.2987292452E-02    0.6473638486E+00    0.3642953201E+00
    0.4900000000E+06    0.9100881206E-02    0.3132449371E+00    0.2820676566E-02    0.6492829416E+00    0.3644228017E+00
    0.1000000000E+06    0.5864732741E-01    0.3117922012E+00    0.1890297788E-01    0.4566577142E+00    0.3577421450E+00
    0.3000000000E+06    0.1668738612E-01    0.3131125374E+00    0.5510430249E-02    0.6181147641E+00    0.3628019991E+00
    0.5000000000E+06    0.8886395942E-02    0.3132458400E+00    0.2743319336E-02    0.6501735017E+00    0.3644840152E+00
    0.7000000000E+06    0.6094073617E-02    0.3132150841E+00    0.1734370043E-02    0.6617686144E+00    0.3654526306E+00
    0.9000000000E+06    0.4727158874E-02    0.3131411929E+00    0.1245115769E-02    0.6673866027E+00    0.3661225135E+00
    0.1100000000E+07    0.3928647530E-02    0.3130548396E+00    0.9655877640E-03    0.6706006610E+00    0.3666303945E+00
    0.1300000000E+07    0.3406838900E-02    0.3129662661E+00    0.7880515514E-03    0.6726457444E+00    0.3670373674E+00
    0.1500000000E+07    0.3038666558E-02    0.3128793314E+00    0.6666595244E-03    0.6740464349E+00    0.3673757784E+00
    0.1700000000E+07    0.2764121644E-02    0.3127955166E+00    0.5790281245E-03    0.6750588558E+00    0.3676647340E+00
    0.1900000000E+07    0.2550722781E-02    0.3127153212E+00    0.5130862929E-03    0.6758212772E+00    0.3679164213E+00
    0.2100000000E+07    0.2379445112E-02    0.3126388160E+00    0.4618140062E-03    0.6764142414E+00    0.3681390701E+00
    0.2300000000E+07    0.2238436060E-02    0.3125658826E+00    0.4208794435E-03    0.6768875421E+00    0.3683384888E+00
    0.2500000000E+07    0.2119936156E-02    0.3124963239E+00    0.3874787217E-03    0.6772734743E+00    0.3685189229E+00
    0.2700000000E+07    0.2018654774E-02    0.3124299154E+00    0.3597240739E-03    0.6775938247E+00    0.3686835664E+00
    0.2900000000E+07    0.1930860167E-02    0.3123664308E+00    0.3363018845E-03    0.6778637837E+00    0.3688348798E+00
    0.3100000000E+07    0.1853843512E-02    0.3123056536E+00    0.3162720538E-03    0.6780942423E+00    0.3689747976E+00
    0.3300000000E+07    0.1785589585E-02    0.3122473818E+00    0.2989453459E-03    0.6782931992E+00    0.3691048668E+00
    0.3500000000E+07    0.1724566936E-02    0.3121914300E+00    0.2838057204E-03    0.6784666529E+00    0.3692263434E+00
    0.3700000000E+07    0.1669589946E-02    0.3121376290E+00    0.2704596230E-03    0.6786191844E+00    0.3693402607E+00
    0.3900000000E+07    0.1619725608E-02    0.3120858250E+00    0.2586019785E-03    0.6787543496E+00    0.3694474784E+00
    0.4100000000E+07    0.1574228999E-02    0.3120358788E+00    0.2479928388E-03    0.6788749484E+00    0.3695487194E+00
    0.4300000000E+07    0.1532497630E-02    0.3119876639E+00    0.2384410071E-03    0.6789832142E+00    0.3696445967E+00
    0.4500000000E+07    0.1494038544E-02    0.3119410655E+00    0.2297923348E-03    0.6790809490E+00    0.3697356351E+00
    0.4700000000E+07    0.1458444164E-02    0.3118959795E+00    0.2219212147E-03    0.6791696224E+00    0.3698222868E+00
    0.4900000000E+07    0.1425374311E-02    0.3118523109E+00    0.2147243020E-03    0.6792504441E+00    0.3699049440E+00
    0.1000000000E+07    0.4281216876E-02    0.3130987031E+00    0.1088107271E-02    0.6691912135E+00    0.3663919159E+00
    0.3000000000E+07    0.1891143906E-02    0.3123357168E+00    0.3259108063E-03    0.6779833951E+00    0.3689061587E+00
    0.5000000000E+07    0.1409694790E-02    0.3118309808E+00    0.2113512839E-03    0.6792882313E+00    0.3699448835E+00
    0.7000000000E+07    0.1178049652E-02    0.3114613666E+00    0.1644961238E-03    0.6798050331E+00    0.3705982376E+00
    0.9000000000E+07    0.1034842709E-02    0.3111693090E+00    0.1383046527E-03    0.6800842947E+00    0.3710731598E+00
    0.1100000000E+08    0.9348885145E-03    0.3109275069E+00    0.1212335330E-03    0.6802606631E+00    0.3714454058E+00
    0.1300000000E+08    0.8599198874E-03    0.3107209627E+00    0.1090499301E-03    0.6803830146E+00    0.3717510610E+00
    0.1500000000E+08    0.8009429352E-03    0.3105405528E+00    0.9982037626E-04    0.6804733820E+00    0.3720100950E+00
    0.1700000000E+08    0.7529409627E-03    0.3103803090E+00    0.9252863796E-04    0.6805431794E+00    0.3722347004E+00
    0.1900000000E+08    0.7128625234E-03    0.3102361103E+00    0.8658570987E-04    0.6805989249E+00    0.3724328596E+00
    0.2100000000E+08    0.6787292004E-03    0.3101049893E+00    0.8162467646E-04    0.6806446193E+00    0.3726100793E+00
    0.2300000000E+08    0.6491937457E-03    0.3099847374E+00    0.7740395258E-04    0.6806828593E+00    0.3727703159E+00
    0.2500000000E+08    0.6233022676E-03    0.3098736653E+00    0.7375733914E-04    0.6807154065E+00    0.3729165064E+00
    0.2700000000E+08    0.6003576273E-03    0.3097704516E+00    0.7056635524E-04    0.6807435004E+00    0.3730508898E+00
