  Pressure (Pa) 2mC6-400 (mol/kg) 3mC6-400 (mol/kg) 33mC5-400 (mol/kg) 23mC5-400 (mol/kg) C7-400 (mol/kg)
    0.1000000000E+01    0.2374394868E-02    0.5241363506E-03    0.1288963241E-03    0.8388486731E-03    0.8505417369E-02
    0.3000000000E+01    0.6913017534E-02    0.1523055717E-02    0.3753699976E-03    0.2498222378E-02    0.2471906596E-01
    0.5000000000E+01    0.1119265981E-01    0.2461301953E-02    0.6078990115E-03    0.4133730197E-02    0.3995256299E-01
    0.7000000000E+01    0.1523609491E-01    0.3344376862E-02    0.8277129694E-03    0.5746028324E-02    0.5429465515E-01
    0.9000000000E+01    0.1906340727E-01    0.4177132552E-02    0.1035895909E-02    0.7335748257E-02    0.6782361710E-01
    0.1100000000E+02    0.2269238204E-01    0.4963864748E-02    0.1233407422E-02    0.8903497963E-02    0.8060875483E-01
    0.1300000000E+02    0.2613882866E-01    0.5708390475E-02    0.1421100205E-02    0.1044986298E-01    0.9271165727E-01
    0.1500000000E+02    0.2941685124E-01    0.6414113057E-02    0.1599734708E-02    0.1197540743E-01    0.1041872437E+00
    0.1700000000E+02    0.3253907555E-01    0.7084076816E-02    0.1769991441E-02    0.1348067505E-01    0.1150846449E+00
    0.1900000000E+02    0.3551684070E-01    0.7721013294E-02    0.1932481359E-02    0.1496619005E-01    0.1254479484E+00
    0.2100000000E+02    0.3836036151E-01    0.8327380520E-02    0.2087754657E-02    0.1643245803E-01    0.1353168311E+00
    0.2300000000E+02    0.4107886693E-01    0.8905396490E-02    0.2236308266E-02    0.1787996682E-01    0.1447270989E+00
    0.2500000000E+02    0.4368071831E-01    0.9457067856E-02    0.2378592261E-02    0.1930918722E-01    0.1537111489E+00
    0.2700000000E+02    0.4617351104E-01    0.9984214578E-02    0.2515015356E-02    0.2072057378E-01    0.1622983671E+00
    0.2900000000E+02    0.4856416206E-01    0.1048849121E-01    0.2645949648E-02    0.2211456548E-01    0.1705154715E+00
    0.3100000000E+02    0.5085898563E-01    0.1097140533E-01    0.2771734709E-02    0.2349158643E-01    0.1783868089E+00
    0.3300000000E+02    0.5306375907E-01    0.1143433358E-01    0.2892681147E-02    0.2485204646E-01    0.1859346137E+00
    0.3500000000E+02    0.5518378000E-01    0.1187853557E-01    0.3009073703E-02    0.2619634177E-01    0.1931792325E+00
    0.3700000000E+02    0.5722391640E-01    0.1230516618E-01    0.3121173950E-02    0.2752485545E-01    0.2001393214E+00
    0.3900000000E+02    0.5918865039E-01    0.1271528621E-01    0.3229222668E-02    0.2883795807E-01    0.2068320186E+00
    0.4100000000E+02    0.6108211677E-01    0.1310987180E-01    0.3333441922E-02    0.3013600815E-01    0.2132730965E+00
    0.4300000000E+02    0.6290813699E-01    0.1348982278E-01    0.3434036897E-02    0.3141935269E-01    0.2194770953E+00
    0.4500000000E+02    0.6467024912E-01    0.1385597000E-01    0.3531197520E-02    0.3268832761E-01    0.2254574421E+00
    0.4700000000E+02    0.6637173444E-01    0.1420908184E-01    0.3625099891E-02    0.3394325823E-01    0.2312265556E+00
    0.4900000000E+02    0.6801564102E-01    0.1454986998E-01    0.3715907563E-02    0.3518445962E-01    0.2367959395E+00
    0.1000000000E+02    0.2090165586E-01    0.4576002621E-02    0.1135929979E-02    0.8122332279E-02    0.7430514698E-01
    0.3000000000E+02    0.4972317932E-01    0.1073252965E-01    0.2709465779E-02    0.2280517136E-01    0.1744929247E+00
    0.5000000000E+02    0.6881689627E-01    0.1471585086E-01    0.3760198846E-02    0.3580000764E-01    0.2395090983E+00
    0.7000000000E+02    0.8241322499E-01    0.1752583670E-01    0.4515411821E-02    0.4745969664E-01    0.2855074340E+00
    0.9000000000E+02    0.9253766529E-01    0.1962710454E-01    0.5083691019E-02    0.5804180150E-01    0.3200017582E+00
    0.1100000000E+03    0.1003026862E+00    0.2126567595E-01    0.5524605327E-02    0.6773903668E-01    0.3469746606E+00
    0.1300000000E+03    0.1063799041E+00    0.2258440089E-01    0.5874106309E-02    0.7669869397E-01    0.3687408329E+00
    0.1500000000E+03    0.1112034771E+00    0.2367212677E-01    0.6155443754E-02    0.8503544693E-01    0.3867413079E+00
    0.1700000000E+03    0.1150688251E+00    0.2458714079E-01    0.6384453222E-02    0.9284003166E-01    0.4019223542E+00
    0.1900000000E+03    0.1181850901E+00    0.2536934645E-01    0.6572361457E-02    0.1001852785E+00    0.4149323983E+00
    0.2100000000E+03    0.1207050608E+00    0.2604703063E-01    0.6727384856E-02    0.1071303950E+00    0.4262315268E+00
    0.2300000000E+03    0.1227432393E+00    0.2664083609E-01    0.6855693733E-02    0.1137240666E+00    0.4361558055E+00
    0.2500000000E+03    0.1243872622E+00    0.2716620183E-01    0.6962021706E-02    0.1200067404E+00    0.4449568126E+00
    0.2700000000E+03    0.1257054039E+00    0.2763492046E-01    0.7050065926E-02    0.1260123336E+00    0.4528268836E+00
    0.2900000000E+03    0.1267516640E+00    0.2805616521E-01    0.7122758539E-02    0.1317695296E+00    0.4599157672E+00
    0.3100000000E+03    0.1275693134E+00    0.2843718650E-01    0.7182455941E-02    0.1373027746E+00    0.4663419284E+00
    0.3300000000E+03    0.1281934234E+00    0.2878379612E-01    0.7231073838E-02    0.1426330517E+00    0.4722004112E+00
    0.3500000000E+03    0.1286527064E+00    0.2910071134E-01    0.7270185626E-02    0.1477784897E+00    0.4775684274E+00
    0.3700000000E+03    0.1289708800E+00    0.2939180403E-01    0.7301095337E-02    0.1527548466E+00    0.4825094066E+00
    0.3900000000E+03    0.1291676930E+00    0.2966028429E-01    0.7324892577E-02    0.1575758961E+00    0.4870759830E+00
    0.4100000000E+03    0.1292597080E+00    0.2990883787E-01    0.7342494489E-02    0.1622537405E+00    0.4913122304E+00
    0.4300000000E+03    0.1292609068E+00    0.3013973042E-01    0.7354678211E-02    0.1667990652E+00    0.4952553607E+00
    0.4500000000E+03    0.1291831624E+00    0.3035488770E-01    0.7362106256E-02    0.1712213471E+00    0.4989370295E+00
    0.4700000000E+03    0.1290366119E+00    0.3055595785E-01    0.7365346569E-02    0.1755290274E+00    0.5023843518E+00
    0.4900000000E+03    0.1288299534E+00    0.3074436044E-01    0.7364888526E-02    0.1797296545E+00    0.5056207012E+00
    0.1000000000E+03    0.9666591266E-01    0.2049363822E-01    0.5317435716E-02    0.6299093234E-01    0.3342568555E+00
    0.3000000000E+03    0.1271867053E+00    0.2825131142E-01    0.7154102881E-02    0.1345627612E+00    0.4632052734E+00
    0.5000000000E+03    0.1287064681E+00    0.3083420223E-01    0.7363407285E-02    0.1817919677E+00    0.5071662010E+00
    0.7000000000E+03    0.1244450059E+00    0.3219301740E-01    0.7217380021E-02    0.2187480021E+00    0.5307470144E+00
    0.9000000000E+03    0.1186667982E+00    0.3305080496E-01    0.6960660348E-02    0.2497807289E+00    0.5458902738E+00
    0.1100000000E+04    0.1126095046E+00    0.3364921568E-01    0.6668960930E-02    0.2767889597E+00    0.5566205291E+00
    0.1300000000E+04    0.1067038736E+00    0.3409403963E-01    0.6371249536E-02    0.3007825041E+00    0.5647128505E+00
    0.1500000000E+04    0.1011072752E+00    0.3443957481E-01    0.6079875869E-02    0.3223742444E+00    0.5710846449E+00
    0.1700000000E+04    0.9587076007E-01    0.3471681124E-01    0.5800301254E-02    0.3419735117E+00    0.5762629418E+00
    0.1900000000E+04    0.9100065726E-01    0.3494483807E-01    0.5534824960E-02    0.3598740980E+00    0.5805744054E+00
    0.2100000000E+04    0.8648393440E-01    0.3513611133E-01    0.5284192618E-02    0.3762987791E+00    0.5842334662E+00
    0.2300000000E+04    0.8229946526E-01    0.3529913420E-01    0.5048354907E-02    0.3914237314E+00    0.5873873515E+00
    0.2500000000E+04    0.7842329287E-01    0.3543992638E-01    0.4826850478E-02    0.4053928191E+00    0.5901408718E+00
    0.2700000000E+04    0.7483115206E-01    0.3556287900E-01    0.4619009485E-02    0.4183264227E+00    0.5925708966E+00
    0.2900000000E+04    0.7149967406E-01    0.3567127657E-01    0.4424065946E-02    0.4303271599E+00    0.5947352271E+00
    0.3100000000E+04    0.6840693266E-01    0.3576762889E-01    0.4241221383E-02    0.4414837544E+00    0.5966782581E+00
    0.3300000000E+04    0.6553265333E-01    0.3585388935E-01    0.4069681252E-02    0.4518737545E+00    0.5984347154E+00
    0.3500000000E+04    0.6285824820E-01    0.3593160281E-01    0.3908675681E-02    0.4615655137E+00    0.6000321967E+00
    0.3700000000E+04    0.6036676217E-01    0.3600200832E-01    0.3757470889E-02    0.4706196787E+00    0.6014929424E+00
    0.3900000000E+04    0.5804277589E-01    0.3606611211E-01    0.3615374967E-02    0.4790903413E+00    0.6028350981E+00
    0.4100000000E+04    0.5587229038E-01    0.3612474046E-01    0.3481740207E-02    0.4870259516E+00    0.6040736323E+00
    0.4300000000E+04    0.5384260680E-01    0.3617857866E-01    0.3355963313E-02    0.4944700584E+00    0.6052210148E+00
    0.4500000000E+04    0.5194220876E-01    0.3622820022E-01    0.3237484319E-02    0.5014619196E+00    0.6062877269E+00
    0.4700000000E+04    0.5016065075E-01    0.3627408903E-01    0.3125784759E-02    0.5080370149E+00    0.6072826495E+00
    0.4900000000E+04    0.4848845467E-01    0.3631665638E-01    0.3020385400E-02    0.5142274795E+00    0.6082133631E+00
    0.1000000000E+04    0.1156364113E+00    0.3337407512E-01    0.6816793676E-02    0.2637119949E+00    0.5516670712E+00
    0.3000000000E+04    0.6992476815E-01    0.3572082526E-01    0.4331181344E-02    0.4360058924E+00    0.5957320424E+00
    0.5000000000E+04    0.4769064643E-01    0.3633680653E-01    0.2969908659E-02    0.5171876960E+00    0.6086567135E+00
    0.7000000000E+04    0.3576788392E-01    0.3662914073E-01    0.2200816012E-02    0.5620046484E+00    0.6153403596E+00
    0.9000000000E+04    0.2864695525E-01    0.3680013726E-01    0.1728530349E-02    0.5893415115E+00    0.6195641439E+00
    0.1100000000E+05    0.2402000059E-01    0.3691180810E-01    0.1417129488E-02    0.6073259526E+00    0.6225325316E+00
    0.1300000000E+05    0.2081175979E-01    0.3698988171E-01    0.1199791219E-02    0.6198668547E+00    0.6247615234E+00
    0.1500000000E+05    0.1847173171E-01    0.3704704433E-01    0.1041073561E-02    0.6290190185E+00    0.6265129460E+00
    0.1700000000E+05    0.1669516942E-01    0.3709030251E-01    0.9208625101E-03    0.6359443630E+00    0.6279353076E+00
    0.1900000000E+05    0.1530217712E-01    0.3712385133E-01    0.8270677868E-03    0.6413405510E+00    0.6291198031E+00
    0.2100000000E+05    0.1418076536E-01    0.3715035947E-01    0.7520617413E-03    0.6456478383E+00    0.6301258751E+00
    0.2300000000E+05    0.1325805396E-01    0.3717160676E-01    0.6908313052E-03    0.6491558433E+00    0.6309941161E+00
    0.2500000000E+05    0.1248480270E-01    0.3718882611E-01    0.6399650728E-03    0.6520619071E+00    0.6317533008E+00
    0.2700000000E+05    0.1182666193E-01    0.3720289853E-01    0.5970711556E-03    0.6545045939E+00    0.6324244625E+00
    0.2900000000E+05    0.1125899993E-01    0.3721447021E-01    0.5604285357E-03    0.6565837497E+00    0.6330233746E+00
    0.3100000000E+05    0.1076372528E-01    0.3722402563E-01    0.5287706173E-03    0.6583729612E+00    0.6335621265E+00
    0.3300000000E+05    0.1032726838E-01    0.3723193503E-01    0.5011465424E-03    0.6599275433E+00    0.6340501587E+00
    0.3500000000E+05    0.9939260868E-02    0.3723848597E-01    0.4768298189E-03    0.6612898091E+00    0.6344949637E+00
    0.3700000000E+05    0.9591649013E-02    0.3724390511E-01    0.4552566133E-03    0.6624926313E+00    0.6349025737E+00
    0.3900000000E+05    0.9278084306E-02    0.3724837335E-01    0.4359831444E-03    0.6635619061E+00    0.6352779064E+00
    0.4100000000E+05    0.8993495893E-02    0.3725203673E-01    0.4186556752E-03    0.6645182896E+00    0.6356250161E+00
    0.4300000000E+05    0.8733784879E-02    0.3725501435E-01    0.4029889965E-03    0.6653784455E+00    0.6359472791E+00
    0.4500000000E+05    0.8495602027E-02    0.3725740421E-01    0.3887507452E-03    0.6661559548E+00    0.6362475329E+00
    0.4700000000E+05    0.8276183602E-02    0.3725928765E-01    0.3757498056E-03    0.6668619904E+00    0.6365281813E+00
    0.4900000000E+05    0.8073228432E-02    0.3726073267E-01    0.3638276135E-03    0.6675058225E+00    0.6367912764E+00
    0.1000000000E+05    0.2610634438E-01    0.3686133154E-01    0.1557917869E-02    0.5991976482E+00    0.6211643399E+00
    0.3000000000E+05    0.1100325018E-01    0.3721947456E-01    0.5440420686E-03    0.6575107851E+00    0.6332996280E+00
    0.5000000000E+05    0.7977308508E-02    0.3726130902E-01    0.3582287393E-03    0.6678068856E+00    0.6369168024E+00
    0.7000000000E+05    0.6583951458E-02    0.3725986664E-01    0.2797712677E-03    0.6719127141E+00    0.6388275180E+00
    0.9000000000E+05    0.5744724867E-02    0.3724670048E-01    0.2354422770E-03    0.6740996151E+00    0.6400572802E+00
    0.1100000000E+06    0.5168350329E-02    0.3722982333E-01    0.2064151257E-03    0.6754537902E+00    0.6409349692E+00
    0.1300000000E+06    0.4740640494E-02    0.3721194958E-01    0.1856510702E-03    0.6763737166E+00    0.6416027840E+00
    0.1500000000E+06    0.4406662625E-02    0.3719413440E-01    0.1699023490E-03    0.6770391281E+00    0.6421335646E+00
    0.1700000000E+06    0.4136306154E-02    0.3717680934E-01    0.1574518440E-03    0.6775427634E+00    0.6425690005E+00
    0.1900000000E+06    0.3911499741E-02    0.3716014395E-01    0.1473006346E-03    0.6779372453E+00    0.6429349083E+00
    0.2100000000E+06    0.3720648944E-02    0.3714419019E-01    0.1388249347E-03    0.6782546286E+00    0.6432482470E+00
    0.2300000000E+06    0.3555923987E-02    0.3712894559E-01    0.1316133465E-03    0.6785155440E+00    0.6435206809E+00
    0.2500000000E+06    0.3411818606E-02    0.3711438269E-01    0.1253825175E-03    0.6787338668E+00    0.6437605334E+00
    0.2700000000E+06    0.3284331012E-02    0.3710046344E-01    0.1199302808E-03    0.6789192710E+00    0.6439739261E+00
    0.2900000000E+06    0.3170472502E-02    0.3708714631E-01    0.1151081163E-03    0.6790787063E+00    0.6441654760E+00
    0.3100000000E+06    0.3067959220E-02    0.3707438985E-01    0.1108041956E-03    0.6792172942E+00    0.6443387409E+00
    0.3300000000E+06    0.2975011440E-02    0.3706215445E-01    0.1069325312E-03    0.6793388914E+00    0.6444965128E+00
    0.3500000000E+06    0.2890218653E-02    0.3705040308E-01    0.1034257951E-03    0.6794464578E+00    0.6446410183E+00
    0.3700000000E+06    0.2812446373E-02    0.3703910158E-01    0.1002304305E-03    0.6795423028E+00    0.6447740576E+00
    0.3900000000E+06    0.2740770208E-02    0.3702821861E-01    0.9730323842E-04    0.6796282547E+00    0.6448971050E+00
    0.4100000000E+06    0.2674428236E-02    0.3701772557E-01    0.9460894326E-04    0.6797057796E+00    0.6450113804E+00
    0.4300000000E+06    0.2612785967E-02    0.3700759639E-01    0.9211842105E-04    0.6797760674E+00    0.6451179038E+00
    0.4500000000E+06    0.2555310126E-02    0.3699780730E-01    0.8980738859E-04    0.6798400934E+00    0.6452175354E+00
    0.4700000000E+06    0.2501548760E-02    0.3698833664E-01    0.8765541782E-04    0.6798986649E+00    0.6453110067E+00
    0.4900000000E+06    0.2451115917E-02    0.3697916461E-01    0.8564518457E-04    0.6799524560E+00    0.6453989438E+00
    0.1000000000E+06    0.5432891853E-02    0.3723849626E-01    0.2195903005E-03    0.6748480978E+00    0.6405288858E+00
    0.3000000000E+06    0.3117918926E-02    0.3708070053E-01    0.1128972574E-03    0.6791503406E+00    0.6442542044E+00
    0.5000000000E+06    0.2427042143E-02    0.3697468488E-01    0.8468850892E-04    0.6799777396E+00    0.6454410088E+00
    0.7000000000E+06    0.2059700783E-02    0.3689711666E-01    0.7032141175E-04    0.6803322757E+00    0.6460908367E+00
    0.9000000000E+06    0.1822516236E-02    0.3683592695E-01    0.6127460051E-04    0.6805304208E+00    0.6465199564E+00
    0.1100000000E+07    0.1653037301E-02    0.3678534737E-01    0.5492174508E-04    0.6806574913E+00    0.6468325104E+00
    0.1300000000E+07    0.1524089909E-02    0.3674220454E-01    0.5015166969E-04    0.6807461920E+00    0.6470743949E+00
    0.1500000000E+07    0.1421684700E-02    0.3670456819E-01    0.4640345816E-04    0.6808117830E+00    0.6472694801E+00
    0.1700000000E+07    0.1337783831E-02    0.3667117629E-01    0.4335960078E-04    0.6808623549E+00    0.6474316034E+00
    0.1900000000E+07    0.1267394788E-02    0.3664115807E-01    0.4082522687E-04    0.6809026024E+00    0.6475694288E+00
    0.2100000000E+07    0.1207230260E-02    0.3661388703E-01    0.3867329024E-04    0.6809354398E+00    0.6476887038E+00
    0.2300000000E+07    0.1155025129E-02    0.3658889722E-01    0.3681698622E-04    0.6809627736E+00    0.6477934163E+00
    0.2500000000E+07    0.1109160740E-02    0.3656583253E-01    0.3519473787E-04    0.6809859043E+00    0.6478864349E+00
    0.2700000000E+07    0.1068445345E-02    0.3654441462E-01    0.3376150141E-04    0.6810057503E+00    0.6479698849E+00
    0.2900000000E+07    0.1031979344E-02    0.3652442172E-01    0.3248347166E-04    0.6810229788E+00    0.6480453805E+00
    0.3100000000E+07    0.9990691471E-03    0.3650567424E-01    0.3133472097E-04    0.6810380866E+00    0.6481141731E+00
    0.3300000000E+07    0.9691701869E-03    0.3648802470E-01    0.3029498929E-04    0.6810514512E+00    0.6481772510E+00
    0.3500000000E+07    0.9418480960E-03    0.3647135047E-01    0.2934818707E-04    0.6810633649E+00    0.6482354066E+00
    0.3700000000E+07    0.9167515758E-03    0.3645554847E-01    0.2848135430E-04    0.6810740577E+00    0.6482892842E+00
    0.3900000000E+07    0.8935930115E-03    0.3644053121E-01    0.2768392019E-04    0.6810837127E+00    0.6483394138E+00
    0.4100000000E+07    0.8721343466E-03    0.3642622379E-01    0.2694716603E-04    0.6810924782E+00    0.6483862365E+00
    0.4300000000E+07    0.8521766092E-03    0.3641256160E-01    0.2626382853E-04    0.6811004750E+00    0.6484301224E+00
    0.4500000000E+07    0.8335520242E-03    0.3639948851E-01    0.2562780213E-04    0.6811078028E+00    0.6484713852E+00
    0.4700000000E+07    0.8161179881E-03    0.3638695542E-01    0.2503391246E-04    0.6811145447E+00    0.6485102929E+00
    0.4900000000E+07    0.7997524092E-03    0.3637491915E-01    0.2447774168E-04    0.6811207704E+00    0.6485470757E+00
    0.1000000000E+07    0.1731459825E-02    0.3680954846E-01    0.5784972024E-04    0.6806001825E+00    0.6466871900E+00
    0.3000000000E+07    0.1015116774E-02    0.3651490217E-01    0.3189431526E-04    0.6810307719E+00    0.6480805476E+00
    0.5000000000E+07    0.7919368322E-03    0.3636907523E-01    0.2421259299E-04    0.6811237084E+00    0.6485647336E+00
    0.7000000000E+07    0.6724332233E-03    0.3627096560E-01    0.2019692662E-04    0.6811658315E+00    0.6488431595E+00
    0.9000000000E+07    0.5950824941E-03    0.3619683864E-01    0.1763928089E-04    0.6811903373E+00    0.6490336710E+00
    0.1100000000E+08    0.5397512642E-03    0.3613720942E-01    0.1583191705E-04    0.6812065659E+00    0.6491763945E+00
    0.1300000000E+08    0.4976295449E-03    0.3608730920E-01    0.1446950876E-04    0.6812182063E+00    0.6492894632E+00
    0.1500000000E+08    0.4641683368E-03    0.3604439645E-01    0.1339611567E-04    0.6812270207E+00    0.6493825027E+00
    0.1700000000E+08    0.4367492746E-03    0.3600674820E-01    0.1252277749E-04    0.6812339622E+00    0.6494611913E+00
    0.1900000000E+08    0.4137441722E-03    0.3597321022E-01    0.1179459257E-04    0.6812395936E+00    0.6495291391E+00
    0.2100000000E+08    0.3940801346E-03    0.3594297114E-01    0.1117562028E-04    0.6812442696E+00    0.6495887738E+00
    0.2300000000E+08    0.3770174929E-03    0.3591543869E-01    0.1064122626E-04    0.6812482256E+00    0.6496418008E+00
    0.2500000000E+08    0.3620274811E-03    0.3589016723E-01    0.1017389171E-04    0.6812516242E+00    0.6496894609E+00
    0.2700000000E+08    0.3487206842E-03    0.3586681296E-01    0.9760775636E-05    0.6812545818E+00    0.6497326829E+00
