  Pressure (Pa) 2mC6-400 (mol/kg) 3mC6-400 (mol/kg) 33mC5-400 (mol/kg) 23mC5-400 (mol/kg) C7-400 (mol/kg)
    0.1000000000E+01    0.2389153015E-02    0.2112687911E-02    0.1296871567E-03    0.9319291256E-03    0.1714116780E-02
    0.3000000000E+01    0.7038873218E-02    0.6230443469E-02    0.3821113111E-03    0.2774698063E-02    0.5055418795E-02
    0.5000000000E+01    0.1152439224E-01    0.1021099346E-01    0.6256605268E-03    0.4590019321E-02    0.8285884379E-02
    0.7000000000E+01    0.1585389281E-01    0.1406142357E-01    0.8607773420E-03    0.6378670987E-02    0.1141122945E-01
    0.9000000000E+01    0.2003501559E-01    0.1778833435E-01    0.1087874942E-02    0.8141400994E-02    0.1443677885E-01
    0.1100000000E+02    0.2407490397E-01    0.2139788217E-01    0.1307339590E-02    0.9878928577E-02    0.1736749937E-01
    0.1300000000E+02    0.2798024449E-01    0.2489581613E-01    0.1519532814E-02    0.1159194565E-01    0.2020802947E-01
    0.1500000000E+02    0.3175730326E-01    0.2828751130E-01    0.1724793383E-02    0.1328111812E-01    0.2296270604E-01
    0.1700000000E+02    0.3541195903E-01    0.3157799877E-01    0.1923439102E-02    0.1494708707E-01    0.2563558867E-01
    0.1900000000E+02    0.3894973304E-01    0.3477199284E-01    0.2115768422E-02    0.1659046996E-01    0.2823048152E-01
    0.2100000000E+02    0.4237581620E-01    0.3787391567E-01    0.2302061920E-02    0.1821186169E-01    0.3075095321E-01
    0.2300000000E+02    0.4569509377E-01    0.4088791969E-01    0.2482583631E-02    0.1981183564E-01    0.3320035484E-01
    0.2500000000E+02    0.4891216782E-01    0.4381790789E-01    0.2657582270E-02    0.2139094464E-01    0.3558183639E-01
    0.2700000000E+02    0.5203137777E-01    0.4666755242E-01    0.2827292338E-02    0.2294972190E-01    0.3789836167E-01
    0.2900000000E+02    0.5505681907E-01    0.4944031143E-01    0.2991935139E-02    0.2448868188E-01    0.4015272194E-01
    0.3100000000E+02    0.5799236039E-01    0.5213944454E-01    0.3151719709E-02    0.2600832110E-01    0.4234754835E-01
    0.3300000000E+02    0.6084165924E-01    0.5476802696E-01    0.3306843664E-02    0.2750911896E-01    0.4448532328E-01
    0.3500000000E+02    0.6360817645E-01    0.5732896239E-01    0.3457493977E-02    0.2899153843E-01    0.4656839084E-01
    0.3700000000E+02    0.6629518930E-01    0.5982499490E-01    0.3603847700E-02    0.3045602680E-01    0.4859896634E-01
    0.3900000000E+02    0.6890580372E-01    0.6225871977E-01    0.3746072615E-02    0.3190301632E-01    0.5057914511E-01
    0.4100000000E+02    0.7144296548E-01    0.6463259355E-01    0.3884327846E-02    0.3333292486E-01    0.5251091054E-01
    0.4300000000E+02    0.7390947051E-01    0.6694894320E-01    0.4018764412E-02    0.3474615648E-01    0.5439614153E-01
    0.4500000000E+02    0.7630797439E-01    0.6920997461E-01    0.4149525747E-02    0.3614310201E-01    0.5623661928E-01
    0.4700000000E+02    0.7864100117E-01    0.7141778040E-01    0.4276748173E-02    0.3752413962E-01    0.5803403363E-01
    0.4900000000E+02    0.8091095151E-01    0.7357434716E-01    0.4400561341E-02    0.3888963529E-01    0.5978998885E-01
    0.1000000000E+02    0.2207218591E-01    0.1960741017E-01    0.1198538234E-02    0.9013271219E-02    0.1591369545E-01
    0.3000000000E+02    0.5653559386E-01    0.5079888486E-01    0.3072422094E-02    0.2525088623E-01    0.4125741837E-01
    0.5000000000E+02    0.8202299134E-01    0.7463400937E-01    0.4461228246E-02    0.3956666607E-01    0.6065289857E-01
    0.7000000000E+02    0.1014529339E+00    0.9354912893E-01    0.5522615566E-02    0.5237186145E-01    0.7606719599E-01
    0.9000000000E+02    0.1166029898E+00    0.1090007236E+00    0.6352563557E-02    0.6396422922E-01    0.8867684371E-01
    0.1100000000E+03    0.1286205613E+00    0.1219147684E+00    0.7013008374E-02    0.7456501228E-01    0.9923020729E-01
    0.1300000000E+03    0.1382804432E+00    0.1329092034E+00    0.7545767325E-02    0.8434229141E-01    0.1082269430E+00
    0.1500000000E+03    0.1461250172E+00    0.1424128935E+00    0.7980113731E-02    0.9342623916E-01    0.1160139886E+00
    0.1700000000E+03    0.1525453258E+00    0.1507332765E+00    0.8337155191E-02    0.1019193800E+00    0.1228401675E+00
    0.1900000000E+03    0.1578303160E+00    0.1580968206E+00    0.8632491741E-02    0.1099036698E+00    0.1288888555E+00
    0.2100000000E+03    0.1621979875E+00    0.1646742623E+00    0.8877896694E-02    0.1174454925E+00    0.1342983639E+00
    0.2300000000E+03    0.1658157812E+00    0.1705969197E+00    0.9082416478E-02    0.1245992564E+00    0.1391751196E+00
    0.2500000000E+03    0.1688143175E+00    0.1759675676E+00    0.9253111625E-02    0.1314100313E+00    0.1436024536E+00
    0.2700000000E+03    0.1712968910E+00    0.1808678827E+00    0.9395568751E-02    0.1379155107E+00    0.1476466195E+00
    0.2900000000E+03    0.1733461767E+00    0.1853636608E+00    0.9514262159E-02    0.1441474965E+00    0.1513610118E+00
    0.3100000000E+03    0.1750290604E+00    0.1895085494E+00    0.9612814254E-02    0.1501330338E+00    0.1547891854E+00
    0.3300000000E+03    0.1764001770E+00    0.1933467683E+00    0.9694186317E-02    0.1558952916E+00    0.1579670564E+00
    0.3500000000E+03    0.1775045437E+00    0.1969151249E+00    0.9760820451E-02    0.1614542521E+00    0.1609245332E+00
    0.3700000000E+03    0.1783795455E+00    0.2002445301E+00    0.9814746652E-02    0.1668272563E+00    0.1636867433E+00
    0.3900000000E+03    0.1790564523E+00    0.2033611536E+00    0.9857664602E-02    0.1720294400E+00    0.1662749690E+00
    0.4100000000E+03    0.1795615910E+00    0.2062873157E+00    0.9891006867E-02    0.1770740852E+00    0.1687073696E+00
    0.4300000000E+03    0.1799172599E+00    0.2090421831E+00    0.9915988232E-02    0.1819729050E+00    0.1709995450E+00
    0.4500000000E+03    0.1801424501E+00    0.2116423177E+00    0.9933644591E-02    0.1867362772E+00    0.1731649808E+00
    0.4700000000E+03    0.1802534182E+00    0.2141021137E+00    0.9944863874E-02    0.1913734368E+00    0.1752154019E+00
    0.4900000000E+03    0.1802641460E+00    0.2164341481E+00    0.9950410834E-02    0.1958926352E+00    0.1771610572E+00
    0.1000000000E+03    0.1229482050E+00    0.1157308279E+00    0.6700998260E-02    0.6937702672E-01    0.9417489843E-01
    0.3000000000E+03    0.1742297515E+00    0.1874770081E+00    0.9565857158E-02    0.1471695412E+00    0.1531084735E+00
    0.5000000000E+03    0.1802357598E+00    0.2175557594E+00    0.9951267506E-02    0.1981103419E+00    0.1780974547E+00
    0.7000000000E+03    0.1766101311E+00    0.2353662601E+00    0.9791763144E-02    0.2377230703E+00    0.1930268447E+00
    0.9000000000E+03    0.1702508102E+00    0.2475991421E+00    0.9467389902E-02    0.2707562128E+00    0.2033576533E+00
    0.1100000000E+04    0.1631982428E+00    0.2567246737E+00    0.9093446293E-02    0.2992842990E+00    0.2111141680E+00
    0.1300000000E+04    0.1561796817E+00    0.2638996303E+00    0.8712722337E-02    0.3244194268E+00    0.2172477114E+00
    0.1500000000E+04    0.1494726565E+00    0.2697499255E+00    0.8342690920E-02    0.3468451076E+00    0.2222747200E+00
    0.1700000000E+04    0.1431776451E+00    0.2746490133E+00    0.7990573729E-02    0.3670245601E+00    0.2265042668E+00
    0.1900000000E+04    0.1373194601E+00    0.2788360382E+00    0.7659028402E-02    0.3852950167E+00    0.2301348335E+00
    0.2100000000E+04    0.1318893747E+00    0.2824725606E+00    0.7348560857E-02    0.4019152938E+00    0.2333008693E+00
    0.2300000000E+04    0.1268640301E+00    0.2856724047E+00    0.7058638872E-02    0.4170918923E+00    0.2360973375E+00
    0.2500000000E+04    0.1222143679E+00    0.2885185189E+00    0.6788238886E-02    0.4309943452E+00    0.2385936082E+00
    0.2700000000E+04    0.1179099697E+00    0.2910730541E+00    0.6536126357E-02    0.4437647968E+00    0.2408417770E+00
    0.2900000000E+04    0.1139211672E+00    0.2933836737E+00    0.6301003283E-02    0.4555243034E+00    0.2428818833E+00
    0.3100000000E+04    0.1102200293E+00    0.2954876600E+00    0.6081586355E-02    0.4663771787E+00    0.2447453108E+00
    0.3300000000E+04    0.1067807676E+00    0.2974146744E+00    0.5876647553E-02    0.4764141171E+00    0.2464570783E+00
    0.3500000000E+04    0.1035798409E+00    0.2991886665E+00    0.5685033902E-02    0.4857145216E+00    0.2480374250E+00
    0.3700000000E+04    0.1005959028E+00    0.3008292255E+00    0.5505675463E-02    0.4943482956E+00    0.2495029361E+00
    0.3900000000E+04    0.9780967352E-01    0.3023525592E+00    0.5337586695E-02    0.5023772568E+00    0.2508673579E+00
    0.4100000000E+04    0.9520377798E-01    0.3037722145E+00    0.5179864096E-02    0.5098562785E+00    0.2521421997E+00
    0.4300000000E+04    0.9276257382E-01    0.3050996189E+00    0.5031681887E-02    0.5168342265E+00    0.2533371862E+00
    0.4500000000E+04    0.9047198261E-01    0.3063444914E+00    0.4892286721E-02    0.5233547393E+00    0.2544606014E+00
    0.4700000000E+04    0.8831933018E-01    0.3075151603E+00    0.4760992053E-02    0.5294568862E+00    0.2555195546E+00
    0.4900000000E+04    0.8629319944E-01    0.3086188108E+00    0.4637172504E-02    0.5351757254E+00    0.2565201887E+00
    0.1000000000E+04    0.1667498246E+00    0.2524603794E+00    0.9283051753E-02    0.2855000620E+00    0.2074837959E+00
    0.3000000000E+04    0.1120363044E+00    0.2944594892E+00    0.6189409904E-02    0.4610581128E+00    0.2438339903E+00
    0.5000000000E+04    0.8532432237E-01    0.3091474858E+00    0.4577885852E-02    0.5379013828E+00    0.2570003324E+00
    0.7000000000E+04    0.7057123318E-01    0.3173597530E+00    0.3670999047E-02    0.5784587901E+00    0.2645348206E+00
    0.9000000000E+04    0.6130940657E-01    0.3227996572E+00    0.3101823828E-02    0.6025664114E+00    0.2696199597E+00
    0.1100000000E+05    0.5493482985E-01    0.3267460324E+00    0.2713637197E-02    0.6181881950E+00    0.2733688562E+00
    0.1300000000E+05    0.5024811734E-01    0.3297776736E+00    0.2431967693E-02    0.6289830401E+00    0.2762904255E+00
    0.1500000000E+05    0.4663120588E-01    0.3322005964E+00    0.2217783138E-02    0.6368174176E+00    0.2786560833E+00
    0.1700000000E+05    0.4373599032E-01    0.3341940765E+00    0.2048912343E-02    0.6427255755E+00    0.2806260719E+00
    0.1900000000E+05    0.4135207158E-01    0.3358711296E+00    0.1911913384E-02    0.6473198485E+00    0.2823021248E+00
    0.2100000000E+05    0.3934485107E-01    0.3373070448E+00    0.1798191568E-02    0.6509828100E+00    0.2837524606E+00
    0.2300000000E+05    0.3762413617E-01    0.3385541907E+00    0.1702004853E-02    0.6539643257E+00    0.2850248220E+00
    0.2500000000E+05    0.3612712561E-01    0.3396502804E+00    0.1619373648E-02    0.6564337540E+00    0.2861537899E+00
    0.2700000000E+05    0.3480866090E-01    0.3406232597E+00    0.1547452927E-02    0.6585095492E+00    0.2871651304E+00
    0.2900000000E+05    0.3363537169E-01    0.3414943381E+00    0.1484154114E-02    0.6602768215E+00    0.2880785014E+00
    0.3100000000E+05    0.3258201523E-01    0.3422799434E+00    0.1427908462E-02    0.6617981634E+00    0.2889092052E+00
    0.3300000000E+05    0.3162910691E-01    0.3429930246E+00    0.1377513961E-02    0.6631205525E+00    0.2896693620E+00
    0.3500000000E+05    0.3076133923E-01    0.3436439454E+00    0.1332033370E-02    0.6642798831E+00    0.2903687171E+00
    0.3700000000E+05    0.2996649862E-01    0.3442411117E+00    0.1290724523E-02    0.6653040193E+00    0.2910152105E+00
    0.3900000000E+05    0.2923470571E-01    0.3447914232E+00    0.1252991606E-02    0.6662148994E+00    0.2916153875E+00
    0.4100000000E+05    0.2855787118E-01    0.3453006034E+00    0.1218350386E-02    0.6670300169E+00    0.2921747007E+00
    0.4300000000E+05    0.2792929875E-01    0.3457734451E+00    0.1186402949E-02    0.6677634812E+00    0.2926977344E+00
    0.4500000000E+05    0.2734339061E-01    0.3462139963E+00    0.1156819037E-02    0.6684267914E+00    0.2931883762E+00
    0.4700000000E+05    0.2679542550E-01    0.3466257029E+00    0.1129322053E-02    0.6690294077E+00    0.2936499481E+00
    0.4900000000E+05    0.2628138924E-01    0.3470115187E+00    0.1103678426E-02    0.6695791802E+00    0.2940853085E+00
    0.1000000000E+05    0.5785557129E-01    0.3249142035E+00    0.2890931161E-02    0.6111496057E+00    0.2716216804E+00
    0.3000000000E+05    0.3309503310E-01    0.3418969460E+00    0.1455231976E-02    0.6610649937E+00    0.2885033654E+00
    0.5000000000E+05    0.2603600048E-01    0.3471955279E+00    0.1091488342E-02    0.6698363450E+00    0.2942939460E+00
    0.7000000000E+05    0.2228515830E-01    0.3499842567E+00    0.9093145914E-03    0.6733495487E+00    0.2975479739E+00
    0.9000000000E+05    0.1984950511E-01    0.3517547885E+00    0.7951705434E-03    0.6752257905E+00    0.2997278772E+00
    0.1100000000E+06    0.1809808752E-01    0.3529970231E+00    0.7150811698E-03    0.6763891852E+00    0.3013305187E+00
    0.1300000000E+06    0.1675768517E-01    0.3539249424E+00    0.6548948405E-03    0.6771799367E+00    0.3025790331E+00
    0.1500000000E+06    0.1568759728E-01    0.3546486026E+00    0.6075292516E-03    0.6777519175E+00    0.3035909956E+00
    0.1700000000E+06    0.1480679417E-01    0.3552310404E+00    0.5689948694E-03    0.6781846892E+00    0.3044352321E+00
    0.1900000000E+06    0.1406479041E-01    0.3557112421E+00    0.5368497107E-03    0.6785234687E+00    0.3051551674E+00
    0.2100000000E+06    0.1342823254E-01    0.3561147517E+00    0.5095039110E-03    0.6787958320E+00    0.3057797871E+00
    0.2300000000E+06    0.1287406107E-01    0.3564590774E+00    0.4858717858E-03    0.6790195432E+00    0.3063293068E+00
    0.2500000000E+06    0.1238574377E-01    0.3567566616E+00    0.4651831897E-03    0.6792065571E+00    0.3068183316E+00
    0.2700000000E+06    0.1195107052E-01    0.3570166138E+00    0.4468745678E-03    0.6793652125E+00    0.3072577232E+00
    0.2900000000E+06    0.1156079712E-01    0.3572457711E+00    0.4305227330E-03    0.6795015018E+00    0.3076557566E+00
    0.3100000000E+06    0.1120777630E-01    0.3574493750E+00    0.4158028763E-03    0.6796198415E+00    0.3080188673E+00
    0.3300000000E+06    0.1088638160E-01    0.3576315176E+00    0.4024609806E-03    0.6797235581E+00    0.3083521493E+00
    0.3500000000E+06    0.1059211397E-01    0.3577954440E+00    0.3902951378E-03    0.6798152042E+00    0.3086596968E+00
    0.3700000000E+06    0.1032132620E-01    0.3579437643E+00    0.3791425612E-03    0.6798967716E+00    0.3089448450E+00
    0.3900000000E+06    0.1007102561E-01    0.3580786031E+00    0.3688703483E-03    0.6799698365E+00    0.3092103435E+00
    0.4100000000E+06    0.9838730027E-02    0.3582017094E+00    0.3593687772E-03    0.6800356633E+00    0.3094584831E+00
    0.4300000000E+06    0.9622360642E-02    0.3583145370E+00    0.3505463542E-03    0.6800952772E+00    0.3096911907E+00
    0.4500000000E+06    0.9420161303E-02    0.3584183048E+00    0.3423260962E-03    0.6801495188E+00    0.3099101007E+00
    0.4700000000E+06    0.9230636668E-02    0.3585140434E+00    0.3346427001E-03    0.6801990835E+00    0.3101166106E+00
    0.4900000000E+06    0.9052504303E-02    0.3586026305E+00    0.3274403589E-03    0.6802445519E+00    0.3103119235E+00
    0.1000000000E+06    0.1890985169E-01    0.3524250438E+00    0.7519967210E-03    0.6758687013E+00    0.3005838563E+00
    0.3000000000E+06    0.1138001213E-01    0.3573504886E+00    0.4229760898E-03    0.6795626862E+00    0.3078413321E+00
    0.5000000000E+06    0.8967358269E-02    0.3586444815E+00    0.3240043136E-03    0.6802659055E+00    0.3104057123E+00
    0.7000000000E+06    0.7659066751E-02    0.3592425802E+00    0.2717634035E-03    0.6805638089E+00    0.3118865690E+00
    0.9000000000E+06    0.6805592573E-02    0.3595784738E+00    0.2382741607E-03    0.6807285683E+00    0.3129015010E+00
    0.1100000000E+07    0.6191681502E-02    0.3597865782E+00    0.2144958238E-03    0.6808332214E+00    0.3136623587E+00
    0.1300000000E+07    0.5722351957E-02    0.3599229054E+00    0.1965045524E-03    0.6809056311E+00    0.3142652606E+00
    0.1500000000E+07    0.5348256879E-02    0.3600150839E+00    0.1822868141E-03    0.6809587371E+00    0.3147613583E+00
    0.1700000000E+07    0.5040854557E-02    0.3600783368E+00    0.1706894977E-03    0.6809993685E+00    0.3151808766E+00
    0.1900000000E+07    0.4782326464E-02    0.3601217382E+00    0.1609986569E-03    0.6810314707E+00    0.3155430543E+00
    0.2100000000E+07    0.4560891997E-02    0.3601510257E+00    0.1527456181E-03    0.6810574827E+00    0.3158608402E+00
    0.2300000000E+07    0.4368406284E-02    0.3601699970E+00    0.1456083664E-03    0.6810789936E+00    0.3161433361E+00
    0.2500000000E+07    0.4199032338E-02    0.3601812601E+00    0.1393574109E-03    0.6810970832E+00    0.3163971665E+00
    0.2700000000E+07    0.4048462015E-02    0.3601866605E+00    0.1338242171E-03    0.6811125111E+00    0.3166272925E+00
    0.2900000000E+07    0.3913436264E-02    0.3601875369E+00    0.1288818717E-03    0.6811258273E+00    0.3168375192E+00
    0.3100000000E+07    0.3791437558E-02    0.3601848814E+00    0.1244327480E-03    0.6811374397E+00    0.3170308244E+00
    0.3300000000E+07    0.3680485899E-02    0.3601794423E+00    0.1204003610E-03    0.6811476573E+00    0.3172095796E+00
    0.3500000000E+07    0.3578999525E-02    0.3601717930E+00    0.1167238290E-03    0.6811567188E+00    0.3173757017E+00
    0.3700000000E+07    0.3485697377E-02    0.3601623788E+00    0.1133540098E-03    0.6811648109E+00    0.3175307611E+00
    0.3900000000E+07    0.3399529280E-02    0.3601515495E+00    0.1102507454E-03    0.6811720823E+00    0.3176760594E+00
    0.4100000000E+07    0.3319624985E-02    0.3601395829E+00    0.1073808568E-03    0.6811786527E+00    0.3178126863E+00
    0.4300000000E+07    0.3245256325E-02    0.3601267015E+00    0.1047166603E-03    0.6811846195E+00    0.3179415631E+00
    0.4500000000E+07    0.3175808681E-02    0.3601130851E+00    0.1022348510E-03    0.6811900628E+00    0.3180634751E+00
    0.4700000000E+07    0.3110759147E-02    0.3600988799E+00    0.9991565202E-04    0.6811950491E+00    0.3181790965E+00
    0.4900000000E+07    0.3049659637E-02    0.3600842056E+00    0.9774215716E-04    0.6811996341E+00    0.3182890106E+00
    0.1000000000E+07    0.6476171850E-02    0.3596940238E+00    0.2254813051E-03    0.6807861409E+00    0.3133061722E+00
    0.3000000000E+07    0.3850942999E-02    0.3601865991E+00    0.1266008581E-03    0.6811318252E+00    0.3169361266E+00
    0.5000000000E+07    0.3020468252E-02    0.3600767240E+00    0.9670542167E-04    0.6812017911E+00    0.3183419886E+00
    0.7000000000E+07    0.2573077929E-02    0.3599189851E+00    0.8096039624E-04    0.6812321629E+00    0.3191965517E+00
    0.9000000000E+07    0.2282406996E-02    0.3597641324E+00    0.7088798078E-04    0.6812492380E+00    0.3198037368E+00
    0.1100000000E+08    0.2073920318E-02    0.3596204568E+00    0.6374846132E-04    0.6812602254E+00    0.3202717129E+00
    0.1300000000E+08    0.1914874857E-02    0.3594885710E+00    0.5835407119E-04    0.6812679124E+00    0.3206509449E+00
    0.1500000000E+08    0.1788315540E-02    0.3593674239E+00    0.5409607375E-04    0.6812736062E+00    0.3209689044E+00
    0.1700000000E+08    0.1684461303E-02    0.3592556982E+00    0.5062627815E-04    0.6812780024E+00    0.3212421383E+00
    0.1900000000E+08    0.1597218786E-02    0.3591521671E+00    0.4772934081E-04    0.6812815054E+00    0.3214813556E+00
    0.2100000000E+08    0.1522566537E-02    0.3590557715E+00    0.4526403969E-04    0.6812843668E+00    0.3216938709E+00
    0.2300000000E+08    0.1457728401E-02    0.3589656185E+00    0.4313343184E-04    0.6812867512E+00    0.3218848934E+00
    0.2500000000E+08    0.1400717454E-02    0.3588809599E+00    0.4126848527E-04    0.6812887713E+00    0.3220582602E+00
    0.2700000000E+08    0.1350068876E-02    0.3588011673E+00    0.3961854157E-04    0.6812905065E+00    0.3222168761E+00
