  Pressure (Pa) 2mC6-400 (mol/kg) 3mC6-400 (mol/kg) 33mC5-400 (mol/kg) 23mC5-400 (mol/kg) C7-400 (mol/kg)
    0.1000000000E+01    0.2383178730E-02    0.2632419788E-02    0.6468369280E-04    0.8389038708E-03    0.3417330756E-02
    0.3000000000E+01    0.6987485430E-02    0.7715163145E-02    0.1896809323E-03    0.2498709839E-02    0.1001667264E-01
    0.5000000000E+01    0.1138784052E-01    0.1256927279E-01    0.3091786487E-03    0.4135059114E-02    0.1632052919E-01
    0.7000000000E+01    0.1559763090E-01    0.1721037517E-01    0.4235384486E-03    0.5748585118E-02    0.2234906660E-01
    0.9000000000E+01    0.1962905972E-01    0.2165269270E-01    0.5330898963E-03    0.7339897865E-02    0.2812064047E-01
    0.1100000000E+02    0.2349327647E-01    0.2590919840E-01    0.6381340403E-03    0.8909585041E-02    0.3365199517E-01
    0.1300000000E+02    0.2720049021E-01    0.2999175050E-01    0.7389464811E-03    0.1045821303E-01    0.3895843728E-01
    0.1500000000E+02    0.3076006833E-01    0.3391120997E-01    0.8357800493E-03    0.1198632786E-01    0.4405398713E-01
    0.1700000000E+02    0.3418062308E-01    0.3767754351E-01    0.9288671500E-03    0.1349445617E-01    0.4895151159E-01
    0.1900000000E+02    0.3747008758E-01    0.4129991400E-01    0.1018421821E-02    0.1498310600E-01    0.5366284066E-01
    0.2100000000E+02    0.4063578271E-01    0.4478676018E-01    0.1104641548E-02    0.1645276768E-01    0.5819887020E-01
    0.2300000000E+02    0.4368447624E-01    0.4814586706E-01    0.1187708859E-02    0.1790391455E-01    0.6256965269E-01
    0.2500000000E+02    0.4662243506E-01    0.5138442821E-01    0.1267792750E-02    0.1933700376E-01    0.6678447759E-01
    0.2700000000E+02    0.4945547172E-01    0.5450910107E-01    0.1345049932E-02    0.2075247688E-01    0.7085194263E-01
    0.2900000000E+02    0.5218898567E-01    0.5752605617E-01    0.1419625960E-02    0.2215076064E-01    0.7478001730E-01
    0.3100000000E+02    0.5482800011E-01    0.6044102104E-01    0.1491656222E-02    0.2353226753E-01    0.7857609943E-01
    0.3300000000E+02    0.5737719494E-01    0.6325931937E-01    0.1561266832E-02    0.2489739638E-01    0.8224706576E-01
    0.3500000000E+02    0.5984093620E-01    0.6598590618E-01    0.1628575430E-02    0.2624653294E-01    0.8579931723E-01
    0.3700000000E+02    0.6222330258E-01    0.6862539928E-01    0.1693691899E-02    0.2758005044E-01    0.8923881961E-01
    0.3900000000E+02    0.6452810921E-01    0.7118210762E-01    0.1756719002E-02    0.2889831006E-01    0.9257114004E-01
    0.4100000000E+02    0.6675892907E-01    0.7366005681E-01    0.1817752971E-02    0.3020166144E-01    0.9580147995E-01
    0.4300000000E+02    0.6891911240E-01    0.7606301212E-01    0.1876884023E-02    0.3149044314E-01    0.9893470471E-01
    0.4500000000E+02    0.7101180414E-01    0.7839449929E-01    0.1934196839E-02    0.3276498310E-01    0.1019753705E+00
    0.4700000000E+02    0.7303995987E-01    0.8065782339E-01    0.1989770988E-02    0.3402559900E-01    0.1049277487E+00
    0.4900000000E+02    0.7500636011E-01    0.8285608588E-01    0.2043681319E-02    0.3527259875E-01    0.1077958478E+00
    0.1000000000E+02    0.2158141072E-01    0.2380340622E-01    0.5861575929E-03    0.8127408763E-02    0.3091535674E-01
    0.3000000000E+02    0.5352000515E-01    0.5899594562E-01    0.1455951222E-02    0.2284358595E-01    0.7669411598E-01
    0.5000000000E+02    0.7596722624E-01    0.8393173642E-01    0.2070034740E-02    0.3589108619E-01    0.1091994783E+00
    0.7000000000E+02    0.9250411291E-01    0.1026504700E+00    0.2524868526E-02    0.4761401123E-01    0.1336508097E+00
    0.9000000000E+02    0.1050849279E+00    0.1173006232E+00    0.2873030220E-02    0.5826471815E-01    0.1528259644E+00
    0.1100000000E+03    0.1148776752E+00    0.1291332490E+00    0.3145920112E-02    0.6803277531E-01    0.1683436067E+00
    0.1300000000E+03    0.1226284367E+00    0.1389279680E+00    0.3363588334E-02    0.7706355912E-01    0.1812131325E+00
    0.1500000000E+03    0.1288384814E+00    0.1471969486E+00    0.3539505559E-02    0.8547058028E-01    0.1920981076E+00
    0.1700000000E+03    0.1338581887E+00    0.1542911863E+00    0.3683090040E-02    0.9334388032E-01    0.2014535854E+00
    0.1900000000E+03    0.1379403742E+00    0.1604597008E+00    0.3801140961E-02    0.1007558903E+00    0.2096026237E+00
    0.2100000000E+03    0.1412722717E+00    0.1658843449E+00    0.3898697395E-02    0.1077656064E+00    0.2167812979E+00
    0.2300000000E+03    0.1439955929E+00    0.1707012142E+00    0.3979576770E-02    0.1144216222E+00    0.2231663968E+00
    0.2500000000E+03    0.1462195906E+00    0.1750143236E+00    0.4046725325E-02    0.1207643692E+00    0.2288931233E+00
    0.2700000000E+03    0.1480298365E+00    0.1789046325E+00    0.4102453550E-02    0.1268277967E+00    0.2340667778E+00
    0.2900000000E+03    0.1494942811E+00    0.1824361686E+00    0.4148598704E-02    0.1326406497E+00    0.2387706917E+00
    0.3100000000E+03    0.1506675366E+00    0.1856602882E+00    0.4186639645E-02    0.1382274529E+00    0.2430717458E+00
    0.3300000000E+03    0.1515939649E+00    0.1886187033E+00    0.4217779654E-02    0.1436092770E+00    0.2470242951E+00
    0.3500000000E+03    0.1523099457E+00    0.1913456746E+00    0.4243007246E-02    0.1488043423E+00    0.2506730119E+00
    0.3700000000E+03    0.1528455671E+00    0.1938696279E+00    0.4263141549E-02    0.1538284987E+00    0.2540549835E+00
    0.3900000000E+03    0.1532259061E+00    0.1962143645E+00    0.4278866639E-02    0.1586956101E+00    0.2572012820E+00
    0.4100000000E+03    0.1534720090E+00    0.1983999794E+00    0.4290757871E-02    0.1634178659E+00    0.2601381565E+00
    0.4300000000E+03    0.1536016512E+00    0.2004435674E+00    0.4299302290E-02    0.1680060347E+00    0.2628879507E+00
    0.4500000000E+03    0.1536299334E+00    0.2023597723E+00    0.4304914637E-02    0.1724696723E+00    0.2654698157E+00
    0.4700000000E+03    0.1535697522E+00    0.2041612185E+00    0.4307950004E-02    0.1768172943E+00    0.2679002716E+00
    0.4900000000E+03    0.1534321755E+00    0.2058588539E+00    0.4308713946E-02    0.1810565191E+00    0.2701936528E+00
    0.1000000000E+03    0.1102759283E+00    0.1235124044E+00    0.3017436053E-02    0.6324912421E-01    0.1609685498E+00
    0.3000000000E+03    0.1501143245E+00    0.1840838515E+00    0.4168551339E-02    0.1354609174E+00    0.2409679231E+00
    0.5000000000E+03    0.1533373985E+00    0.2066717740E+00    0.4308328109E-02    0.1831376478E+00    0.2712929115E+00
    0.7000000000E+03    0.1491147091E+00    0.2192614207E+00    0.4229702243E-02    0.2204132235E+00    0.2884178545E+00
    0.9000000000E+03    0.1428741238E+00    0.2275440887E+00    0.4084459364E-02    0.2516838383E+00    0.2998114101E+00
    0.1100000000E+04    0.1361941760E+00    0.2335158103E+00    0.3918725381E-02    0.2788730328E+00    0.3081081047E+00
    0.1300000000E+04    0.1296276327E+00    0.2380796736E+00    0.3749788559E-02    0.3030050436E+00    0.3145060944E+00
    0.1500000000E+04    0.1233799348E+00    0.2417113661E+00    0.3584843507E-02    0.3247020599E+00    0.3196395035E+00
    0.1700000000E+04    0.1175213574E+00    0.2446883552E+00    0.3426971901E-02    0.3443799395E+00    0.3238798635E+00
    0.1900000000E+04    0.1120651579E+00    0.2471848257E+00    0.3277403606E-02    0.3623373517E+00    0.3274613892E+00
    0.2100000000E+04    0.1069997273E+00    0.2493163729E+00    0.3136479006E-02    0.3788008857E+00    0.3305401326E+00
    0.2300000000E+04    0.1023028729E+00    0.2511631234E+00    0.3004095879E-02    0.3939497935E+00    0.3332246752E+00
    0.2500000000E+04    0.9794849220E-01    0.2527826008E+00    0.2879930980E-02    0.4079304711E+00    0.3355932516E+00
    0.2700000000E+04    0.9390977890E-01    0.2542173111E+00    0.2763555441E-02    0.4208654109E+00    0.3377038740E+00
    0.2900000000E+04    0.9016076107E-01    0.2554994320E+00    0.2654496991E-02    0.4328590064E+00    0.3396006067E+00
    0.3100000000E+04    0.8667700790E-01    0.2566538290E+00    0.2552274192E-02    0.4440014809E+00    0.3413176105E+00
    0.3300000000E+04    0.8343591066E-01    0.2577000596E+00    0.2456415336E-02    0.4543716530E+00    0.3428818390E+00
    0.3500000000E+04    0.8041674395E-01    0.2586537457E+00    0.2366468680E-02    0.4640389523E+00    0.3443148869E+00
    0.3700000000E+04    0.7760061468E-01    0.2595275353E+00    0.2282007641E-02    0.4730649377E+00    0.3456342893E+00
    0.3900000000E+04    0.7497035627E-01    0.2603317919E+00    0.2202633046E-02    0.4815044730E+00    0.3468544553E+00
    0.4100000000E+04    0.7251039915E-01    0.2610750984E+00    0.2127973611E-02    0.4894066611E+00    0.3479873511E+00
    0.4300000000E+04    0.7020663453E-01    0.2617646314E+00    0.2057685404E-02    0.4968156016E+00    0.3490430094E+00
    0.4500000000E+04    0.6804628050E-01    0.2624064438E+00    0.1991450705E-02    0.5037710164E+00    0.3500299138E+00
    0.4700000000E+04    0.6601775512E-01    0.2630056806E+00    0.1928976552E-02    0.5103087743E+00    0.3509552943E+00
    0.4900000000E+04    0.6411055873E-01    0.2635667471E+00    0.1869993134E-02    0.5164613368E+00    0.3518253561E+00
    0.1000000000E+04    0.1395421930E+00    0.2307480235E+00    0.4002719642E-02    0.2657116393E+00    0.3042530678E+00
    0.3000000000E+04    0.8838718361E-01    0.2560912677E+00    0.2602560996E-02    0.4385314669E+00    0.3404797461E+00
    0.5000000000E+04    0.6319944698E-01    0.2638341735E+00    0.1841732057E-02    0.5194024772E+00    0.3522413464E+00
    0.7000000000E+04    0.4945879966E-01    0.2678740826E+00    0.1409340335E-02    0.5638531635E+00    0.3586430022E+00
    0.9000000000E+04    0.4107597551E-01    0.2704268285E+00    0.1140756136E-02    0.5908931603E+00    0.3628323382E+00
    0.1100000000E+05    0.3550409131E-01    0.2722130831E+00    0.9611991681E-03    0.6086515970E+00    0.3658556924E+00
    0.1300000000E+05    0.3155184952E-01    0.2735455109E+00    0.8340127651E-03    0.6210207569E+00    0.3681750623E+00
    0.1500000000E+05    0.2860498329E-01    0.2745840986E+00    0.7397243372E-03    0.6300404892E+00    0.3700304711E+00
    0.1700000000E+05    0.2632037762E-01    0.2754201063E+00    0.6672396070E-03    0.6368617895E+00    0.3715607256E+00
    0.1900000000E+05    0.2449343391E-01    0.2761097857E+00    0.6098547441E-03    0.6421746933E+00    0.3728524755E+00
    0.2100000000E+05    0.2299541043E-01    0.2766898902E+00    0.5633145052E-03    0.6464141457E+00    0.3739630115E+00
    0.2300000000E+05    0.2174159189E-01    0.2771855512E+00    0.5248036891E-03    0.6498660248E+00    0.3749319502E+00
    0.2500000000E+05    0.2067409611E-01    0.2776145927E+00    0.4923932120E-03    0.6527249937E+00    0.3757876916E+00
    0.2700000000E+05    0.1975208906E-01    0.2779900417E+00    0.4647208325E-03    0.6551276655E+00    0.3765512055E+00
    0.2900000000E+05    0.1894596146E-01    0.2783216616E+00    0.4407992746E-03    0.6571724405E+00    0.3772383639E+00
    0.3100000000E+05    0.1823372618E-01    0.2786169273E+00    0.4198966443E-03    0.6589318160E+00    0.3778614346E+00
    0.3300000000E+05    0.1759871332E-01    0.2788816682E+00    0.4014594886E-03    0.6604602738E+00    0.3784300728E+00
    0.3500000000E+05    0.1702805116E-01    0.2791205031E+00    0.3850618827E-03    0.6617994806E+00    0.3789519974E+00
    0.3700000000E+05    0.1651163864E-01    0.2793371436E+00    0.3703708895E-03    0.6629818015E+00    0.3794334649E+00
    0.3900000000E+05    0.1604143383E-01    0.2795346093E+00    0.3571226004E-03    0.6640327290E+00    0.3798796085E+00
    0.4100000000E+05    0.1561095105E-01    0.2797153844E+00    0.3451051812E-03    0.6649725946E+00    0.3802946857E+00
    0.4300000000E+05    0.1521489852E-01    0.2798815325E+00    0.3341466574E-03    0.6658177986E+00    0.3806822622E+00
    0.4500000000E+05    0.1484891306E-01    0.2800347837E+00    0.3241059695E-03    0.6665817062E+00    0.3810453504E+00
    0.4700000000E+05    0.1450936262E-01    0.2801766000E+00    0.3148663252E-03    0.6672753117E+00    0.3813865158E+00
    0.4900000000E+05    0.1419319742E-01    0.2803082261E+00    0.3063301912E-03    0.6679077369E+00    0.3817079589E+00
    0.1000000000E+05    0.3803225100E-01    0.2713910364E+00    0.1042700811E-02    0.6006284335E+00    0.3644533797E+00
    0.3000000000E+05    0.1857925302E-01    0.2784734417E+00    0.4300086717E-03    0.6580840469E+00    0.3775572547E+00
    0.5000000000E+05    0.1404306186E-01    0.2803705573E+00    0.3022997686E-03    0.6682034405E+00    0.3818618887E+00
    0.7000000000E+05    0.1180847680E-01    0.2812757974E+00    0.2441581391E-03    0.6722339670E+00    0.3842544839E+00
    0.9000000000E+05    0.1041233315E-01    0.2818044092E+00    0.2096776350E-03    0.6743780607E+00    0.3858512892E+00
    0.1100000000E+06    0.9431481365E-02    0.2821474345E+00    0.1863300426E-03    0.6757039867E+00    0.3870241092E+00
    0.1300000000E+06    0.8692393779E-02    0.2823848559E+00    0.1692152981E-03    0.6766035232E+00    0.3879381028E+00
    0.1500000000E+06    0.8108895433E-02    0.2825563727E+00    0.1559909201E-03    0.6772533211E+00    0.3886797023E+00
    0.1700000000E+06    0.7632627785E-02    0.2826840186E+00    0.1453825412E-03    0.6777444927E+00    0.3892992718E+00
    0.1900000000E+06    0.7234040231E-02    0.2827810336E+00    0.1366311886E-03    0.6781287148E+00    0.3898284877E+00
    0.2100000000E+06    0.6893902096E-02    0.2828558626E+00    0.1292535157E-03    0.6784374515E+00    0.3902884466E+00
    0.2300000000E+06    0.6599077079E-02    0.2829141482E+00    0.1229253967E-03    0.6786909434E+00    0.3906938389E+00
    0.2500000000E+06    0.6340239554E-02    0.2829598033E+00    0.1174203784E-03    0.6789027966E+00    0.3910552668E+00
    0.2700000000E+06    0.6110558237E-02    0.2829956258E+00    0.1125748797E-03    0.6790824926E+00    0.3913806088E+00
    0.2900000000E+06    0.5904896979E-02    0.2830236680E+00    0.1082674202E-03    0.6792368393E+00    0.3916758648E+00
    0.3100000000E+06    0.5719308304E-02    0.2830454679E+00    0.1044056549E-03    0.6793708508E+00    0.3919456998E+00
    0.3300000000E+06    0.5550700716E-02    0.2830622001E+00    0.1009179741E-03    0.6794883013E+00    0.3921938058E+00
    0.3500000000E+06    0.5396613348E-02    0.2830747758E+00    0.9774788216E-04    0.6795920856E+00    0.3924231505E+00
    0.3700000000E+06    0.5255059258E-02    0.2830839122E+00    0.9485013231E-04    0.6796844614E+00    0.3926361520E+00
    0.3900000000E+06    0.5124413896E-02    0.2830901806E+00    0.9218800412E-04    0.6797672148E+00    0.3928348040E+00
    0.4100000000E+06    0.5003334127E-02    0.2830940414E+00    0.8973134455E-04    0.6798417777E+00    0.3930207682E+00
    0.4300000000E+06    0.4890698358E-02    0.2830958690E+00    0.8745513225E-04    0.6799093113E+00    0.3931954428E+00
    0.4500000000E+06    0.4785561550E-02    0.2830959707E+00    0.8533840747E-04    0.6799707670E+00    0.3933600143E+00
    0.4700000000E+06    0.4687120944E-02    0.2830946010E+00    0.8336346257E-04    0.6800269321E+00    0.3935154977E+00
    0.4900000000E+06    0.4594689592E-02    0.2830919718E+00    0.8151522120E-04    0.6800784634E+00    0.3936627672E+00
    0.1000000000E+06    0.9883860358E-02    0.2819927387E+00    0.1970080493E-03    0.6751111461E+00    0.3864777159E+00
    0.3000000000E+06    0.5809803800E-02    0.2830352677E+00    0.1062857110E-03    0.6793061269E+00    0.3918137097E+00
    0.5000000000E+06    0.4550539197E-02    0.2830902416E+00    0.8063450163E-04    0.6801026674E+00    0.3937335626E+00
    0.7000000000E+06    0.3874598059E-02    0.2830204959E+00    0.6732229788E-04    0.6804406309E+00    0.3948586454E+00
    0.9000000000E+06    0.3435993152E-02    0.2829228822E+00    0.5886055042E-04    0.6806279345E+00    0.3956387702E+00
    0.1100000000E+07    0.3121585400E-02    0.2828204790E+00    0.5288390173E-04    0.6807471621E+00    0.3962292199E+00
    0.1300000000E+07    0.2881814996E-02    0.2827203040E+00    0.4837820370E-04    0.6808298288E+00    0.3967008876E+00
    0.1500000000E+07    0.2691057018E-02    0.2826245949E+00    0.4482711593E-04    0.6808905797E+00    0.3970917177E+00
    0.1700000000E+07    0.2534541946E-02    0.2825339223E+00    0.4193658245E-04    0.6809371503E+00    0.3974242498E+00
    0.1900000000E+07    0.2403073920E-02    0.2824482314E+00    0.3952530129E-04    0.6809740133E+00    0.3977129005E+00
    0.2100000000E+07    0.2290586227E-02    0.2823672356E+00    0.3747464781E-04    0.6810039362E+00    0.3979674164E+00
    0.2300000000E+07    0.2192891915E-02    0.2822905749E+00    0.3570333540E-04    0.6810287236E+00    0.3981946769E+00
    0.2500000000E+07    0.2106994922E-02    0.2822178825E+00    0.3415356202E-04    0.6810496030E+00    0.3983997084E+00
    0.2700000000E+07    0.2030686783E-02    0.2821488115E+00    0.3278295864E-04    0.6810674385E+00    0.3985862888E+00
    0.2900000000E+07    0.1962298707E-02    0.2820830445E+00    0.3155967137E-04    0.6810828564E+00    0.3987573254E+00
    0.3100000000E+07    0.1900542883E-02    0.2820202959E+00    0.3045923152E-04    0.6810963216E+00    0.3989151008E+00
    0.3300000000E+07    0.1844407363E-02    0.2819603106E+00    0.2946249312E-04    0.6811081867E+00    0.3990614381E+00
    0.3500000000E+07    0.1793084383E-02    0.2819028613E+00    0.2855423294E-04    0.6811187238E+00    0.3991978155E+00
    0.3700000000E+07    0.1745920211E-02    0.2818477454E+00    0.2772217547E-04    0.6811281465E+00    0.3993254469E+00
    0.3900000000E+07    0.1702379292E-02    0.2817947823E+00    0.2695629835E-04    0.6811366248E+00    0.3994453412E+00
    0.4100000000E+07    0.1662018096E-02    0.2817438109E+00    0.2624832779E-04    0.6811442956E+00    0.3995583452E+00
    0.4300000000E+07    0.1624465716E-02    0.2816946866E+00    0.2559136550E-04    0.6811512703E+00    0.3996651762E+00
    0.4500000000E+07    0.1589409243E-02    0.2816472797E+00    0.2497960832E-04    0.6811576409E+00    0.3997664474E+00
    0.4700000000E+07    0.1556582592E-02    0.2816014734E+00    0.2440813473E-04    0.6811634837E+00    0.3998626860E+00
    0.4900000000E+07    0.1525757848E-02    0.2815571622E+00    0.2387274003E-04    0.6811688625E+00    0.3999543494E+00
    0.1000000000E+07    0.3267173594E-02    0.2828716647E+00    0.5564195494E-04    0.6806934938E+00    0.3959521694E+00
    0.3000000000E+07    0.1930660508E-02    0.2820513095E+00    0.3099539796E-04    0.6810898089E+00    0.3988377476E+00
    0.5000000000E+07    0.1511033710E-02    0.2815355370E+00    0.2361742204E-04    0.6811713951E+00    0.3999985920E+00
    0.7000000000E+07    0.1285609606E-02    0.2811624876E+00    0.1974464673E-04    0.6812072340E+00    0.4007178314E+00
    0.9000000000E+07    0.1139396055E-02    0.2808695061E+00    0.1727188240E-04    0.6812275754E+00    0.4012353523E+00
    0.1100000000E+08    0.1034645176E-02    0.2806278463E+00    0.1552141551E-04    0.6812407703E+00    0.4016379347E+00
    0.1300000000E+08    0.9548057381E-03    0.2804219566E+00    0.1420009785E-04    0.6812500664E+00    0.4019665424E+00
    0.1500000000E+08    0.8913186903E-03    0.2802424624E+00    0.1315792565E-04    0.6812569947E+00    0.4022436808E+00
    0.1700000000E+08    0.8392515914E-03    0.2800832690E+00    0.1230920011E-04    0.6812623737E+00    0.4024830081E+00
    0.1900000000E+08    0.7955342219E-03    0.2799401868E+00    0.1160096950E-04    0.6812666813E+00    0.4026934204E+00
    0.2100000000E+08    0.7581417290E-03    0.2798102096E+00    0.1099853506E-04    0.6812702158E+00    0.4028810272E+00
    0.2300000000E+08    0.7256771104E-03    0.2796911060E+00    0.1047809314E-04    0.6812731734E+00    0.4030502009E+00
    0.2500000000E+08    0.6971410329E-03    0.2795811732E+00    0.1002270299E-04    0.6812756887E+00    0.4032041760E+00
    0.2700000000E+08    0.6717970914E-03    0.2794790816E+00    0.9619938932E-05    0.6812778568E+00    0.4033454105E+00
