  Pressure (Pa) 2mC6-400 (mol/kg) 3mC6-400 (mol/kg) 33mC5-400 (mol/kg) 23mC5-400 (mol/kg) C7-400 (mol/kg)
    0.1000000000E+01    0.2389096237E-02    0.2111385049E-02    0.6484281705E-03    0.1864941982E-03    0.1713064080E-02
    0.3000000000E+01    0.7038626494E-02    0.6219168373E-02    0.1910558736E-02    0.5558989895E-03    0.5046308139E-02
    0.5000000000E+01    0.1152438386E-01    0.1018085562E-01    0.3128489655E-02    0.9206255735E-03    0.8261530713E-02
    0.7000000000E+01    0.1585510052E-01    0.1400454270E-01    0.4304580249E-02    0.1280790223E-02    0.1136526301E-01
    0.9000000000E+01    0.2003887967E-01    0.1769773070E-01    0.5441019638E-02    0.1636505206E-02    0.1436355670E-01
    0.1100000000E+02    0.2408325207E-01    0.2126737970E-01    0.6539842066E-02    0.1987878963E-02    0.1726202731E-01
    0.1300000000E+02    0.2799522663E-01    0.2471995692E-01    0.7602940598E-02    0.2335016271E-02    0.2006589300E-01
    0.1500000000E+02    0.3178133560E-01    0.2806147973E-01    0.8632079369E-02    0.2678018395E-02    0.2278000925E-01
    0.1700000000E+02    0.3544767517E-01    0.3129755432E-01    0.9628904572E-02    0.3016983244E-02    0.2540889999E-01
    0.1900000000E+02    0.3899994193E-01    0.3443341037E-01    0.1059495433E-01    0.3352005507E-02    0.2795678556E-01
    0.2100000000E+02    0.4244346567E-01    0.3747393228E-01    0.1153166759E-01    0.3683176788E-02    0.3042760787E-01
    0.2300000000E+02    0.4578323901E-01    0.4042368735E-01    0.1244039214E-01    0.4010585732E-02    0.3282505313E-01
    0.2500000000E+02    0.4902394416E-01    0.4328695120E-01    0.1332239182E-01    0.4334318146E-02    0.3515257234E-01
    0.2700000000E+02    0.5216997715E-01    0.4606773087E-01    0.1417885315E-01    0.4654457118E-02    0.3741339986E-01
    0.2900000000E+02    0.5522546978E-01    0.4876978564E-01    0.1501089122E-01    0.4971083118E-02    0.3961057026E-01
    0.3100000000E+02    0.5819430959E-01    0.5139664600E-01    0.1581955508E-01    0.5284274110E-02    0.4174693357E-01
    0.3300000000E+02    0.6108015799E-01    0.5395163093E-01    0.1660583272E-01    0.5594105646E-02    0.4382516921E-01
    0.3500000000E+02    0.6388646683E-01    0.5643786355E-01    0.1737065546E-01    0.5900650963E-02    0.4584779864E-01
    0.3700000000E+02    0.6661649347E-01    0.5885828545E-01    0.1811490211E-01    0.6203981071E-02    0.4781719687E-01
    0.3900000000E+02    0.6927331459E-01    0.6121566979E-01    0.1883940265E-01    0.6504164840E-02    0.4973560305E-01
    0.4100000000E+02    0.7185983876E-01    0.6351263324E-01    0.1954494166E-01    0.6801269081E-02    0.5160513009E-01
    0.4300000000E+02    0.7437881808E-01    0.6575164696E-01    0.2023226144E-01    0.7095358623E-02    0.5342777349E-01
    0.4500000000E+02    0.7683285871E-01    0.6793504661E-01    0.2090206490E-01    0.7386496391E-02    0.5520541945E-01
    0.4700000000E+02    0.7922443070E-01    0.7006504158E-01    0.2155501818E-01    0.7674743473E-02    0.5693985228E-01
    0.4900000000E+02    0.8155587685E-01    0.7214372347E-01    0.2219175307E-01    0.7960159188E-02    0.5863276128E-01
    0.1000000000E+02    0.2207804198E-01    0.1949758235E-01    0.5995011497E-02    0.1812728105E-02    0.1582493487E-01
    0.3000000000E+02    0.5672048735E-01    0.5009240292E-01    0.1541808180E-01    0.5128103212E-02    0.4068618149E-01
    0.5000000000E+02    0.8269975216E-01    0.7316444537E-01    0.2250422721E-01    0.8101823354E-02    0.5946414781E-01
    0.7000000000E+02    0.1029054216E+00    0.9131507401E-01    0.2803294669E-01    0.1079965173E-01    0.7425932675E-01
    0.9000000000E+02    0.1190502821E+00    0.1060566467E+00    0.3246598064E-01    0.1327079640E-01    0.8629353776E-01
    0.1100000000E+03    0.1322208673E+00    0.1183306507E+00    0.3609611304E-01    0.1555289106E-01    0.9632779501E-01
    0.1300000000E+03    0.1431431521E+00    0.1287552050E+00    0.3911891988E-01    0.1767526607E-01    0.1048619845E+00
    0.1500000000E+03    0.1523224461E+00    0.1377537808E+00    0.4167051697E-01    0.1966116050E-01    0.1122387470E+00
    0.1700000000E+03    0.1601222681E+00    0.1456267976E+00    0.4384882894E-01    0.2152925638E-01    0.1187012780E+00
    0.1900000000E+03    0.1668113384E+00    0.1525936759E+00    0.4572625389E-01    0.2329476707E-01    0.1244272884E+00
    0.2100000000E+03    0.1725928742E+00    0.1588186797E+00    0.4735755524E-01    0.2497022466E-01    0.1295498805E+00
    0.2300000000E+03    0.1776235590E+00    0.1644274129E+00    0.4878496993E-01    0.2656605987E-01    0.1341708781E+00
    0.2500000000E+03    0.1820262265E+00    0.1695176992E+00    0.5004162294E-01    0.2809103591E-01    0.1383696209E+00
    0.2700000000E+03    0.1858985780E+00    0.1741669619E+00    0.5115387370E-01    0.2955257777E-01    0.1422089320E+00
    0.2900000000E+03    0.1893193190E+00    0.1784373554E+00    0.5214296761E-01    0.3095702542E-01    0.1457392674E+00
    0.3100000000E+03    0.1923525712E+00    0.1823794108E+00    0.5302622304E-01    0.3230983089E-01    0.1490016658E+00
    0.3300000000E+03    0.1950511017E+00    0.1860346767E+00    0.5381790045E-01    0.3361571318E-01    0.1520298861E+00
    0.3500000000E+03    0.1974587274E+00    0.1894376658E+00    0.5452984923E-01    0.3487878142E-01    0.1548519822E+00
    0.3700000000E+03    0.1996121307E+00    0.1926173113E+00    0.5517199636E-01    0.3610263359E-01    0.1574914833E+00
    0.3900000000E+03    0.2015422494E+00    0.1955980734E+00    0.5575272033E-01    0.3729043638E-01    0.1599682892E+00
    0.4100000000E+03    0.2032753525E+00    0.1984007889E+00    0.5627914088E-01    0.3844499021E-01    0.1622993592E+00
    0.4300000000E+03    0.2048338838E+00    0.2010433330E+00    0.5675734582E-01    0.3956878269E-01    0.1644992482E+00
    0.4500000000E+03    0.2062371275E+00    0.2035411392E+00    0.5719257050E-01    0.4066403278E-01    0.1665805284E+00
    0.4700000000E+03    0.2075017408E+00    0.2059076124E+00    0.5758934098E-01    0.4173272756E-01    0.1685541236E+00
    0.4900000000E+03    0.2086421816E+00    0.2081544594E+00    0.5795158940E-01    0.4277665296E-01    0.1704295781E+00
    0.1000000000E+03    0.1259555754E+00    0.1124577685E+00    0.3436745837E-01    0.1443347718E-01    0.9152481872E-01
    0.3000000000E+03    0.1908808487E+00    0.1804466437E+00    0.5259687067E-01    0.3163957289E-01    0.1474016989E+00
    0.5000000000E+03    0.2091698409E+00    0.2092362842E+00    0.5812085758E-01    0.4328983670E-01    0.1713331620E+00
    0.7000000000E+03    0.2155476853E+00    0.2265326684E+00    0.6033310340E-01    0.5257194722E-01    0.1858361217E+00
    0.9000000000E+03    0.2174318173E+00    0.2385643976E+00    0.6125988954E-01    0.6053279257E-01    0.1959968199E+00
    0.1100000000E+04    0.2172880849E+00    0.2476364423E+00    0.6158378081E-01    0.6764178600E-01    0.2037049886E+00
    0.1300000000E+04    0.2161364567E+00    0.2548342216E+00    0.6159184831E-01    0.7414978309E-01    0.2098536452E+00
    0.1500000000E+04    0.2144588243E+00    0.2607488253E+00    0.6142254247E-01    0.8020697916E-01    0.2149306508E+00
    0.1700000000E+04    0.2125039355E+00    0.2657352195E+00    0.6114916469E-01    0.8591076303E-01    0.2192298332E+00
    0.1900000000E+04    0.2104083183E+00    0.2700221299E+00    0.6081322469E-01    0.9132811660E-01    0.2229410327E+00
    0.2100000000E+04    0.2082501694E+00    0.2737649900E+00    0.6043943889E-01    0.9650724196E-01    0.2261935806E+00
    0.2300000000E+04    0.2060755501E+00    0.2770739124E+00    0.6004309593E-01    0.1014840910E+00    0.2290793135E+00
    0.2500000000E+04    0.2039120056E+00    0.2800295551E+00    0.5963393081E-01    0.1062862667E+00    0.2316656504E+00
    0.2700000000E+04    0.2017760339E+00    0.2826926439E+00    0.5921827777E-01    0.1109354751E+00    0.2340034559E+00
    0.2900000000E+04    0.1996773626E+00    0.2851099588E+00    0.5880032175E-01    0.1154491293E+00    0.2361319912E+00
    0.3100000000E+04    0.1976214860E+00    0.2873182454E+00    0.5838285353E-01    0.1198414390E+00    0.2380821543E+00
    0.3300000000E+04    0.1956112151E+00    0.2893468534E+00    0.5796773998E-01    0.1241241698E+00    0.2398786686E+00
    0.3500000000E+04    0.1936476462E+00    0.2912195684E+00    0.5755622491E-01    0.1283071881E+00    0.2415416055E+00
    0.3700000000E+04    0.1917307801E+00    0.2929559134E+00    0.5714912594E-01    0.1323988599E+00    0.2430874668E+00
    0.3900000000E+04    0.1898599225E+00    0.2945720945E+00    0.5674696590E-01    0.1364063490E+00    0.2445299723E+00
    0.4100000000E+04    0.1880339475E+00    0.2960816994E+00    0.5635006209E-01    0.1403358431E+00    0.2458806435E+00
    0.4300000000E+04    0.1862514713E+00    0.2974962234E+00    0.5595858775E-01    0.1441927287E+00    0.2471492420E+00
    0.4500000000E+04    0.1845109681E+00    0.2988254708E+00    0.5557261494E-01    0.1479817282E+00    0.2483441054E+00
    0.4700000000E+04    0.1828108472E+00    0.3000778650E+00    0.5519214480E-01    0.1517070074E+00    0.2494724071E+00
    0.4900000000E+04    0.1811495042E+00    0.3012606914E+00    0.5481712903E-01    0.1553722630E+00    0.2505403602E+00
    0.1000000000E+04    0.2175312229E+00    0.2433861311E+00    0.6147417443E-01    0.6417487901E-01    0.2000882196E+00
    0.3000000000E+04    0.1986438499E+00    0.2862382476E+00    0.5859139249E-01    0.1176596668E+00    0.2371276998E+00
    0.5000000000E+04    0.1803328778E+00    0.3018280305E+00    0.5463164182E-01    0.1571834264E+00    0.2510534252E+00
    0.7000000000E+04    0.1656808062E+00    0.3107036161E+00    0.5118030867E-01    0.1908982349E+00    0.2591574158E+00
    0.9000000000E+04    0.1534840987E+00    0.3166501034E+00    0.4813610000E-01    0.2209155125E+00    0.2646832319E+00
    0.1100000000E+05    0.1430146788E+00    0.3209990949E+00    0.4540221084E-01    0.2481574523E+00    0.2687856650E+00
    0.1300000000E+05    0.1338406423E+00    0.3243608588E+00    0.4291608572E-01    0.2731308347E+00    0.2719990799E+00
    0.1500000000E+05    0.1256877351E+00    0.3270610697E+00    0.4063654652E-01    0.2961576676E+00    0.2746110396E+00
    0.1700000000E+05    0.1183699541E+00    0.3292919248E+00    0.3853490810E-01    0.3174653191E+00    0.2767925318E+00
    0.1900000000E+05    0.1117538880E+00    0.3311753144E+00    0.3658998448E-01    0.3372276783E+00    0.2786527510E+00
    0.2100000000E+05    0.1057393038E+00    0.3327928501E+00    0.3478528591E-01    0.3555859285E+00    0.2802652849E+00
    0.2300000000E+05    0.1002479779E+00    0.3342015439E+00    0.3310740187E-01    0.3726597778E+00    0.2816818575E+00
    0.2500000000E+05    0.9521695197E-01    0.3354426075E+00    0.3154503862E-01    0.3885538476E+00    0.2829400782E+00
    0.2700000000E+05    0.9059428542E-01    0.3365466808E+00    0.3008842895E-01    0.4033614625E+00    0.2840680663E+00
    0.2900000000E+05    0.8633627579E-01    0.3375370872E+00    0.2872895943E-01    0.4171669894E+00    0.2850873426E+00
    0.3100000000E+05    0.8240557663E-01    0.3384319398E+00    0.2745892757E-01    0.4300473430E+00    0.2860147078E+00
    0.3300000000E+05    0.7876988051E-01    0.3392455509E+00    0.2627137834E-01    0.4420730050E+00    0.2868635038E+00
    0.3500000000E+05    0.7540096905E-01    0.3399894002E+00    0.2515998998E-01    0.4533087535E+00    0.2876444840E+00
    0.3700000000E+05    0.7227400751E-01    0.3406728183E+00    0.2411899068E-01    0.4638142176E+00    0.2883664295E+00
    0.3900000000E+05    0.6936700683E-01    0.3413034780E+00    0.2314309536E-01    0.4736443250E+00    0.2890365937E+00
    0.4100000000E+05    0.6666040306E-01    0.3418877549E+00    0.2222745535E-01    0.4828496828E+00    0.2896610300E+00
    0.4300000000E+05    0.6413672122E-01    0.3424309970E+00    0.2136761693E-01    0.4914769122E+00    0.2902448371E+00
    0.4500000000E+05    0.6178030138E-01    0.3429377279E+00    0.2055948599E-01    0.4995689529E+00    0.2907923452E+00
    0.4700000000E+05    0.5957707167E-01    0.3434118038E+00    0.1979929701E-01    0.5071653432E+00    0.2913072597E+00
    0.4900000000E+05    0.5751435752E-01    0.3438565346E+00    0.1908358549E-01    0.5143024803E+00    0.2917927731E+00
    0.1000000000E+05    0.1480653360E+00    0.3189766259E+00    0.4673491600E-01    0.2348457684E+00    0.2668707412E+00
    0.3000000000E+05    0.8433213715E-01    0.3379954872E+00    0.2808321448E-01    0.4237182666E+00    0.2855616108E+00
    0.5000000000E+05    0.5653207462E-01    0.3440688047E+00    0.1874140226E-01    0.5177094044E+00    0.2920253839E+00
    0.7000000000E+05    0.4201111832E-01    0.3472995865E+00    0.1358409032E-01    0.5685443079E+00    0.2956463372E+00
    0.9000000000E+05    0.3350822542E-01    0.3493658798E+00    0.1048716661E-01    0.5984395572E+00    0.2980622352E+00
    0.1100000000E+06    0.2806656493E-01    0.3508240770E+00    0.8486045841E-02    0.6173709283E+00    0.2998320958E+00
    0.1300000000E+06    0.2433515413E-01    0.3519187230E+00    0.7113279464E-02    0.6301067290E+00    0.3012068341E+00
    0.1500000000E+06    0.2163483251E-01    0.3527761808E+00    0.6125181018E-02    0.6391012622E+00    0.3023183791E+00
    0.1700000000E+06    0.1959568776E-01    0.3534690979E+00    0.5385816268E-02    0.6457077812E+00    0.3032437669E+00
    0.1900000000E+06    0.1800237427E-01    0.3540425457E+00    0.4814769108E-02    0.6507182949E+00    0.3040314870E+00
    0.2100000000E+06    0.1672239185E-01    0.3545261359E+00    0.4362026822E-02    0.6546204356E+00    0.3047138352E+00
    0.2300000000E+06    0.1567034591E-01    0.3549402132E+00    0.3995135076E-02    0.6577276241E+00    0.3053132934E+00
    0.2500000000E+06    0.1478900228E-01    0.3552992676E+00    0.3692255842E-02    0.6602488274E+00    0.3058460763E+00
    0.2700000000E+06    0.1403869756E-01    0.3556139285E+00    0.3438229558E-02    0.6623278229E+00    0.3063242243E+00
    0.2900000000E+06    0.1339114315E-01    0.3558921889E+00    0.3222244951E-02    0.6640662646E+00    0.3067568987E+00
    0.3100000000E+06    0.1282565332E-01    0.3561401866E+00    0.3036408164E-02    0.6655377500E+00    0.3071512154E+00
    0.3300000000E+06    0.1232676805E-01    0.3563627213E+00    0.2874835040E-02    0.6667966860E+00    0.3075128006E+00
    0.3500000000E+06    0.1188270857E-01    0.3565636053E+00    0.2733058484E-02    0.6678840413E+00    0.3078461722E+00
    0.3700000000E+06    0.1148434657E-01    0.3567459088E+00    0.2607631510E-02    0.6688311756E+00    0.3081550070E+00
    0.3900000000E+06    0.1112449945E-01    0.3569121352E+00    0.2495855225E-02    0.6696624481E+00    0.3084423337E+00
    0.4100000000E+06    0.1079743803E-01    0.3570643475E+00    0.2395588564E-02    0.6703970323E+00    0.3087106736E+00
    0.4300000000E+06    0.1049853605E-01    0.3572042628E+00    0.2305112723E-02    0.6710502010E+00    0.3089621458E+00
    0.4500000000E+06    0.1022401614E-01    0.3573333228E+00    0.2223032933E-02    0.6716342528E+00    0.3091985468E+00
    0.4700000000E+06    0.9970762753E-02    0.3574527479E+00    0.2148206199E-02    0.6721591896E+00    0.3094214114E+00
    0.4900000000E+06    0.9736182453E-02    0.3575635784E+00    0.2079687387E-02    0.6726332195E+00    0.3096320604E+00
    0.1000000000E+06    0.3051160713E-01    0.3501517046E+00    0.9386169517E-02    0.6089016234E+00    0.2990082321E+00
    0.3000000000E+06    0.1309920769E-01    0.3560196440E+00    0.3125964817E-02    0.6648316056E+00    0.3069584703E+00
    0.5000000000E+06    0.9625200472E-02    0.3576160547E+00    0.2047541966E-02    0.6728533140E+00    0.3097331675E+00
    0.7000000000E+06    0.8003401634E-02    0.3583767437E+00    0.1599095390E-02    0.6757456114E+00    0.3113254170E+00
    0.9000000000E+06    0.7016404553E-02    0.3588178573E+00    0.1347112863E-02    0.6771912130E+00    0.3124118550E+00
    0.1100000000E+07    0.6333486636E-02    0.3591011168E+00    0.1182469228E-02    0.6780471319E+00    0.3132235024E+00
    0.1300000000E+07    0.5823921881E-02    0.3592945452E+00    0.1064783748E-02    0.6786093622E+00    0.3138648267E+00
    0.1500000000E+07    0.5424346483E-02    0.3594319888E+00    0.9755324349E-03    0.6790054944E+00    0.3143912738E+00
    0.1700000000E+07    0.5099806059E-02    0.3595322540E+00    0.9049560880E-03    0.6792990388E+00    0.3148355319E+00
    0.1900000000E+07    0.4829209532E-02    0.3596066444E+00    0.8473900053E-03    0.6795249873E+00    0.3152183671E+00
    0.2100000000E+07    0.4598963870E-02    0.3596623662E+00    0.7993018445E-03    0.6797041344E+00    0.3155537313E+00
    0.2300000000E+07    0.4399854427E-02    0.3597042298E+00    0.7583640719E-03    0.6798495842E+00    0.3158514159E+00
    0.2500000000E+07    0.4225379726E-02    0.3597355664E+00    0.7229744784E-03    0.6799699902E+00    0.3161185374E+00
    0.2700000000E+07    0.4070801229E-02    0.3597587540E+00    0.6919902818E-03    0.6800712895E+00    0.3163604181E+00
    0.2900000000E+07    0.3932571191E-02    0.3597755330E+00    0.6645720707E-03    0.6801576876E+00    0.3165811349E+00
    0.3100000000E+07    0.3807972608E-02    0.3597872048E+00    0.6400878315E-03    0.6802322443E+00    0.3167838752E+00
    0.3300000000E+07    0.3694884088E-02    0.3597947608E+00    0.6180515640E-03    0.6802972381E+00    0.3169711743E+00
    0.3500000000E+07    0.3591621405E-02    0.3597989678E+00    0.5980826885E-03    0.6803543996E+00    0.3171450796E+00
    0.3700000000E+07    0.3496827790E-02    0.3598004275E+00    0.5798784171E-03    0.6804050665E+00    0.3173072670E+00
    0.3900000000E+07    0.3409396154E-02    0.3597996177E+00    0.5631944747E-03    0.6804502891E+00    0.3174591238E+00
    0.4100000000E+07    0.3328412806E-02    0.3597969220E+00    0.5478313446E-03    0.6804909028E+00    0.3176018112E+00
    0.4300000000E+07    0.3253115966E-02    0.3597926512E+00    0.5336242652E-03    0.6805275809E+00    0.3177363095E+00
    0.4500000000E+07    0.3182864675E-02    0.3597870597E+00    0.5204358257E-03    0.6805608717E+00    0.3178634540E+00
    0.4700000000E+07    0.3117115164E-02    0.3597803567E+00    0.5081504008E-03    0.6805912261E+00    0.3179839613E+00
    0.4900000000E+07    0.3055402645E-02    0.3597727161E+00    0.4966699079E-03    0.6806190185E+00    0.3180984508E+00
    0.1000000000E+07    0.6647458386E-02    0.3589737962E+00    0.1257174524E-02    0.6776682890E+00    0.3128438511E+00
    0.3000000000E+07    0.3868712366E-02    0.3597819392E+00    0.6519964482E-03    0.6801962886E+00    0.3166845806E+00
    0.5000000000E+07    0.3025933047E-02    0.3597685904E+00    0.4912048351E-03    0.6806320539E+00    0.3181536100E+00
    0.7000000000E+07    0.2575321106E-02    0.3596618982E+00    0.4090071783E-03    0.6808129654E+00    0.3190411867E+00
    0.9000000000E+07    0.2283414108E-02    0.3595397828E+00    0.3571127146E-03    0.6809125871E+00    0.3196693563E+00
    0.1100000000E+08    0.2074352385E-02    0.3594193546E+00    0.3205986936E-03    0.6809759561E+00    0.3201521251E+00
    0.1300000000E+08    0.1915007179E-02    0.3593050599E+00    0.2931380201E-03    0.6810199776E+00    0.3205424804E+00
    0.1500000000E+08    0.1788280043E-02    0.3591978156E+00    0.2715312735E-03    0.6810524346E+00    0.3208691823E+00
    0.1700000000E+08    0.1684327566E-02    0.3590974321E+00    0.2539647764E-03    0.6810774150E+00    0.3211495127E+00
    0.1900000000E+08    0.1597026131E-02    0.3590033804E+00    0.2393240053E-03    0.6810972749E+00    0.3213946340E+00
    0.2100000000E+08    0.1522338357E-02    0.3589150593E+00    0.2268815568E-03    0.6811134698E+00    0.3216121572E+00
    0.2300000000E+08    0.1457479161E-02    0.3588318910E+00    0.2161399528E-03    0.6811269479E+00    0.3218074947E+00
    0.2500000000E+08    0.1400456366E-02    0.3587533514E+00    0.2067459917E-03    0.6811383543E+00    0.3219846278E+00
    0.2700000000E+08    0.1349801933E-02    0.3586789768E+00    0.1984411035E-03    0.6811481432E+00    0.3221465670E+00
