  Pressure (Pa) 2mC6-400 (mol/kg) 3mC6-400 (mol/kg) 33mC5-400 (mol/kg) 23mC5-400 (mol/kg) C7-400 (mol/kg)
    0.1000000000E+01    0.2359403703E-02    0.1039789838E-02    0.6404700003E-04    0.5594964307E-03    0.1349908256E-01
    0.3000000000E+01    0.6789604250E-02    0.2975615889E-02    0.1843851947E-03    0.1667817608E-02    0.3863970859E-01
    0.5000000000E+01    0.1087804882E-01    0.4741198105E-02    0.2955444350E-03    0.2762201413E-02    0.6158008699E-01
    0.7000000000E+01    0.1466847085E-01    0.6358383164E-02    0.3987045236E-03    0.3842987349E-02    0.8260213200E-01
    0.9000000000E+01    0.1819725108E-01    0.7845418812E-02    0.4948462465E-03    0.4910503559E-02    0.1019413521E+00
    0.1100000000E+02    0.2149489916E-01    0.9217666453E-02    0.5847915519E-03    0.5965067294E-02    0.1197960341E+00
    0.1300000000E+02    0.2458719219E-01    0.1048815082E-01    0.6692344165E-03    0.7006985372E-02    0.1363343279E+00
    0.1500000000E+02    0.2749605926E-01    0.1166798860E-01    0.7487648166E-03    0.8036554609E-02    0.1516997722E+00
    0.1700000000E+02    0.3024027545E-01    0.1276672603E-01    0.8238875287E-03    0.9054062227E-02    0.1660156461E+00
    0.1900000000E+02    0.3283601135E-01    0.1379260717E-01    0.8950370121E-03    0.1005978624E-01    0.1793884287E+00
    0.2100000000E+02    0.3529727200E-01    0.1475278905E-01    0.9625892898E-03    0.1105399584E-01    0.1919105731E+00
    0.2300000000E+02    0.3763625012E-01    0.1565351545E-01    0.1026871508E-02    0.1203695173E-01    0.2036627467E+00
    0.2500000000E+02    0.3986361264E-01    0.1650025836E-01    0.1088169686E-02    0.1300890648E-01    0.2147156566E+00
    0.2700000000E+02    0.4198873461E-01    0.1729783390E-01    0.1146735040E-02    0.1397010481E-01    0.2251315442E+00
    0.2900000000E+02    0.4401989143E-01    0.1805049801E-01    0.1202789181E-02    0.1492078394E-01    0.2349654190E+00
    0.3100000000E+02    0.4596441784E-01    0.1876202571E-01    0.1256528405E-02    0.1586117388E-01    0.2442660826E+00
    0.3300000000E+02    0.4782884004E-01    0.1943577745E-01    0.1308127268E-02    0.1679149764E-01    0.2530769827E+00
    0.3500000000E+02    0.4961898623E-01    0.2007475454E-01    0.1357741560E-02    0.1771197160E-01    0.2614369300E+00
    0.3700000000E+02    0.5134007943E-01    0.2068164612E-01    0.1405510819E-02    0.1862280565E-01    0.2693807033E+00
    0.3900000000E+02    0.5299681586E-01    0.2125886876E-01    0.1451560437E-02    0.1952420354E-01    0.2769395612E+00
    0.4100000000E+02    0.5459343144E-01    0.2180860031E-01    0.1496003458E-02    0.2041636301E-01    0.2841416780E+00
    0.4300000000E+02    0.5613375844E-01    0.2233280874E-01    0.1538942099E-02    0.2129947609E-01    0.2910125169E+00
    0.4500000000E+02    0.5762127388E-01    0.2283327688E-01    0.1580469059E-02    0.2217372925E-01    0.2975751494E+00
    0.4700000000E+02    0.5905914116E-01    0.2331162385E-01    0.1620668634E-02    0.2303930366E-01    0.3038505306E+00
    0.4900000000E+02    0.6045024586E-01    0.2376932340E-01    0.1659617684E-02    0.2389637532E-01    0.3098577381E+00
    0.1000000000E+02    0.1987325608E-01    0.8545027852E-02    0.5405473883E-03    0.5439385070E-02    0.1110431160E+00
    0.3000000000E+02    0.4500255799E-01    0.1841118486E-01    0.1229936776E-02    0.1539225096E-01    0.2396795703E+00
    0.5000000000E+02    0.6112909576E-01    0.2399085521E-01    0.1678645455E-02    0.2432177626E-01    0.3127662763E+00
    0.7000000000E+02    0.7278651042E-01    0.2760853457E-01    0.2007793909E-02    0.3242261220E-01    0.3603678864E+00
    0.9000000000E+02    0.8175982393E-01    0.3015933003E-01    0.2264853227E-02    0.3984122724E-01    0.3940796206E+00
    0.1100000000E+03    0.8892900132E-01    0.3206289491E-01    0.2473180596E-02    0.4669011910E-01    0.4193459629E+00
    0.1300000000E+03    0.9479610771E-01    0.3354282560E-01    0.2646108002E-02    0.5305725023E-01    0.4390721745E+00
    0.1500000000E+03    0.9967772008E-01    0.3472953185E-01    0.2792059759E-02    0.5901248540E-01    0.4549552472E+00
    0.1700000000E+03    0.1037880718E+00    0.3570438568E-01    0.2916755166E-02    0.6461209024E-01    0.4680556298E+00
    0.1900000000E+03    0.1072797793E+00    0.3652089286E-01    0.3024284375E-02    0.6990194188E-01    0.4790716441E+00
    0.2100000000E+03    0.1102658180E+00    0.3721574111E-01    0.3117687921E-02    0.7491986393E-01    0.4884828160E+00
    0.2300000000E+03    0.1128323185E+00    0.3781496351E-01    0.3199294002E-02    0.7969735339E-01    0.4966299054E+00
    0.2500000000E+03    0.1150464868E+00    0.3833756797E-01    0.3270927289E-02    0.8426087757E-01    0.5037620762E+00
    0.2700000000E+03    0.1169617534E+00    0.3879777264E-01    0.3334044818E-02    0.8863286133E-01    0.5100659726E+00
    0.2900000000E+03    0.1186212567E+00    0.3920643555E-01    0.3389828090E-02    0.9283244826E-01    0.5156843329E+00
    0.3100000000E+03    0.1200602803E+00    0.3957199899E-01    0.3439247622E-02    0.9687609423E-01    0.5207282950E+00
    0.3300000000E+03    0.1213080041E+00    0.3990113101E-01    0.3483109449E-02    0.1007780350E+00    0.5252857626E+00
    0.3500000000E+03    0.1223887927E+00    0.4019917186E-01    0.3522089417E-02    0.1045506586E+00    0.5294272333E+00
    0.3700000000E+03    0.1233231624E+00    0.4047045147E-01    0.3556758975E-02    0.1082048038E+00    0.5332099455E+00
    0.3900000000E+03    0.1241285181E+00    0.4071851956E-01    0.3587604905E-02    0.1117500020E+00    0.5366808879E+00
    0.4100000000E+03    0.1248197240E+00    0.4094631524E-01    0.3615044630E-02    0.1151946748E+00    0.5398790196E+00
    0.4300000000E+03    0.1254095516E+00    0.4115629404E-01    0.3639438262E-02    0.1185462957E+00    0.5428369328E+00
    0.4500000000E+03    0.1259090346E+00    0.4135052431E-01    0.3661098166E-02    0.1218115246E+00    0.5455821175E+00
    0.4700000000E+03    0.1263277527E+00    0.4153076128E-01    0.3680296650E-02    0.1249963187E+00    0.5481379327E+00
    0.4900000000E+03    0.1266740620E+00    0.4169850470E-01    0.3697272200E-02    0.1281060268E+00    0.5505243640E+00
    0.1000000000E+03    0.8553275196E-01    0.3117508212E-01    0.2374121628E-02    0.4333090280E-01    0.4075485315E+00
    0.3000000000E+03    0.1193663786E+00    0.3939415235E-01    0.3415279542E-02    0.9487282687E-01    0.5182721533E+00
    0.5000000000E+03    0.1268223869E+00    0.4177810148E-01    0.3704992925E-02    0.1296342481E+00    0.5516595325E+00
    0.7000000000E+03    0.1273588583E+00    0.4294916408E-01    0.3782317093E-02    0.1572081856E+00    0.5686139680E+00
    0.9000000000E+03    0.1253242944E+00    0.4365351777E-01    0.3773527279E-02    0.1807125013E+00    0.5791265948E+00
    0.1100000000E+04    0.1222052131E+00    0.4412638467E-01    0.3723842442E-02    0.2015286623E+00    0.5863892837E+00
    0.1300000000E+04    0.1186217880E+00    0.4446668935E-01    0.3653135006E-02    0.2203875488E+00    0.5917607794E+00
    0.1500000000E+04    0.1148654517E+00    0.4472364338E-01    0.3571330473E-02    0.2377237907E+00    0.5959247436E+00
    0.1700000000E+04    0.1110838023E+00    0.4492461590E-01    0.3483840255E-02    0.2538184660E+00    0.5992655452E+00
    0.1900000000E+04    0.1073549628E+00    0.4508609502E-01    0.3393804920E-02    0.2688653327E+00    0.6020171746E+00
    0.2100000000E+04    0.1037209854E+00    0.4521863109E-01    0.3303130723E-02    0.2830048975E+00    0.6043308838E+00
    0.2300000000E+04    0.1002041569E+00    0.4532930122E-01    0.3213011210E-02    0.2963433628E+00    0.6063091422E+00
    0.2500000000E+04    0.9681548878E-01    0.4542303651E-01    0.3124207974E-02    0.3089638270E+00    0.6080240430E+00
    0.2700000000E+04    0.9355937022E-01    0.4550338184E-01    0.3037210290E-02    0.3209332404E+00    0.6095279101E+00
    0.2900000000E+04    0.9043622822E-01    0.4557295318E-01    0.2952330097E-02    0.3323069020E+00    0.6108597210E+00
    0.3100000000E+04    0.8744410009E-01    0.4563372444E-01    0.2869760759E-02    0.3431314670E+00    0.6120491616E+00
    0.3300000000E+04    0.8457958973E-01    0.4568721388E-01    0.2789614624E-02    0.3534470165E+00    0.6131192760E+00
    0.3500000000E+04    0.8183846241E-01    0.4573460892E-01    0.2711947751E-02    0.3632885177E+00    0.6140882519E+00
    0.3700000000E+04    0.7921602132E-01    0.4577685192E-01    0.2636776601E-02    0.3726868769E+00    0.6149706544E+00
    0.3900000000E+04    0.7670734898E-01    0.4581470051E-01    0.2564089548E-02    0.3816697144E+00    0.6157782993E+00
    0.4100000000E+04    0.7430746335E-01    0.4584877089E-01    0.2493854992E-02    0.3902619439E+00    0.6165208823E+00
    0.4300000000E+04    0.7201141888E-01    0.4587956945E-01    0.2426027156E-02    0.3984862144E+00    0.6172064422E+00
    0.4500000000E+04    0.6981437155E-01    0.4590751622E-01    0.2360550303E-02    0.4063632515E+00    0.6178417063E+00
    0.4700000000E+04    0.6771162002E-01    0.4593296262E-01    0.2297361836E-02    0.4139121251E+00    0.6184323515E+00
    0.4900000000E+04    0.6569863081E-01    0.4595620489E-01    0.2236394606E-02    0.4211504630E+00    0.6189832058E+00
    0.1000000000E+04    0.1238503294E+00    0.4391099974E-01    0.3752219136E-02    0.1914014219E+00    0.5830561873E+00
    0.3000000000E+04    0.8892397439E-01    0.4560433495E-01    0.2910747989E-02    0.3377851819E+00    0.6114706659E+00
    0.5000000000E+04    0.6472442995E-01    0.4596707959E-01    0.2206722158E-02    0.4246583385E+00    0.6192450270E+00
    0.7000000000E+04    0.4899867586E-01    0.4611375523E-01    0.1712583156E-02    0.4819436302E+00    0.6231421819E+00
    0.9000000000E+04    0.3844617074E-01    0.4618644496E-01    0.1364360033E-02    0.5214398390E+00    0.6255484775E+00
    0.1100000000E+05    0.3110603562E-01    0.4622567049E-01    0.1113490002E-02    0.5496706786E+00    0.6272071569E+00
    0.1300000000E+05    0.2582573504E-01    0.4624728973E-01    0.9281427846E-03    0.5705001334E+00    0.6284323699E+00
    0.1500000000E+05    0.2191136439E-01    0.4625872357E-01    0.7878325422E-03    0.5863032009E+00    0.6293816976E+00
    0.1700000000E+05    0.1893203851E-01    0.4626387381E-01    0.6792298452E-03    0.5985878599E+00    0.6301435195E+00
    0.1900000000E+05    0.1661160895E-01    0.4626496777E-01    0.5934846026E-03    0.6083414244E+00    0.6307715021E+00
    0.2100000000E+05    0.1476769564E-01    0.4626335697E-01    0.5245852840E-03    0.6162291043E+00    0.6313002435E+00
    0.2300000000E+05    0.1327646178E-01    0.4625990099E-01    0.4683546679E-03    0.6227110393E+00    0.6317531207E+00
    0.2500000000E+05    0.1205167641E-01    0.4625516718E-01    0.4218269168E-03    0.6281132197E+00    0.6321465388E+00
    0.2700000000E+05    0.1103191263E-01    0.4624954137E-01    0.3828537807E-03    0.6326716423E+00    0.6324923756E+00
    0.2900000000E+05    0.1017250588E-01    0.4624329236E-01    0.3498504261E-03    0.6365605188E+00    0.6327994603E+00
    0.3100000000E+05    0.9440373376E-02    0.4623661118E-01    0.3216279338E-03    0.6399107347E+00    0.6330745036E+00
    0.3300000000E+05    0.8810597832E-02    0.4622963582E-01    0.2972806772E-03    0.6428222016E+00    0.6333227059E+00
    0.3500000000E+05    0.8264125711E-02    0.4622246727E-01    0.2761091505E-03    0.6453722940E+00    0.6335481652E+00
    0.3700000000E+05    0.7786185539E-02    0.4621518025E-01    0.2575661427E-03    0.6476217231E+00    0.6337541588E+00
    0.3900000000E+05    0.7365181125E-02    0.4620783048E-01    0.2412185721E-03    0.6496186966E+00    0.6339433422E+00
    0.4100000000E+05    0.6991904119E-02    0.4620045974E-01    0.2267200058E-03    0.6514019137E+00    0.6341178921E+00
    0.4300000000E+05    0.6658965125E-02    0.4619309952E-01    0.2137905924E-03    0.6530027520E+00    0.6342796117E+00
    0.4500000000E+05    0.6360376863E-02    0.4618577354E-01    0.2022022125E-03    0.6544468872E+00    0.6344300086E+00
    0.4700000000E+05    0.6091244733E-02    0.4617849966E-01    0.1917673561E-03    0.6557555081E+00    0.6345703545E+00
    0.4900000000E+05    0.5847534334E-02    0.4617129128E-01    0.1823306967E-03    0.6569462375E+00    0.6347017300E+00
    0.1000000000E+05    0.3446048437E-01    0.4620895476E-01    0.1229072091E-02    0.5366769948E+00    0.6264462756E+00
    0.3000000000E+05    0.9792247805E-02    0.4623999614E-01    0.3352037715E-03    0.6382961029E+00    0.6329406322E+00
    0.5000000000E+05    0.5734142379E-02    0.4616771486E-01    0.1779453322E-03    0.6575021023E+00    0.6347643482E+00
    0.7000000000E+05    0.4224625628E-02    0.4610093302E-01    0.1202091101E-03    0.6650049188E+00    0.6357134395E+00
    0.9000000000E+05    0.3445944423E-02    0.4604324309E-01    0.9140916319E-04    0.6689199100E+00    0.6363218982E+00
    0.1100000000E+06    0.2968113761E-02    0.4599312869E-01    0.7442086953E-04    0.6713051510E+00    0.6367562777E+00
    0.1300000000E+06    0.2642077450E-02    0.4594900336E-01    0.6328446071E-04    0.6729052860E+00    0.6370875175E+00
    0.1500000000E+06    0.2403320426E-02    0.4590964319E-01    0.5543665848E-04    0.6740514183E+00    0.6373516267E+00
    0.1700000000E+06    0.2219516461E-02    0.4587413783E-01    0.4960843211E-04    0.6749121973E+00    0.6375690959E+00
    0.1900000000E+06    0.2072691431E-02    0.4584180523E-01    0.4510489963E-04    0.6755822435E+00    0.6377525661E+00
    0.2100000000E+06    0.1952042822E-02    0.4581212568E-01    0.4151556716E-04    0.6761186311E+00    0.6379103211E+00
    0.2300000000E+06    0.1850674793E-02    0.4578469576E-01    0.3858313361E-04    0.6765577816E+00    0.6380480496E+00
    0.2500000000E+06    0.1763968703E-02    0.4575919680E-01    0.3613846009E-04    0.6769240086E+00    0.6381698075E+00
    0.2700000000E+06    0.1688707664E-02    0.4573537301E-01    0.3406593397E-04    0.6772341531E+00    0.6382785768E+00
    0.2900000000E+06    0.1622577220E-02    0.4571301615E-01    0.3228390947E-04    0.6775002448E+00    0.6383766066E+00
    0.3100000000E+06    0.1563866091E-02    0.4569195449E-01    0.3073311179E-04    0.6777311028E+00    0.6384656302E+00
    0.3300000000E+06    0.1511279174E-02    0.4567204480E-01    0.2936947420E-04    0.6779333391E+00    0.6385470090E+00
    0.3500000000E+06    0.1463816474E-02    0.4565316639E-01    0.2815955501E-04    0.6781120073E+00    0.6386218289E+00
    0.3700000000E+06    0.1420692263E-02    0.4563521664E-01    0.2707751455E-04    0.6782710363E+00    0.6386909691E+00
    0.3900000000E+06    0.1381279643E-02    0.4561810754E-01    0.2610306723E-04    0.6784135261E+00    0.6387551499E+00
    0.4100000000E+06    0.1345071628E-02    0.4560176306E-01    0.2522006136E-04    0.6785419559E+00    0.6388149681E+00
    0.4300000000E+06    0.1311653235E-02    0.4558611710E-01    0.2441547331E-04    0.6786583317E+00    0.6388709232E+00
    0.4500000000E+06    0.1280681108E-02    0.4557111177E-01    0.2367868184E-04    0.6787642944E+00    0.6389234369E+00
    0.4700000000E+06    0.1251868387E-02    0.4555669614E-01    0.2300093563E-04    0.6788611990E+00    0.6389728682E+00
    0.4900000000E+06    0.1224973296E-02    0.4554282513E-01    0.2237495658E-04    0.6789501746E+00    0.6390195250E+00
    0.1000000000E+06    0.3181797727E-02    0.4601734621E-01    0.8193377734E-04    0.6702424212E+00    0.6365552199E+00
    0.3000000000E+06    0.1592383277E-02    0.4570233296E-01    0.3148265468E-04    0.6776196219E+00    0.6384221517E+00
    0.5000000000E+06    0.1212179447E-02    0.4553608117E-01    0.2207943291E-04    0.6789919914E+00    0.6390418974E+00
    0.7000000000E+06    0.1020159000E-02    0.4542204549E-01    0.1781575581E-04    0.6795785430E+00    0.6393925491E+00
    0.9000000000E+06    0.8988861932E-03    0.4533500431E-01    0.1528364322E-04    0.6799073411E+00    0.6396303388E+00
    0.1100000000E+07    0.8132664323E-03    0.4526453076E-01    0.1356682328E-04    0.6801191847E+00    0.6398074486E+00
    0.1300000000E+07    0.7486057668E-03    0.4520528463E-01    0.1230733810E-04    0.6802678308E+00    0.6399471836E+00
    0.1500000000E+07    0.6975111516E-03    0.4515415854E-01    0.1133380638E-04    0.6803783345E+00    0.6400618140E+00
    0.1700000000E+07    0.6557985356E-03    0.4510918261E-01    0.1055281400E-04    0.6804639831E+00    0.6401585334E+00
    0.1900000000E+07    0.6208966537E-03    0.4506902848E-01    0.9908629538E-05    0.6805324954E+00    0.6402418929E+00
    0.2100000000E+07    0.5911257482E-03    0.4503275746E-01    0.9365709523E-05    0.6805886703E+00    0.6403149410E+00
    0.2300000000E+07    0.5653353489E-03    0.4499968141E-01    0.8900191542E-05    0.6806356532E+00    0.6403798122E+00
    0.2500000000E+07    0.5427072304E-03    0.4496928072E-01    0.8495389007E-05    0.6806755942E+00    0.6404380552E+00
    0.2700000000E+07    0.5226412700E-03    0.4494115331E-01    0.8139239954E-05    0.6807100146E+00    0.6404908263E+00
    0.2900000000E+07    0.5046858843E-03    0.4491498162E-01    0.7822782231E-05    0.6807400222E+00    0.6405390106E+00
    0.3100000000E+07    0.4884938156E-03    0.4489051045E-01    0.7539200672E-05    0.6807664436E+00    0.6405832992E+00
    0.3300000000E+07    0.4737930213E-03    0.4486753158E-01    0.7283209036E-05    0.6807899086E+00    0.6406242416E+00
    0.3500000000E+07    0.4603669207E-03    0.4484587293E-01    0.7050636148E-05    0.6808109058E+00    0.6406622813E+00
    0.3700000000E+07    0.4480406393E-03    0.4482539060E-01    0.6838141078E-05    0.6808298203E+00    0.6406977812E+00
    0.3900000000E+07    0.4366712082E-03    0.4480596307E-01    0.6643012389E-05    0.6808469599E+00    0.6407310415E+00
    0.4100000000E+07    0.4261404412E-03    0.4478748673E-01    0.6463023636E-05    0.6808625737E+00    0.6407623136E+00
    0.4300000000E+07    0.4163496661E-03    0.4476987257E-01    0.6296327410E-05    0.6808768655E+00    0.6407918096E+00
    0.4500000000E+07    0.4072157633E-03    0.4475304354E-01    0.6141376332E-05    0.6808900040E+00    0.6408197101E+00
    0.4700000000E+07    0.3986681464E-03    0.4473693247E-01    0.5996863278E-05    0.6809021296E+00    0.6408461703E+00
    0.4900000000E+07    0.3906464298E-03    0.4472148050E-01    0.5861675518E-05    0.6809133606E+00    0.6408713241E+00
    0.1000000000E+07    0.8527888422E-03    0.4529810257E-01    0.1435222874E-04    0.6800235112E+00    0.6397246499E+00
    0.3000000000E+07    0.4963879337E-03    0.4490254744E-01    0.7677242534E-05    0.6807536379E+00    0.6405616046E+00
    0.5000000000E+07    0.3868162462E-03    0.4471398521E-01    0.5797275124E-05    0.6809186726E+00    0.6408834482E+00
    0.7000000000E+07    0.3283009676E-03    0.4458878340E-01    0.4825509439E-05    0.6809958070E+00    0.6410790570E+00
    0.9000000000E+07    0.2904691540E-03    0.4449488206E-01    0.4209676136E-05    0.6810417365E+00    0.6412181483E+00
    0.1100000000E+08    0.2634240639E-03    0.4441971407E-01    0.3775727577E-05    0.6810727271E+00    0.6413254498E+00
    0.1300000000E+08    0.2428438452E-03    0.4435703277E-01    0.3449204756E-05    0.6810953056E+00    0.6414124826E+00
    0.1500000000E+08    0.2264995842E-03    0.4430327503E-01    0.3192271188E-05    0.6811126324E+00    0.6414855155E+00
    0.1700000000E+08    0.2131093443E-03    0.4425621459E-01    0.2983415360E-05    0.6811264373E+00    0.6415483242E+00
    0.1900000000E+08    0.2018764188E-03    0.4421436685E-01    0.2809393867E-05    0.6811377521E+00    0.6416033524E+00
    0.2100000000E+08    0.1922760350E-03    0.4417669205E-01    0.2661553011E-05    0.6811472339E+00    0.6416522700E+00
    0.2300000000E+08    0.1839465241E-03    0.4414243356E-01    0.2533969866E-05    0.6811553221E+00    0.6416962663E+00
    0.2500000000E+08    0.1766294066E-03    0.4411102354E-01    0.2422437156E-05    0.6811623230E+00    0.6417362177E+00
    0.2700000000E+08    0.1701343627E-03    0.4408202494E-01    0.2323873895E-05    0.6811684570E+00    0.6417727882E+00
