  Pressure (Pa) 2mC6-400 (mol/kg) 3mC6-400 (mol/kg) 33mC5-400 (mol/kg) 23mC5-400 (mol/kg) C7-400 (mol/kg)
    0.1000000000E+01    0.2372620850E-02    0.3140535234E-02    0.1288026626E-03    0.4662820898E-03    0.6795112834E-02
    0.3000000000E+01    0.6898573350E-02    0.9102301495E-02    0.3746091166E-03    0.1390158913E-02    0.1969766659E-01
    0.5000000000E+01    0.1115631905E-01    0.1467403310E-01    0.6059892929E-03    0.2302685467E-02    0.3176010709E-01
    0.7000000000E+01    0.1517151840E-01    0.1989368070E-01    0.8243282272E-03    0.3204133084E-02    0.4306405552E-01
    0.9000000000E+01    0.1896655225E-01    0.2479439814E-01    0.1030833416E-02    0.4094764163E-02    0.5368082419E-01
    0.1100000000E+02    0.2256103203E-01    0.2940527834E-01    0.1226562485E-02    0.4974832544E-02    0.6367299737E-01
    0.1300000000E+02    0.2597221771E-01    0.3375195771E-01    0.1412445845E-02    0.5844583859E-02    0.7309572969E-01
    0.1500000000E+02    0.2921536236E-01    0.3785711567E-01    0.1589305376E-02    0.6704255864E-02    0.8199781929E-01
    0.1700000000E+02    0.3230399795E-01    0.4174088991E-01    0.1757869913E-02    0.7554078757E-02    0.9042260007E-01
    0.1900000000E+02    0.3525017368E-01    0.4542122355E-01    0.1918788153E-02    0.8394275482E-02    0.9840868760E-01
    0.2100000000E+02    0.3806465579E-01    0.4891415688E-01    0.2072639484E-02    0.9225062016E-02    0.1059906061E+00
    0.2300000000E+02    0.4075709583E-01    0.5223407370E-01    0.2219943096E-02    0.1004664764E-01    0.1131993175E+00
    0.2500000000E+02    0.4333617326E-01    0.5539391033E-01    0.2361165697E-02    0.1085923521E-01    0.1200626714E+00
    0.2700000000E+02    0.4580971652E-01    0.5840533377E-01    0.2496728067E-02    0.1166302139E-01    0.1266057869E+00
    0.2900000000E+02    0.4818480650E-01    0.6127889405E-01    0.2627010662E-02    0.1245819690E-01    0.1328513811E+00
    0.3100000000E+02    0.5046786524E-01    0.6402415527E-01    0.2752358402E-02    0.1324494675E-01    0.1388200501E+00
    0.3300000000E+02    0.5266473223E-01    0.6664980842E-01    0.2873084805E-02    0.1402345043E-01    0.1445305116E+00
    0.3500000000E+02    0.5478073035E-01    0.6916376921E-01    0.2989475548E-02    0.1479388216E-01    0.1499998158E+00
    0.3700000000E+02    0.5682072294E-01    0.7157326286E-01    0.3101791554E-02    0.1555641104E-01    0.1552435268E+00
    0.3900000000E+02    0.5878916355E-01    0.7388489814E-01    0.3210271675E-02    0.1631120125E-01    0.1602758826E+00
    0.4100000000E+02    0.6069013919E-01    0.7610473192E-01    0.3315135035E-02    0.1705841226E-01    0.1651099334E+00
    0.4300000000E+02    0.6252740835E-01    0.7823832587E-01    0.3416583078E-02    0.1779819898E-01    0.1697576637E+00
    0.4500000000E+02    0.6430443417E-01    0.8029079622E-01    0.3514801358E-02    0.1853071191E-01    0.1742300994E+00
    0.4700000000E+02    0.6602441379E-01    0.8226685774E-01    0.3609961129E-02    0.1925609732E-01    0.1785374022E+00
    0.4900000000E+02    0.6769030415E-01    0.8417086245E-01    0.3702220730E-02    0.1997449739E-01    0.1826889530E+00
    0.1000000000E+02    0.2078773190E-01    0.2713439091E-01    0.1129984069E-02    0.4536103150E-02    0.5875137748E-01
    0.3000000000E+02    0.4933746197E-01    0.6266699961E-01    0.2690281102E-02    0.1285261369E-01    0.1358691200E+00
    0.5000000000E+02    0.6850382992E-01    0.8509711287E-01    0.3747309223E-02    0.2033112127E-01    0.1847090577E+00
    0.7000000000E+02    0.8250403476E-01    0.1006710498E+00    0.4527284517E-02    0.2712858885E-01    0.2187279550E+00
    0.9000000000E+02    0.9326726725E-01    0.1121882441E+00    0.5133386899E-02    0.3336364580E-01    0.2439633444E+00
    0.1100000000E+03    0.1018244351E+00    0.1210954629E+00    0.5620658589E-02    0.3912776267E-01    0.2635387959E+00
    0.1300000000E+03    0.1087886824E+00    0.1282181849E+00    0.6021817773E-02    0.4449270958E-01    0.2792383951E+00
    0.1500000000E+03    0.1145539509E+00    0.1340630791E+00    0.6357893557E-02    0.4951566886E-01    0.2921583350E+00
    0.1700000000E+03    0.1193883269E+00    0.1389591100E+00    0.6643212609E-02    0.5424282275E-01    0.3030110770E+00
    0.1900000000E+03    0.1234824512E+00    0.1431296136E+00    0.6887979870E-02    0.5871192386E-01    0.3122808115E+00
    0.2100000000E+03    0.1269766413E+00    0.1467318218E+00    0.7099722066E-02    0.6295417088E-01    0.3203087637E+00
    0.2300000000E+03    0.1299770582E+00    0.1498798156E+00    0.7284147232E-02    0.6699560039E-01    0.3273427626E+00
    0.2500000000E+03    0.1325658431E+00    0.1526584977E+00    0.7445683349E-02    0.7085813499E-01    0.3335674355E+00
    0.2700000000E+03    0.1348077462E+00    0.1551324428E+00    0.7587830463E-02    0.7456038339E-01    0.3391233445E+00
    0.2900000000E+03    0.1367546148E+00    0.1573516949E+00    0.7713399178E-02    0.7811825874E-01    0.3441195303E+00
    0.3100000000E+03    0.1384485239E+00    0.1593556785E+00    0.7824677077E-02    0.8154546197E-01    0.3486419776E+00
    0.3300000000E+03    0.1399240157E+00    0.1611759025E+00    0.7923547861E-02    0.8485386339E-01    0.3527594752E+00
    0.3500000000E+03    0.1412097369E+00    0.1628378745E+00    0.8011578520E-02    0.8805380697E-01    0.3565277628E+00
    0.3700000000E+03    0.1423296576E+00    0.1643624809E+00    0.8090084341E-02    0.9115435508E-01    0.3599925252E+00
    0.3900000000E+03    0.1433039952E+00    0.1657670004E+00    0.8160178201E-02    0.9416348694E-01    0.3631915924E+00
    0.4100000000E+03    0.1441499240E+00    0.1670658606E+00    0.8222808500E-02    0.9708826077E-01    0.3661565812E+00
    0.4300000000E+03    0.1448821275E+00    0.1682712101E+00    0.8278788721E-02    0.9993494719E-01    0.3689141393E+00
    0.4500000000E+03    0.1455132336E+00    0.1693933574E+00    0.8328820750E-02    0.1027091398E+00    0.3714868983E+00
    0.4700000000E+03    0.1460541601E+00    0.1704411110E+00    0.8373513456E-02    0.1054158473E+00    0.3738942151E+00
    0.4900000000E+03    0.1465143932E+00    0.1714220466E+00    0.8413397633E-02    0.1080595706E+00    0.3761527518E+00
    0.1000000000E+03    0.9777657081E-01    0.1169066360E+00    0.5389473266E-02    0.3629969332E-01    0.2543257630E+00
    0.3000000000E+03    0.1376308754E+00    0.1583784660E+00    0.7770698431E-02    0.7984741347E-01    0.3464353243E+00
    0.5000000000E+03    0.1467168790E+00    0.1718895408E+00    0.8431684081E-02    0.1093590971E+00    0.3772308132E+00
    0.7000000000E+03    0.1480723442E+00    0.1789386025E+00    0.8632133451E-02    0.1328456608E+00    0.3936429383E+00
    0.9000000000E+03    0.1465802834E+00    0.1833681491E+00    0.8649304484E-02    0.1529396008E+00    0.4041517992E+00
    0.1100000000E+04    0.1438714303E+00    0.1864496429E+00    0.8579634741E-02    0.1708139690E+00    0.4115888851E+00
    0.1300000000E+04    0.1406176205E+00    0.1887362187E+00    0.8464748304E-02    0.1870908786E+00    0.4171960221E+00
    0.1500000000E+04    0.1371324634E+00    0.1905104938E+00    0.8325171290E-02    0.2021401097E+00    0.4216124712E+00
    0.1700000000E+04    0.1335745616E+00    0.1919332052E+00    0.8171994132E-02    0.2162000021E+00    0.4252043705E+00
    0.1900000000E+04    0.1300283048E+00    0.1931030857E+00    0.8011619151E-02    0.2294338172E+00    0.4281981247E+00
    0.2100000000E+04    0.1265398422E+00    0.1940844124E+00    0.7847929149E-02    0.2419588537E+00    0.4307420689E+00
    0.2300000000E+04    0.1231345045E+00    0.1949209802E+00    0.7683367589E-02    0.2538627092E+00    0.4329378910E+00
    0.2500000000E+04    0.1198258098E+00    0.1956437428E+00    0.7519514435E-02    0.2652129395E+00    0.4348578894E+00
    0.2700000000E+04    0.1166203651E+00    0.1962752487E+00    0.7357410404E-02    0.2760630859E+00    0.4365550327E+00
    0.2900000000E+04    0.1135206455E+00    0.1968323439E+00    0.7197748011E-02    0.2864565944E+00    0.4380691154E+00
    0.3100000000E+04    0.1105266257E+00    0.1973278879E+00    0.7040988512E-02    0.2964294508E+00    0.4394306805E+00
    0.3300000000E+04    0.1076367622E+00    0.1977718807E+00    0.6887435845E-02    0.3060120052E+00    0.4406636056E+00
    0.3500000000E+04    0.1048485999E+00    0.1981722248E+00    0.6737284745E-02    0.3152302662E+00    0.4417868589E+00
    0.3700000000E+04    0.1021591513E+00    0.1985352543E+00    0.6590652825E-02    0.3241068386E+00    0.4428157215E+00
    0.3900000000E+04    0.9956513795E-01    0.1988661102E+00    0.6447602447E-02    0.3326616162E+00    0.4437626591E+00
    0.4100000000E+04    0.9706314494E-01    0.1991690121E+00    0.6308155938E-02    0.3409123015E+00    0.4446379533E+00
    0.4300000000E+04    0.9464971997E-01    0.1994474581E+00    0.6172306351E-02    0.3488748015E+00    0.4454501699E+00
    0.4500000000E+04    0.9232143707E-01    0.1997043748E+00    0.6040025214E-02    0.3565635331E+00    0.4462065093E+00
    0.4700000000E+04    0.9007493688E-01    0.1999422307E+00    0.5911268184E-02    0.3639916621E+00    0.4469130735E+00
    0.4900000000E+04    0.8790695170E-01    0.2001631233E+00    0.5785979225E-02    0.3711712911E+00    0.4475750726E+00
    0.1000000000E+04    0.1453236774E+00    0.1850336449E+00    0.8622007363E-02    0.1621072745E+00    0.4081562816E+00
    0.3000000000E+04    0.1120104925E+00    0.1970871281E+00    0.7118983377E-02    0.2914935924E+00    0.4387673378E+00
    0.5000000000E+04    0.8685140995E-01    0.2002677797E+00    0.5724615352E-02    0.3746714472E+00    0.4478907847E+00
    0.7000000000E+04    0.6915750360E-01    0.2017951160E+00    0.4661298349E-02    0.4339777524E+00    0.4526826244E+00
    0.9000000000E+04    0.5643758589E-01    0.2027007625E+00    0.3856758325E-02    0.4776308443E+00    0.4557476337E+00
    0.1100000000E+05    0.4707507815E-01    0.2033010142E+00    0.3242520971E-02    0.5104873469E+00    0.4579220674E+00
    0.1300000000E+05    0.4002647302E-01    0.2037273635E+00    0.2767086326E-02    0.5357171123E+00    0.4595675714E+00
    0.1500000000E+05    0.3460694601E-01    0.2040448296E+00    0.2393490491E-02    0.5554540763E+00    0.4608692447E+00
    0.1700000000E+05    0.3035865332E-01    0.2042894403E+00    0.2095478999E-02    0.5711614993E+00    0.4619328280E+00
    0.1900000000E+05    0.2696950928E-01    0.2044828440E+00    0.1854342785E-02    0.5838597506E+00    0.4628236205E+00
    0.2100000000E+05    0.2422258919E-01    0.2046388643E+00    0.1656622182E-02    0.5942724578E+00    0.4635843727E+00
    0.2300000000E+05    0.2196421147E-01    0.2047667570E+00    0.1492513762E-02    0.6029214819E+00    0.4642443776E+00
    0.2500000000E+05    0.2008349975E-01    0.2048729598E+00    0.1354780624E-02    0.6101893590E+00    0.4648244572E+00
    0.2700000000E+05    0.1849907817E-01    0.2049620922E+00    0.1238007433E-02    0.6163608928E+00    0.4653398650E+00
    0.2900000000E+05    0.1715026038E-01    0.2050375569E+00    0.1138087892E-02    0.6216512552E+00    0.4658020622E+00
    0.3100000000E+05    0.1599111348E-01    0.2051019161E+00    0.1051868650E-02    0.6262252551E+00    0.4662198475E+00
    0.3300000000E+05    0.1498639124E-01    0.2051571366E+00    0.9768990266E-03    0.6302107464E+00    0.4666001022E+00
    0.3500000000E+05    0.1410870287E-01    0.2052047529E+00    0.9112529498E-03    0.6337080965E+00    0.4669482958E+00
    0.3700000000E+05    0.1333651155E-01    0.2052459802E+00    0.8534006999E-03    0.6367969651E+00    0.4672688376E+00
    0.3900000000E+05    0.1265269905E-01    0.2052817926E+00    0.8021154079E-03    0.6395412231E+00    0.4675653273E+00
    0.4100000000E+05    0.1204352217E-01    0.2053129805E+00    0.7564040864E-03    0.6419925679E+00    0.4678407365E+00
    0.4300000000E+05    0.1149784440E-01    0.2053401915E+00    0.7154561862E-03    0.6441932118E+00    0.4680975435E+00
    0.4500000000E+05    0.1100656341E-01    0.2053639612E+00    0.6786048128E-03    0.6461779040E+00    0.4683378336E+00
    0.4700000000E+05    0.1056217957E-01    0.2053847363E+00    0.6452971917E-03    0.6479754677E+00    0.4685633761E+00
    0.4900000000E+05    0.1015846750E-01    0.2054028921E+00    0.6150719612E-03    0.6496099804E+00    0.4687756835E+00
    0.1000000000E+05    0.5141229124E-01    0.2030285579E+00    0.3529456829E-02    0.4951806619E+00    0.4569175632E+00
    0.3000000000E+05    0.1654939339E-01    0.2050709900E+00    0.1093432995E-02    0.6240190701E+00    0.4660160382E+00
    0.5000000000E+05    0.9970202967E-02    0.2054110889E+00    0.6009916440E-03    0.6503725484E+00    0.4688772879E+00
    0.7000000000E+05    0.7436823800E-02    0.2054938194E+00    0.4134461221E-03    0.6606113059E+00    0.4704526653E+00
    0.9000000000E+05    0.6108705568E-02    0.2054967081E+00    0.3181820774E-03    0.6658806893E+00    0.4715023211E+00
    0.1100000000E+06    0.5285683051E-02    0.2054679812E+00    0.2613210515E-03    0.6690472560E+00    0.4722740846E+00
    0.1300000000E+06    0.4720284079E-02    0.2054254017E+00    0.2237172836E-03    0.6711454133E+00    0.4728768347E+00
    0.1500000000E+06    0.4304135361E-02    0.2053766904E+00    0.1970303560E-03    0.6726319406E+00    0.4733671916E+00
    0.1700000000E+06    0.3982493867E-02    0.2053255583E+00    0.1770937263E-03    0.6737376552E+00    0.4737780233E+00
    0.1900000000E+06    0.3724735758E-02    0.2052739024E+00    0.1616100598E-03    0.6745910280E+00    0.4741299554E+00
    0.2100000000E+06    0.3512367099E-02    0.2052227250E+00    0.1492145411E-03    0.6752689617E+00    0.4744367068E+00
    0.2300000000E+06    0.3333535238E-02    0.2051725586E+00    0.1390475798E-03    0.6758201805E+00    0.4747078247E+00
    0.2500000000E+06    0.3180274897E-02    0.2051236779E+00    0.1305417475E-03    0.6762769940E+00    0.4749501978E+00
    0.2700000000E+06    0.3047022153E-02    0.2050762113E+00    0.1233077366E-03    0.6766616432E+00    0.4751689460E+00
    0.2900000000E+06    0.2929763761E-02    0.2050302033E+00    0.1170696888E-03    0.6769899229E+00    0.4753679698E+00
    0.3100000000E+06    0.2825525687E-02    0.2049856492E+00    0.1116267124E-03    0.6772733507E+00    0.4755503033E+00
    0.3300000000E+06    0.2732052646E-02    0.2049425163E+00    0.1068290323E-03    0.6775205181E+00    0.4757183496E+00
    0.3500000000E+06    0.2647600085E-02    0.2049007561E+00    0.1025626854E-03    0.6777379608E+00    0.4758740418E+00
    0.3700000000E+06    0.2570794997E-02    0.2048603122E+00    0.9873939682E-04    0.6779307375E+00    0.4760189561E+00
    0.3900000000E+06    0.2500540275E-02    0.2048211246E+00    0.9528970533E-04    0.6781028234E+00    0.4761543934E+00
    0.4100000000E+06    0.2435947439E-02    0.2047831324E+00    0.9215818392E-04    0.6782573849E+00    0.4762814390E+00
    0.4300000000E+06    0.2376288321E-02    0.2047462761E+00    0.8930004789E-04    0.6783969747E+00    0.4764010069E+00
    0.4500000000E+06    0.2320959730E-02    0.2047104980E+00    0.8667870237E-04    0.6785236735E+00    0.4765138734E+00
    0.4700000000E+06    0.2269457175E-02    0.2046757432E+00    0.8426393935E-04    0.6786391941E+00    0.4766207033E+00
    0.4900000000E+06    0.2221355025E-02    0.2046419597E+00    0.8203059187E-04    0.6787449587E+00    0.4767220697E+00
    0.1000000000E+06    0.5654533143E-02    0.2054848306E+00    0.2865362113E-03    0.6676414995E+00    0.4719143634E+00
    0.3000000000E+06    0.2876172130E-02    0.2050077460E+00    0.1142591648E-03    0.6771366497E+00    0.4754610600E+00
    0.5000000000E+06    0.2198463847E-02    0.2046254166E+00    0.8097520695E-04    0.6787945625E+00    0.4767708622E+00
    0.7000000000E+06    0.1854184601E-02    0.2043351449E+00    0.6567208866E-04    0.6794825657E+00    0.4775522024E+00
    0.9000000000E+06    0.1636074217E-02    0.2041020501E+00    0.5651258116E-04    0.6798607062E+00    0.4781011498E+00
    0.1100000000E+07    0.1481775190E-02    0.2039072558E+00    0.5027067390E-04    0.6801006992E+00    0.4785209536E+00
    0.1300000000E+07    0.1365077597E-02    0.2037398395E+00    0.4567505654E-04    0.6802670336E+00    0.4788591634E+00
    0.1500000000E+07    0.1272759983E-02    0.2035929643E+00    0.4211326638E-04    0.6803893922E+00    0.4791414218E+00
    0.1700000000E+07    0.1197325469E-02    0.2034620758E+00    0.3924989923E-04    0.6804833576E+00    0.4793830621E+00
    0.1900000000E+07    0.1134160112E-02    0.2033439887E+00    0.3688411020E-04    0.6805579043E+00    0.4795939500E+00
    0.2100000000E+07    0.1080246120E-02    0.2032363876E+00    0.3488742392E-04    0.6806185704E+00    0.4797807904E+00
    0.2300000000E+07    0.1033514551E-02    0.2031375366E+00    0.3317337345E-04    0.6806689617E+00    0.4799483390E+00
    0.2500000000E+07    0.9924927199E-03    0.2030461001E+00    0.3168136746E-04    0.6807115281E+00    0.4801000858E+00
    0.2700000000E+07    0.9560997077E-03    0.2029610282E+00    0.3036752887E-04    0.6807479939E+00    0.4802386646E+00
    0.2900000000E+07    0.9235216218E-03    0.2028814809E+00    0.2919920604E-04    0.6807796080E+00    0.4803661098E+00
    0.3100000000E+07    0.8941322420E-03    0.2028067747E+00    0.2815153565E-04    0.6808072984E+00    0.4804840242E+00
    0.3300000000E+07    0.8674407368E-03    0.2027363466E+00    0.2720520906E-04    0.6808317685E+00    0.4805936924E+00
    0.3500000000E+07    0.8430561628E-03    0.2026697269E+00    0.2634497420E-04    0.6808535621E+00    0.4806961589E+00
    0.3700000000E+07    0.8206627263E-03    0.2026065197E+00    0.2555860307E-04    0.6808731060E+00    0.4807922841E+00
    0.3900000000E+07    0.8000021509E-03    0.2025463880E+00    0.2483616300E-04    0.6808907401E+00    0.4808827849E+00
    0.4100000000E+07    0.7808608557E-03    0.2024890428E+00    0.2416949149E-04    0.6809067385E+00    0.4809682645E+00
    0.4300000000E+07    0.7630604649E-03    0.2024342343E+00    0.2355181077E-04    0.6809213248E+00    0.4810492355E+00
    0.4500000000E+07    0.7464506731E-03    0.2023817448E+00    0.2297744002E-04    0.6809346832E+00    0.4811261366E+00
    0.4700000000E+07    0.7309038015E-03    0.2023313838E+00    0.2244157752E-04    0.6809469669E+00    0.4811993463E+00
    0.4900000000E+07    0.7163105943E-03    0.2022829835E+00    0.2194013334E-04    0.6809583044E+00    0.4812691931E+00
    0.1000000000E+07    0.1553032073E-02    0.2040006746E+00    0.5312940492E-04    0.6799927089E+00    0.4783234904E+00
    0.3000000000E+07    0.9084617137E-03    0.2028435603E+00    0.2866160593E-04    0.6807938953E+00    0.4804261716E+00
    0.5000000000E+07    0.7093416858E-03    0.2022594715E+00    0.2170120205E-04    0.6809636529E+00    0.4813029467E+00
    0.7000000000E+07    0.6027921422E-03    0.2018636071E+00    0.1809154982E-04    0.6810402000E+00    0.4818553976E+00
    0.9000000000E+07    0.5338168968E-03    0.2015632127E+00    0.1579974778E-04    0.6810846069E+00    0.4822571938E+00
    0.1100000000E+08    0.4844618359E-03    0.2013208451E+00    0.1418275575E-04    0.6811139564E+00    0.4825721693E+00
    0.1300000000E+08    0.4468768071E-03    0.2011175645E+00    0.1296488277E-04    0.6811349744E+00    0.4828307918E+00
    0.1500000000E+08    0.4170095208E-03    0.2009424364E+00    0.1200582765E-04    0.6811508679E+00    0.4830499424E+00
    0.1700000000E+08    0.3925276376E-03    0.2007885668E+00    0.1122573434E-04    0.6811633687E+00    0.4832399359E+00
    0.1900000000E+08    0.3719807569E-03    0.2006513254E+00    0.1057539627E-04    0.6811734982E+00    0.4834075289E+00
    0.2100000000E+08    0.3544130352E-03    0.2005274507E+00    0.1002263650E-04    0.6811818999E+00    0.4835573843E+00
    0.2300000000E+08    0.3391654134E-03    0.2004145576E+00    0.9545418155E-05    0.6811890004E+00    0.4836928530E+00
    0.2500000000E+08    0.3257666820E-03    0.2003108488E+00    0.9128079162E-05    0.6811950942E+00    0.4838164230E+00
    0.2700000000E+08    0.3138697610E-03    0.2002149359E+00    0.8759144736E-05    0.6812003917E+00    0.4839299914E+00
