  Pressure (Pa) 2mC6-400 (mol/kg) 3mC6-400 (mol/kg) 33mC5-400 (mol/kg) 23mC5-400 (mol/kg) C7-400 (mol/kg)
    0.1000000000E+01    0.2388345834E-02    0.5279556962E-03    0.3241093409E-03    0.8386894422E-03    0.3426835925E-02
    0.3000000000E+01    0.7031896421E-02    0.1555735521E-02    0.9543402017E-03    0.2496817176E-02    0.1009871827E-01
    0.5000000000E+01    0.1150576738E-01    0.2547726095E-02    0.1561647546E-02    0.4129901993E-02    0.1653931099E-01
    0.7000000000E+01    0.1581878738E-01    0.3505859300E-02    0.2147224944E-02    0.5738667976E-02    0.2276108156E-01
    0.9000000000E+01    0.1997917318E-01    0.4431928841E-02    0.2712183138E-02    0.7323810551E-02    0.2877560641E-01
    0.1100000000E+02    0.2399458253E-01    0.5327602430E-02    0.3257557208E-02    0.8885997905E-02    0.3459364938E-01
    0.1300000000E+02    0.2787216169E-01    0.6194432698E-02    0.3784313011E-02    0.1042587232E-01    0.4022523211E-01
    0.1500000000E+02    0.3161858802E-01    0.7033866988E-02    0.4293352951E-02    0.1194405144E-01    0.4567969719E-01
    0.1700000000E+02    0.3524010844E-01    0.7847256172E-02    0.4785521190E-02    0.1344112942E-01    0.5096576492E-01
    0.1900000000E+02    0.3874257407E-01    0.8635862584E-02    0.5261608337E-02    0.1491767811E-01    0.5609158454E-01
    0.2100000000E+02    0.4213147154E-01    0.9400867191E-02    0.5722355698E-02    0.1637424803E-01    0.6106478042E-01
    0.2300000000E+02    0.4541195139E-01    0.1014337607E-01    0.6168459111E-02    0.1781136942E-01    0.6589249382E-01
    0.2500000000E+02    0.4858885380E-01    0.1086442629E-01    0.6600572432E-02    0.1922955315E-01    0.7058142078E-01
    0.2700000000E+02    0.5166673190E-01    0.1156499121E-01    0.7019310704E-02    0.2062929162E-01    0.7513784641E-01
    0.2900000000E+02    0.5464987315E-01    0.1224598534E-01    0.7425253031E-02    0.2201105959E-01    0.7956767614E-01
    0.3100000000E+02    0.5754231861E-01    0.1290826876E-01    0.7818945208E-02    0.2337531497E-01    0.8387646407E-01
    0.3300000000E+02    0.6034788072E-01    0.1355265110E-01    0.8200902112E-02    0.2472249958E-01    0.8806943887E-01
    0.3500000000E+02    0.6307015943E-01    0.1417989520E-01    0.8571609895E-02    0.2605303985E-01    0.9215152742E-01
    0.3700000000E+02    0.6571255701E-01    0.1479072049E-01    0.8931527983E-02    0.2736734752E-01    0.9612737635E-01
    0.3900000000E+02    0.6827829165E-01    0.1538580603E-01    0.9281090917E-02    0.2866582022E-01    0.1000013718E+00
    0.4100000000E+02    0.7077040985E-01    0.1596579335E-01    0.9620710036E-02    0.2994884213E-01    0.1037776577E+00
    0.4300000000E+02    0.7319179793E-01    0.1653128896E-01    0.9950775028E-02    0.3121678452E-01    0.1074601520E+00
    0.4500000000E+02    0.7554519254E-01    0.1708286677E-01    0.1027165535E-01    0.3247000633E-01    0.1110525624E+00
    0.4700000000E+02    0.7783319035E-01    0.1762107027E-01    0.1058370155E-01    0.3370885464E-01    0.1145583999E+00
    0.4900000000E+02    0.8005825699E-01    0.1814641449E-01    0.1088724646E-01    0.3493366520E-01    0.1179809921E+00
    0.1000000000E+02    0.2200454180E-01    0.4883465513E-02    0.2987256270E-02    0.8107732896E-02    0.3170854515E-01
    0.3000000000E+02    0.5610718941E-01    0.1257941415E-01    0.7623597510E-02    0.2269534837E-01    0.8173686620E-01
    0.5000000000E+02    0.8114792786E-01    0.1840441800E-01    0.1103593039E-01    0.3554090824E-01    0.1196620639E+00
    0.7000000000E+02    0.1001491567E+00    0.2299562016E-01    0.1363235584E-01    0.4702253803E-01    0.1495996640E+00
    0.9000000000E+02    0.1149215820E+00    0.2672735199E-01    0.1565724589E-01    0.5741256565E-01    0.1739688837E+00
    0.1100000000E+03    0.1266197307E+00    0.2983446446E-01    0.1726636767E-01    0.6691247465E-01    0.1942882938E+00
    0.1300000000E+03    0.1360158905E+00    0.3247205901E-01    0.1856390194E-01    0.7567479910E-01    0.2115613020E+00
    0.1500000000E+03    0.1436466909E+00    0.3474688267E-01    0.1962223878E-01    0.8381733018E-01    0.2264788352E+00
    0.1700000000E+03    0.1498967298E+00    0.3673493677E-01    0.2049326533E-01    0.9143261808E-01    0.2395330561E+00
    0.1900000000E+03    0.1550488160E+00    0.3849188963E-01    0.2121514435E-01    0.9859449693E-01    0.2510846292E+00
    0.2100000000E+03    0.1593154645E+00    0.4005951072E-01    0.2181656206E-01    0.1053626707E+00    0.2614042990E+00
    0.2300000000E+03    0.1628593581E+00    0.4146979687E-01    0.2231948699E-01    0.1117860032E+00    0.2706995618E+00
    0.2500000000E+03    0.1658070491E+00    0.4274770401E-01    0.2274101692E-01    0.1179049216E+00    0.2791323291E+00
    0.2700000000E+03    0.1682583763E+00    0.4391300633E-01    0.2309464819E-01    0.1237532019E+00    0.2868309521E+00
    0.2900000000E+03    0.1702930868E+00    0.4498159243E-01    0.2339116807E-01    0.1293593146E+00    0.2938986081E+00
    0.3100000000E+03    0.1719755860E+00    0.4596638853E-01    0.2363929479E-01    0.1347474533E+00    0.3004192748E+00
    0.3300000000E+03    0.1733584045E+00    0.4687802856E-01    0.2384614480E-01    0.1399383299E+00    0.3064620682E+00
    0.3500000000E+03    0.1744847709E+00    0.4772534887E-01    0.2401757941E-01    0.1449497967E+00    0.3120844458E+00
    0.3700000000E+03    0.1753905459E+00    0.4851575912E-01    0.2415846545E-01    0.1497973379E+00    0.3173346096E+00
    0.3900000000E+03    0.1761056967E+00    0.4925552420E-01    0.2427287404E-01    0.1544944621E+00    0.3222533317E+00
    0.4100000000E+03    0.1766554338E+00    0.4994998125E-01    0.2436423373E-01    0.1590530178E+00    0.3268753613E+00
    0.4300000000E+03    0.1770610962E+00    0.5060370861E-01    0.2443544992E-01    0.1634834496E+00    0.3312305201E+00
    0.4500000000E+03    0.1773408478E+00    0.5122065882E-01    0.2448899873E-01    0.1677950077E+00    0.3353445639E+00
    0.4700000000E+03    0.1775102310E+00    0.5180426425E-01    0.2452700161E-01    0.1719959203E+00    0.3392398687E+00
    0.4900000000E+03    0.1775826083E+00    0.5235752187E-01    0.2455128504E-01    0.1760935364E+00    0.3429359798E+00
    0.1000000000E+03    0.1210998430E+00    0.2834788114E-01    0.1650634501E-01    0.6226329933E-01    0.1845629873E+00
    0.3000000000E+03    0.1711748351E+00    0.4548375239E-01    0.2352080281E-01    0.1320792626E+00    0.2972226892E+00
    0.5000000000E+03    0.1775860891E+00    0.5262360487E-01    0.2455878413E-01    0.1781056941E+00    0.3447147828E+00
    0.7000000000E+03    0.1746693004E+00    0.5684822515E-01    0.2427771886E-01    0.2142169112E+00    0.3730732563E+00
    0.9000000000E+03    0.1690200486E+00    0.5974932246E-01    0.2358543566E-01    0.2446322848E+00    0.3926961264E+00
    0.1100000000E+04    0.1625980889E+00    0.6191292293E-01    0.2275826699E-01    0.2711818379E+00    0.4074273242E+00
    0.1300000000E+04    0.1561122074E+00    0.6361332416E-01    0.2190000833E-01    0.2948352766E+00    0.4190726417E+00
    0.1500000000E+04    0.1498418161E+00    0.6499899104E-01    0.2105415683E-01    0.3161794994E+00    0.4286127437E+00
    0.1700000000E+04    0.1438961661E+00    0.6615855577E-01    0.2023969259E-01    0.3356055017E+00    0.4366348919E+00
    0.1900000000E+04    0.1383108007E+00    0.6714880952E-01    0.1946458018E-01    0.3533932900E+00    0.4435164629E+00
    0.2100000000E+04    0.1330877328E+00    0.6800814126E-01    0.1873149841E-01    0.3697548064E+00    0.4495132435E+00
    0.2300000000E+04    0.1282135745E+00    0.6876361106E-01    0.1804049083E-01    0.3848574563E+00    0.4548059990E+00
    0.2500000000E+04    0.1236681912E+00    0.6943494726E-01    0.1739027387E-01    0.3988378664E+00    0.4595268382E+00
    0.2700000000E+04    0.1194289848E+00    0.7003693705E-01    0.1677891440E-01    0.4118103745E+00    0.4637750119E+00
    0.2900000000E+04    0.1154730495E+00    0.7058092400E-01    0.1620419323E-01    0.4238725185E+00    0.4676268259E+00
    0.3100000000E+04    0.1117782479E+00    0.7107578296E-01    0.1566380427E-01    0.4351087356E+00    0.4711421065E+00
    0.3300000000E+04    0.1083237211E+00    0.7152857586E-01    0.1515546435E-01    0.4455929529E+00    0.4743685555E+00
    0.3500000000E+04    0.1050900996E+00    0.7194500528E-01    0.1467697302E-01    0.4553904638E+00    0.4773447683E+00
    0.3700000000E+04    0.1020595513E+00    0.7232973595E-01    0.1422624351E-01    0.4645593327E+00    0.4801023752E+00
    0.3900000000E+04    0.9921574540E-01    0.7268662737E-01    0.1380131690E-01    0.4731514759E+00    0.4826675945E+00
    0.4100000000E+04    0.9654377232E-01    0.7301890544E-01    0.1340036649E-01    0.4812135153E+00    0.4850623786E+00
    0.4300000000E+04    0.9403004395E-01    0.7332929119E-01    0.1302169633E-01    0.4887874679E+00    0.4873052757E+00
    0.4500000000E+04    0.9166218735E-01    0.7362009870E-01    0.1266373645E-01    0.4959113130E+00    0.4894120859E+00
    0.4700000000E+04    0.8942893918E-01    0.7389331066E-01    0.1232503627E-01    0.5026194672E+00    0.4913963685E+00
    0.4900000000E+04    0.8732004464E-01    0.7415063744E-01    0.1200425720E-01    0.5089431864E+00    0.4932698382E+00
    0.1000000000E+04    0.1658461954E+00    0.6090198207E-01    0.2318011096E-01    0.2583173282E+00    0.4005329133E+00
    0.3000000000E+04    0.1135943442E+00    0.7083401671E-01    0.1592985134E-01    0.4295890259E+00    0.4694233079E+00
    0.5000000000E+04    0.8630927777E-01    0.7427381556E-01    0.1185019846E-01    0.5119698720E+00    0.4941682531E+00
    0.7000000000E+04    0.7075713529E-01    0.7617873824E-01    0.9458094388E-02    0.5580113084E+00    0.5082126518E+00
    0.9000000000E+04    0.6089260003E-01    0.7742959115E-01    0.7928252438E-02    0.5862899806E+00    0.5176218681E+00
    0.1100000000E+05    0.5410463028E-01    0.7832974941E-01    0.6877827564E-02    0.6049642944E+00    0.5245129266E+00
    0.1300000000E+05    0.4913890726E-01    0.7901610347E-01    0.6115364081E-02    0.6180114702E+00    0.5298511886E+00
    0.1500000000E+05    0.4533324751E-01    0.7956080337E-01    0.5537299236E-02    0.6275410649E+00    0.5341500720E+00
    0.1700000000E+05    0.4230976577E-01    0.8000598689E-01    0.5083650248E-02    0.6347531626E+00    0.5377118562E+00
    0.1900000000E+05    0.3983862155E-01    0.8037813765E-01    0.4717617874E-02    0.6403713024E+00    0.5407279331E+00
    0.2100000000E+05    0.3777248462E-01    0.8069484689E-01    0.4415510641E-02    0.6448533576E+00    0.5433263087E+00
    0.2300000000E+05    0.3601270151E-01    0.8096831570E-01    0.4161443904E-02    0.6485011191E+00    0.5455963434E+00
    0.2500000000E+05    0.3449074603E-01    0.8120730640E-01    0.3944394010E-02    0.6515204917E+00    0.5476026073E+00
    0.2700000000E+05    0.3315751461E-01    0.8141829457E-01    0.3756481791E-02    0.6540561765E+00    0.5493931000E+00
    0.2900000000E+05    0.3197687088E-01    0.8160618209E-01    0.3591930412E-02    0.6562124974E+00    0.5510043606E+00
    0.3100000000E+05    0.3092160177E-01    0.8177475611E-01    0.3446409571E-02    0.6580663624E+00    0.5524647718E+00
    0.3300000000E+05    0.2997079885E-01    0.8192699441E-01    0.3316609645E-02    0.6596755891E+00    0.5537967670E+00
    0.3500000000E+05    0.2910811254E-01    0.8206527450E-01    0.3199957394E-02    0.6610844022E+00    0.5550183483E+00
    0.3700000000E+05    0.2832055790E-01    0.8219152030E-01    0.3094421438E-02    0.6623271549E+00    0.5561441545E+00
    0.3900000000E+05    0.2759767885E-01    0.8230730732E-01    0.2998376208E-02    0.6634309025E+00    0.5571862306E+00
    0.4100000000E+05    0.2693095117E-01    0.8241393955E-01    0.2910504907E-02    0.6644172195E+00    0.5581545918E+00
    0.4300000000E+05    0.2631334824E-01    0.8251250655E-01    0.2829729048E-02    0.6653035041E+00    0.5590576446E+00
    0.4500000000E+05    0.2573901973E-01    0.8260392661E-01    0.2755156472E-02    0.6661039303E+00    0.5599025052E+00
    0.4700000000E+05    0.2520305040E-01    0.8268897974E-01    0.2686042421E-02    0.6668301537E+00    0.5606952439E+00
    0.4900000000E+05    0.2470127650E-01    0.8276833319E-01    0.2621760011E-02    0.6674918409E+00    0.5614410760E+00
    0.1000000000E+05    0.5721190543E-01    0.7791277631E-01    0.7357926842E-02    0.5965181265E+00    0.5213066921E+00
    0.3000000000E+05    0.3143499528E-01    0.8169268103E-01    0.3517018080E-02    0.6571732510E+00    0.5517519013E+00
    0.5000000000E+05    0.2446208165E-01    0.8280605524E-01    0.2591261310E-02    0.6678010616E+00    0.5617978352E+00
    0.7000000000E+05    0.2083187295E-01    0.8336633173E-01    0.2140031342E-02    0.6720033934E+00    0.5673011865E+00
    0.9000000000E+05    0.1849838028E-01    0.8370800822E-01    0.1861618219E-02    0.6742269570E+00    0.5709150499E+00
    0.1100000000E+06    0.1683056153E-01    0.8393880014E-01    0.1668176409E-02    0.6755965281E+00    0.5735278585E+00
    0.1300000000E+06    0.1555929736E-01    0.8410496841E-01    0.1523793083E-02    0.6765227873E+00    0.5755339709E+00
    0.1500000000E+06    0.1454736451E-01    0.8422994581E-01    0.1410733952E-02    0.6771902241E+00    0.5771391200E+00
    0.1700000000E+06    0.1371628076E-01    0.8432696493E-01    0.1319108408E-02    0.6776936983E+00    0.5784626784E+00
    0.1900000000E+06    0.1301739643E-01    0.8440410087E-01    0.1242909097E-02    0.6780868710E+00    0.5795793649E+00
    0.2100000000E+06    0.1241869645E-01    0.8446657723E-01    0.1178248950E-02    0.6784023404E+00    0.5805386904E+00
    0.2300000000E+06    0.1189811518E-01    0.8451793047E-01    0.1122486886E-02    0.6786610353E+00    0.5813749535E+00
    0.2500000000E+06    0.1143987280E-01    0.8456064398E-01    0.1073757241E-02    0.6788770003E+00    0.5821127782E+00
    0.2700000000E+06    0.1103233932E-01    0.8459651487E-01    0.1030699625E-02    0.6790600073E+00    0.5827703688E+00
    0.2900000000E+06    0.1066672532E-01    0.8462687675E-01    0.9922955788E-03    0.6792170632E+00    0.5833615176E+00
    0.3100000000E+06    0.1033624551E-01    0.8465274060E-01    0.9577654523E-03    0.6793533225E+00    0.5838968940E+00
    0.3300000000E+06    0.1003556545E-01    0.8467488704E-01    0.9265009188E-03    0.6794726605E+00    0.5843849007E+00
    0.3500000000E+06    0.9760424538E-02    0.8469392852E-01    0.8980194251E-03    0.6795780468E+00    0.5848322590E+00
    0.3700000000E+06    0.9507372448E-02    0.8471035229E-01    0.8719326202E-03    0.6796717948E+00    0.5852444192E+00
    0.3900000000E+06    0.9273580678E-02    0.8472455088E-01    0.8479239600E-03    0.6797557338E+00    0.5856258545E+00
    0.4100000000E+06    0.9056705144E-02    0.8473684397E-01    0.8257324943E-03    0.6798313286E+00    0.5859802761E+00
    0.4300000000E+06    0.8854784216E-02    0.8474749452E-01    0.8051409138E-03    0.6798997666E+00    0.5863107925E+00
    0.4500000000E+06    0.8666161859E-02    0.8475672076E-01    0.7859665961E-03    0.6799620199E+00    0.5866200305E+00
    0.4700000000E+06    0.8489428878E-02    0.8476470529E-01    0.7680547985E-03    0.6800188923E+00    0.5869102270E+00
    0.4900000000E+06    0.8323377433E-02    0.8477160198E-01    0.7512734164E-03    0.6800710540E+00    0.5871833009E+00
    0.1000000000E+06    0.1760258915E-01    0.8383359553E-01    0.1757149256E-02    0.6749847578E+00    0.5723155682E+00
    0.3000000000E+06    0.1049745596E-01    0.8464031759E-01    0.9745876943E-03    0.6792875254E+00    0.5836356070E+00
    0.5000000000E+06    0.8244025964E-02    0.8477468398E-01    0.7432705140E-03    0.6800955480E+00    0.5873139436E+00
    0.7000000000E+06    0.7026419705E-02    0.8480245973E-01    0.6218375036E-03    0.6804371300E+00    0.5893324907E+00
    0.9000000000E+06    0.6233834003E-02    0.8479691681E-01    0.5442313401E-03    0.6806260726E+00    0.5906639987E+00
    0.1100000000E+07    0.5664618600E-02    0.8477831108E-01    0.4892443703E-03    0.6807461978E+00    0.5916316993E+00
    0.1300000000E+07    0.5229996593E-02    0.8475415088E-01    0.4477057229E-03    0.6808294179E+00    0.5923786599E+00
    0.1500000000E+07    0.4883919267E-02    0.8472769786E-01    0.4149210229E-03    0.6808905391E+00    0.5929794565E+00
    0.1700000000E+07    0.4599786229E-02    0.8470050910E-01    0.3882068816E-03    0.6809373728E+00    0.5934773698E+00
    0.1900000000E+07    0.4361008075E-02    0.8467336952E-01    0.3659043243E-03    0.6809744314E+00    0.5938995124E+00
    0.2100000000E+07    0.4156626434E-02    0.8464668375E-01    0.3469256264E-03    0.6810045052E+00    0.5942638707E+00
    0.2300000000E+07    0.3979070669E-02    0.8462065781E-01    0.3305242020E-03    0.6810294125E+00    0.5945829222E+00
    0.2500000000E+07    0.3822918963E-02    0.8459538961E-01    0.3161684524E-03    0.6810503895E+00    0.5948656383E+00
    0.2700000000E+07    0.3684172009E-02    0.8457091668E-01    0.3034682838E-03    0.6810683062E+00    0.5951186624E+00
    0.2900000000E+07    0.3559806038E-02    0.8454724237E-01    0.2921301446E-03    0.6810837928E+00    0.5953470361E+00
    0.3100000000E+07    0.3447486437E-02    0.8452435082E-01    0.2819283646E-03    0.6810973170E+00    0.5955546659E+00
    0.3300000000E+07    0.3345377910E-02    0.8450221560E-01    0.2726862449E-03    0.6811092334E+00    0.5957446340E+00
    0.3500000000E+07    0.3252014922E-02    0.8448080490E-01    0.2642632072E-03    0.6811198157E+00    0.5959194098E+00
    0.3700000000E+07    0.3166211013E-02    0.8446008458E-01    0.2565458357E-03    0.6811292787E+00    0.5960809993E+00
    0.3900000000E+07    0.3086993920E-02    0.8444002002E-01    0.2494414902E-03    0.6811377930E+00    0.5962310516E+00
    0.4100000000E+07    0.3013558241E-02    0.8442057723E-01    0.2428736627E-03    0.6811454964E+00    0.5963709373E+00
    0.4300000000E+07    0.2945230292E-02    0.8440172341E-01    0.2367785413E-03    0.6811525009E+00    0.5965018062E+00
    0.4500000000E+07    0.2881441612E-02    0.8438342735E-01    0.2311024279E-03    0.6811588988E+00    0.5966246317E+00
    0.4700000000E+07    0.2821708719E-02    0.8436565956E-01    0.2257997690E-03    0.6811647667E+00    0.5967402439E+00
    0.4900000000E+07    0.2765617418E-02    0.8434839230E-01    0.2208316360E-03    0.6811701688E+00    0.5968493562E+00
    0.1000000000E+07    0.5928300051E-02    0.8478862743E-01    0.5146359636E-03    0.6806921398E+00    0.5911820678E+00
    0.3000000000E+07    0.3502265101E-02    0.8453570023E-01    0.2868992274E-03    0.6810907758E+00    0.5954532349E+00
    0.5000000000E+07    0.2738823800E-02    0.8433993818E-01    0.2184623653E-03    0.6811727125E+00    0.5969016710E+00
    0.7000000000E+07    0.2328610313E-02    0.8419168209E-01    0.1825202595E-03    0.6812087164E+00    0.5977204777E+00
    0.9000000000E+07    0.2062563753E-02    0.8407267208E-01    0.1595707242E-03    0.6812291659E+00    0.5982733989E+00
    0.1100000000E+08    0.1871995946E-02    0.8397321185E-01    0.1433268387E-03    0.6812424426E+00    0.5986831866E+00
    0.1300000000E+08    0.1726778316E-02    0.8388771789E-01    0.1310675609E-03    0.6812518053E+00    0.5990048867E+00
    0.1500000000E+08    0.1611328122E-02    0.8381270154E-01    0.1214001389E-03    0.6812587905E+00    0.5992675228E+00
    0.1700000000E+08    0.1516664751E-02    0.8374584030E-01    0.1135287701E-03    0.6812642193E+00    0.5994881122E+00
    0.1900000000E+08    0.1437198160E-02    0.8368551025E-01    0.1069617169E-03    0.6812685714E+00    0.5996774151E+00
    0.2100000000E+08    0.1369241748E-02    0.8363053112E-01    0.1013767467E-03    0.6812721465E+00    0.5998426313E+00
    0.2300000000E+08    0.1310252155E-02    0.8358001781E-01    0.9655281160E-04    0.6812751414E+00    0.5999887953E+00
    0.2500000000E+08    0.1258410124E-02    0.8353328933E-01    0.9233260178E-04    0.6812776911E+00    0.6001195539E+00
    0.2700000000E+08    0.1212375149E-02    0.8348981036E-01    0.8860074109E-04    0.6812798914E+00    0.6002376266E+00
