  Pressure (Pa) 2mC6-400 (mol/kg) 3mC6-400 (mol/kg) 33mC5-400 (mol/kg) 23mC5-400 (mol/kg) C7-400 (mol/kg)
    0.1000000000E+01    0.2373896783E-02    0.2619127583E-02    0.1288707009E-03    0.5594620493E-03    0.6800318612E-02
    0.3000000000E+01    0.6909137877E-02    0.7602186749E-02    0.3751718713E-03    0.1667513369E-02    0.1974142633E-01
    0.5000000000E+01    0.1118337523E-01    0.1227239796E-01    0.6074289796E-03    0.2761370358E-02    0.3187390540E-01
    0.7000000000E+01    0.1522050910E-01    0.1665904168E-01    0.8269321972E-03    0.3841385321E-02    0.4327332487E-01
    0.9000000000E+01    0.1904150797E-01    0.2078783330E-01    0.1034812984E-02    0.4907898549E-02    0.5400605982E-01
    0.1100000000E+02    0.2266484770E-01    0.2468145067E-01    0.1232067903E-02    0.5961238827E-02    0.6413065100E-01
    0.1300000000E+02    0.2610687407E-01    0.2835997055E-01    0.1419578276E-02    0.7001723927E-02    0.7369893005E-01
    0.1500000000E+02    0.2938210386E-01    0.3184123190E-01    0.1598126505E-02    0.8029661069E-02    0.8275695606E-01
    0.1700000000E+02    0.3250347627E-01    0.3514113984E-01    0.1768409695E-02    0.9045347362E-02    0.9134579937E-01
    0.1900000000E+02    0.3548256395E-01    0.3827392143E-01    0.1931051091E-02    0.1004907022E-01    0.9950220090E-01
    0.2100000000E+02    0.3832975102E-01    0.4125234180E-01    0.2086609717E-02    0.1104110778E-01    0.1072591296E+00
    0.2300000000E+02    0.4105438387E-01    0.4408788771E-01    0.2235588548E-02    0.1202172922E-01    0.1146462557E+00
    0.2500000000E+02    0.4366489965E-01    0.4679092411E-01    0.2378441458E-02    0.1299119520E-01    0.1216903546E+00
    0.2700000000E+02    0.4616893593E-01    0.4937082820E-01    0.2515579166E-02    0.1394975816E-01    0.1284156524E+00
    0.2900000000E+02    0.4857342495E-01    0.5183610472E-01    0.2647374325E-02    0.1489766263E-01    0.1348441237E+00
    0.3100000000E+02    0.5088467470E-01    0.5419448544E-01    0.2774165917E-02    0.1583514557E-01    0.1409957476E+00
    0.3300000000E+02    0.5310843907E-01    0.5645301528E-01    0.2896263046E-02    0.1676243666E-01    0.1468887304E+00
    0.3500000000E+02    0.5524997872E-01    0.5861812721E-01    0.3013948223E-02    0.1767975858E-01    0.1525396986E+00
    0.3700000000E+02    0.5731411399E-01    0.6069570753E-01    0.3127480233E-02    0.1858732728E-01    0.1579638671E+00
    0.3900000000E+02    0.5930527116E-01    0.6269115291E-01    0.3237096630E-02    0.1948535220E-01    0.1631751870E+00
    0.4100000000E+02    0.6122752293E-01    0.6460942050E-01    0.3343015929E-02    0.2037403660E-01    0.1681864740E+00
    0.4300000000E+02    0.6308462401E-01    0.6645507192E-01    0.3445439522E-02    0.2125357771E-01    0.1730095228E+00
    0.4500000000E+02    0.6488004237E-01    0.6823231214E-01    0.3544553372E-02    0.2212416698E-01    0.1776552069E+00
    0.4700000000E+02    0.6661698697E-01    0.6994502379E-01    0.3640529506E-02    0.2298599032E-01    0.1821335672E+00
    0.4900000000E+02    0.6829843220E-01    0.7159679762E-01    0.3733527332E-02    0.2383922826E-01    0.1864538908E+00
    0.1000000000E+02    0.2087681749E-01    0.2276272758E-01    0.1134711099E-02    0.5436195193E-02    0.5914098846E-01
    0.3000000000E+02    0.4974033288E-01    0.5302820158E-01    0.2711375588E-02    0.1536769227E-01    0.1379533645E+00
    0.5000000000E+02    0.6911921330E-01    0.7240088186E-01    0.3778956037E-02    0.2426268271E-01    0.1885575023E+00
    0.7000000000E+02    0.8319735106E-01    0.8597338885E-01    0.4562029288E-02    0.3232119951E-01    0.2241181135E+00
    0.9000000000E+02    0.9393324639E-01    0.9607438499E-01    0.5165445291E-02    0.3969307626E-01    0.2506611787E+00
    0.1100000000E+03    0.1023882510E+00    0.1039236338E+00    0.5645937995E-02    0.4649294843E-01    0.2713463461E+00
    0.1300000000E+03    0.1091988052E+00    0.1102238617E+00    0.6037510295E-02    0.5281014986E-01    0.2879957711E+00
    0.1500000000E+03    0.1147755470E+00    0.1154095616E+00    0.6362108123E-02    0.5871542814E-01    0.3017372062E+00
    0.1700000000E+03    0.1193983423E+00    0.1197644611E+00    0.6634703034E-02    0.6426561485E-01    0.3133078083E+00
    0.1900000000E+03    0.1232661357E+00    0.1234820783E+00    0.6865953405E-02    0.6950694468E-01    0.3232108524E+00
    0.2100000000E+03    0.1265251184E+00    0.1266991756E+00    0.7063705948E-02    0.7447746038E-01    0.3318023555E+00
    0.2300000000E+03    0.1292856218E+00    0.1295153020E+00    0.7233895399E-02    0.7920878558E-01    0.3393417109E+00
    0.2500000000E+03    0.1316327566E+00    0.1320047494E+00    0.7381110739E-02    0.8372745202E-01    0.3460226849E+00
    0.2700000000E+03    0.1336333870E+00    0.1342241574E+00    0.7508966351E-02    0.8805590743E-01    0.3519931430E+00
    0.2900000000E+03    0.1353408607E+00    0.1362175127E+00    0.7620353742E-02    0.9221329051E-01    0.3573680266E+00
    0.3100000000E+03    0.1367983098E+00    0.1380195322E+00    0.7717617272E-02    0.9621603404E-01    0.3622381381E+00
    0.3300000000E+03    0.1380410104E+00    0.1396580088E+00    0.7802679882E-02    0.1000783391E+00    0.3666762379E+00
    0.3500000000E+03    0.1390981068E+00    0.1411554756E+00    0.7877135003E-02    0.1038125516E+00    0.3707413697E+00
    0.3700000000E+03    0.1399938934E+00    0.1425304085E+00    0.7942314976E-02    0.1074294646E+00    0.3744819906E+00
    0.3900000000E+03    0.1407487841E+00    0.1437981115E+00    0.7999342847E-02    0.1109385617E+00    0.3779382742E+00
    0.4100000000E+03    0.1413800559E+00    0.1449713778E+00    0.8049172119E-02    0.1143482162E+00    0.3811438333E+00
    0.4300000000E+03    0.1419024258E+00    0.1460609914E+00    0.8092617679E-02    0.1176658540E+00    0.3841270267E+00
    0.4500000000E+03    0.1423285044E+00    0.1470761118E+00    0.8130380111E-02    0.1208980885E+00    0.3869119623E+00
    0.4700000000E+03    0.1426691561E+00    0.1480245730E+00    0.8163065035E-02    0.1240508322E+00    0.3895192773E+00
    0.4900000000E+03    0.1429337873E+00    0.1489131185E+00    0.8191198607E-02    0.1271293910E+00    0.3919667511E+00
    0.1000000000E+03    0.9839919202E-01    0.1002282823E+00    0.5418563724E-02    0.4315842740E-01    0.2616006986E+00
    0.3000000000E+03    0.1360984722E+00    0.1371405623E+00    0.7670622141E-02    0.9423305718E-01    0.3598612661E+00
    0.5000000000E+03    0.1430401942E+00    0.1493367786E+00    0.8203704472E-02    0.1286423627E+00    0.3931354439E+00
    0.7000000000E+03    0.1426912173E+00    0.1557412704E+00    0.8300463974E-02    0.1559498175E+00    0.4109637971E+00
    0.9000000000E+03    0.1398292106E+00    0.1597830994E+00    0.8232294008E-02    0.1792434226E+00    0.4224165332E+00
    0.1100000000E+04    0.1359943503E+00    0.1626039121E+00    0.8090693733E-02    0.1998878806E+00    0.4305394692E+00
    0.1300000000E+04    0.1317987767E+00    0.1647024082E+00    0.7914067876E-02    0.2186043311E+00    0.4366733825E+00
    0.1500000000E+04    0.1275165974E+00    0.1663341894E+00    0.7720833265E-02    0.2358213244E+00    0.4415103772E+00
    0.1700000000E+04    0.1232792491E+00    0.1676449970E+00    0.7520642863E-02    0.2518158714E+00    0.4454477284E+00
    0.1900000000E+04    0.1191516302E+00    0.1687245451E+00    0.7318875497E-02    0.2667788349E+00    0.4487315410E+00
    0.2100000000E+04    0.1151653379E+00    0.1696313472E+00    0.7118654124E-02    0.2808485461E+00    0.4515233063E+00
    0.2300000000E+04    0.1113344477E+00    0.1704053361E+00    0.6921836181E-02    0.2941294965E+00    0.4539338788E+00
    0.2500000000E+04    0.1076634991E+00    0.1710747772E+00    0.6729534035E-02    0.3067033868E+00    0.4560421667E+00
    0.2700000000E+04    0.1041517439E+00    0.1716602872E+00    0.6542404082E-02    0.3186359906E+00    0.4579060413E+00
    0.2900000000E+04    0.1007954962E+00    0.1721772872E+00    0.6360814836E-02    0.3299815922E+00    0.4595690208E+00
    0.3100000000E+04    0.9758947193E-01    0.1726375620E+00    0.6184948524E-02    0.3407859558E+00    0.4610645344E+00
    0.3300000000E+04    0.9452757014E-01    0.1730502847E+00    0.6014864543E-02    0.3510883696E+00    0.4624187359E+00
    0.3500000000E+04    0.9160333585E-01    0.1734227114E+00    0.5850540246E-02    0.3609230884E+00    0.4636524158E+00
    0.3700000000E+04    0.8881023584E-01    0.1737606629E+00    0.5691897816E-02    0.3703203737E+00    0.4647823344E+00
    0.3900000000E+04    0.8614182309E-01    0.1740688675E+00    0.5538822363E-02    0.3793072596E+00    0.4658221711E+00
    0.4100000000E+04    0.8359183307E-01    0.1743512087E+00    0.5391174344E-02    0.3879081252E+00    0.4667832154E+00
    0.4300000000E+04    0.8115423822E-01    0.1746109088E+00    0.5248798227E-02    0.3961451306E+00    0.4676748765E+00
    0.4500000000E+04    0.7882327621E-01    0.1748506648E+00    0.5111528616E-02    0.4040385544E+00    0.4685050677E+00
    0.4700000000E+04    0.7659346202E-01    0.1750727533E+00    0.4979194631E-02    0.4116070574E+00    0.4692804975E+00
    0.4900000000E+04    0.7445958974E-01    0.1752791101E+00    0.4851623067E-02    0.4188678930E+00    0.4700068962E+00
    0.1000000000E+04    0.1379834327E+00    0.1613067182E+00    0.8167589260E-02    0.1898423383E+00    0.4267884706E+00
    0.3000000000E+04    0.9917407489E-01    0.1724138901E+00    0.6272160284E-02    0.3354488407E+00    0.4603359316E+00
    0.5000000000E+04    0.7342708028E-01    0.1753769165E+00    0.4789569008E-02    0.4223879848E+00    0.4703532758E+00
    0.7000000000E+04    0.5675357144E-01    0.1768072895E+00    0.3757922261E-02    0.4799998878E+00    0.4756062333E+00
    0.9000000000E+04    0.4551696752E-01    0.1776586180E+00    0.3030525819E-02    0.5198676270E+00    0.4789612990E+00
    0.1100000000E+05    0.3764615156E-01    0.1782245914E+00    0.2504735537E-02    0.5484382118E+00    0.4813394172E+00
    0.1300000000E+05    0.3193763290E-01    0.1786276751E+00    0.2114557037E-02    0.5695557302E+00    0.4831383140E+00
    0.1500000000E+05    0.2766853694E-01    0.1789285643E+00    0.1817745967E-02    0.5855959829E+00    0.4845611384E+00
    0.1700000000E+05    0.2438950224E-01    0.1791609543E+00    0.1586837885E-02    0.5980739784E+00    0.4857237171E+00
    0.1900000000E+05    0.2181179337E-01    0.1793451240E+00    0.1403579623E-02    0.6079849485E+00    0.4866974692E+00
    0.2100000000E+05    0.1974408493E-01    0.1794940407E+00    0.1255550408E-02    0.6160011689E+00    0.4875291029E+00
    0.2300000000E+05    0.1805598569E-01    0.1796163977E+00    0.1134100933E-02    0.6225885965E+00    0.4882506046E+00
    0.2500000000E+05    0.1665634497E-01    0.1797182481E+00    0.1033075941E-02    0.6280778549E+00    0.4888847046E+00
    0.2700000000E+05    0.1547996800E-01    0.1798039404E+00    0.9480062893E-03    0.6327085837E+00    0.4894480549E+00
    0.2900000000E+05    0.1447925402E-01    0.1798766804E+00    0.8755869082E-03    0.6366578493E+00    0.4899531696E+00
    0.3100000000E+05    0.1361879694E-01    0.1799388847E+00    0.8133322971E-03    0.6400587780E+00    0.4904096590E+00
    0.3300000000E+05    0.1287181594E-01    0.1799924096E+00    0.7593445345E-03    0.6430130477E+00    0.4908250418E+00
    0.3500000000E+05    0.1221774441E-01    0.1800387048E+00    0.7121540577E-03    0.6455994339E+00    0.4912052969E+00
    0.3700000000E+05    0.1164056879E-01    0.1800789190E+00    0.6706084265E-03    0.6478797655E+00    0.4915552464E+00
    0.3900000000E+05    0.1112766298E-01    0.1801139743E+00    0.6337933180E-03    0.6499031485E+00    0.4918788288E+00
    0.4100000000E+05    0.1066895694E-01    0.1801446189E+00    0.6009755487E-03    0.6517090084E+00    0.4921792968E+00
    0.4300000000E+05    0.1025633427E-01    0.1801714665E+00    0.5715613949E-03    0.6533293142E+00    0.4924593642E+00
    0.4500000000E+05    0.9883189652E-02    0.1801950251E+00    0.5450657015E-03    0.6547902264E+00    0.4927213154E+00
    0.4700000000E+05    0.9544099419E-02    0.1802157185E+00    0.5210887058E-03    0.6561133330E+00    0.4929670896E+00
    0.4900000000E+05    0.9234573325E-02    0.1802339032E+00    0.4992984503E-03    0.6573165882E+00    0.4931983446E+00
    0.1000000000E+05    0.4125068742E-01    0.1779674971E+00    0.2747245136E-02    0.5352806305E+00    0.4802409961E+00
    0.3000000000E+05    0.1403333662E-01    0.1799089725E+00    0.8433192493E-03    0.6384198793E+00    0.4901869810E+00
    0.5000000000E+05    0.9089701373E-02    0.1802421509E+00    0.4891347691E-03    0.6578780690E+00    0.4933089813E+00
    0.7000000000E+05    0.7095035670E-02    0.1803289747E+00    0.3523933131E-03    0.6654378133E+00    0.4950207239E+00
    0.9000000000E+05    0.5998643949E-02    0.1803384255E+00    0.2810887076E-03    0.6693620142E+00    0.4961561484E+00
    0.1100000000E+06    0.5291794677E-02    0.1803167539E+00    0.2373566345E-03    0.6717416650E+00    0.4969874843E+00
    0.1300000000E+06    0.4790430538E-02    0.1802811274E+00    0.2076911238E-03    0.6733312980E+00    0.4976342860E+00
    0.1500000000E+06    0.4411781496E-02    0.1802390743E+00    0.1861471603E-03    0.6744655228E+00    0.4981586582E+00
    0.1700000000E+06    0.4112936707E-02    0.1801942521E+00    0.1697164836E-03    0.6753143435E+00    0.4985966024E+00
    0.1900000000E+06    0.3869302394E-02    0.1801485564E+00    0.1567175927E-03    0.6759729138E+00    0.4989706761E+00
    0.2100000000E+06    0.3665693596E-02    0.1801030078E+00    0.1461376955E-03    0.6764985005E+00    0.4992958596E+00
    0.2300000000E+06    0.3492181278E-02    0.1800581635E+00    0.1373302513E-03    0.6769275708E+00    0.4995825615E+00
    0.2500000000E+06    0.3341971146E-02    0.1800143239E+00    0.1298628660E-03    0.6772844203E+00    0.4998382804E+00
    0.2700000000E+06    0.3210239322E-02    0.1799716423E+00    0.1234351438E-03    0.6775858455E+00    0.5000685814E+00
    0.2900000000E+06    0.3093454912E-02    0.1799301857E+00    0.1178316716E-03    0.6778438226E+00    0.5002776975E+00
    0.3100000000E+06    0.2988966449E-02    0.1798899698E+00    0.1128937834E-03    0.6780671166E+00    0.5004689173E+00
    0.3300000000E+06    0.2894739034E-02    0.1798509802E+00    0.1085019023E-03    0.6782622880E+00    0.5006448416E+00
    0.3500000000E+06    0.2809181412E-02    0.1798131847E+00    0.1045641053E-03    0.6784343432E+00    0.5008075598E+00
    0.3700000000E+06    0.2731028819E-02    0.1797765412E+00    0.1010084942E-03    0.6785871683E+00    0.5009587734E+00
    0.3900000000E+06    0.2659261520E-02    0.1797410025E+00    0.9777796998E-04    0.6787238254E+00    0.5010998851E+00
    0.4100000000E+06    0.2593046893E-02    0.1797065196E+00    0.9482656968E-04    0.6788467596E+00    0.5012320635E+00
    0.4300000000E+06    0.2531697412E-02    0.1796730429E+00    0.9211684568E-04    0.6789579469E+00    0.5013562917E+00
    0.4500000000E+06    0.2474639614E-02    0.1796405242E+00    0.8961795609E-04    0.6790590014E+00    0.5014734039E+00
    0.4700000000E+06    0.2421390825E-02    0.1796089167E+00    0.8730425023E-04    0.6791512541E+00    0.5015841135E+00
    0.4900000000E+06    0.2371541435E-02    0.1795781759E+00    0.8515420508E-04    0.6792358131E+00    0.5016890352E+00
    0.1000000000E+06    0.5611654404E-02    0.1803300661E+00    0.2568917173E-03    0.6706827234E+00    0.4966004082E+00
    0.3000000000E+06    0.3039812957E-02    0.1799099230E+00    0.1152877621E-03    0.6779593522E+00    0.5003753682E+00
    0.5000000000E+06    0.2347780062E-02    0.1795631171E+00    0.8413475453E-04    0.6792755037E+00    0.5017394948E+00
    0.7000000000E+06    0.1987617402E-02    0.1792983899E+00    0.6909937661E-04    0.6798282216E+00    0.5025435152E+00
    0.9000000000E+06    0.1757054540E-02    0.1790852851E+00    0.5987026977E-04    0.6801338320E+00    0.5031037208E+00
    0.1100000000E+07    0.1593026046E-02    0.1789069395E+00    0.5348389108E-04    0.6803284791E+00    0.5035294430E+00
    0.1300000000E+07    0.1468541569E-02    0.1787535126E+00    0.4873366923E-04    0.6804636915E+00    0.5038706973E+00
    0.1500000000E+07    0.1369837768E-02    0.1786188175E+00    0.4502527341E-04    0.6805633088E+00    0.5041543112E+00
    0.1700000000E+07    0.1289054504E-02    0.1784987203E+00    0.4202794037E-04    0.6806398918E+00    0.5043962537E+00
    0.1900000000E+07    0.1221329862E-02    0.1783903243E+00    0.3954117048E-04    0.6807006944E+00    0.5046067592E+00
    0.2100000000E+07    0.1163472045E-02    0.1782915209E+00    0.3743547770E-04    0.6807502025E+00    0.5047927596E+00
    0.2300000000E+07    0.1113286619E-02    0.1782007270E+00    0.3562304410E-04    0.6807913416E+00    0.5049591564E+00
    0.2500000000E+07    0.1069208097E-02    0.1781167237E+00    0.3404194405E-04    0.6808261020E+00    0.5051095366E+00
    0.2700000000E+07    0.1030085405E-02    0.1780385521E+00    0.3264709924E-04    0.6808558861E+00    0.5052466006E+00
    0.2900000000E+07    0.9950505619E-03    0.1779654443E+00    0.3140481567E-04    0.6808817107E+00    0.5053724293E+00
    0.3100000000E+07    0.9634349271E-03    0.1778967755E+00    0.3028933935E-04    0.6809043316E+00    0.5054886591E+00
    0.3300000000E+07    0.9347138888E-03    0.1778320305E+00    0.2928060465E-04    0.6809243225E+00    0.5055965983E+00
    0.3500000000E+07    0.9084692376E-03    0.1777707793E+00    0.2836271652E-04    0.6809421266E+00    0.5056973092E+00
    0.3700000000E+07    0.8843629057E-03    0.1777126594E+00    0.2752289960E-04    0.6809580924E+00    0.5057916654E+00
    0.3900000000E+07    0.8621182222E-03    0.1776573624E+00    0.2675075370E-04    0.6809724973E+00    0.5058803933E+00
    0.4100000000E+07    0.8415062670E-03    0.1776046232E+00    0.2603771533E-04    0.6809855651E+00    0.5059641037E+00
    0.4300000000E+07    0.8223357600E-03    0.1775542130E+00    0.2537666119E-04    0.6809974786E+00    0.5060433144E+00
    0.4500000000E+07    0.8044454516E-03    0.1775059323E+00    0.2476161142E-04    0.6810083881E+00    0.5061184681E+00
    0.4700000000E+07    0.7876983140E-03    0.1774596065E+00    0.2418750427E-04    0.6810184189E+00    0.5061899466E+00
    0.4900000000E+07    0.7719770504E-03    0.1774150815E+00    0.2365002273E-04    0.6810276761E+00    0.5062580805E+00
    0.1000000000E+07    0.1668861887E-02    0.1789924952E+00    0.5641834768E-04    0.6802408276E+00    0.5033294896E+00
    0.3000000000E+07    0.9788509989E-03    0.1779305895E+00    0.3083259346E-04    0.6808933822E+00    0.5054316557E+00
    0.5000000000E+07    0.7644689809E-03    0.1773934511E+00    0.2339383728E-04    0.6810320428E+00    0.5062909850E+00
    0.7000000000E+07    0.6496441405E-03    0.1770291886E+00    0.1951752275E-04    0.6810945006E+00    0.5068276125E+00
    0.9000000000E+07    0.5752873362E-03    0.1767526938E+00    0.1705129360E-04    0.6811306845E+00    0.5072157073E+00
    0.1100000000E+08    0.5220739283E-03    0.1765295712E+00    0.1530925808E-04    0.6811545680E+00    0.5075187226E+00
    0.1300000000E+08    0.4815480143E-03    0.1763424114E+00    0.1399628516E-04    0.6811716512E+00    0.5077667619E+00
    0.1500000000E+08    0.4493428019E-03    0.1761811596E+00    0.1296185541E-04    0.6811845553E+00    0.5079764291E+00
    0.1700000000E+08    0.4229443073E-03    0.1760394743E+00    0.1212017420E-04    0.6811946949E+00    0.5081578327E+00
    0.1900000000E+08    0.4007889197E-03    0.1759130959E+00    0.1141832206E-04    0.6812029039E+00    0.5083175746E+00
    0.2100000000E+08    0.3818460762E-03    0.1757990231E+00    0.1082166817E-04    0.6812097072E+00    0.5084601991E+00
    0.2300000000E+08    0.3654051450E-03    0.1756950608E+00    0.1030648137E-04    0.6812154527E+00    0.5085889649E+00
    0.2500000000E+08    0.3509580164E-03    0.1755995549E+00    0.9855887770E-05    0.6812203803E+00    0.5087062867E+00
    0.2700000000E+08    0.3381304171E-03    0.1755112273E+00    0.9457520225E-05    0.6812246614E+00    0.5088140028E+00
