  Pressure (Pa) 2mC6-400 (mol/kg) 3mC6-400 (mol/kg) 33mC5-400 (mol/kg) 23mC5-400 (mol/kg) C7-400 (mol/kg)
    0.1000000000E+01    0.2381362940E-02    0.5256427423E-02    0.2585440917E-03    0.1865658031E-03    0.1705948390E-02
    0.3000000000E+01    0.6972447434E-02    0.1535840696E-01    0.7571481069E-03    0.5565332625E-03    0.4985105970E-02
    0.5000000000E+01    0.1134938693E-01    0.2494851806E-01    0.1232695227E-02    0.9223598882E-03    0.8098880525E-02
    0.7000000000E+01    0.1552823106E-01    0.3406602316E-01    0.1686918335E-02    0.1284136795E-02    0.1105993921E-01
    0.9000000000E+01    0.1952340796E-01    0.4274623717E-01    0.2121374788E-02    0.1641952319E-02    0.1387967652E-01
    0.1100000000E+02    0.2334792568E-01    0.5102101264E-01    0.2537468257E-02    0.1995892123E-02    0.1656837066E-01
    0.1300000000E+02    0.2701354434E-01    0.5891915498E-01    0.2936467391E-02    0.2346039304E-02    0.1913531734E-01
    0.1500000000E+02    0.3053092378E-01    0.6646677934E-01    0.3319521820E-02    0.2692474482E-02    0.2158894477E-01
    0.1700000000E+02    0.3390975071E-01    0.7368761836E-01    0.3687675935E-02    0.3035275902E-02    0.2393691289E-01
    0.1900000000E+02    0.3715884867E-01    0.8060328868E-01    0.4041880797E-02    0.3374519515E-02    0.2618619923E-01
    0.2100000000E+02    0.4028627324E-01    0.8723352230E-01    0.4383004463E-02    0.3710279068E-02    0.2834317350E-01
    0.2300000000E+02    0.4329939507E-01    0.9359636832E-01    0.4711840962E-02    0.4042626183E-02    0.3041366263E-01
    0.2500000000E+02    0.4620497218E-01    0.9970836916E-01    0.5029118140E-02    0.4371630435E-02    0.3240300754E-01
    0.2700000000E+02    0.4900921334E-01    0.1055847152E+00    0.5335504515E-02    0.4697359425E-02    0.3431611303E-01
    0.2900000000E+02    0.5171783373E-01    0.1112393805E+00    0.5631615299E-02    0.5019878851E-02    0.3615749156E-01
    0.3100000000E+02    0.5433610388E-01    0.1166852429E+00    0.5918017702E-02    0.5339252578E-02    0.3793130186E-01
    0.3300000000E+02    0.5686889291E-01    0.1219341895E+00    0.6195235605E-02    0.5655542700E-02    0.3964138309E-01
    0.3500000000E+02    0.5932070680E-01    0.1269972110E+00    0.6463753703E-02    0.5968809602E-02    0.4129128512E-01
    0.3700000000E+02    0.6169572230E-01    0.1318844845E+00    0.6724021172E-02    0.6279112023E-02    0.4288429533E-01
    0.3900000000E+02    0.6399781717E-01    0.1366054480E+00    0.6976454939E-02    0.6586507110E-02    0.4442346263E-01
    0.4100000000E+02    0.6623059702E-01    0.1411688668E+00    0.7221442581E-02    0.6891050472E-02    0.4591161876E-01
    0.4300000000E+02    0.6839741934E-01    0.1455828923E+00    0.7459344933E-02    0.7192796235E-02    0.4735139737E-01
    0.4500000000E+02    0.7050141507E-01    0.1498551152E+00    0.7690498404E-02    0.7491797089E-02    0.4874525120E-01
    0.4700000000E+02    0.7254550779E-01    0.1539926132E+00    0.7915217063E-02    0.7788104341E-02    0.5009546735E-01
    0.4900000000E+02    0.7453243114E-01    0.1580019939E+00    0.8133794515E-02    0.8081767956E-02    0.5140418119E-01
    0.1000000000E+02    0.2145623680E-01    0.4693243741E-01    0.2331634640E-02    0.1819401433E-02    0.1523980141E-01
    0.3000000000E+02    0.5303794933E-01    0.1139876471E+00    0.5775996341E-02    0.5179955006E-02    0.3705259567E-01
    0.5000000000E+02    0.7550526049E-01    0.1599605862E+00    0.8240866861E-02    0.8227623657E-02    0.5204360363E-01
    0.7000000000E+02    0.9250310799E-01    0.1937106364E+00    0.1011815005E-01    0.1101716085E-01    0.6307481381E-01
    0.9000000000E+02    0.1059002775E+00    0.2197067048E+00    0.1160837863E-01    0.1359072083E-01    0.7159104992E-01
    0.1100000000E+03    0.1167691312E+00    0.2404545048E+00    0.1282646954E-01    0.1598134112E-01    0.7840306081E-01
    0.1300000000E+03    0.1257773672E+00    0.2574719420E+00    0.1384392215E-01    0.1821532172E-01    0.8400236034E-01
    0.1500000000E+03    0.1333670566E+00    0.2717345498E+00    0.1470806512E-01    0.2031389013E-01    0.8870507806E-01
    0.1700000000E+03    0.1398451273E+00    0.2838992937E+00    0.1545176624E-01    0.2229439146E-01    0.9272427011E-01
    0.1900000000E+03    0.1454328410E+00    0.2944256956E+00    0.1609873386E-01    0.2417115543E-01    0.9620907265E-01
    0.2100000000E+03    0.1502946154E+00    0.3036454143E+00    0.1666660112E-01    0.2595613854E-01    0.9926720434E-01
    0.2300000000E+03    0.1545557069E+00    0.3118042243E+00    0.1716881641E-01    0.2765940714E-01    0.1019785485E+00
    0.2500000000E+03    0.1583135384E+00    0.3190884012E+00    0.1761585343E-01    0.2928950581E-01    0.1044036938E+00
    0.2700000000E+03    0.1616452236E+00    0.3256418941E+00    0.1801601464E-01    0.3085374172E-01    0.1065894956E+00
    0.2900000000E+03    0.1646127230E+00    0.3315778424E+00    0.1837598157E-01    0.3235840681E-01    0.1085728071E+00
    0.3100000000E+03    0.1672664707E+00    0.3369865031E+00    0.1870120196E-01    0.3380895309E-01    0.1103830489E+00
    0.3300000000E+03    0.1696479866E+00    0.3419408347E+00    0.1899616858E-01    0.3521013235E-01    0.1120440196E+00
    0.3500000000E+03    0.1717917944E+00    0.3465005101E+00    0.1926462402E-01    0.3656610845E-01    0.1135751978E+00
    0.3700000000E+03    0.1737268564E+00    0.3507148541E+00    0.1950971391E-01    0.3788054842E-01    0.1149926953E+00
    0.3900000000E+03    0.1754776628E+00    0.3546250277E+00    0.1973410336E-01    0.3915669678E-01    0.1163099664E+00
    0.4100000000E+03    0.1770650711E+00    0.3582656772E+00    0.1994006664E-01    0.4039743679E-01    0.1175383439E+00
    0.4300000000E+03    0.1785069597E+00    0.3616661958E+00    0.2012955719E-01    0.4160534109E-01    0.1186874484E+00
    0.4500000000E+03    0.1798187450E+00    0.3648516997E+00    0.2030426288E-01    0.4278271392E-01    0.1197655064E+00
    0.4700000000E+03    0.1810137914E+00    0.3678437928E+00    0.2046565004E-01    0.4393162659E-01    0.1207795985E+00
    0.4900000000E+03    0.1821037428E+00    0.3706611709E+00    0.2061499895E-01    0.4505394725E-01    0.1217358563E+00
    0.1000000000E+03    0.1116022366E+00    0.2306253632E+00    0.1224624628E-01    0.1480711907E-01    0.7517406002E-01
    0.3000000000E+03    0.1659760372E+00    0.3343431716E+00    0.1854263460E-01    0.3309013284E-01    0.1094979598E+00
    0.5000000000E+03    0.1826125432E+00    0.3720095100E+00    0.2068551545E-01    0.4560567013E-01    0.1221939933E+00
    0.7000000000E+03    0.1891800105E+00    0.3928307027E+00    0.2167509968E-01    0.5558048765E-01    0.1293150162E+00
    0.9000000000E+03    0.1917466982E+00    0.4064723254E+00    0.2218498942E-01    0.6412219090E-01    0.1340389940E+00
    0.1100000000E+04    0.1924105557E+00    0.4162836584E+00    0.2245415522E-01    0.7173667849E-01    0.1374742911E+00
    0.1300000000E+04    0.1920707974E+00    0.4237702357E+00    0.2258798273E-01    0.7869664413E-01    0.1401219985E+00
    0.1500000000E+04    0.1911669752E+00    0.4297217003E+00    0.2263964540E-01    0.8516600580E-01    0.1422463159E+00
    0.1700000000E+04    0.1899340486E+00    0.4345972166E+00    0.2263859284E-01    0.9125121077E-01    0.1440016185E+00
    0.1900000000E+04    0.1885059719E+00    0.4386843339E+00    0.2260229726E-01    0.9702548185E-01    0.1454850224E+00
    0.2100000000E+04    0.1869628620E+00    0.4421735032E+00    0.2254168936E-01    0.1025414787E+00    0.1467611263E+00
    0.2300000000E+04    0.1853543974E+00    0.4451965217E+00    0.2246390189E-01    0.1078384351E+00    0.1478748160E+00
    0.2500000000E+04    0.1837122262E+00    0.4478478750E+00    0.2237375166E-01    0.1129464336E+00    0.1488583946E+00
    0.2700000000E+04    0.1820569078E+00    0.4501972969E+00    0.2227458529E-01    0.1178890944E+00    0.1497357918E+00
    0.2900000000E+04    0.1804019708E+00    0.4522975219E+00    0.2216878410E-01    0.1226853377E+00    0.1505251682E+00
    0.3100000000E+04    0.1787563723E+00    0.4541892629E+00    0.2205807731E-01    0.1273505783E+00    0.1512405923E+00
    0.3300000000E+04    0.1771260358E+00    0.4559045165E+00    0.2194374264E-01    0.1318975600E+00    0.1518931576E+00
    0.3500000000E+04    0.1755148381E+00    0.4574688219E+00    0.2182673850E-01    0.1363369533E+00    0.1524917469E+00
    0.3700000000E+04    0.1739252565E+00    0.4589028435E+00    0.2170779325E-01    0.1406777926E+00    0.1530435699E+00
    0.3900000000E+04    0.1723588020E+00    0.4602235039E+00    0.2158746676E-01    0.1449278031E+00    0.1535545486E+00
    0.4100000000E+04    0.1708163139E+00    0.4614448109E+00    0.2146619365E-01    0.1490936482E+00    0.1540295994E+00
    0.4300000000E+04    0.1692981626E+00    0.4625784723E+00    0.2134431429E-01    0.1531811211E+00    0.1544728431E+00
    0.4500000000E+04    0.1678043919E+00    0.4636343585E+00    0.2122209721E-01    0.1571952940E+00    0.1548877637E+00
    0.4700000000E+04    0.1663348180E+00    0.4646208571E+00    0.2109975571E-01    0.1611406364E+00    0.1552773295E+00
    0.4900000000E+04    0.1648891018E+00    0.4655451469E+00    0.2097746011E-01    0.1650211098E+00    0.1556440882E+00
    0.1000000000E+04    0.1922446609E+00    0.4117385973E+00    0.2234131451E-01    0.6802483296E-01    0.1358784522E+00
    0.3000000000E+04    0.1795775765E+00    0.4532672793E+00    0.2211395528E-01    0.1250334822E+00    0.1508913715E+00
    0.5000000000E+04    0.1641750543E+00    0.4659859301E+00    0.2091637334E-01    0.1669381388E+00    0.1558196143E+00
    0.7000000000E+04    0.1510159508E+00    0.4726680793E+00    0.1971890368E-01    0.2025599791E+00    0.1585375682E+00
    0.9000000000E+04    0.1396283337E+00    0.4769229574E+00    0.1858825967E-01    0.2341539458E+00    0.1603378909E+00
    0.1100000000E+05    0.1295997986E+00    0.4799235224E+00    0.1753036325E-01    0.2627009197E+00    0.1616510823E+00
    0.1300000000E+05    0.1206577393E+00    0.4821790520E+00    0.1654250466E-01    0.2887423884E+00    0.1626679159E+00
    0.1500000000E+05    0.1126164544E+00    0.4839505205E+00    0.1562064150E-01    0.3126266502E+00    0.1634879448E+00
    0.1700000000E+05    0.1053421553E+00    0.4853870689E+00    0.1476069254E-01    0.3346039241E+00    0.1641690208E+00
    0.1900000000E+05    0.9873327399E-01    0.4865808167E+00    0.1395875035E-01    0.3548691761E+00    0.1647474432E+00
    0.2100000000E+05    0.9270928706E-01    0.4875920848E+00    0.1321109040E-01    0.3735833769E+00    0.1652473396E+00
    0.2300000000E+05    0.8720414791E-01    0.4884622142E+00    0.1251415441E-01    0.3908847880E+00    0.1656854854E+00
    0.2500000000E+05    0.8216227285E-01    0.4892205936E+00    0.1186454061E-01    0.4068952747E+00    0.1660739725E+00
    0.2700000000E+05    0.7753598687E-01    0.4898887530E+00    0.1125900254E-01    0.4217240094E+00    0.1664217788E+00
    0.2900000000E+05    0.7328383039E-01    0.4904828667E+00    0.1069445238E-01    0.4354697563E+00    0.1667357367E+00
    0.3100000000E+05    0.6936938922E-01    0.4910153477E+00    0.1016796546E-01    0.4482223683E+00    0.1670211557E+00
    0.3300000000E+05    0.6576045172E-01    0.4914958989E+00    0.9676783818E-02    0.4600638380E+00    0.1672822364E+00
    0.3500000000E+05    0.6242837695E-01    0.4919322268E+00    0.9218317661E-02    0.4710690915E+00    0.1675223537E+00
    0.3700000000E+05    0.5934760306E-01    0.4923305385E+00    0.8790144634E-02    0.4813066312E+00    0.1677442564E+00
    0.3900000000E+05    0.5649525244E-01    0.4926958961E+00    0.8390006818E-02    0.4908390856E+00    0.1679502099E+00
    0.4100000000E+05    0.5385080582E-01    0.4930324731E+00    0.8015805893E-02    0.4997236976E+00    0.1681421010E+00
    0.4300000000E+05    0.5139582770E-01    0.4933437452E+00    0.7665596829E-02    0.5080127702E+00    0.1683215163E+00
    0.4500000000E+05    0.4911373101E-01    0.4936326326E+00    0.7337580523E-02    0.5157540767E+00    0.1684898009E+00
    0.4700000000E+05    0.4698957325E-01    0.4939016088E+00    0.7030095736E-02    0.5229912423E+00    0.1686481044E+00
    0.4900000000E+05    0.4500987810E-01    0.4941527843E+00    0.6741610656E-02    0.5297640981E+00    0.1687974157E+00
    0.1000000000E+05    0.1344638082E+00    0.4785397605E+00    0.1805032430E-01    0.2487682101E+00    0.1610403716E+00
    0.3000000000E+05    0.7128649889E-01    0.4907561510E+00    0.1042662732E-01    0.4419649057E+00    0.1668817288E+00
    0.5000000000E+05    0.4407035457E-01    0.4942722735E+00    0.6604047597E-02    0.5329879010E+00    0.1688689714E+00
    0.7000000000E+05    0.3047455246E-01    0.4960579045E+00    0.4563874999E-02    0.5803637507E+00    0.1699861123E+00
    0.9000000000E+05    0.2284889599E-01    0.4971648205E+00    0.3375926635E-02    0.6075759471E+00    0.1707381565E+00
    0.1100000000E+06    0.1815654844E-01    0.4979272256E+00    0.2628248698E-02    0.6245622871E+00    0.1712953943E+00
    0.1300000000E+06    0.1505304790E-01    0.4984879894E+00    0.2127059056E-02    0.6358883175E+00    0.1717335697E+00
    0.1500000000E+06    0.1288121078E-01    0.4989194283E+00    0.1773785328E-02    0.6438428948E+00    0.1720922717E+00
    0.1700000000E+06    0.1129176256E-01    0.4992624381E+00    0.1514523296E-02    0.6496655367E+00    0.1723945440E+00
    0.1900000000E+06    0.1008577682E-01    0.4995420444E+00    0.1317907834E-02    0.6540725491E+00    0.1726548763E+00
    0.2100000000E+06    0.9143285780E-02    0.4997744949E+00    0.1164708479E-02    0.6575009341E+00    0.1728829252E+00
    0.2300000000E+06    0.8388405471E-02    0.4999708366E+00    0.1042603170E-02    0.6602296811E+00    0.1730854242E+00
    0.2500000000E+06    0.7771169084E-02    0.5001388642E+00    0.9433954867E-03    0.6624438647E+00    0.1732672423E+00
    0.2700000000E+06    0.7257530795E-02    0.5002842470E+00    0.8614560022E-03    0.6642703390E+00    0.1734320066E+00
    0.2900000000E+06    0.6823600713E-02    0.5004112146E+00    0.7928100707E-03    0.6657985341E+00    0.1735824865E+00
    0.3100000000E+06    0.6452182206E-02    0.5005229917E+00    0.7345831408E-03    0.6670930557E+00    0.1737208414E+00
    0.3300000000E+06    0.6130617225E-02    0.5006220823E+00    0.6846519889E-03    0.6682015849E+00    0.1738487856E+00
    0.3500000000E+06    0.5849403308E-02    0.5007104629E+00    0.6414188694E-03    0.6691599815E+00    0.1739677014E+00
    0.3700000000E+06    0.5601281206E-02    0.5007897156E+00    0.6036613913E-03    0.6699956699E+00    0.1740787185E+00
    0.3900000000E+06    0.5380618152E-02    0.5008611226E+00    0.5704303828E-03    0.6707299396E+00    0.1741827715E+00
    0.4100000000E+06    0.5182981770E-02    0.5009257350E+00    0.5409789390E-03    0.6713795407E+00    0.1742806418E+00
    0.4300000000E+06    0.5004839875E-02    0.5009844228E+00    0.5147121981E-03    0.6719578127E+00    0.1743729888E+00
    0.4500000000E+06    0.4843345186E-02    0.5010379129E+00    0.4911511807E-03    0.6724754965E+00    0.1744603741E+00
    0.4700000000E+06    0.4696178429E-02    0.5010868173E+00    0.4699063491E-03    0.6729413274E+00    0.1745432795E+00
    0.4900000000E+06    0.4561432299E-02    0.5011316554E+00    0.4506579994E-03    0.6733624753E+00    0.1746221210E+00
    0.1000000000E+06    0.2024327329E-01    0.4975777493E+00    0.2962314551E-02    0.6169861037E+00    0.1710351711E+00
    0.3000000000E+06    0.6630955949E-02    0.5004688312E+00    0.7625414366E-03    0.6664716975E+00    0.1736530635E+00
    0.5000000000E+06    0.4498211724E-02    0.5011526907E+00    0.4416979909E-03    0.6735581886E+00    0.1746601328E+00
    0.7000000000E+06    0.3613351263E-02    0.5014399275E+00    0.3219848156E-03    0.6761433608E+00    0.1752744453E+00
    0.9000000000E+06    0.3109866636E-02    0.5015841983E+00    0.2597762130E-03    0.6774488396E+00    0.1757125710E+00
    0.1100000000E+07    0.2775929841E-02    0.5016615656E+00    0.2214469986E-03    0.6782284116E+00    0.1760513758E+00
    0.1300000000E+07    0.2533777497E-02    0.5017028478E+00    0.1952663490E-03    0.6787441310E+00    0.1763267295E+00
    0.1500000000E+07    0.2347716200E-02    0.5017228538E+00    0.1761136483E-03    0.6791096646E+00    0.1765581807E+00
    0.1700000000E+07    0.2198856728E-02    0.5017295368E+00    0.1614035397E-03    0.6793819144E+00    0.1767575205E+00
    0.1900000000E+07    0.2076165670E-02    0.5017275181E+00    0.1496896718E-03    0.6795923928E+00    0.1769323916E+00
    0.2100000000E+07    0.1972714130E-02    0.5017196437E+00    0.1400987250E-03    0.6797599137E+00    0.1770880218E+00
    0.2300000000E+07    0.1883903069E-02    0.5017077478E+00    0.1320713288E-03    0.6798963828E+00    0.1772281397E+00
    0.2500000000E+07    0.1806543618E-02    0.5016930544E+00    0.1252319712E-03    0.6800096925E+00    0.1773554954E+00
    0.2700000000E+07    0.1738345235E-02    0.5016764045E+00    0.1193187370E-03    0.6801052764E+00    0.1774721737E+00
    0.2900000000E+07    0.1677614032E-02    0.5016583892E+00    0.1141430528E-03    0.6801869959E+00    0.1775797916E+00
    0.3100000000E+07    0.1623066391E-02    0.5016394319E+00    0.1095654710E-03    0.6802576685E+00    0.1776796277E+00
    0.3300000000E+07    0.1573709184E-02    0.5016198408E+00    0.1054804908E-03    0.6803193981E+00    0.1777727104E+00
    0.3500000000E+07    0.1528760180E-02    0.5015998428E+00    0.1018067074E-03    0.6803737866E+00    0.1778598784E+00
    0.3700000000E+07    0.1487593604E-02    0.5015796066E+00    0.9848022053E-04    0.6804220753E+00    0.1779418248E+00
    0.3900000000E+07    0.1449701976E-02    0.5015592589E+00    0.9545010824E-04    0.6804652406E+00    0.1780191286E+00
    0.4100000000E+07    0.1414668746E-02    0.5015388951E+00    0.9267524543E-04    0.6805040612E+00    0.1780922782E+00
    0.4300000000E+07    0.1382148310E-02    0.5015185873E+00    0.9012202124E-04    0.6805391654E+00    0.1781616897E+00
    0.4500000000E+07    0.1351851153E-02    0.5014983901E+00    0.8776267122E-04    0.6805710659E+00    0.1782277199E+00
    0.4700000000E+07    0.1323532624E-02    0.5014783446E+00    0.8557403866E-04    0.6806001853E+00    0.1782906775E+00
    0.4900000000E+07    0.1296984356E-02    0.5014584816E+00    0.8353664077E-04    0.6806268747E+00    0.1783508309E+00
    0.1000000000E+07    0.2928063969E-02    0.5016287647E+00    0.2385985184E-03    0.6778826252E+00    0.1758916031E+00
    0.3000000000E+07    0.1649635062E-02    0.5016490068E+00    0.1117867533E-03    0.6802235678E+00    0.1776306130E+00
    0.5000000000E+07    0.1284317207E-02    0.5014486261E+00    0.8256939194E-04    0.6806394021E+00    0.1783799307E+00
    0.7000000000E+07    0.1091383770E-02    0.5012641123E+00    0.6821269054E-04    0.6808139098E+00    0.1788589963E+00
    0.9000000000E+07    0.9670430089E-03    0.5011035343E+00    0.5931550407E-04    0.6809105497E+00    0.1792106263E+00
    0.1100000000E+08    0.8782353085E-03    0.5009630061E+00    0.5312170659E-04    0.6809722302E+00    0.1794880914E+00
    0.1300000000E+08    0.8106595879E-03    0.5008384697E+00    0.4849548163E-04    0.6810151709E+00    0.1797170688E+00
    0.1500000000E+08    0.7569756193E-03    0.5007267625E+00    0.4487270753E-04    0.6810468748E+00    0.1799118906E+00
    0.1700000000E+08    0.7129729880E-03    0.5006255089E+00    0.4193753497E-04    0.6810712973E+00    0.1800813654E+00
    0.1900000000E+08    0.6760390167E-03    0.5005329140E+00    0.3949761996E-04    0.6810907243E+00    0.1802312913E+00
    0.2100000000E+08    0.6444543409E-03    0.5004475994E+00    0.3742828914E-04    0.6811065705E+00    0.1803656856E+00
    0.2300000000E+08    0.6170345848E-03    0.5003684887E+00    0.3564473685E-04    0.6811197596E+00    0.1804874460E+00
    0.2500000000E+08    0.5929335043E-03    0.5002947263E+00    0.3408701354E-04    0.6811309208E+00    0.1805987302E+00
    0.2700000000E+08    0.5715280565E-03    0.5002256222E+00    0.3271138787E-04    0.6811404976E+00    0.1807011884E+00
