  Pressure (Pa) 2mC6-400 (mol/kg) 3mC6-400 (mol/kg) 33mC5-400 (mol/kg) 23mC5-400 (mol/kg) C7-400 (mol/kg)
    0.1000000000E+01    0.2370550159E-02    0.2090914318E-02    0.4504229038E-03    0.9327750833E-04    0.8482682384E-02
    0.3000000000E+01    0.6881627565E-02    0.6044998695E-02    0.1307973304E-02    0.2782188479E-03    0.2452838389E-01
    0.5000000000E+01    0.1111342649E-01    0.9722671656E-02    0.2112977227E-02    0.4610492591E-03    0.3945773791E-01
    0.7000000000E+01    0.1509476591E-01    0.1315264186E-01    0.2870877715E-02    0.6418161676E-03    0.5338651774E-01
    0.9000000000E+01    0.1885051764E-01    0.1635975167E-01    0.3586370046E-02    0.8205655188E-03    0.6641491678E-01
    0.1100000000E+02    0.2240226076E-01    0.1936560795E-01    0.4263525935E-02    0.9973418359E-03    0.7863008917E-01
    0.1300000000E+02    0.2576881037E-01    0.2218909320E-01    0.4905893853E-02    0.1172188276E-02    0.9010820876E-01
    0.1500000000E+02    0.2896664789E-01    0.2484678266E-01    0.5516580658E-02    0.1345146683E-02    0.1009161495E+00
    0.1700000000E+02    0.3201027363E-01    0.2735328711E-01    0.6098318447E-02    0.1516257637E-02    0.1111128661E+00
    0.1900000000E+02    0.3491249742E-01    0.2972153614E-01    0.6653519663E-02    0.1685560504E-02    0.1207505359E+00
    0.2100000000E+02    0.3768467966E-01    0.3196301388E-01    0.7184322774E-02    0.1853093484E-02    0.1298755083E+00
    0.2300000000E+02    0.4033693231E-01    0.3408795600E-01    0.7692630365E-02    0.2018893649E-02    0.1385290985E+00
    0.2500000000E+02    0.4287828743E-01    0.3610551536E-01    0.8180141052E-02    0.2182996990E-02    0.1467482554E+00
    0.2700000000E+02    0.4531683909E-01    0.3802390196E-01    0.8648376366E-02    0.2345438455E-02    0.1545661254E+00
    0.2900000000E+02    0.4765986354E-01    0.3985050167E-01    0.9098703494E-02    0.2506251988E-02    0.1620125311E+00
    0.3100000000E+02    0.4991392134E-01    0.4159197745E-01    0.9532354615E-02    0.2665470565E-02    0.1691143790E+00
    0.3300000000E+02    0.5208494457E-01    0.4325435600E-01    0.9950443390E-02    0.2823126229E-02    0.1758960092E+00
    0.3500000000E+02    0.5417831159E-01    0.4484310223E-01    0.1035397911E-01    0.2979250123E-02    0.1823794950E+00
    0.3700000000E+02    0.5619891129E-01    0.4636318344E-01    0.1074387883E-01    0.3133872526E-02    0.1885849026E+00
    0.3900000000E+02    0.5815119867E-01    0.4781912497E-01    0.1112097790E-01    0.3287022875E-02    0.1945305144E+00
    0.4100000000E+02    0.6003924295E-01    0.4921505843E-01    0.1148603903E-01    0.3438729805E-02    0.2002330243E+00
    0.4300000000E+02    0.6186676940E-01    0.5055476386E-01    0.1183976021E-01    0.3589021167E-02    0.2057077071E+00
    0.4500000000E+02    0.6363719582E-01    0.5184170646E-01    0.1218278157E-01    0.3737924063E-02    0.2109685673E+00
    0.4700000000E+02    0.6535366444E-01    0.5307906889E-01    0.1251569145E-01    0.3885464866E-02    0.2160284686E+00
    0.4900000000E+02    0.6701906996E-01    0.5426977959E-01    0.1283903163E-01    0.4031669249E-02    0.2208992487E+00
    0.1000000000E+02    0.2065065502E-01    0.1788659779E-01    0.3929507040E-02    0.9091975779E-03    0.7261915941E-01
    0.3000000000E+02    0.4879762871E-01    0.4073148939E-01    0.9317541350E-02    0.2586058622E-02    0.1656049471E+00
    0.5000000000E+02    0.6783346708E-01    0.5484849240E-01    0.1299727083E-01    0.4104278119E-02    0.2232671620E+00
    0.7000000000E+02    0.8199185873E-01    0.6452837080E-01    0.1576272759E-01    0.5492045978E-02    0.2629401667E+00
    0.9000000000E+02    0.9313013440E-01    0.7162978809E-01    0.1796106347E-01    0.6770957027E-02    0.2921415686E+00
    0.1100000000E+03    0.1022150752E+00    0.7709236913E-01    0.1977262048E-01    0.7957864612E-02    0.3146761327E+00
    0.1300000000E+03    0.1098125610E+00    0.8144406478E-01    0.2130289159E-01    0.9066137229E-02    0.3326840603E+00
    0.1500000000E+03    0.1162829833E+00    0.8500531062E-01    0.2261909658E-01    0.1010653211E-01    0.3474657747E+00
    0.1700000000E+03    0.1218706989E+00    0.8798239952E-01    0.2376687546E-01    0.1108781608E-01    0.3598593979E+00
    0.1900000000E+03    0.1267494693E+00    0.9051446710E-01    0.2477874788E-01    0.1201721556E-01    0.3704308258E+00
    0.2100000000E+03    0.1310475136E+00    0.9269895919E-01    0.2567876848E-01    0.1290074842E-01    0.3795768230E+00
    0.2300000000E+03    0.1348622599E+00    0.9460628355E-01    0.2648526496E-01    0.1374347262E-01    0.3875843734E+00
    0.2500000000E+03    0.1382695134E+00    0.9628866199E-01    0.2721253861E-01    0.1454967518E-01    0.3946665620E+00
    0.2700000000E+03    0.1413294143E+00    0.9778570190E-01    0.2787196929E-01    0.1532301761E-01    0.4009851731E+00
    0.2900000000E+03    0.1440904556E+00    0.9912802711E-01    0.2847276094E-01    0.1606664919E-01    0.4066654273E+00
    0.3100000000E+03    0.1465922809E+00    0.1003397158E+00    0.2902246096E-01    0.1678329615E-01    0.4118058824E+00
    0.3300000000E+03    0.1488676839E+00    0.1014399805E+00    0.2952733187E-01    0.1747533258E-01    0.4164852612E+00
    0.3500000000E+03    0.1509440723E+00    0.1024443529E+00    0.2999262360E-01    0.1814483731E-01    0.4207672685E+00
    0.3700000000E+03    0.1528445588E+00    0.1033655356E+00    0.3042277691E-01    0.1879363996E-01    0.4247040590E+00
    0.3900000000E+03    0.1545887909E+00    0.1042140268E+00    0.3082157814E-01    0.1942335845E-01    0.4283387789E+00
    0.4100000000E+03    0.1561935896E+00    0.1049985847E+00    0.3119227869E-01    0.2003542989E-01    0.4317074593E+00
    0.4300000000E+03    0.1576734488E+00    0.1057265785E+00    0.3153768846E-01    0.2063113603E-01    0.4348404470E+00
    0.4500000000E+03    0.1590409302E+00    0.1064042574E+00    0.3186024996E-01    0.2121162454E-01    0.4377635007E+00
    0.4700000000E+03    0.1603069786E+00    0.1070369582E+00    0.3216209759E-01    0.2177792675E-01    0.4404986404E+00
    0.4900000000E+03    0.1614811765E+00    0.1076292686E+00    0.3244510551E-01    0.2233097262E-01    0.4430648128E+00
    0.1000000000E+03    0.9788755835E-01    0.7452647223E-01    0.1890741318E-01    0.7375005769E-02    0.3040822928E+00
    0.3000000000E+03    0.1453715794E+00    0.9974890201E-01    0.2875357947E-01    0.1642818984E-01    0.4092978090E+00
    0.5000000000E+03    0.1620365054E+00    0.1079115384E+00    0.3258006888E-01    0.2260279049E-01    0.4442897489E+00
    0.7000000000E+03    0.1699135489E+00    0.1121667412E+00    0.3460440004E-01    0.2751060288E-01    0.4629419639E+00
    0.9000000000E+03    0.1740887233E+00    0.1148394998E+00    0.3583346563E-01    0.3170286428E-01    0.4748907531E+00
    0.1100000000E+04    0.1763988179E+00    0.1166978559E+00    0.3664209232E-01    0.3543147211E-01    0.4833497759E+00
    0.1300000000E+04    0.1776615738E+00    0.1180758862E+00    0.3720222991E-01    0.3883246203E-01    0.4897287766E+00
    0.1500000000E+04    0.1782915577E+00    0.1191443192E+00    0.3760376353E-01    0.4198780756E-01    0.4947538361E+00
    0.1700000000E+04    0.1785187560E+00    0.1200002824E+00    0.3789816770E-01    0.4495088695E-01    0.4988410475E+00
    0.1900000000E+04    0.1784795304E+00    0.1207034519E+00    0.3811699123E-01    0.4775852255E-01    0.5022478319E+00
    0.2100000000E+04    0.1782589732E+00    0.1212926857E+00    0.3828061714E-01    0.5043727286E-01    0.5051429158E+00
    0.2300000000E+04    0.1779123757E+00    0.1217944634E+00    0.3840278229E-01    0.5300698316E-01    0.5076420044E+00
    0.2500000000E+04    0.1774768591E+00    0.1222275019E+00    0.3849307050E-01    0.5548291459E-01    0.5098273832E+00
    0.2700000000E+04    0.1769780228E+00    0.1226054364E+00    0.3855836430E-01    0.5787708518E-01    0.5117593487E+00
    0.2900000000E+04    0.1764339174E+00    0.1229384537E+00    0.3860372911E-01    0.6019914980E-01    0.5134832064E+00
    0.3100000000E+04    0.1758575091E+00    0.1232343294E+00    0.3863297243E-01    0.6245699761E-01    0.5150337310E+00
    0.3300000000E+04    0.1752582573E+00    0.1234991098E+00    0.3864900916E-01    0.6465716986E-01    0.5164381084E+00
    0.3500000000E+04    0.1746431530E+00    0.1237375724E+00    0.3865410700E-01    0.6680515942E-01    0.5177179338E+00
    0.3700000000E+04    0.1740174188E+00    0.1239535459E+00    0.3865005539E-01    0.6890563042E-01    0.5188906034E+00
    0.3900000000E+04    0.1733849901E+00    0.1241501375E+00    0.3863828436E-01    0.7096258231E-01    0.5199703057E+00
    0.4100000000E+04    0.1727488532E+00    0.1243298969E+00    0.3861994977E-01    0.7297947471E-01    0.5209687420E+00
    0.4300000000E+04    0.1721112854E+00    0.1244949374E+00    0.3859599547E-01    0.7495932369E-01    0.5218956582E+00
    0.4500000000E+04    0.1714740291E+00    0.1246470268E+00    0.3856719933E-01    0.7690477716E-01    0.5227592447E+00
    0.4700000000E+04    0.1708384199E+00    0.1247876556E+00    0.3853420790E-01    0.7881817463E-01    0.5235664409E+00
    0.4900000000E+04    0.1702054801E+00    0.1249180903E+00    0.3849756271E-01    0.8070159507E-01    0.5243231697E+00
    0.1000000000E+04    0.1754122378E+00    0.1158440509E+00    0.3627684879E-01    0.3361490342E-01    0.4794452117E+00
    0.3000000000E+04    0.1761490919E+00    0.1230906221E+00    0.3862016619E-01    0.6133566436E-01    0.5142782854E+00
    0.5000000000E+04    0.1698902632E+00    0.1249798296E+00    0.3847801556E-01    0.8163265202E-01    0.5246842278E+00
    0.7000000000E+04    0.1638367559E+00    0.1258753517E+00    0.3797582931E-01    0.9904302093E-01    0.5301839729E+00
    0.9000000000E+04    0.1583063434E+00    0.1263993316E+00    0.3736770335E-01    0.1147609856E+00    0.5337340588E+00
    0.1100000000E+05    0.1532364799E+00    0.1267418716E+00    0.3672140855E-01    0.1293117983E+00    0.5362792956E+00
    0.1300000000E+05    0.1485444306E+00    0.1269817117E+00    0.3606194644E-01    0.1429810052E+00    0.5382265984E+00
    0.1500000000E+05    0.1441637602E+00    0.1271576389E+00    0.3540040230E-01    0.1559437572E+00    0.5397836976E+00
    0.1700000000E+05    0.1400443307E+00    0.1272910626E+00    0.3474231663E-01    0.1683163388E+00    0.5410691570E+00
    0.1900000000E+05    0.1361483009E+00    0.1273947971E+00    0.3409070216E-01    0.1801804402E+00    0.5421562376E+00
    0.2100000000E+05    0.1324466832E+00    0.1274769930E+00    0.3344730147E-01    0.1915959628E+00    0.5430929850E+00
    0.2300000000E+05    0.1289168630E+00    0.1275430862E+00    0.3281316939E-01    0.2026083530E+00    0.5439124060E+00
    0.2500000000E+05    0.1255408719E+00    0.1275968425E+00    0.3218896498E-01    0.2132530751E+00    0.5446380365E+00
    0.2700000000E+05    0.1223041845E+00    0.1276409533E+00    0.3157510743E-01    0.2235584759E+00    0.5452871805E+00
    0.2900000000E+05    0.1191948683E+00    0.1276773930E+00    0.3097186360E-01    0.2335476940E+00    0.5458728908E+00
    0.3100000000E+05    0.1162029753E+00    0.1277076425E+00    0.3037939929E-01    0.2432399739E+00    0.5464052292E+00
    0.3300000000E+05    0.1133200975E+00    0.1277328337E+00    0.2979781041E-01    0.2526515958E+00    0.5468920992E+00
    0.3500000000E+05    0.1105390385E+00    0.1277538462E+00    0.2922714256E-01    0.2617965481E+00    0.5473398108E+00
    0.3700000000E+05    0.1078535666E+00    0.1277713735E+00    0.2866740369E-01    0.2706870230E+00    0.5477534743E+00
    0.3900000000E+05    0.1052582267E+00    0.1277859694E+00    0.2811857260E-01    0.2793337882E+00    0.5481372820E+00
    0.4100000000E+05    0.1027481960E+00    0.1277980811E+00    0.2758060478E-01    0.2877464695E+00    0.5484947116E+00
    0.4300000000E+05    0.1003191706E+00    0.1278080736E+00    0.2705343657E-01    0.2959337676E+00    0.5488286780E+00
    0.4500000000E+05    0.9796727729E-01    0.1278162474E+00    0.2653698820E-01    0.3039036272E+00    0.5491416470E+00
    0.4700000000E+05    0.9568900306E-01    0.1278228519E+00    0.2603116619E-01    0.3116633687E+00    0.5494357220E+00
    0.4900000000E+05    0.9348113864E-01    0.1278280958E+00    0.2553586516E-01    0.3192197929E+00    0.5497127110E+00
    0.1000000000E+05    0.1557193136E+00    0.1265869848E+00    0.3704727032E-01    0.1221609315E+00    0.5351000639E+00
    0.3000000000E+05    0.1176848012E+00    0.1276932139E+00    0.3067427665E-01    0.2384298731E+00    0.5461451945E+00
    0.5000000000E+05    0.9240267894E-01    0.1278302636E+00    0.2529212421E-01    0.3229237649E+00    0.5498452956E+00
    0.7000000000E+05    0.7391469978E-01    0.1278330850E+00    0.2093686166E-01    0.3877096595E+00    0.5518896362E+00
    0.9000000000E+05    0.6005953130E-01    0.1277987561E+00    0.1746192743E-01    0.4378454940E+00    0.5532099295E+00
    0.1100000000E+06    0.4953095422E-01    0.1277521573E+00    0.1470065755E-01    0.4768944384E+00    0.5541325619E+00
    0.1300000000E+06    0.4142775144E-01    0.1277018281E+00    0.1250112667E-01    0.5075637885E+00    0.5548107776E+00
    0.1500000000E+06    0.3510958233E-01    0.1276511545E+00    0.1073787967E-01    0.5318974110E+00    0.5553283016E+00
    0.1700000000E+06    0.3011818985E-01    0.1276015662E+00    0.9312348475E-02    0.5514195032E+00    0.5557351498E+00
    0.1900000000E+06    0.2612394411E-01    0.1275536614E+00    0.8148934309E-02    0.5672600309E+00    0.5560630133E+00
    0.2100000000E+06    0.2288805416E-01    0.1275076577E+00    0.7190214188E-02    0.5802570176E+00    0.5563328529E+00
    0.2300000000E+06    0.2023594865E-01    0.1274635925E+00    0.6392630303E-02    0.5910349512E+00    0.5565590075E+00
    0.2500000000E+06    0.1803865943E-01    0.1274214166E+00    0.5723027294E-02    0.6000627000E+00    0.5567515645E+00
    0.2700000000E+06    0.1619983767E-01    0.1273810412E+00    0.5156010265E-02    0.6076954861E+00    0.5569177927E+00
    0.2900000000E+06    0.1464668023E-01    0.1273423615E+00    0.4671977399E-02    0.6142050741E+00    0.5570630412E+00
    0.3100000000E+06    0.1332355360E-01    0.1273052686E+00    0.4255669825E-02    0.6198014692E+00    0.5571913209E+00
    0.3300000000E+06    0.1218747852E-01    0.1272696566E+00    0.3895105277E-02    0.6246485711E+00    0.5573056903E+00
    0.3500000000E+06    0.1120490274E-01    0.1272354244E+00    0.3580792248E-02    0.6288755369E+00    0.5574085172E+00
    0.3700000000E+06    0.1034937167E-01    0.1272024783E+00    0.3305148019E-02    0.6325850953E+00    0.5575016606E+00
    0.3900000000E+06    0.9599829876E-02    0.1271707312E+00    0.3062064868E-02    0.6358596803E+00    0.5575865983E+00
    0.4100000000E+06    0.8939369839E-02    0.1271401035E+00    0.2846584353E-02    0.6387659981E+00    0.5576645187E+00
    0.4300000000E+06    0.8354301050E-02    0.1271105220E+00    0.2654650837E-02    0.6413584584E+00    0.5577363880E+00
    0.4500000000E+06    0.7833450524E-02    0.1270819197E+00    0.2482923483E-02    0.6436817744E+00    0.5578029992E+00
    0.4700000000E+06    0.7367632328E-02    0.1270542355E+00    0.2328631716E-02    0.6457729517E+00    0.5578650091E+00
    0.4900000000E+06    0.6949241624E-02    0.1270274133E+00    0.2189463238E-02    0.6476628211E+00    0.5579229666E+00
    0.1000000000E+06    0.5444303952E-01    0.1277762712E+00    0.1600214086E-01    0.4585692683E+00    0.5537090759E+00
    0.3000000000E+06    0.1395930285E-01    0.1273236234E+00    0.4456173272E-02    0.6171062471E+00    0.5571290922E+00
    0.5000000000E+06    0.6755808778E-02    0.1270143092E+00    0.2124931029E-02    0.6485405104E+00    0.5579505729E+00
    0.7000000000E+06    0.4284530368E-02    0.1267870688E+00    0.1289579169E-02    0.6600267894E+00    0.5583713749E+00
    0.9000000000E+06    0.3124182175E-02    0.1266074407E+00    0.8911977963E-03    0.6656600769E+00    0.5586500565E+00
    0.1100000000E+07    0.2472864735E-02    0.1264587651E+00    0.6673099647E-03    0.6689232425E+00    0.5588580632E+00
    0.1300000000E+07    0.2062884375E-02    0.1263318309E+00    0.5274122771E-03    0.6710252335E+00    0.5590240915E+00
    0.1500000000E+07    0.1783468789E-02    0.1262210183E+00    0.4332792366E-03    0.6724822157E+00    0.5591623536E+00
    0.1700000000E+07    0.1581636852E-02    0.1261226461E+00    0.3663864350E-03    0.6735475710E+00    0.5592808896E+00
    0.1900000000E+07    0.1429254850E-02    0.1260341704E+00    0.3168175081E-03    0.6743588485E+00    0.5593846833E+00
    0.2100000000E+07    0.1310152205E-02    0.1259537590E+00    0.2788479143E-03    0.6749966162E+00    0.5594770363E+00
    0.2300000000E+07    0.1214438910E-02    0.1258800481E+00    0.2489711775E-03    0.6755109606E+00    0.5595602487E+00
    0.2500000000E+07    0.1135755837E-02    0.1258119944E+00    0.2249342788E-03    0.6759345450E+00    0.5596359878E+00
    0.2700000000E+07    0.1069842299E-02    0.1257487821E+00    0.2052314133E-03    0.6762895247E+00    0.5597055007E+00
    0.2900000000E+07    0.1013743459E-02    0.1256897607E+00    0.1888223756E-03    0.6765914296E+00    0.5597697449E+00
    0.3100000000E+07    0.9653492165E-03    0.1256344034E+00    0.1749681147E-03    0.6768514529E+00    0.5598294720E+00
    0.3300000000E+07    0.9231143057E-03    0.1255822773E+00    0.1631306821E-03    0.6770778583E+00    0.5598852825E+00
    0.3500000000E+07    0.8858820888E-03    0.1255330221E+00    0.1529101750E-03    0.6772768740E+00    0.5599376643E+00
    0.3700000000E+07    0.8527700735E-03    0.1254863352E+00    0.1440037611E-03    0.6774532810E+00    0.5599870189E+00
    0.3900000000E+07    0.8230934462E-03    0.1254419594E+00    0.1361783301E-03    0.6776108083E+00    0.5600336809E+00
    0.4100000000E+07    0.7963127366E-03    0.1253996747E+00    0.1292518024E-03    0.6777524065E+00    0.5600779321E+00
    0.4300000000E+07    0.7719972104E-03    0.1253592911E+00    0.1230800832E-03    0.6778804402E+00    0.5601200119E+00
    0.4500000000E+07    0.7497987626E-03    0.1253206434E+00    0.1175477830E-03    0.6779968264E+00    0.5601601259E+00
    0.4700000000E+07    0.7294329693E-03    0.1252835873E+00    0.1125615039E-03    0.6781031354E+00    0.5601984513E+00
    0.4900000000E+07    0.7106651157E-03    0.1252479959E+00    0.1080449076E-03    0.6782006658E+00    0.5602351425E+00
    0.1000000000E+07    0.2757360101E-02    0.1265299227E+00    0.7649928480E-03    0.6674873059E+00    0.5587605963E+00
    0.3000000000E+07    0.9886906374E-03    0.1256616530E+00    0.1816133591E-03    0.6767261037E+00    0.5598001325E+00
    0.5000000000E+07    0.7018180329E-03    0.1252307137E+00    0.1059426253E-03    0.6782464847E+00    0.5602529182E+00
    0.7000000000E+07    0.5748494193E-03    0.1249404322E+00    0.7782144025E-04    0.6788902188E+00    0.5605481051E+00
    0.9000000000E+07    0.4996266489E-03    0.1247209377E+00    0.6312739039E-04    0.6792557031E+00    0.5607679682E+00
    0.1100000000E+08    0.4484308928E-03    0.1245442705E+00    0.5401454688E-04    0.6794957124E+00    0.5609434232E+00
    0.1300000000E+08    0.4106588371E-03    0.1243963611E+00    0.4775286702E-04    0.6796676341E+00    0.5610895228E+00
    0.1500000000E+08    0.3812827813E-03    0.1242691159E+00    0.4314856415E-04    0.6797980936E+00    0.5612147495E+00
    0.1700000000E+08    0.3575733232E-03    0.1241574457E+00    0.3959692996E-04    0.6799012315E+00    0.5613243614E+00
    0.1900000000E+08    0.3379036839E-03    0.1240579397E+00    0.3675839344E-04    0.6799853017E+00    0.5614218461E+00
    0.2100000000E+08    0.3212355933E-03    0.1239681997E+00    0.3442713503E-04    0.6800554705E+00    0.5615096367E+00
    0.2300000000E+08    0.3068707862E-03    0.1238864744E+00    0.3247083852E-04    0.6801151509E+00    0.5615894987E+00
    0.2500000000E+08    0.2943198434E-03    0.1238114457E+00    0.3080036926E-04    0.6801666958E+00    0.5616627543E+00
    0.2700000000E+08    0.2832280481E-03    0.1237420966E+00    0.2935335542E-04    0.6802117849E+00    0.5617304194E+00
