  Pressure (Pa) 2mC6-400 (mol/kg) 3mC6-400 (mol/kg) 33mC5-400 (mol/kg) 23mC5-400 (mol/kg) C7-400 (mol/kg)
    0.1000000000E+01    0.3150324950E-02    0.5210485735E-03    0.1282708950E-03    0.5590294832E-03    0.1183776569E-01
    0.3000000000E+01    0.9088454618E-02    0.1497318190E-02    0.3701829859E-03    0.1663694424E-02    0.3402466807E-01
    0.5000000000E+01    0.1459242624E-01    0.2394893250E-02    0.5945811636E-03    0.2750962095E-02    0.5443166714E-01
    0.7000000000E+01    0.1971294100E-01    0.3223141851E-02    0.8035175249E-03    0.3821365577E-02    0.7327033080E-01
    0.9000000000E+01    0.2449283912E-01    0.3989993321E-02    0.9987250721E-03    0.4875415500E-02    0.9071975844E-01
    0.1100000000E+02    0.2896857513E-01    0.4702204682E-02    0.1181677702E-02    0.5913601228E-02    0.1069325915E+00
    0.1300000000E+02    0.3317137317E-01    0.5365569988E-02    0.1353637177E-02    0.6936391971E-02    0.1220397355E+00
    0.1500000000E+02    0.3712814047E-01    0.5985086314E-02    0.1515690246E-02    0.7944237830E-02    0.1361541051E+00
    0.1700000000E+02    0.4086219583E-01    0.6565086540E-02    0.1668778240E-02    0.8937570773E-02    0.1493736198E+00
    0.1900000000E+02    0.4439385536E-01    0.7109346420E-02    0.1813720866E-02    0.9916805552E-02    0.1617836202E+00
    0.2100000000E+02    0.4774090706E-01    0.7621171573E-02    0.1951235473E-02    0.1088234057E-01    0.1734588305E+00
    0.2300000000E+02    0.5091899791E-01    0.8103468647E-02    0.2081952763E-02    0.1183455868E-01    0.1844649651E+00
    0.2500000000E+02    0.5394195193E-01    0.8558803930E-02    0.2206429696E-02    0.1277382796E-01    0.1948600509E+00
    0.2700000000E+02    0.5682203291E-01    0.8989451903E-02    0.2325160144E-02    0.1370050243E-01    0.2046955238E+00
    0.2900000000E+02    0.5957016289E-01    0.9397435713E-02    0.2438583752E-02    0.1461492272E-01    0.2140171417E+00
    0.3100000000E+02    0.6219610468E-01    0.9784561075E-02    0.2547093336E-02    0.1551741672E-01    0.2228657506E+00
    0.3300000000E+02    0.6470861533E-01    0.1015244482E-01    0.2651041099E-02    0.1640830015E-01    0.2312779284E+00
    0.3500000000E+02    0.6711557562E-01    0.1050253908E-01    0.2750743874E-02    0.1728787718E-01    0.2392865313E+00
    0.3700000000E+02    0.6942409995E-01    0.1083615178E-01    0.2846487576E-02    0.1815644090E-01    0.2469211569E+00
    0.3900000000E+02    0.7164062992E-01    0.1115446423E-01    0.2938530989E-02    0.1901427389E-01    0.2542085408E+00
    0.4100000000E+02    0.7377101450E-01    0.1145854612E-01    0.3027109006E-02    0.1986164866E-01    0.2611728957E+00
    0.4300000000E+02    0.7582057878E-01    0.1174936849E-01    0.3112435413E-02    0.2069882808E-01    0.2678362036E+00
    0.4500000000E+02    0.7779418336E-01    0.1202781484E-01    0.3194705288E-02    0.2152606589E-01    0.2742184688E+00
    0.4700000000E+02    0.7969627568E-01    0.1229469089E-01    0.3274097075E-02    0.2234360700E-01    0.2803379358E+00
    0.4900000000E+02    0.8153093465E-01    0.1255073299E-01    0.3350774386E-02    0.2315168796E-01    0.2862112804E+00
    0.1000000000E+02    0.2676666502E-01    0.4352546446E-02    0.1091649897E-02    0.5396461603E-02    0.9897210628E-01
    0.3000000000E+02    0.6089783804E-01    0.9593500524E-02    0.2493429898E-02    0.1506764050E-01    0.2184981930E+00
    0.5000000000E+02    0.8242416017E-01    0.1267490426E-01    0.3388142577E-02    0.2355225259E-01    0.2890604803E+00
    0.7000000000E+02    0.9751630052E-01    0.1472645891E-01    0.4023776487E-02    0.3111858265E-01    0.3362249639E+00
    0.9000000000E+02    0.1087491314E+00    0.1620267948E-01    0.4503522607E-02    0.3795676308E-01    0.3702918542E+00
    0.1100000000E+03    0.1174296987E+00    0.1732282993E-01    0.4879714914E-02    0.4420565528E-01    0.3962367847E+00
    0.1300000000E+03    0.1243107459E+00    0.1820618729E-01    0.5182511019E-02    0.4996928473E-01    0.4167700199E+00
    0.1500000000E+03    0.1298649590E+00    0.1892345399E-01    0.5430880092E-02    0.5532729273E-01    0.4335001880E+00
    0.1700000000E+03    0.1344081690E+00    0.1951933564E-01    0.5637527194E-02    0.6034181012E-01    0.4474457473E+00
    0.1900000000E+03    0.1381613937E+00    0.2002356142E-01    0.5811369200E-02    0.6506211064E-01    0.4592848355E+00
    0.2100000000E+03    0.1412849114E+00    0.2045671752E-01    0.5958893482E-02    0.6952784176E-01    0.4694876268E+00
    0.2300000000E+03    0.1438982814E+00    0.2083354026E-01    0.6084956122E-02    0.7377131829E-01    0.4783911080E+00
    0.2500000000E+03    0.1460927573E+00    0.2116487509E-01    0.6193277011E-02    0.7781918303E-01    0.4862435963E+00
    0.2700000000E+03    0.1479393247E+00    0.2145889380E-01    0.6286760721E-02    0.8169363048E-01    0.4932324214E+00
    0.2900000000E+03    0.1494940963E+00    0.2172187927E-01    0.6367712111E-02    0.8541332301E-01    0.4995017850E+00
    0.3100000000E+03    0.1508020423E+00    0.2195874743E-01    0.6437985623E-02    0.8899408659E-01    0.5051646501E+00
    0.3300000000E+03    0.1518996362E+00    0.2217340418E-01    0.6499091338E-02    0.9244944601E-01    0.5103108753E+00
    0.3500000000E+03    0.1528167714E+00    0.2236899523E-01    0.6552271959E-02    0.9579104162E-01    0.5150129153E+00
    0.3700000000E+03    0.1535781780E+00    0.2254808478E-01    0.6598559778E-02    0.9902895724E-01    0.5193298987E+00
    0.3900000000E+03    0.1542044845E+00    0.2271278570E-01    0.6638819502E-02    0.1021719808E+00    0.5233106021E+00
    0.4100000000E+03    0.1547130276E+00    0.2286485594E-01    0.6673780953E-02    0.1052278136E+00    0.5269956546E+00
    0.4300000000E+03    0.1551184768E+00    0.2300577108E-01    0.6704064332E-02    0.1082032390E+00    0.5304191971E+00
    0.4500000000E+03    0.1554333210E+00    0.2313677961E-01    0.6730199983E-02    0.1111042611E+00    0.5336101482E+00
    0.4700000000E+03    0.1556682532E+00    0.2325894562E-01    0.6752644016E-02    0.1139362175E+00    0.5365931822E+00
    0.4900000000E+03    0.1558324765E+00    0.2337318214E-01    0.6771790768E-02    0.1167038732E+00    0.5393894929E+00
    0.1000000000E+03    0.1133527189E+00    0.1679827716E-01    0.4702331143E-02    0.4114769649E-01    0.3840754528E+00
    0.3000000000E+03    0.1501764691E+00    0.2184331357E-01    0.6404082169E-02    0.8722017706E-01    0.5024029485E+00
    0.5000000000E+03    0.1558906023E+00    0.2342757743E-01    0.6780236511E-02    0.1180649402E+00    0.5407234495E+00
    0.7000000000E+03    0.1547989704E+00    0.2424387345E-01    0.6839386300E-02    0.1427466382E+00    0.5609685423E+00
    0.9000000000E+03    0.1514871848E+00    0.2475264206E-01    0.6781893205E-02    0.1639959865E+00    0.5738690288E+00
    0.1100000000E+04    0.1473647788E+00    0.2510422316E-01    0.6673055506E-02    0.1829896117E+00    0.5829663537E+00
    0.1300000000E+04    0.1429716592E+00    0.2536356356E-01    0.6539730967E-02    0.2003425784E+00    0.5898050439E+00
    0.1500000000E+04    0.1385416581E+00    0.2556369205E-01    0.6394645896E-02    0.2164184923E+00    0.5951774769E+00
    0.1700000000E+04    0.1341830684E+00    0.2572332647E-01    0.6244431362E-02    0.2314516274E+00    0.5995364040E+00
    0.1900000000E+04    0.1299471431E+00    0.2585393028E-01    0.6092780215E-02    0.2456029423E+00    0.6031612724E+00
    0.2100000000E+04    0.1258573138E+00    0.2596294710E-01    0.5941847256E-02    0.2589887265E+00    0.6062348937E+00
    0.2300000000E+04    0.1219227660E+00    0.2605543673E-01    0.5792929204E-02    0.2716964942E+00    0.6088824288E+00
    0.2500000000E+04    0.1181451668E+00    0.2613496765E-01    0.5646819133E-02    0.2837943822E+00    0.6111927639E+00
    0.2700000000E+04    0.1145221669E+00    0.2620413405E-01    0.5504002047E-02    0.2953369931E+00    0.6132309540E+00
    0.2900000000E+04    0.1110492924E+00    0.2626487031E-01    0.5364768006E-02    0.3063691833E+00    0.6150458285E+00
    0.3100000000E+04    0.1077209963E+00    0.2631865027E-01    0.5229280197E-02    0.3169286020E+00    0.6166748324E+00
    0.3300000000E+04    0.1045312526E+00    0.2636661801E-01    0.5097617320E-02    0.3270474440E+00    0.6181472159E+00
    0.3500000000E+04    0.1014738967E+00    0.2640967604E-01    0.4969800774E-02    0.3367536890E+00    0.6194861972E+00
    0.3700000000E+04    0.9854281811E-01    0.2644854654E-01    0.4845812554E-02    0.3460719962E+00    0.6207104686E+00
    0.3900000000E+04    0.9573206951E-01    0.2648381465E-01    0.4725607314E-02    0.3550243634E+00    0.6218352678E+00
    0.4100000000E+04    0.9303592454E-01    0.2651595988E-01    0.4609120673E-02    0.3636306188E+00    0.6228731551E+00
    0.4300000000E+04    0.9044890637E-01    0.2654537911E-01    0.4496275036E-02    0.3719087954E+00    0.6238345880E+00
    0.4500000000E+04    0.8796579816E-01    0.2657240383E-01    0.4386983752E-02    0.3798754183E+00    0.6247283520E+00
    0.4700000000E+04    0.8558164317E-01    0.2659731323E-01    0.4281154123E-02    0.3875457294E+00    0.6255618883E+00
    0.4900000000E+04    0.8329173883E-01    0.2662034417E-01    0.4178689617E-02    0.3949338638E+00    0.6263415469E+00
    0.1000000000E+04    0.1494828645E+00    0.2494293578E-01    0.6731727645E-02    0.1737282272E+00    0.5787710252E+00
    0.3000000000E+04    0.1093674423E+00    0.2629255179E-01    0.5296549298E-02    0.3117058656E+00    0.6158815733E+00
    0.5000000000E+04    0.8218072833E-01    0.2663121964E-01    0.4128688481E-02    0.3985262648E+00    0.6267129074E+00
    0.7000000000E+04    0.6394464082E-01    0.2678662760E-01    0.3281281678E-02    0.4583548876E+00    0.6323061219E+00
    0.9000000000E+04    0.5131050191E-01    0.2687464621E-01    0.2664289784E-02    0.5009670515E+00    0.6358298983E+00
    0.1100000000E+05    0.4228463303E-01    0.2693024989E-01    0.2207729630E-02    0.5321403972E+00    0.6382958984E+00
    0.1300000000E+05    0.3565033866E-01    0.2696777170E-01    0.1863188754E-02    0.5555187239E+00    0.6401391325E+00
    0.1500000000E+05    0.3064602182E-01    0.2699420231E-01    0.1597956033E-02    0.5734570714E+00    0.6415808926E+00
    0.1700000000E+05    0.2678258740E-01    0.2701336363E-01    0.1389887677E-02    0.5875096442E+00    0.6427468062E+00
    0.1900000000E+05    0.2373775206E-01    0.2702752189E-01    0.1223809397E-02    0.5987244796E+00    0.6437139768E+00
    0.2100000000E+05    0.2129377353E-01    0.2703810519E-01    0.1089150395E-02    0.6078238274E+00    0.6445325849E+00
    0.2300000000E+05    0.1930001877E-01    0.2704605712E-01    0.9784143732E-03    0.6153160481E+00    0.6452368225E+00
    0.2500000000E+05    0.1764996356E-01    0.2705202532E-01    0.8861899026E-03    0.6215661823E+00    0.6458508658E+00
    0.2700000000E+05    0.1626673602E-01    0.2705646830E-01    0.8085032802E-03    0.6268412870E+00    0.6463923375E+00
    0.2900000000E+05    0.1509382470E-01    0.2705971925E-01    0.7423892660E-03    0.6313401278E+00    0.6468744167E+00
    0.3100000000E+05    0.1408897655E-01    0.2706202564E-01    0.6856017943E-03    0.6352130010E+00    0.6473071761E+00
    0.3300000000E+05    0.1322010705E-01    0.2706357477E-01    0.6364158221E-03    0.6385752142E+00    0.6476984602E+00
    0.3500000000E+05    0.1246250648E-01    0.2706451074E-01    0.5934894200E-03    0.6415164162E+00    0.6480544787E+00
    0.3700000000E+05    0.1179689700E-01    0.2706494602E-01    0.5557663039E-03    0.6441071629E+00    0.6483802186E+00
    0.3900000000E+05    0.1120805927E-01    0.2706496945E-01    0.5224059378E-03    0.6464036093E+00    0.6486797357E+00
    0.4100000000E+05    0.1068384632E-01    0.2706465203E-01    0.4927327134E-03    0.6484509127E+00    0.6489563668E+00
    0.4300000000E+05    0.1021446560E-01    0.2706405105E-01    0.4661985199E-03    0.6502857333E+00    0.6492128846E+00
    0.4500000000E+05    0.9791949087E-02    0.2706321316E-01    0.4423548405E-03    0.6519380959E+00    0.6494516145E+00
    0.4700000000E+05    0.9409757593E-02    0.2706217662E-01    0.4208317134E-03    0.6534327916E+00    0.6496745232E+00
    0.4900000000E+05    0.9062481672E-02    0.2706097309E-01    0.4013217002E-03    0.6547904454E+00    0.6498832864E+00
    0.1000000000E+05    0.4643612449E-01    0.2690535060E-01    0.2419420044E-02    0.5177180892E+00    0.6371606512E+00
    0.3000000000E+05    0.1457259857E-01    0.2706097763E-01    0.7129478862E-03    0.6333469091E+00    0.6470964269E+00
    0.5000000000E+05    0.8900498183E-02    0.2706031710E-01    0.3922395366E-03    0.6554233937E+00    0.6499828209E+00
    0.7000000000E+05    0.6714482035E-02    0.2704294530E-01    0.2715557595E-03    0.6638996247E+00    0.6514924865E+00
    0.9000000000E+05    0.5558264780E-02    0.2702291452E-01    0.2102988665E-03    0.6682541486E+00    0.6524588786E+00
    0.1100000000E+06    0.4835023367E-02    0.2700320730E-01    0.1736429138E-03    0.6708737026E+00    0.6531461443E+00
    0.1300000000E+06    0.4334013613E-02    0.2698457124E-01    0.1493141838E-03    0.6726129088E+00    0.6536677088E+00
    0.1500000000E+06    0.3962638529E-02    0.2696714716E-01    0.1319819840E-03    0.6738480017E+00    0.6540814057E+00
    0.1700000000E+06    0.3673896174E-02    0.2695089114E-01    0.1189849545E-03    0.6747689067E+00    0.6544202252E+00
    0.1900000000E+06    0.3441352712E-02    0.2693570544E-01    0.1088547768E-03    0.6754813359E+00    0.6547045439E+00
    0.2100000000E+06    0.3248959425E-02    0.2692148293E-01    0.1007180122E-03    0.6760486046E+00    0.6549477194E+00
    0.2300000000E+06    0.3086378211E-02    0.2690812229E-01    0.9402362793E-04    0.6765108628E+00    0.6551589234E+00
    0.2500000000E+06    0.2946628281E-02    0.2689553269E-01    0.8840719255E-04    0.6768947621E+00    0.6553446910E+00
    0.2700000000E+06    0.2824811712E-02    0.2688363439E-01    0.8361817512E-04    0.6772186693E+00    0.6555098225E+00
    0.2900000000E+06    0.2717381157E-02    0.2687235798E-01    0.7947869168E-04    0.6774956432E+00    0.6556579343E+00
    0.3100000000E+06    0.2621697945E-02    0.2686164315E-01    0.7585893607E-04    0.6777352178E+00    0.6557918104E+00
    0.3300000000E+06    0.2535754196E-02    0.2685143746E-01    0.7266193700E-04    0.6779445130E+00    0.6559136336E+00
    0.3500000000E+06    0.2457991821E-02    0.2684169512E-01    0.6981376438E-04    0.6781289519E+00    0.6560251433E+00
    0.3700000000E+06    0.2387181011E-02    0.2683237608E-01    0.6725704330E-04    0.6782927366E+00    0.6561277449E+00
    0.3900000000E+06    0.2322336469E-02    0.2682344511E-01    0.6494654333E-04    0.6784391729E+00    0.6562225883E+00
    0.4100000000E+06    0.2262658311E-02    0.2681487113E-01    0.6284610808E-04    0.6785708970E+00    0.6563106245E+00
    0.4300000000E+06    0.2207489508E-02    0.2680662656E-01    0.6092647309E-04    0.6786900365E+00    0.6563926483E+00
    0.4500000000E+06    0.2156284675E-02    0.2679868689E-01    0.5916368596E-04    0.6787983275E+00    0.6564693294E+00
    0.4700000000E+06    0.2108586794E-02    0.2679103021E-01    0.5753794315E-04    0.6788972004E+00    0.6565412372E+00
    0.4900000000E+06    0.2064009610E-02    0.2678363686E-01    0.5603272071E-04    0.6789878442E+00    0.6566088588E+00
    0.1000000000E+06    0.5159948541E-02    0.2701295064E-01    0.1899129747E-03    0.6697102269E+00    0.6528284173E+00
    0.3000000000E+06    0.2668208929E-02    0.2686693382E-01    0.7761054329E-04    0.6776196137E+00    0.6557265034E+00
    0.5000000000E+06    0.2042786534E-02    0.2678003334E-01    0.5532087222E-04    0.6790303982E+00    0.6566411958E+00
    0.7000000000E+06    0.1722948741E-02    0.2671830113E-01    0.4495941336E-04    0.6796239062E+00    0.6571398823E+00
    0.9000000000E+06    0.1519821557E-02    0.2667030855E-01    0.3872274803E-04    0.6799535237E+00    0.6574682376E+00
    0.1100000000E+07    0.1375966748E-02    0.2663099300E-01    0.3445871409E-04    0.6801645267E+00    0.6577068682E+00
    0.1300000000E+07    0.1267114789E-02    0.2659766604E-01    0.3131279461E-04    0.6803118573E+00    0.6578912116E+00
    0.1500000000E+07    0.1180986276E-02    0.2656872662E-01    0.2887120094E-04    0.6804209510E+00    0.6580396635E+00
    0.1700000000E+07    0.1110605521E-02    0.2654314295E-01    0.2690648873E-04    0.6805052282E+00    0.6581628715E+00
    0.1900000000E+07    0.1051674117E-02    0.2652021055E-01    0.2528208310E-04    0.6805724526E+00    0.6582674937E+00
    0.2100000000E+07    0.1001378328E-02    0.2649942670E-01    0.2391043401E-04    0.6806274350E+00    0.6583579415E+00
    0.2300000000E+07    0.9577880128E-03    0.2648041989E-01    0.2273251916E-04    0.6806733190E+00    0.6584372730E+00
    0.2500000000E+07    0.9195287338E-03    0.2646290774E-01    0.2170692322E-04    0.6807122481E+00    0.6585076857E+00
    0.2700000000E+07    0.8855914035E-03    0.2644667047E-01    0.2080362254E-04    0.6807457356E+00    0.6585708065E+00
    0.2900000000E+07    0.8552160669E-03    0.2643153368E-01    0.2000025450E-04    0.6807748814E+00    0.6586278699E+00
    0.3100000000E+07    0.8278179280E-03    0.2641735658E-01    0.1927977780E-04    0.6808005045E+00    0.6586798326E+00
    0.3300000000E+07    0.8029385844E-03    0.2640402390E-01    0.1862894999E-04    0.6808232280E+00    0.6587274492E+00
    0.3500000000E+07    0.7802129038E-03    0.2639144003E-01    0.1803730520E-04    0.6808435344E+00    0.6587713248E+00
    0.3700000000E+07    0.7593459355E-03    0.2637952478E-01    0.1749644881E-04    0.6808618036E+00    0.6588119507E+00
    0.3900000000E+07    0.7400964490E-03    0.2636821025E-01    0.1699955934E-04    0.6808783389E+00    0.6588497312E+00
    0.4100000000E+07    0.7222649623E-03    0.2635743841E-01    0.1654102917E-04    0.6808933852E+00    0.6588850024E+00
    0.4300000000E+07    0.7056848791E-03    0.2634715927E-01    0.1611620060E-04    0.6809071429E+00    0.6589180461E+00
    0.4500000000E+07    0.6902158243E-03    0.2633732949E-01    0.1572116883E-04    0.6809197776E+00    0.6589491014E+00
    0.4700000000E+07    0.6757385605E-03    0.2632791120E-01    0.1535263260E-04    0.6809314270E+00    0.6589783720E+00
    0.4900000000E+07    0.6621510596E-03    0.2631887115E-01    0.1500777947E-04    0.6809422070E+00    0.6590060331E+00
    0.1000000000E+07    0.1442412737E-02    0.2664976893E-01    0.3641292644E-04    0.6800693759E+00    0.6575959763E+00
    0.3000000000E+07    0.8411760124E-03    0.2642433289E-01    0.1963055754E-04    0.6807880906E+00    0.6586544376E+00
    0.5000000000E+07    0.6556630227E-03    0.2631448366E-01    0.1484346650E-04    0.6809473023E+00    0.6590193082E+00
    0.7000000000E+07    0.5565193231E-03    0.2624097640E-01    0.1236168998E-04    0.6810210174E+00    0.6592282928E+00
    0.9000000000E+07    0.4924001758E-03    0.2618560477E-01    0.1078685626E-04    0.6810646326E+00    0.6593709133E+00
    0.1100000000E+08    0.4465552789E-03    0.2614115146E-01    0.9676329311E-05    0.6810939203E+00    0.6594775507E+00
    0.1300000000E+08    0.4116656797E-03    0.2610400486E-01    0.8840329267E-05    0.6811151760E+00    0.6595619018E+00
    0.1500000000E+08    0.3839554935E-03    0.2607209539E-01    0.8182290513E-05    0.6811314354E+00    0.6596312241E+00
    0.1700000000E+08    0.3612525778E-03    0.2604412547E-01    0.7647262555E-05    0.6811443545E+00    0.6596897923E+00
    0.1900000000E+08    0.3422067641E-03    0.2601922748E-01    0.7201393789E-05    0.6811549182E+00    0.6597403207E+00
    0.2100000000E+08    0.3259286244E-03    0.2599679242E-01    0.6822553731E-05    0.6811637521E+00    0.6597846325E+00
    0.2300000000E+08    0.3118051183E-03    0.2597637631E-01    0.6495589750E-05    0.6811712736E+00    0.6598240073E+00
    0.2500000000E+08    0.2993980847E-03    0.2595764546E-01    0.6209735151E-05    0.6811777731E+00    0.6598593752E+00
    0.2700000000E+08    0.2883848853E-03    0.2594034266E-01    0.5957103570E-05    0.6811834593E+00    0.6598914320E+00
