  Pressure (Pa) 2mC6-400 (mol/kg) 3mC6-400 (mol/kg) 33mC5-400 (mol/kg) 23mC5-400 (mol/kg) C7-400 (mol/kg)
    0.1000000000E+01    0.3141965291E-02    0.3114603288E-02    0.6396822321E-04    0.1864568604E-03    0.1179372649E-01
    0.3000000000E+01    0.9021314870E-02    0.8888149761E-02    0.1837503478E-03    0.5555689066E-03    0.3366381287E-01
    0.5000000000E+01    0.1442532625E-01    0.1412615166E-01    0.2939575590E-03    0.9197247717E-03    0.5351505444E-01
    0.7000000000E+01    0.1941842377E-01    0.1890125947E-01    0.3958930918E-03    0.1279055345E-02    0.7162090602E-01
    0.9000000000E+01    0.2405359449E-01    0.2327348744E-01    0.4906280646E-03    0.1633686727E-02    0.8820729595E-01
    0.1100000000E+02    0.2837481695E-01    0.2729285033E-01    0.5790508635E-03    0.1983740451E-02    0.1034625387E+00
    0.1300000000E+02    0.3241889841E-01    0.3100136613E-01    0.6619044868E-03    0.2329333694E-02    0.1175448647E+00
    0.1500000000E+02    0.3621688167E-01    0.3443459576E-01    0.7398151286E-03    0.2670579469E-02    0.1305882092E+00
    0.1700000000E+02    0.3979513433E-01    0.3762283994E-01    0.8133143024E-03    0.3007586817E-02    0.1427067142E+00
    0.1900000000E+02    0.4317620075E-01    0.4059207924E-01    0.8828561379E-03    0.3340460978E-02    0.1539982627E+00
    0.2100000000E+02    0.4637947486E-01    0.4336471934E-01    0.9488310351E-03    0.3669303566E-02    0.1645472826E+00
    0.2300000000E+02    0.4942173599E-01    0.4596018695E-01    0.1011576534E-02    0.3994212717E-02    0.1744269880E+00
    0.2500000000E+02    0.5231757925E-01    0.4839541036E-01    0.1071386042E-02    0.4315283250E-02    0.1837011869E+00
    0.2700000000E+02    0.5507976367E-01    0.5068520971E-01    0.1128515888E-02    0.4632606798E-02    0.1924257500E+00
    0.2900000000E+02    0.5771949596E-01    0.5284261624E-01    0.1183191073E-02    0.4946271953E-02    0.2006498115E+00
    0.3100000000E+02    0.6024666317E-01    0.5487913521E-01    0.1235609981E-02    0.5256364388E-02    0.2084167586E+00
    0.3300000000E+02    0.6267002482E-01    0.5680496365E-01    0.1285948267E-02    0.5562966979E-02    0.2157650510E+00
    0.3500000000E+02    0.6499737229E-01    0.5862917184E-01    0.1334362082E-02    0.5866159924E-02    0.2227289041E+00
    0.3700000000E+02    0.6723566196E-01    0.6035985536E-01    0.1380990764E-02    0.6166020847E-02    0.2293388612E+00
    0.3900000000E+02    0.6939112686E-01    0.6200426308E-01    0.1425959097E-02    0.6462624910E-02    0.2356222751E+00
    0.4100000000E+02    0.7146937083E-01    0.6356890552E-01    0.1469379212E-02    0.6756044904E-02    0.2416037166E+00
    0.4300000000E+02    0.7347544830E-01    0.6505964688E-01    0.1511352196E-02    0.7046351348E-02    0.2473053207E+00
    0.4500000000E+02    0.7541393219E-01    0.6648178374E-01    0.1551969466E-02    0.7333612580E-02    0.2527470825E+00
    0.4700000000E+02    0.7728897182E-01    0.6784011234E-01    0.1591313933E-02    0.7617894839E-02    0.2579471116E+00
    0.4900000000E+02    0.7910434277E-01    0.6913898664E-01    0.1629461011E-02    0.7899262349E-02    0.2629218499E+00
    0.1000000000E+02    0.2625099900E-01    0.2532448344E-01    0.5355790122E-03    0.1809278373E-02    0.9599079132E-01
    0.3000000000E+02    0.5899657831E-01    0.5387532098E-01    0.1209671091E-02    0.5101759516E-02    0.2045879137E+00
    0.5000000000E+02    0.7999074080E-01    0.6976738058E-01    0.1648107259E-02    0.8038872611E-02    0.2653294642E+00
    0.7000000000E+02    0.9528213476E-01    0.8000883416E-01    0.1972057597E-02    0.1069226643E-01    0.3046572894E+00
    0.9000000000E+02    0.1071851746E+00    0.8721721789E-01    0.2227689842E-02    0.1311474719E-01    0.3324635117E+00
    0.1100000000E+03    0.1168242356E+00    0.9259869456E-01    0.2437403000E-02    0.1534618570E-01    0.3533136882E+00
    0.1300000000E+03    0.1248353204E+00    0.9678910554E-01    0.2613880175E-02    0.1741731654E-01    0.3696183754E+00
    0.1500000000E+03    0.1316170816E+00    0.1001567593E+00    0.2765092422E-02    0.1935226145E-01    0.3827760441E+00
    0.1700000000E+03    0.1374380353E+00    0.1029304402E+00    0.2896428269E-02    0.2117025256E-01    0.3936567254E+00
    0.1900000000E+03    0.1424887091E+00    0.1052601470E+00    0.3011727093E-02    0.2288683823E-01    0.4028317079E+00
    0.2100000000E+03    0.1469096512E+00    0.1072485434E+00    0.3113833548E-02    0.2451474498E-01    0.4106925882E+00
    0.2300000000E+03    0.1508076860E+00    0.1089684023E+00    0.3204919341E-02    0.2606450557E-01    0.4175173627E+00
    0.2500000000E+03    0.1542659452E+00    0.1104728339E+00    0.3286681972E-02    0.2754492445E-01    0.4235092132E+00
    0.2700000000E+03    0.1573503712E+00    0.1118015630E+00    0.3360473779E-02    0.2896342795E-01    0.4288203370E+00
    0.2900000000E+03    0.1601141051E+00    0.1129849352E+00    0.3427389185E-02    0.3032633162E-01    0.4335671634E+00
    0.3100000000E+03    0.1626005467E+00    0.1140465570E+00    0.3488325692E-02    0.3163904668E-01    0.4378403949E+00
    0.3300000000E+03    0.1648455480E+00    0.1150050869E+00    0.3544027699E-02    0.3290624140E-01    0.4417118240E+00
    0.3500000000E+03    0.1668790212E+00    0.1158754808E+00    0.3595118732E-02    0.3413196866E-01    0.4452390769E+00
    0.3700000000E+03    0.1687261423E+00    0.1166698770E+00    0.3642125613E-02    0.3531976755E-01    0.4484689877E+00
    0.3900000000E+03    0.1704082663E+00    0.1173982369E+00    0.3685496904E-02    0.3647274526E-01    0.4514400445E+00
    0.4100000000E+03    0.1719436337E+00    0.1180688179E+00    0.3725617176E-02    0.3759364341E-01    0.4541841940E+00
    0.4300000000E+03    0.1733479236E+00    0.1186885269E+00    0.3762818205E-02    0.3868489241E-01    0.4567281941E+00
    0.4500000000E+03    0.1746346902E+00    0.1192631888E+00    0.3797387855E-02    0.3974865608E-01    0.4590946406E+00
    0.4700000000E+03    0.1758157132E+00    0.1197977529E+00    0.3829577190E-02    0.4078686881E-01    0.4613027579E+00
    0.4900000000E+03    0.1769012790E+00    0.1202964535E+00    0.3859606234E-02    0.4180126641E-01    0.4633690147E+00
    0.1000000000E+03    0.1122405108E+00    0.9008804882E-01    0.2337345810E-02    0.1425224605E-01    0.3435751884E+00
    0.3000000000E+03    0.1613895910E+00    0.1135296995E+00    0.3458555112E-02    0.3098865519E-01    0.4357581120E+00
    0.5000000000E+03    0.1774111291E+00    0.1205335142E+00    0.3873872089E-02    0.4230002916E-01    0.4643534594E+00
    0.7000000000E+03    0.1842931777E+00    0.1240579654E+00    0.4082437584E-02    0.5133367096E-01    0.4791947442E+00
    0.9000000000E+03    0.1874374487E+00    0.1262201930E+00    0.4201481257E-02    0.5910210111E-01    0.4885551779E+00
    0.1100000000E+04    0.1887465291E+00    0.1276967441E+00    0.4273842554E-02    0.6605573800E-01    0.4951129721E+00
    0.1300000000E+04    0.1890501652E+00    0.1287756005E+00    0.4318901263E-02    0.7243447492E-01    0.5000213860E+00
    0.1500000000E+04    0.1887617332E+00    0.1296015600E+00    0.4346683870E-02    0.7838174950E-01    0.5038664944E+00
    0.1700000000E+04    0.1881070193E+00    0.1302559253E+00    0.4362887520E-02    0.8399053494E-01    0.5069806862E+00
    0.1900000000E+04    0.1872179579E+00    0.1307881017E+00    0.4370982783E-02    0.8932478488E-01    0.5095678776E+00
    0.2100000000E+04    0.1861757133E+00    0.1312299544E+00    0.4373200978E-02    0.9443053981E-01    0.5117607945E+00
    0.2300000000E+04    0.1850322682E+00    0.1316030161E+00    0.4371039814E-02    0.9934215634E-01    0.5136499165E+00
    0.2500000000E+04    0.1838220010E+00    0.1319223933E+00    0.4365540638E-02    0.1040860267E+00    0.5152992619E+00
    0.2700000000E+04    0.1825682414E+00    0.1321990161E+00    0.4357449072E-02    0.1086829153E+00    0.5167555335E+00
    0.2900000000E+04    0.1812871545E+00    0.1324409994E+00    0.4347312446E-02    0.1131494883E+00    0.5180536853E+00
    0.3100000000E+04    0.1799901294E+00    0.1326545022E+00    0.4335541200E-02    0.1174993514E+00    0.5192204539E+00
    0.3300000000E+04    0.1786852967E+00    0.1328442878E+00    0.4322448877E-02    0.1217437744E+00    0.5202766765E+00
    0.3500000000E+04    0.1773785187E+00    0.1330141013E+00    0.4308278917E-02    0.1258922112E+00    0.5212388591E+00
    0.3700000000E+04    0.1760740520E+00    0.1331669301E+00    0.4293223060E-02    0.1299526798E+00    0.5221202652E+00
    0.3900000000E+04    0.1747749989E+00    0.1333051877E+00    0.4277434267E-02    0.1339320474E+00    0.5229316878E+00
    0.4100000000E+04    0.1734836220E+00    0.1334308464E+00    0.4261035969E-02    0.1378362466E+00    0.5236820097E+00
    0.4300000000E+04    0.1722015665E+00    0.1335455343E+00    0.4244128794E-02    0.1416704420E+00    0.5243786153E+00
    0.4500000000E+04    0.1709300186E+00    0.1336506082E+00    0.4226795556E-02    0.1454391615E+00    0.5250276999E+00
    0.4700000000E+04    0.1696698219E+00    0.1337472080E+00    0.4209104985E-02    0.1491463997E+00    0.5256345040E+00
    0.4900000000E+04    0.1684215614E+00    0.1338362986E+00    0.4191114573E-02    0.1527957005E+00    0.5262034942E+00
    0.1000000000E+04    0.1882554393E+00    0.1270212863E+00    0.4241972474E-02    0.6266269213E-01    0.4920930041E+00
    0.3000000000E+04    0.1806400633E+00    0.1325509855E+00    0.4341609647E-02    0.1153382564E+00    0.5186520732E+00
    0.5000000000E+04    0.1678020353E+00    0.1338782899E+00    0.4182022366E-02    0.1545996257E+00    0.5264750285E+00
    0.7000000000E+04    0.1560723730E+00    0.1344718193E+00    0.3992962479E-02    0.1882523562E+00    0.5306180050E+00
    0.9000000000E+04    0.1455168711E+00    0.1348006558E+00    0.3801314533E-02    0.2183181472E+00    0.5333027945E+00
    0.1100000000E+05    0.1359594023E+00    0.1350039651E+00    0.3614167515E-02    0.2456763724E+00    0.5352337795E+00
    0.1300000000E+05    0.1272509605E+00    0.1351380812E+00    0.3434075754E-02    0.2708078719E+00    0.5367135110E+00
    0.1500000000E+05    0.1192789746E+00    0.1352302083E+00    0.3262081781E-02    0.2940171191E+00    0.5378964821E+00
    0.1700000000E+05    0.1119569079E+00    0.1352950919E+00    0.3098587119E-02    0.3155190384E+00    0.5388710881E+00
    0.1900000000E+05    0.1052157227E+00    0.1353414080E+00    0.2943670080E-02    0.3354785477E+00    0.5396921866E+00
    0.2100000000E+05    0.9899832469E-01    0.1353745850E+00    0.2797224848E-02    0.3540303936E+00    0.5403959706E+00
    0.2300000000E+05    0.9325607848E-01    0.1353981852E+00    0.2659032469E-02    0.3712897616E+00    0.5410074896E+00
    0.2500000000E+05    0.8794661131E-01    0.1354146376E+00    0.2528802119E-02    0.3873582179E+00    0.5415447599E+00
    0.2700000000E+05    0.8303240121E-01    0.1354256510E+00    0.2406197651E-02    0.4023271577E+00    0.5420211540E+00
    0.2900000000E+05    0.7847984356E-01    0.1354324592E+00    0.2290855925E-02    0.4162798762E+00    0.5424468606E+00
    0.3100000000E+05    0.7425861181E-01    0.1354359730E+00    0.2182399994E-02    0.4292928614E+00    0.5428298153E+00
    0.3300000000E+05    0.7034120081E-01    0.1354368776E+00    0.2080448801E-02    0.4414366440E+00    0.5431763157E+00
    0.3500000000E+05    0.6670258535E-01    0.1354356964E+00    0.1984624320E-02    0.4527763924E+00    0.5434914393E+00
    0.3700000000E+05    0.6331995244E-01    0.1354328357E+00    0.1894556776E-02    0.4633723621E+00    0.5437793371E+00
    0.3900000000E+05    0.6017248214E-01    0.1354286142E+00    0.1809888368E-02    0.4732802619E+00    0.5440434432E+00
    0.4100000000E+05    0.5724116150E-01    0.1354232849E+00    0.1730275840E-02    0.4825515713E+00    0.5442866281E+00
    0.4300000000E+05    0.5450862196E-01    0.1354170505E+00    0.1655392137E-02    0.4912338290E+00    0.5445113136E+00
    0.4500000000E+05    0.5195899448E-01    0.1354100751E+00    0.1584927366E-02    0.4993709021E+00    0.5447195589E+00
    0.4700000000E+05    0.4957777858E-01    0.1354024921E+00    0.1518589213E-02    0.5070032409E+00    0.5449131281E+00
    0.4900000000E+05    0.4735172320E-01    0.1353944111E+00    0.1456102959E-02    0.5141681221E+00    0.5450935417E+00
    0.1000000000E+05    0.1406236573E+00    0.1349134713E+00    0.3706965856E-02    0.2322999516E+00    0.5343385517E+00
    0.3000000000E+05    0.7632959271E-01    0.1354345807E+00    0.2235791049E-02    0.4228992955E+00    0.5426432556E+00
    0.5000000000E+05    0.4629305435E-01    0.1353902128E+00    0.1426223189E-02    0.5175861045E+00    0.5451792341E+00
    0.7000000000E+05    0.3083689669E-01    0.1352953744E+00    0.9770855527E-03    0.5683838820E+00    0.5464458590E+00
    0.9000000000E+05    0.2210846202E-01    0.1351973248E+00    0.7111027020E-03    0.5980371950E+00    0.5472162585E+00
    0.1100000000E+06    0.1676391899E-01    0.1351047470E+00    0.5426791060E-03    0.6167129642E+00    0.5477434800E+00
    0.1300000000E+06    0.1326909175E-01    0.1350191096E+00    0.4297547883E-03    0.6292304964E+00    0.5481335786E+00
    0.1500000000E+06    0.1086018127E-01    0.1349401476E+00    0.3504080346E-03    0.6380507494E+00    0.5484383699E+00
    0.1700000000E+06    0.9127672763E-02    0.1348671870E+00    0.2924797131E-03    0.6445215695E+00    0.5486860998E+00
    0.1900000000E+06    0.7837611931E-02    0.1347995150E+00    0.2488355332E-03    0.6494274765E+00    0.5488934958E+00
    0.2100000000E+06    0.6848982928E-02    0.1347364839E+00    0.2150805793E-03    0.6532493434E+00    0.5490711256E+00
    0.2300000000E+06    0.6072852037E-02    0.1346775327E+00    0.1883920618E-03    0.6562951352E+00    0.5492260194E+00
    0.2500000000E+06    0.5450931499E-02    0.1346221836E+00    0.1668908566E-03    0.6587695858E+00    0.5493630554E+00
    0.2700000000E+06    0.4943738408E-02    0.1345700314E+00    0.1492868220E-03    0.6608132325E+00    0.5494857380E+00
    0.2900000000E+06    0.4523754789E-02    0.1345207316E+00    0.1346701438E-03    0.6625252542E+00    0.5495966596E+00
    0.3100000000E+06    0.4171319612E-02    0.1344739904E+00    0.1223840188E-03    0.6639773519E+00    0.5496977857E+00
    0.3300000000E+06    0.3872075909E-02    0.1344295558E+00    0.1119444251E-03    0.6652224709E+00    0.5497906385E+00
    0.3500000000E+06    0.3615335851E-02    0.1343872106E+00    0.1029881010E-03    0.6663004459E+00    0.5498764187E+00
    0.3700000000E+06    0.3393005389E-02    0.1343467661E+00    0.9523794564E-04    0.6672417500E+00    0.5499560890E+00
    0.3900000000E+06    0.3198859927E-02    0.1343080581E+00    0.8847947951E-04    0.6680700452E+00    0.5500304317E+00
    0.4100000000E+06    0.3028045920E-02    0.1342709423E+00    0.8254449854E-04    0.6688039518E+00    0.5501000908E+00
    0.4300000000E+06    0.2876731262E-02    0.1342352917E+00    0.7729951236E-04    0.6694583016E+00    0.5501656024E+00
    0.4500000000E+06    0.2741855748E-02    0.1342009939E+00    0.7263742883E-04    0.6700450391E+00    0.5502274170E+00
    0.4700000000E+06    0.2620950126E-02    0.1341679488E+00    0.6847148173E-04    0.6705738802E+00    0.5502859169E+00
    0.4900000000E+06    0.2512002959E-02    0.1341360670E+00    0.6473073427E-04    0.6710528012E+00    0.5503414288E+00
    0.1000000000E+06    0.1913476971E-01    0.1351501907E+00    0.6179808010E-03    0.6083682837E+00    0.5475017753E+00
    0.3000000000E+06    0.4340092711E-02    0.1344970578E+00    0.1282693481E-03    0.6632801225E+00    0.5496483432E+00
    0.5000000000E+06    0.2461485453E-02    0.1341205369E+00    0.6300112342E-04    0.6712756507E+00    0.5503681537E+00
    0.7000000000E+06    0.1799007612E-02    0.1338552988E+00    0.4078521456E-04    0.6742436700E+00    0.5507974527E+00
    0.9000000000E+06    0.1463914852E-02    0.1336499456E+00    0.3014158158E-04    0.6757712364E+00    0.5511019875E+00
    0.1100000000E+07    0.1260091450E-02    0.1334821421E+00    0.2403308482E-04    0.6767010044E+00    0.5513373735E+00
    0.1300000000E+07    0.1121616469E-02    0.1333401400E+00    0.2011169364E-04    0.6773276063E+00    0.5515289202E+00
    0.1500000000E+07    0.1020432639E-02    0.1332169843E+00    0.1739484671E-04    0.6777797132E+00    0.5516902395E+00
    0.1700000000E+07    0.9426228992E-03    0.1331082108E+00    0.1540581720E-04    0.6781222176E+00    0.5518294802E+00
    0.1900000000E+07    0.8804988570E-03    0.1330107810E+00    0.1388770907E-04    0.6783913361E+00    0.5519519010E+00
    0.2100000000E+07    0.8294594757E-03    0.1329225313E+00    0.1269077222E-04    0.6786088626E+00    0.5520610895E+00
    0.2300000000E+07    0.7865761473E-03    0.1328418661E+00    0.1172221195E-04    0.6787886981E+00    0.5521596011E+00
    0.2500000000E+07    0.7498912566E-03    0.1327675742E+00    0.1092164197E-04    0.6789401302E+00    0.5522493193E+00
    0.2700000000E+07    0.7180431814E-03    0.1326987142E+00    0.1024815800E-04    0.6790696038E+00    0.5523316717E+00
    0.2900000000E+07    0.6900531896E-03    0.1326345399E+00    0.9673109859E-05    0.6791817337E+00    0.5524077656E+00
    0.3100000000E+07    0.6651980721E-03    0.1325744494E+00    0.9175853694E-05    0.6792799131E+00    0.5524784775E+00
    0.3300000000E+07    0.6429307276E-03    0.1325179505E+00    0.8741148701E-05    0.6793666944E+00    0.5525445121E+00
    0.3500000000E+07    0.6228288256E-03    0.1324646350E+00    0.8357503443E-05    0.6794440354E+00    0.5526064450E+00
    0.3700000000E+07    0.6045605733E-03    0.1324141610E+00    0.8016092251E-05    0.6795134638E+00    0.5526647522E+00
    0.3900000000E+07    0.5878612625E-03    0.1323662388E+00    0.7710025671E-05    0.6795761899E+00    0.5527198315E+00
    0.4100000000E+07    0.5725168146E-03    0.1323206213E+00    0.7433847406E-05    0.6796331853E+00    0.5527720190E+00
    0.4300000000E+07    0.5583519917E-03    0.1322770955E+00    0.7183179974E-05    0.6796852397E+00    0.5528216010E+00
    0.4500000000E+07    0.5452217896E-03    0.1322354770E+00    0.6954470358E-05    0.6797330013E+00    0.5528688236E+00
    0.4700000000E+07    0.5330050493E-03    0.1321956046E+00    0.6744804261E-05    0.6797770079E+00    0.5529138995E+00
    0.4900000000E+07    0.5215996413E-03    0.1321573368E+00    0.6551768376E-05    0.6798177093E+00    0.5529570142E+00
    0.1000000000E+07    0.1351094966E-02    0.1335622381E+00    0.2671705479E-04    0.6762864435E+00    0.5512263497E+00
    0.3000000000E+07    0.6772713875E-03    0.1326040172E+00    0.9415814105E-05    0.6792323914E+00    0.5524437468E+00
    0.5000000000E+07    0.5161735514E-03    0.1321387651E+00    0.6460843563E-05    0.6798369415E+00    0.5529778877E+00
    0.7000000000E+07    0.4346872945E-03    0.1318277082E+00    0.5164096720E-05    0.6801151866E+00    0.5533230530E+00
    0.9000000000E+07    0.3831783238E-03    0.1315934751E+00    0.4407458262E-05    0.6802804301E+00    0.5535782130E+00
    0.1100000000E+08    0.3467919608E-03    0.1314054555E+00    0.3900044285E-05    0.6803920490E+00    0.5537806044E+00
    0.1300000000E+08    0.3193017694E-03    0.1312483485E+00    0.3530553636E-05    0.6804735642E+00    0.5539482988E+00
    0.1500000000E+08    0.2975725789E-03    0.1311133915E+00    0.3246470006E-05    0.6805362962E+00    0.5540914389E+00
    0.1700000000E+08    0.2798290518E-03    0.1309950935E+00    0.3019477381E-05    0.6805864222E+00    0.5542162873E+00
    0.1900000000E+08    0.2649797022E-03    0.1308897837E+00    0.2832823216E-05    0.6806276239E+00    0.5543269819E+00
    0.2100000000E+08    0.2523112417E-03    0.1307948864E+00    0.2675894246E-05    0.6806622445E+00    0.5544264001E+00
    0.2300000000E+08    0.2413350028E-03    0.1307085241E+00    0.2541603606E-05    0.6806918528E+00    0.5545166229E+00
    0.2500000000E+08    0.2317033611E-03    0.1306292858E+00    0.2425017689E-05    0.6807175428E+00    0.5545992044E+00
    0.2700000000E+08    0.2231613042E-03    0.1305560842E+00    0.2322583585E-05    0.6807401028E+00    0.5546753355E+00
