  Pressure (Pa) 2mC6-400 (mol/kg) 3mC6-400 (mol/kg) 33mC5-400 (mol/kg) 23mC5-400 (mol/kg) C7-400 (mol/kg)
    0.1000000000E+01    0.3154732776E-02    0.1043958813E-02    0.6422395338E-04    0.6521541258E-03    0.1016469448E-01
    0.3000000000E+01    0.9124592664E-02    0.3010042266E-02    0.1858165375E-03    0.1940562455E-02    0.2931329086E-01
    0.5000000000E+01    0.1468419558E-01    0.4829273063E-02    0.2991302938E-03    0.3208326478E-02    0.4703840136E-01
    0.7000000000E+01    0.1987791108E-01    0.6517926440E-02    0.4050632913E-03    0.4456087733E-02    0.6349755076E-01
    0.9000000000E+01    0.2474371222E-01    0.8089943494E-02    0.5043837688E-03    0.5684460397E-02    0.7882568914E-01
    0.1100000000E+02    0.2931429705E-01    0.9557335909E-02    0.5977529391E-03    0.6894032748E-02    0.9313910436E-01
    0.1300000000E+02    0.3361798223E-01    0.1093050923E-01    0.6857431518E-03    0.8085368533E-02    0.1065385475E+00
    0.1500000000E+02    0.3767942075E-01    0.1221852324E-01    0.7688524796E-03    0.9259008253E-02    0.1191117501E+00
    0.1700000000E+02    0.4152018295E-01    0.1342930317E-01    0.8475165215E-03    0.1041547037E-01    0.1309354669E+00
    0.1900000000E+02    0.4515923019E-01    0.1456981242E-01    0.9221180225E-03    0.1155525241E-01    0.1420771454E+00
    0.2100000000E+02    0.4861330355E-01    0.1564619450E-01    0.9929947660E-03    0.1267883208E-01    0.1525962994E+00
    0.2300000000E+02    0.5189724487E-01    0.1666389064E-01    0.1060446090E-02    0.1378666819E-01    0.1625456457E+00
    0.2500000000E+02    0.5502426350E-01    0.1762773765E-01    0.1124738300E-02    0.1487920165E-01    0.1719720511E+00
    0.2700000000E+02    0.5800615902E-01    0.1854204984E-01    0.1186109185E-02    0.1595685631E-01    0.1809173247E+00
    0.2900000000E+02    0.6085350843E-01    0.1941068798E-01    0.1244771818E-02    0.1702003981E-01    0.1894188846E+00
    0.3100000000E+02    0.6357582398E-01    0.2023711753E-01    0.1300917748E-02    0.1806914435E-01    0.1975103225E+00
    0.3300000000E+02    0.6618168707E-01    0.2102445824E-01    0.1354719722E-02    0.1910454743E-01    0.2052218820E+00
    0.3500000000E+02    0.6867886233E-01    0.2177552633E-01    0.1406333990E-02    0.2012661255E-01    0.2125808678E+00
    0.3700000000E+02    0.7107439509E-01    0.2249287069E-01    0.1455902281E-02    0.2113568984E-01    0.2196119956E+00
    0.3900000000E+02    0.7337469517E-01    0.2317880399E-01    0.1503553500E-02    0.2213211671E-01    0.2263376935E+00
    0.4100000000E+02    0.7558560908E-01    0.2383542959E-01    0.1549405188E-02    0.2311621840E-01    0.2327783618E+00
    0.4300000000E+02    0.7771248247E-01    0.2446466475E-01    0.1593564786E-02    0.2408830857E-01    0.2389525984E+00
    0.4500000000E+02    0.7976021444E-01    0.2506826090E-01    0.1636130734E-02    0.2504868978E-01    0.2448773945E+00
    0.4700000000E+02    0.8173330469E-01    0.2564782127E-01    0.1677193425E-02    0.2599765401E-01    0.2505683055E+00
    0.4900000000E+02    0.8363589493E-01    0.2620481633E-01    0.1716836037E-02    0.2693548313E-01    0.2560396004E+00
    0.1000000000E+02    0.2706404336E-01    0.8836033111E-02    0.5517745990E-03    0.6291560818E-02    0.8610260816E-01
    0.3000000000E+02    0.6222973871E-01    0.1982897627E-01    0.1273148162E-02    0.1754632802E-01    0.1935139052E+00
    0.5000000000E+02    0.8456195791E-01    0.2647527844E-01    0.1736149018E-02    0.2740030744E-01    0.2586970317E+00
    0.7000000000E+02    0.1001691532E+00    0.3097598617E-01    0.2063654344E-02    0.3617372445E-01    0.3029964197E+00
    0.9000000000E+02    0.1117018420E+00    0.3425216446E-01    0.2308852126E-02    0.4409263203E-01    0.3353552621E+00
    0.1100000000E+03    0.1205333569E+00    0.3675933779E-01    0.2499276290E-02    0.5132156801E-01    0.3602019604E+00
    0.1300000000E+03    0.1274628396E+00    0.3874961760E-01    0.2650954191E-02    0.5798342926E-01    0.3799903862E+00
    0.1500000000E+03    0.1329943674E+00    0.4037435585E-01    0.2774008157E-02    0.6417206011E-01    0.3961954460E+00
    0.1700000000E+03    0.1374650996E+00    0.4173019343E-01    0.2875221683E-02    0.6996050195E-01    0.4097600027E+00
    0.1900000000E+03    0.1411107518E+00    0.4288189808E-01    0.2959348648E-02    0.7540656085E-01    0.4213166886E+00
    0.2100000000E+03    0.1441018937E+00    0.4387460447E-01    0.3029838549E-02    0.8055666234E-01    0.4313068741E+00
    0.2300000000E+03    0.1465654017E+00    0.4474079340E-01    0.3089264987E-02    0.8544858105E-01    0.4400485489E+00
    0.2500000000E+03    0.1485978035E+00    0.4550447770E-01    0.3139592257E-02    0.9011341268E-01    0.4477770658E+00
    0.2700000000E+03    0.1502739321E+00    0.4618382123E-01    0.3182348318E-02    0.9457702405E-01    0.4546706490E+00
    0.2900000000E+03    0.1516527346E+00    0.4679283691E-01    0.3218741006E-02    0.9886113667E-01    0.4608669450E+00
    0.3100000000E+03    0.1527812869E+00    0.4734252222E-01    0.3249738423E-02    0.1029841482E+00    0.4664740975E+00
    0.3300000000E+03    0.1536976365E+00    0.4784163870E-01    0.3276125937E-02    0.1069617632E+00    0.4715783562E+00
    0.3500000000E+03    0.1544328591E+00    0.4829726001E-01    0.3298547487E-02    0.1108074841E+00    0.4762494290E+00
    0.3700000000E+03    0.1550125747E+00    0.4871516507E-01    0.3317536056E-02    0.1145329958E+00    0.4805443242E+00
    0.3900000000E+03    0.1554580823E+00    0.4910012534E-01    0.3333536543E-02    0.1181484726E+00    0.4845101614E+00
    0.4100000000E+03    0.1557872230E+00    0.4945611834E-01    0.3346923161E-02    0.1216628225E+00    0.4881862594E+00
    0.4300000000E+03    0.1560150429E+00    0.4978648853E-01    0.3358012854E-02    0.1250838860E+00    0.4916057134E+00
    0.4500000000E+03    0.1561543110E+00    0.5009407033E-01    0.3367075767E-02    0.1284185971E+00    0.4947965992E+00
    0.4700000000E+03    0.1562159248E+00    0.5038128323E-01    0.3374343488E-02    0.1316731157E+00    0.4977829068E+00
    0.4900000000E+03    0.1562092335E+00    0.5065020621E-01    0.3380015616E-02    0.1348529373E+00    0.5005852701E+00
    0.1000000000E+03    0.1163961979E+00    0.3558296309E-01    0.2409726983E-02    0.4778486352E-01    0.3485336031E+00
    0.3000000000E+03    0.1522457297E+00    0.4707450319E-01    0.3234861302E-02    0.1009417417E+00    0.4637383320E+00
    0.5000000000E+03    0.1561828366E+00    0.5077838028E-01    0.3382308278E-02    0.1364163950E+00    0.5019231477E+00
    0.7000000000E+03    0.1535368469E+00    0.5271232157E-01    0.3376177262E-02    0.1647265846E+00    0.5223148108E+00
    0.9000000000E+03    0.1489113947E+00    0.5392929196E-01    0.3316748504E-02    0.1890144734E+00    0.5354023242E+00
    0.1100000000E+04    0.1436730523E+00    0.5477679318E-01    0.3235732029E-02    0.2106289626E+00    0.5446812338E+00
    0.1300000000E+04    0.1383244819E+00    0.5540607147E-01    0.3145794044E-02    0.2302747441E+00    0.5516861719E+00
    0.1500000000E+04    0.1330717389E+00    0.5589449978E-01    0.3052746647E-02    0.2483694315E+00    0.5572084796E+00
    0.1700000000E+04    0.1280024437E+00    0.5628614494E-01    0.2959503824E-02    0.2651836361E+00    0.5617022219E+00
    0.1900000000E+04    0.1231520630E+00    0.5660811174E-01    0.2867609596E-02    0.2809049721E+00    0.5654486625E+00
    0.2100000000E+04    0.1185315996E+00    0.5687806792E-01    0.2777905034E-02    0.2956706553E+00    0.5686323761E+00
    0.2300000000E+04    0.1141401666E+00    0.5710806480E-01    0.2690847221E-02    0.3095855089E+00    0.5713800807E+00
    0.2500000000E+04    0.1099710594E+00    0.5730662864E-01    0.2606673040E-02    0.3227325534E+00    0.5737819918E+00
    0.2700000000E+04    0.1060148212E+00    0.5747997588E-01    0.2525488263E-02    0.3351795549E+00    0.5759042857E+00
    0.2900000000E+04    0.1022608398E+00    0.5763275448E-01    0.2447318353E-02    0.3469832419E+00    0.5777967355E+00
    0.3100000000E+04    0.9869819299E-01    0.5776851487E-01    0.2372138634E-02    0.3581921153E+00    0.5794975821E+00
    0.3300000000E+04    0.9531609830E-01    0.5789001960E-01    0.2299892822E-02    0.3688483756E+00    0.5810367489E+00
    0.3500000000E+04    0.9210414636E-01    0.5799945294E-01    0.2230504757E-02    0.3789892787E+00    0.5824380271E+00
    0.3700000000E+04    0.8905241594E-01    0.5809856639E-01    0.2163886019E-02    0.3886481112E+00    0.5837205988E+00
    0.3900000000E+04    0.8615152238E-01    0.5818878212E-01    0.2099940980E-02    0.3978549071E+00    0.5849001225E+00
    0.4100000000E+04    0.8339262882E-01    0.5827126776E-01    0.2038570215E-02    0.4066369842E+00    0.5859895222E+00
    0.4300000000E+04    0.8076743693E-01    0.5834699156E-01    0.1979672840E-02    0.4150193534E+00    0.5869995710E+00
    0.4500000000E+04    0.7826816659E-01    0.5841676377E-01    0.1923148131E-02    0.4230250363E+00    0.5879393298E+00
    0.4700000000E+04    0.7588753012E-01    0.5848126789E-01    0.1868896641E-02    0.4306753163E+00    0.5888164810E+00
    0.4900000000E+04    0.7361870416E-01    0.5854108489E-01    0.1816820986E-02    0.4379899400E+00    0.5896375867E+00
    0.1000000000E+04    0.1463269591E+00    0.5438726495E-01    0.3277909634E-02    0.2001025913E+00    0.5403967603E+00
    0.3000000000E+04    0.1004562802E+00    0.5770257366E-01    0.2409357659E-02    0.3526592632E+00    0.5786690736E+00
    0.5000000000E+04    0.7252420775E-01    0.5856939392E-01    0.1791569362E-02    0.4415271724E+00    0.5900289171E+00
    0.7000000000E+04    0.5515787449E-01    0.5897946277E-01    0.1379449923E-02    0.4985109044E+00    0.5959433215E+00
    0.9000000000E+04    0.4379871253E-01    0.5921846335E-01    0.1097841307E-02    0.5368230980E+00    0.5996946938E+00
    0.1100000000E+05    0.3601709425E-01    0.5937390576E-01    0.8990918737E-03    0.5636500192E+00    0.6023366720E+00
    0.1300000000E+05    0.3046555667E-01    0.5948207960E-01    0.7542733865E-03    0.5831212027E+00    0.6043233600E+00
    0.1500000000E+05    0.2636412211E-01    0.5956086956E-01    0.6456444710E-03    0.5977014516E+00    0.6058861140E+00
    0.1700000000E+05    0.2324200662E-01    0.5962014774E-01    0.5620488259E-03    0.6089166788E+00    0.6071564931E+00
    0.1900000000E+05    0.2080373796E-01    0.5966582125E-01    0.4962646692E-03    0.6177450775E+00    0.6082154072E+00
    0.2100000000E+05    0.1885718284E-01    0.5970164525E-01    0.4434804202E-03    0.6248342797E+00    0.6091156416E+00
    0.2300000000E+05    0.1727337671E-01    0.5973012231E-01    0.4004023444E-03    0.6306257899E+00    0.6098932602E+00
    0.2500000000E+05    0.1596327452E-01    0.5975298457E-01    0.3647191227E-03    0.6354286030E+00    0.6105738345E+00
    0.2700000000E+05    0.1486382895E-01    0.5977146873E-01    0.3347719703E-03    0.6394641173E+00    0.6111760590E+00
    0.2900000000E+05    0.1392938915E-01    0.5978648100E-01    0.3093460306E-03    0.6428943376E+00    0.6117139547E+00
    0.3100000000E+05    0.1312623254E-01    0.5979870016E-01    0.2875351563E-03    0.6458400625E+00    0.6121982683E+00
    0.3300000000E+05    0.1242899724E-01    0.5980864436E-01    0.2686522176E-03    0.6483929017E+00    0.6126373923E+00
    0.3500000000E+05    0.1181829882E-01    0.5981671569E-01    0.2521683280E-03    0.6506233967E+00    0.6130379883E+00
    0.3700000000E+05    0.1127910393E-01    0.5982323064E-01    0.2376708506E-03    0.6525866199E+00    0.6134054197E+00
    0.3900000000E+05    0.1079959847E-01    0.5982844155E-01    0.2248338543E-03    0.6543261079E+00    0.6137440596E+00
    0.4100000000E+05    0.1037038584E-01    0.5983255188E-01    0.2133969823E-03    0.6558766722E+00    0.6140575139E+00
    0.4300000000E+05    0.9983909698E-02    0.5983572733E-01    0.2031501062E-03    0.6572664387E+00    0.6143487859E+00
    0.4500000000E+05    0.9634032063E-02    0.5983810409E-01    0.1939220243E-03    0.6585183497E+00    0.6146203999E+00
    0.4700000000E+05    0.9315720744E-02    0.5983979501E-01    0.1855720304E-03    0.6596512837E+00    0.6148744951E+00
    0.4900000000E+05    0.9024814780E-02    0.5984089432E-01    0.1779835475E-03    0.6606809014E+00    0.6151128979E+00
    0.1000000000E+05    0.3956254077E-01    0.5930372779E-01    0.9902513842E-03    0.5513632203E+00    0.6011183904E+00
    0.3000000000E+05    0.1351314907E-01    0.5979290417E-01    0.2980359656E-03    0.6444214624E+00    0.6119622380E+00
    0.5000000000E+05    0.8888532012E-02    0.5984124738E-01    0.1744438202E-03    0.6611611429E+00    0.6152267140E+00
    0.7000000000E+05    0.7001115875E-02    0.5983110998E-01    0.1267557028E-03    0.6676166344E+00    0.6169657618E+00
    0.9000000000E+05    0.5951339919E-02    0.5980596106E-01    0.1017667651E-03    0.6709639694E+00    0.6180931075E+00
    0.1100000000E+06    0.5268106978E-02    0.5977659830E-01    0.8635369800E-04    0.6729951331E+00    0.6189027228E+00
    0.1300000000E+06    0.4779936641E-02    0.5974656450E-01    0.7584196650E-04    0.6743536508E+00    0.6195221379E+00
    0.1500000000E+06    0.4409158235E-02    0.5971716938E-01    0.6817109424E-04    0.6753243575E+00    0.6200168877E+00
    0.1700000000E+06    0.4115223543E-02    0.5968890208E-01    0.6229587074E-04    0.6760518753E+00    0.6204245933E+00
    0.1900000000E+06    0.3874745160E-02    0.5966191765E-01    0.5763036828E-04    0.6766171500E+00    0.6207686173E+00
    0.2100000000E+06    0.3673201275E-02    0.5963622781E-01    0.5382060519E-04    0.6770689142E+00    0.6210643468E+00
    0.2300000000E+06    0.3501049082E-02    0.5961178257E-01    0.5063992862E-04    0.6774382163E+00    0.6213223913E+00
    0.2500000000E+06    0.3351729918E-02    0.5958850722E-01    0.4793631547E-04    0.6777457545E+00    0.6215503390E+00
    0.2700000000E+06    0.3220569213E-02    0.5956631960E-01    0.4560385694E-04    0.6780058484E+00    0.6217537832E+00
    0.2900000000E+06    0.3104133706E-02    0.5954513820E-01    0.4356640544E-04    0.6782287150E+00    0.6219369513E+00
    0.3100000000E+06    0.2999837481E-02    0.5952488582E-01    0.4176773360E-04    0.6784218375E+00    0.6221031073E+00
    0.3300000000E+06    0.2905690640E-02    0.5950549106E-01    0.4016536672E-04    0.6785908207E+00    0.6222548175E+00
    0.3500000000E+06    0.2820133419E-02    0.5948688868E-01    0.3872658116E-04    0.6787399451E+00    0.6223941323E+00
    0.3700000000E+06    0.2741923440E-02    0.5946901945E-01    0.3742572897E-04    0.6788725354E+00    0.6225227125E+00
    0.3900000000E+06    0.2670057114E-02    0.5945182978E-01    0.3624240186E-04    0.6789912134E+00    0.6226419202E+00
    0.4100000000E+06    0.2603713592E-02    0.5943527121E-01    0.3516014184E-04    0.6790980737E+00    0.6227528846E+00
    0.4300000000E+06    0.2542214020E-02    0.5941929993E-01    0.3416551705E-04    0.6791948105E+00    0.6228565513E+00
    0.4500000000E+06    0.2484991377E-02    0.5940387625E-01    0.3324744717E-04    0.6792828082E+00    0.6229537188E+00
    0.4700000000E+06    0.2431567798E-02    0.5938896420E-01    0.3239670292E-04    0.6793632098E+00    0.6230450672E+00
    0.4900000000E+06    0.2381537289E-02    0.5937453112E-01    0.3160552914E-04    0.6794369666E+00    0.6231311796E+00
    0.1000000000E+06    0.5577974165E-02    0.5979150389E-01    0.9324929749E-04    0.6720910012E+00    0.6185275527E+00
    0.3000000000E+06    0.3050604257E-02    0.5953490049E-01    0.4264014414E-04    0.6783286075E+00    0.6220219815E+00
    0.5000000000E+06    0.2357683862E-02    0.5936748479E-01    0.3123018855E-04    0.6794716079E+00    0.6231724324E+00
    0.7000000000E+06    0.1995738023E-02    0.5924573285E-01    0.2567980235E-04    0.6799556714E+00    0.6238151982E+00
    0.9000000000E+06    0.1763744952E-02    0.5914995303E-01    0.2226019936E-04    0.6802250571E+00    0.6242461663E+00
    0.1100000000E+07    0.1598618033E-02    0.5907090765E-01    0.1988902930E-04    0.6803975562E+00    0.6245639781E+00
    0.1300000000E+07    0.1473277071E-02    0.5900355531E-01    0.1812312760E-04    0.6805179429E+00    0.6248125273E+00
    0.1500000000E+07    0.1373890395E-02    0.5894484332E-01    0.1674340499E-04    0.6806070059E+00    0.6250148280E+00
    0.1700000000E+07    0.1292551150E-02    0.5889278181E-01    0.1562762443E-04    0.6806757328E+00    0.6251843156E+00
    0.1900000000E+07    0.1224365518E-02    0.5884600064E-01    0.1470155383E-04    0.6807304867E+00    0.6253294557E+00
    0.2100000000E+07    0.1166119475E-02    0.5880351564E-01    0.1391718716E-04    0.6807752125E+00    0.6254558959E+00
    0.2300000000E+07    0.1115602723E-02    0.5876459568E-01    0.1324193210E-04    0.6808124889E+00    0.6255675754E+00
    0.2500000000E+07    0.1071238188E-02    0.5872868259E-01    0.1265278678E-04    0.6808440741E+00    0.6256673414E+00
    0.2700000000E+07    0.1031866143E-02    0.5869534040E-01    0.1213299596E-04    0.6808712094E+00    0.6257573128E+00
    0.2900000000E+07    0.9966120263E-03    0.5866422200E-01    0.1167002913E-04    0.6808947967E+00    0.6258391056E+00
    0.3100000000E+07    0.9648021024E-03    0.5863504651E-01    0.1125430429E-04    0.6809155073E+00    0.6259139777E+00
    0.3300000000E+07    0.9359077547E-03    0.5860758330E-01    0.1087835316E-04    0.6809338519E+00    0.6259829260E+00
    0.3500000000E+07    0.9095075828E-03    0.5858164075E-01    0.1053625786E-04    0.6809502257E+00    0.6260467530E+00
    0.3700000000E+07    0.8852609451E-03    0.5855705780E-01    0.1022326078E-04    0.6809649397E+00    0.6261061130E+00
    0.3900000000E+07    0.8628890712E-03    0.5853369784E-01    0.9935488004E-05    0.6809782421E+00    0.6261615462E+00
    0.4100000000E+07    0.8421613116E-03    0.5851144394E-01    0.9669749154E-05    0.6809903334E+00    0.6262135035E+00
    0.4300000000E+07    0.8228849486E-03    0.5849019525E-01    0.9423389989E-05    0.6810013772E+00    0.6262623643E+00
    0.4500000000E+07    0.8048975273E-03    0.5846986417E-01    0.9194182033E-05    0.6810115088E+00    0.6263084513E+00
    0.4700000000E+07    0.7880610022E-03    0.5845037412E-01    0.8980238736E-05    0.6810208408E+00    0.6263520404E+00
    0.4900000000E+07    0.7722572108E-03    0.5843165776E-01    0.8779950955E-05    0.6810294677E+00    0.6263933698E+00
    0.1000000000E+07    0.1674967568E-02    0.5910871658E-01    0.2097900368E-04    0.6803197731E+00    0.6244157685E+00
    0.3000000000E+07    0.9803124679E-03    0.5864940683E-01    0.1145677014E-04    0.6809054765E+00    0.6258773392E+00
    0.5000000000E+07    0.7647102141E-03    0.5842257084E-01    0.8684488280E-05    0.6810335422E+00    0.6264132528E+00
    0.7000000000E+07    0.6493330145E-03    0.5827004761E-01    0.7240330389E-05    0.6810922388E+00    0.6267306027E+00
    0.9000000000E+07    0.5746676428E-03    0.5815483911E-01    0.6321896686E-05    0.6811266932E+00    0.6269522529E+00
    0.1100000000E+08    0.5212612843E-03    0.5806217692E-01    0.5673408993E-05    0.6811496796E+00    0.6271209432E+00
    0.1300000000E+08    0.4806059709E-03    0.5798464048E-01    0.5184814930E-05    0.6811662709E+00    0.6272562981E+00
    0.1500000000E+08    0.4483097974E-03    0.5791796537E-01    0.4799995395E-05    0.6811789025E+00    0.6273688702E+00
    0.1700000000E+08    0.4218452079E-03    0.5785947225E-01    0.4486968881E-05    0.6811888975E+00    0.6274649526E+00
    0.1900000000E+08    0.3996406341E-03    0.5780736659E-01    0.4226012443E-05    0.6811970403E+00    0.6275485838E+00
    0.2100000000E+08    0.3806605532E-03    0.5776038707E-01    0.4004221668E-05    0.6812038273E+00    0.6276225024E+00
    0.2300000000E+08    0.3641910898E-03    0.5771761311E-01    0.3812755264E-05    0.6812095888E+00    0.6276886467E+00
    0.2500000000E+08    0.3497219303E-03    0.5767835208E-01    0.3645327764E-05    0.6812145539E+00    0.6277484361E+00
    0.2700000000E+08    0.3368772555E-03    0.5764206973E-01    0.3497333205E-05    0.6812188868E+00    0.6278029398E+00
