  Pressure (Pa) 2mC6-400 (mol/kg) 3mC6-400 (mol/kg) 33mC5-400 (mol/kg) 23mC5-400 (mol/kg) C7-400 (mol/kg)
    0.1000000000E+01    0.3165656670E-02    0.5238763119E-02    0.1933333591E-03    0.9322953149E-04    0.3400483822E-02
    0.3000000000E+01    0.9216259731E-02    0.1520889326E-01    0.5629990009E-03    0.2777942175E-03    0.9873602127E-02
    0.5000000000E+01    0.1492228753E-01    0.2455718875E-01    0.9118008456E-03    0.4598891069E-03    0.1594487754E-01
    0.7000000000E+01    0.2031541769E-01    0.3334202898E-01    0.1241662394E-02    0.6395792730E-03    0.2165198121E-01
    0.9000000000E+01    0.2542342593E-01    0.4161464882E-01    0.1554269600E-02    0.8169274090E-03    0.2702797747E-01
    0.1100000000E+02    0.3027077339E-01    0.4942020175E-01    0.1851106687E-02    0.9919939376E-03    0.3210200899E-01
    0.1300000000E+02    0.3487909107E-01    0.5679863851E-01    0.2133485685E-02    0.1164837115E-02    0.3689986314E-01
    0.1500000000E+02    0.3926758157E-01    0.6378543757E-01    0.2402570913E-02    0.1335513130E-02    0.4144444285E-01
    0.1700000000E+02    0.4345335428E-01    0.7041221572E-01    0.2659399416E-02    0.1504076194E-02    0.4575616022E-01
    0.1900000000E+02    0.4745170651E-01    0.7670724127E-01    0.2904898079E-02    0.1670578633E-02    0.4985326738E-01
    0.2100000000E+02    0.5127636031E-01    0.8269586731E-01    0.3139898067E-02    0.1835070968E-02    0.5375213580E-01
    0.2300000000E+02    0.5493966313E-01    0.8840089944E-01    0.3365147032E-02    0.1997601994E-02    0.5746749341E-01
    0.2500000000E+02    0.5845275840E-01    0.9384290903E-01    0.3581319507E-02    0.2158218854E-02    0.6101262660E-01
    0.2700000000E+02    0.6182573127E-01    0.9904050135E-01    0.3789025773E-02    0.2316967111E-02    0.6439955309E-01
    0.2900000000E+02    0.6506773363E-01    0.1040105460E+00    0.3988819463E-02    0.2473890816E-02    0.6763917055E-01
    0.3100000000E+02    0.6818709164E-01    0.1087683753E+00    0.4181204113E-02    0.2629032568E-02    0.7074138463E-01
    0.3300000000E+02    0.7119139878E-01    0.1133279567E+00    0.4366638815E-02    0.2782433579E-02    0.7371521995E-01
    0.3500000000E+02    0.7408759644E-01    0.1177020417E+00    0.4545543116E-02    0.2934133728E-02    0.7656891633E-01
    0.3700000000E+02    0.7688204403E-01    0.1219022960E+00    0.4718301286E-02    0.3084171615E-02    0.7931001278E-01
    0.3900000000E+02    0.7958058025E-01    0.1259394134E+00    0.4885266035E-02    0.3232584619E-02    0.8194542082E-01
    0.4100000000E+02    0.8218857660E-01    0.1298232154E+00    0.5046761771E-02    0.3379408937E-02    0.8448148880E-01
    0.4300000000E+02    0.8471098450E-01    0.1335627387E+00    0.5203087455E-02    0.3524679642E-02    0.8692405845E-01
    0.4500000000E+02    0.8715237667E-01    0.1371663128E+00    0.5354519120E-02    0.3668430720E-02    0.8927851473E-01
    0.4700000000E+02    0.8951698372E-01    0.1406416279E+00    0.5501312089E-02    0.3810695113E-02    0.9154982987E-01
    0.4900000000E+02    0.9180872651E-01    0.1439957956E+00    0.5643702940E-02    0.3951504766E-02    0.9374260244E-01
    0.1000000000E+02    0.2787826906E-01    0.4557319899E-01    0.1704573680E-02    0.9047421836E-03    0.2960105441E-01
    0.3000000000E+02    0.6664225241E-01    0.1064150844E+00    0.4085908244E-02    0.2551681828E-02    0.6920686952E-01
    0.5000000000E+02    0.9292842150E-01    0.1456295267E+00    0.5713316810E-02    0.4021373783E-02    0.9481087876E-01
    0.7000000000E+02    0.1122562203E+00    0.1733104724E+00    0.6920269135E-02    0.5349450023E-02    0.1129368400E+00
    0.9000000000E+02    0.1272053845E+00    0.1940699742E+00    0.7862286615E-02    0.6562180493E-02    0.1265685407E+00
    0.1100000000E+03    0.1391715289E+00    0.2103251056E+00    0.8623406921E-02    0.7679408064E-02    0.1372712490E+00
    0.1300000000E+03    0.1489897245E+00    0.2234701590E+00    0.9253899621E-02    0.8716435648E-02    0.1459487607E+00
    0.1500000000E+03    0.1571974214E+00    0.2343687355E+00    0.9786131373E-02    0.9685279444E-02    0.1531614025E+00
    0.1700000000E+03    0.1641599492E+00    0.2435859475E+00    0.1024212416E-01    0.1059552478E-01    0.1592761772E+00
    0.1900000000E+03    0.1701363356E+00    0.2515081251E+00    0.1063751330E-01    0.1145492502E-01    0.1645442128E+00
    0.2100000000E+03    0.1753164700E+00    0.2584089689E+00    0.1098377978E-01    0.1226982975E-01    0.1691435868E+00
    0.2300000000E+03    0.1798433632E+00    0.2644882208E+00    0.1128958655E-01    0.1304549682E-01    0.1732043749E+00
    0.2500000000E+03    0.1838271421E+00    0.2698953443E+00    0.1156161825E-01    0.1378632363E-01    0.1768239975E+00
    0.2700000000E+03    0.1873542047E+00    0.2747446002E+00    0.1180513063E-01    0.1449602127E-01    0.1800769959E+00
    0.2900000000E+03    0.1904934153E+00    0.2791249709E+00    0.1202432235E-01    0.1517774736E-01    0.1830214708E+00
    0.3100000000E+03    0.1933004160E+00    0.2831068827E+00    0.1222259391E-01    0.1583420880E-01    0.1857034469E+00
    0.3300000000E+03    0.1958207028E+00    0.2867468750E+00    0.1240273243E-01    0.1646774202E-01    0.1881599049E+00
    0.3500000000E+03    0.1980918666E+00    0.2900909160E+00    0.1256704647E-01    0.1708037647E-01    0.1904209369E+00
    0.3700000000E+03    0.2001452558E+00    0.2931768037E+00    0.1271746603E-01    0.1767388521E-01    0.1925113067E+00
    0.3900000000E+03    0.2020072312E+00    0.2960359346E+00    0.1285561818E-01    0.1824982567E-01    0.1944516016E+00
    0.4100000000E+03    0.2037001253E+00    0.2986946279E+00    0.1298288491E-01    0.1880957271E-01    0.1962590934E+00
    0.4300000000E+03    0.2052429867E+00    0.3011751306E+00    0.1310044807E-01    0.1935434570E-01    0.1979483935E+00
    0.4500000000E+03    0.2066521631E+00    0.3034963911E+00    0.1320932464E-01    0.1988523076E-01    0.1995319565E+00
    0.4700000000E+03    0.2079417644E+00    0.3056746597E+00    0.1331039470E-01    0.2040319930E-01    0.2010204723E+00
    0.4900000000E+03    0.2091240315E+00    0.3077239627E+00    0.1340442385E-01    0.2090912340E-01    0.2024231748E+00
    0.1000000000E+03    0.1335000560E+00    0.2026570738E+00    0.8261770248E-02    0.7131686375E-02    0.1322189405E+00
    0.3000000000E+03    0.1919353902E+00    0.2811619192E+00    0.1212588636E-01    0.1550898227E-01    0.1843927767E+00
    0.5000000000E+03    0.2096783039E+00    0.3087041211E+00    0.1344901056E-01    0.2115781738E-01    0.2030948948E+00
    0.7000000000E+03    0.2171139690E+00    0.3237937222E+00    0.1409626970E-01    0.2565464886E-01    0.2135133179E+00
    0.9000000000E+03    0.2205392998E+00    0.3336357379E+00    0.1446607535E-01    0.2950917243E-01    0.2204052907E+00
    0.1100000000E+04    0.2220698508E+00    0.3406927184E+00    0.1469659316E-01    0.3294905298E-01    0.2254091568E+00
    0.1300000000E+04    0.2225973870E+00    0.3460646464E+00    0.1484808973E-01    0.3609597497E-01    0.2292616204E+00
    0.1500000000E+04    0.2225537146E+00    0.3503263567E+00    0.1495085543E-01    0.3902292957E-01    0.2323499926E+00
    0.1700000000E+04    0.2221686429E+00    0.3538112889E+00    0.1502168216E-01    0.4177736956E-01    0.2349001838E+00
    0.1900000000E+04    0.2215731430E+00    0.3567278773E+00    0.1507057764E-01    0.4439202957E-01    0.2370541410E+00
    0.2100000000E+04    0.2208457996E+00    0.3592139715E+00    0.1510384912E-01    0.4689054066E-01    0.2389061977E+00
    0.2300000000E+04    0.2200356691E+00    0.3613648493E+00    0.1512565285E-01    0.4929058494E-01    0.2405218542E+00
    0.2500000000E+04    0.2191743307E+00    0.3632487414E+00    0.1513882913E-01    0.5160578220E-01    0.2419482223E+00
    0.2700000000E+04    0.2182826030E+00    0.3649159563E+00    0.1514537882E-01    0.5384687671E-01    0.2432201834E+00
    0.2900000000E+04    0.2173744605E+00    0.3664045043E+00    0.1514674807E-01    0.5602251545E-01    0.2443641984E+00
    0.3100000000E+04    0.2164594062E+00    0.3677437068E+00    0.1514400540E-01    0.5813977652E-01    0.2454007577E+00
    0.3300000000E+04    0.2155439547E+00    0.3689565900E+00    0.1513795557E-01    0.6020453881E-01    0.2463460125E+00
    0.3500000000E+04    0.2146325859E+00    0.3700615196E+00    0.1512921491E-01    0.6222174719E-01    0.2472128915E+00
    0.3700000000E+04    0.2137283725E+00    0.3710733456E+00    0.1511826249E-01    0.6419560718E-01    0.2480118850E+00
    0.3900000000E+04    0.2128334010E+00    0.3720042209E+00    0.1510547562E-01    0.6612973044E-01    0.2487516069E+00
    0.4100000000E+04    0.2119490600E+00    0.3728641990E+00    0.1509115498E-01    0.6802724565E-01    0.2494392068E+00
    0.4300000000E+04    0.2110762398E+00    0.3736616773E+00    0.1507554276E-01    0.6989088409E-01    0.2500806757E+00
    0.4500000000E+04    0.2102154734E+00    0.3744037315E+00    0.1505883591E-01    0.7172304679E-01    0.2506810774E+00
    0.4700000000E+04    0.2093670361E+00    0.3750963707E+00    0.1504119603E-01    0.7352585770E-01    0.2512447256E+00
    0.4900000000E+04    0.2085310180E+00    0.3757447353E+00    0.1502275671E-01    0.7530120646E-01    0.2517753214E+00
    0.1000000000E+04    0.2214699710E+00    0.3374259081E+00    0.1459396301E-01    0.3127178283E-01    0.2230854379E+00
    0.3000000000E+04    0.2169173333E+00    0.3670912091E+00    0.1514583527E-01    0.5708805118E-01    0.2448948139E+00
    0.5000000000E+04    0.2081176567E+00    0.3760537222E+00    0.1501327280E-01    0.7617911761E-01    0.2520292407E+00
    0.7000000000E+04    0.2004560977E+00    0.3807187391E+00    0.1480084215E-01    0.9262654870E-01    0.2559601623E+00
    0.9000000000E+04    0.1937464458E+00    0.3836659824E+00    0.1456896574E-01    0.1075202383E+00    0.2585643081E+00
    0.1100000000E+05    0.1877345580E+00    0.3857298466E+00    0.1433190040E-01    0.1213431883E+00    0.2604655861E+00
    0.1300000000E+05    0.1822472502E+00    0.3872712319E+00    0.1409437459E-01    0.1343591263E+00    0.2619400803E+00
    0.1500000000E+05    0.1771691854E+00    0.3884744679E+00    0.1385828797E-01    0.1467302291E+00    0.2631316611E+00
    0.1700000000E+05    0.1724212273E+00    0.3894445819E+00    0.1362450630E-01    0.1585642927E+00    0.2641238086E+00
    0.1900000000E+05    0.1679471529E+00    0.3902462675E+00    0.1339346258E-01    0.1699370440E+00    0.2649688161E+00
    0.2100000000E+05    0.1637057236E+00    0.3909217779E+00    0.1316539038E-01    0.1809039499E+00    0.2657013787E+00
    0.2300000000E+05    0.1596658381E+00    0.3915000008E+00    0.1294042436E-01    0.1915069993E+00    0.2663455710E+00
    0.2500000000E+05    0.1558034675E+00    0.3920014242E+00    0.1271864709E-01    0.2017788495E+00    0.2669187104E+00
    0.2700000000E+05    0.1520996526E+00    0.3924410238E+00    0.1250011197E-01    0.2117454885E+00    0.2674336268E+00
    0.2900000000E+05    0.1485391539E+00    0.3928300258E+00    0.1228485513E-01    0.2214280134E+00    0.2679000636E+00
    0.3100000000E+05    0.1451095179E+00    0.3931770275E+00    0.1207290162E-01    0.2308438580E+00    0.2683255769E+00
    0.3300000000E+05    0.1418004151E+00    0.3934887358E+00    0.1186426882E-01    0.2400076628E+00    0.2687161331E+00
    0.3500000000E+05    0.1386031608E+00    0.3937704667E+00    0.1165896831E-01    0.2489319070E+00    0.2690765183E+00
    0.3700000000E+05    0.1355103615E+00    0.3940264939E+00    0.1145700689E-01    0.2576273757E+00    0.2694106246E+00
    0.3900000000E+05    0.1325156505E+00    0.3942602959E+00    0.1125838720E-01    0.2661035108E+00    0.2697216562E+00
    0.4100000000E+05    0.1296134861E+00    0.3944747354E+00    0.1106310808E-01    0.2743686793E+00    0.2700122798E+00
    0.4300000000E+05    0.1267989964E+00    0.3946721919E+00    0.1087116476E-01    0.2824303798E+00    0.2702847364E+00
    0.4500000000E+05    0.1240678588E+00    0.3948546613E+00    0.1068254908E-01    0.2902954044E+00    0.2705409261E+00
    0.4700000000E+05    0.1214162046E+00    0.3950238309E+00    0.1049724955E-01    0.2979699653E+00    0.2707824728E+00
    0.4900000000E+05    0.1188405429E+00    0.3951811381E+00    0.1031525157E-01    0.3054597953E+00    0.2710107745E+00
    0.1000000000E+05    0.1906657813E+00    0.3847797736E+00    0.1445068281E-01    0.1145458518E+00    0.2595810802E+00
    0.3000000000E+05    0.1468086670E+00    0.3930083200E+00    0.1217846422E-01    0.2261682986E+00    0.2681175310E+00
    0.5000000000E+05    0.1175802068E+00    0.3952557355E+00    0.1022548525E-01    0.3091371170E+00    0.2711203435E+00
    0.7000000000E+05    0.9571378038E-01    0.3963488204E+00    0.8597579790E-02    0.3741341601E+00    0.2728408517E+00
    0.9000000000E+05    0.7894325097E-01    0.3969995259E+00    0.7263878708E-02    0.4253837306E+00    0.2739996773E+00
    0.1100000000E+06    0.6593652607E-01    0.3974302752E+00    0.6180337213E-02    0.4659151677E+00    0.2748481590E+00
    0.1300000000E+06    0.5575239888E-01    0.3977347534E+00    0.5301447733E-02    0.4981319147E+00    0.2755030994E+00
    0.1500000000E+06    0.4769774307E-01    0.3979597378E+00    0.4586472807E-02    0.5239260349E+00    0.2760279947E+00
    0.1700000000E+06    0.4125918504E-01    0.3981313428E+00    0.4001530432E-02    0.5447586617E+00    0.2764608832E+00
    0.1900000000E+06    0.3605634402E-01    0.3982653516E+00    0.3519512793E-02    0.5617437272E+00    0.2768261039E+00
    0.2100000000E+06    0.3180677560E-01    0.3983718886E+00    0.3119152606E-02    0.5757258476E+00    0.2771399987E+00
    0.2300000000E+06    0.2829974399E-01    0.3984577569E+00    0.2783904129E-02    0.5873455144E+00    0.2774139597E+00
    0.2500000000E+06    0.2537692265E-01    0.3985277009E+00    0.2500916636E-02    0.5970902949E+00    0.2776561747E+00
    0.2700000000E+06    0.2291836814E-01    0.3985851320E+00    0.2260185736E-02    0.6053336386E+00    0.2778726819E+00
    0.2900000000E+06    0.2083238694E-01    0.3986325665E+00    0.2053885737E-02    0.6123637432E+00    0.2780680338E+00
    0.3100000000E+06    0.1904822028E-01    0.3986719010E+00    0.1875857363E-02    0.6184048524E+00    0.2782457300E+00
    0.3300000000E+06    0.1751074792E-01    0.3987045919E+00    0.1721219268E-02    0.6236329382E+00    0.2784085069E+00
    0.3500000000E+06    0.1617663289E-01    0.3987317758E+00    0.1586074713E-02    0.6281872738E+00    0.2785585373E+00
    0.3700000000E+06    0.1501149601E-01    0.3987543521E+00    0.1467290038E-02    0.6321790130E+00    0.2786975698E+00
    0.3900000000E+06    0.1398782879E-01    0.3987730419E+00    0.1362326859E-02    0.6356975899E+00    0.2788270296E+00
    0.4100000000E+06    0.1308343897E-01    0.3987884293E+00    0.1269114377E-02    0.6388155253E+00    0.2789480907E+00
    0.4300000000E+06    0.1228028304E-01    0.3988009925E+00    0.1185951651E-02    0.6415920645E+00    0.2790617306E+00
    0.4500000000E+06    0.1156358181E-01    0.3988111265E+00    0.1111432337E-02    0.6440759518E+00    0.2791687705E+00
    0.4700000000E+06    0.1092114492E-01    0.3988191602E+00    0.1044386344E-02    0.6463075613E+00    0.2792699058E+00
    0.4900000000E+06    0.1034285066E-01    0.3988253692E+00    0.9838343076E-03    0.6483205490E+00    0.2793657307E+00
    0.1000000000E+06    0.7203510429E-01    0.3972349324E+00    0.6693746612E-02    0.4468260972E+00    0.2744536372E+00
    0.3000000000E+06    0.1990633727E-01    0.3986531465E+00    0.1961668794E-02    0.6154959452E+00    0.2781589026E+00
    0.5000000000E+06    0.1007505837E-01    0.3988278637E+00    0.9557306611E-03    0.6492540627E+00    0.2794118142E+00
    0.7000000000E+06    0.6623031345E-02    0.3988230598E+00    0.5902538300E-03    0.6613608416E+00    0.2801480689E+00
    0.9000000000E+06    0.4972166724E-02    0.3987678698E+00    0.4144982511E-03    0.6671803846E+00    0.2806664534E+00
    0.1100000000E+07    0.4029773298E-02    0.3986960311E+00    0.3150314508E-03    0.6704883405E+00    0.2810653492E+00
    0.1300000000E+07    0.3427103420E-02    0.3986192582E+00    0.2524709430E-03    0.6725822279E+00    0.2813889555E+00
    0.1500000000E+07    0.3010209536E-02    0.3985422285E+00    0.2101081036E-03    0.6740102509E+00    0.2816608561E+00
    0.1700000000E+07    0.2704857368E-02    0.3984669238E+00    0.1798167574E-03    0.6750387954E+00    0.2818950969E+00
    0.1900000000E+07    0.2471317384E-02    0.3983941710E+00    0.1572329998E-03    0.6758110741E+00    0.2821007098E+00
    0.2100000000E+07    0.2286578738E-02    0.3983242670E+00    0.1398300872E-03    0.6764102033E+00    0.2822838408E+00
    0.2300000000E+07    0.2136461996E-02    0.3982572555E+00    0.1260558246E-03    0.6768874025E+00    0.2824488584E+00
    0.2500000000E+07    0.2011782746E-02    0.3981930592E+00    0.1149100454E-03    0.6772757962E+00    0.2825989772E+00
    0.2700000000E+07    0.1906342882E-02    0.3981315450E+00    0.1057224098E-03    0.6775976740E+00    0.2827366301E+00
    0.2900000000E+07    0.1815813612E-02    0.3980725578E+00    0.9802855684E-04    0.6778685405E+00    0.2828637027E+00
    0.3100000000E+07    0.1737082391E-02    0.3980159369E+00    0.9149764883E-04    0.6780994898E+00    0.2829816848E+00
    0.3300000000E+07    0.1667854574E-02    0.3979615260E+00    0.8588820635E-04    0.6782986539E+00    0.2830917743E+00
    0.3500000000E+07    0.1606401429E-02    0.3979091765E+00    0.8102022323E-04    0.6784721210E+00    0.2831949479E+00
    0.3700000000E+07    0.1551395631E-02    0.3978587497E+00    0.7675701378E-04    0.6786245336E+00    0.2832920128E+00
    0.3900000000E+07    0.1501800874E-02    0.3978101175E+00    0.7299307510E-04    0.6787594898E+00    0.2833836434E+00
    0.4100000000E+07    0.1456795951E-02    0.3977631622E+00    0.6964577684E-04    0.6788798194E+00    0.2834704089E+00
    0.4300000000E+07    0.1415721424E-02    0.3977177757E+00    0.6664955050E-04    0.6789877767E+00    0.2835527938E+00
    0.4500000000E+07    0.1378041399E-02    0.3976738589E+00    0.6395174906E-04    0.6790851786E+00    0.2836312143E+00
    0.4700000000E+07    0.1343315674E-02    0.3976313213E+00    0.6150964611E-04    0.6791735054E+00    0.2837060302E+00
    0.4900000000E+07    0.1311179105E-02    0.3975900798E+00    0.5928822726E-04    0.6792539742E+00    0.2837775547E+00
    0.1000000000E+07    0.4443287102E-02    0.3987330470E+00    0.3585103478E-03    0.6690400377E+00    0.2808773802E+00
    0.3000000000E+07    0.1775132342E-02    0.3980439615E+00    0.9463453522E-04    0.6779884399E+00    0.2829237493E+00
    0.5000000000E+07    0.1295984273E-02    0.3975699210E+00    0.5825102664E-04    0.6792915844E+00    0.2838121697E+00
    0.7000000000E+07    0.1074547510E-02    0.3972193124E+00    0.4413434880E-04    0.6798052209E+00    0.2843833883E+00
    0.9000000000E+07    0.9402891392E-03    0.3969408445E+00    0.3651801116E-04    0.6800822420E+00    0.2848042764E+00
    0.1100000000E+08    0.8476131195E-03    0.3967095327E+00    0.3167739770E-04    0.6802570392E+00    0.2851373344E+00
    0.1300000000E+08    0.7785871933E-03    0.3965114831E+00    0.2828668655E-04    0.6803782441E+00    0.2854127951E+00
    0.1500000000E+08    0.7245411655E-03    0.3963381813E+00    0.2575467165E-04    0.6804677405E+00    0.2856475826E+00
    0.1700000000E+08    0.6807000719E-03    0.3961840298E+00    0.2377674202E-04    0.6805368531E+00    0.2858521241E+00
    0.1900000000E+08    0.6441864988E-03    0.3960451486E+00    0.2217927606E-04    0.6805920444E+00    0.2860332972E+00
    0.2100000000E+08    0.6131480433E-03    0.3959187363E+00    0.2085564619E-04    0.6806372794E+00    0.2861958762E+00
    0.2300000000E+08    0.5863302250E-03    0.3958027026E+00    0.1973649992E-04    0.6806751309E+00    0.2863433099E+00
    0.2500000000E+08    0.5628487416E-03    0.3956954457E+00    0.1877462935E-04    0.6807073441E+00    0.2864781702E+00
    0.2700000000E+08    0.5420596226E-03    0.3955957107E+00    0.1793669122E-04    0.6807351465E+00    0.2866024264E+00
