  Pressure (Pa) 2mC6-400 (mol/kg) 3mC6-400 (mol/kg) 33mC5-400 (mol/kg) 23mC5-400 (mol/kg) C7-400 (mol/kg)
    0.1000000000E+01    0.3142599833E-02    0.1038811457E-02    0.6398043653E-04    0.4659509668E-03    0.1348642927E-01
    0.3000000000E+01    0.9025787655E-02    0.2967684113E-02    0.1838352551E-03    0.1387233048E-02    0.3853710863E-01
    0.5000000000E+01    0.1443484832E-01    0.4721256898E-02    0.2941348322E-03    0.2294704497E-02    0.6132209408E-01
    0.7000000000E+01    0.1943225841E-01    0.6322855089E-02    0.3961431831E-03    0.3188769389E-02    0.8214239888E-01
    0.9000000000E+01    0.2406965395E-01    0.7791821156E-02    0.4909043068E-03    0.4069815523E-02    0.1012476771E+00
    0.1100000000E+02    0.2839008859E-01    0.9144331267E-02    0.5792881038E-03    0.4938215243E-02    0.1188467477E+00
    0.1300000000E+02    0.3242975137E-01    0.1039401876E-01    0.6620252919E-03    0.5794326217E-02    0.1351156315E+00
    0.1500000000E+02    0.3621928885E-01    0.1155245580E-01    0.7397342705E-03    0.6638492159E-02    0.1502037604E+00
    0.1700000000E+02    0.3978483354E-01    0.1262952948E-01    0.8129420105E-03    0.7471043517E-02    0.1642388268E+00
    0.1900000000E+02    0.4314881201E-01    0.1363373845E-01    0.8821004614E-03    0.8292298119E-02    0.1773306077E+00
    0.2100000000E+02    0.4633058557E-01    0.1457242889E-01    0.9475995547E-03    0.9102561774E-02    0.1895740088E+00
    0.2300000000E+02    0.4934696263E-01    0.1545198402E-01    0.1009777598E-02    0.9902128848E-02    0.2010515074E+00
    0.2500000000E+02    0.5221261158E-01    0.1627797723E-01    0.1068929649E-02    0.1069128280E-01    0.2118351283E+00
    0.2700000000E+02    0.5494039609E-01    0.1705529699E-01    0.1125314310E-02    0.1147029670E-01    0.2219880545E+00
    0.2900000000E+02    0.5754164917E-01    0.1778824921E-01    0.1179159283E-02    0.1223943370E-01    0.2315659482E+00
    0.3100000000E+02    0.6002639870E-01    0.1848064179E-01    0.1230665937E-02    0.1299894749E-01    0.2406180413E+00
    0.3300000000E+02    0.6240355410E-01    0.1913585488E-01    0.1280013086E-02    0.1374908271E-01    0.2491880416E+00
    0.3500000000E+02    0.6468106176E-01    0.1975689946E-01    0.1327360134E-02    0.1449007540E-01    0.2573148899E+00
    0.3700000000E+02    0.6686603514E-01    0.2034646665E-01    0.1372849708E-02    0.1522215335E-01    0.2650333948E+00
    0.3900000000E+02    0.6896486423E-01    0.2090696919E-01    0.1416609869E-02    0.1594553645E-01    0.2723747695E+00
    0.4100000000E+02    0.7098330805E-01    0.2144057673E-01    0.1458755982E-02    0.1666043707E-01    0.2793670861E+00
    0.4300000000E+02    0.7292657324E-01    0.2194924579E-01    0.1499392303E-02    0.1736706037E-01    0.2860356633E+00
    0.4500000000E+02    0.7479938111E-01    0.2243474543E-01    0.1538613333E-02    0.1806560460E-01    0.2924033974E+00
    0.4700000000E+02    0.7660602500E-01    0.2289867929E-01    0.1576504976E-02    0.1875626141E-01    0.2984910467E+00
    0.4900000000E+02    0.7835041965E-01    0.2334250457E-01    0.1613145533E-02    0.1943921611E-01    0.3043174766E+00
    0.1000000000E+02    0.2626708582E-01    0.8481727760E-02    0.5358447875E-03    0.4505573495E-02    0.1102237987E+00
    0.3000000000E+02    0.5879800579E-01    0.1813929491E-01    0.1205193235E-02    0.1262037800E-01    0.2361548681E+00
    0.5000000000E+02    0.7920040395E-01    0.2355729591E-01    0.1631019258E-02    0.1977786142E-01    0.3071381650E+00
    0.7000000000E+02    0.9365784699E-01    0.2706418140E-01    0.1937317483E-02    0.2618707215E-01    0.3532931081E+00
    0.9000000000E+02    0.1045897740E+00    0.2953934223E-01    0.2172430245E-02    0.3199805705E-01    0.3860131635E+00
    0.1100000000E+03    0.1131864949E+00    0.3139071525E-01    0.2360119130E-02    0.3732157775E-01    0.4105918331E+00
    0.1300000000E+03    0.1201245444E+00    0.3283431454E-01    0.2513905048E-02    0.4224136681E-01    0.4298364765E+00
    0.1500000000E+03    0.1258275149E+00    0.3399566997E-01    0.2642275334E-02    0.4682203293E-01    0.4453809769E+00
    0.1700000000E+03    0.1305792428E+00    0.3495294832E-01    0.2750936505E-02    0.5111432333E-01    0.4582442712E+00
    0.1900000000E+03    0.1345795508E+00    0.3575749652E-01    0.2843921701E-02    0.5515872434E-01    0.4690966818E+00
    0.2100000000E+03    0.1379744557E+00    0.3644451226E-01    0.2924190372E-02    0.5898798449E-01    0.4783983817E+00
    0.2300000000E+03    0.1408737937E+00    0.3703897716E-01    0.2993978253E-02    0.6262892057E-01    0.4864764539E+00
    0.2500000000E+03    0.1433621224E+00    0.3755914235E-01    0.3055014030E-02    0.6610373485E-01    0.4935702030E+00
    0.2700000000E+03    0.1455057854E+00    0.3801867173E-01    0.3108659958E-02    0.6943099211E-01    0.4998590414E+00
    0.2900000000E+03    0.1473576679E+00    0.3842801116E-01    0.3156006689E-02    0.7262635549E-01    0.5054803206E+00
    0.3100000000E+03    0.1489604999E+00    0.3879529230E-01    0.3197939272E-02    0.7570314828E-01    0.5105411111E+00
    0.3300000000E+03    0.1503492104E+00    0.3912694631E-01    0.3235184321E-02    0.7867278822E-01    0.5151262093E+00
    0.3500000000E+03    0.1515526444E+00    0.3942813090E-01    0.3268344474E-02    0.8154512715E-01    0.5193037134E+00
    0.3700000000E+03    0.1525948379E+00    0.3970303407E-01    0.3297924065E-02    0.8432871939E-01    0.5231289924E+00
    0.3900000000E+03    0.1534959814E+00    0.3995509429E-01    0.3324348567E-02    0.8703103584E-01    0.5266475665E+00
    0.4100000000E+03    0.1542731579E+00    0.4018716290E-01    0.3347979523E-02    0.8965863634E-01    0.5298972328E+00
    0.4300000000E+03    0.1549409165E+00    0.4040162575E-01    0.3369126173E-02    0.9221730960E-01    0.5329096592E+00
    0.4500000000E+03    0.1555117220E+00    0.4060049558E-01    0.3388054609E-02    0.9471218758E-01    0.5357115955E+00
    0.4700000000E+03    0.1559963121E+00    0.4078548309E-01    0.3404995046E-02    0.9714783974E-01    0.5383258064E+00
    0.4900000000E+03    0.1564039831E+00    0.4095805222E-01    0.3420147674E-02    0.9952835123E-01    0.5407717975E+00
    0.1000000000E+03    0.1091298526E+00    0.3052662072E-01    0.2271200372E-02    0.3471499234E-01    0.3991073697E+00
    0.3000000000E+03    0.1481878720E+00    0.3861647294E-01    0.3177601077E-02    0.7417881931E-01    0.5080750299E+00
    0.5000000000E+03    0.1565815428E+00    0.4104008080E-01    0.3427109090E-02    0.1006990897E+00    0.5419370582E+00
    0.7000000000E+03    0.1575914858E+00    0.4225912115E-01    0.3505134761E-02    0.1219384101E+00    0.5594920031E+00
    0.9000000000E+03    0.1559469872E+00    0.4300605718E-01    0.3515405364E-02    0.1402487592E+00    0.5705442588E+00
    0.1100000000E+04    0.1531850451E+00    0.4351531362E-01    0.3493406977E-02    0.1566517162E+00    0.5782715562E+00
    0.1300000000E+04    0.1499274563E+00    0.4388674424E-01    0.3454343283E-02    0.1716832363E+00    0.5840428055E+00
    0.1500000000E+04    0.1464608486E+00    0.4417056900E-01    0.3405703623E-02    0.1856604181E+00    0.5885537006E+00
    0.1700000000E+04    0.1429289201E+00    0.4439498663E-01    0.3351549379E-02    0.1987872451E+00    0.5921987355E+00
    0.1900000000E+04    0.1394076927E+00    0.4457713050E-01    0.3294243177E-02    0.2112033073E+00    0.5952198580E+00
    0.2100000000E+04    0.1359386180E+00    0.4472804856E-01    0.3235234479E-02    0.2230088091E+00    0.5977744910E+00
    0.2300000000E+04    0.1325444586E+00    0.4485520400E-01    0.3175449811E-02    0.2342784922E+00    0.5999699066E+00
    0.2500000000E+04    0.1292374328E+00    0.4496383071E-01    0.3115500625E-02    0.2450698968E+00    0.6018819713E+00
    0.2700000000E+04    0.1260236175E+00    0.4505771395E-01    0.3055800435E-02    0.2554285190E+00    0.6035660068E+00
    0.2900000000E+04    0.1229054309E+00    0.4513966283E-01    0.2996633969E-02    0.2653911675E+00    0.6050633993E+00
    0.3100000000E+04    0.1198830819E+00    0.4521180825E-01    0.2938199625E-02    0.2749882267E+00    0.6064057917E+00
    0.3300000000E+04    0.1169554386E+00    0.4527579743E-01    0.2880636422E-02    0.2842452253E+00    0.6076178343E+00
    0.3500000000E+04    0.1141205616E+00    0.4533292477E-01    0.2824041610E-02    0.2931839539E+00    0.6087190461E+00
    0.3700000000E+04    0.1113760370E+00    0.4538422220E-01    0.2768482482E-02    0.3018232761E+00    0.6097251054E+00
    0.3900000000E+04    0.1087191866E+00    0.4543052297E-01    0.2714004469E-02    0.3101797293E+00    0.6106487661E+00
    0.4100000000E+04    0.1061472020E+00    0.4547250759E-01    0.2660636811E-02    0.3182679770E+00    0.6115005214E+00
    0.4300000000E+04    0.1036572307E+00    0.4551073754E-01    0.2608396596E-02    0.3261011538E+00    0.6122890919E+00
    0.4500000000E+04    0.1012464306E+00    0.4554568037E-01    0.2557291697E-02    0.3336911321E+00    0.6130217922E+00
    0.4700000000E+04    0.9891200486E-01    0.4557772867E-01    0.2507322926E-02    0.3410487313E+00    0.6137048082E+00
    0.4900000000E+04    0.9665122353E-01    0.4560721464E-01    0.2458485651E-02    0.3481838821E+00    0.6143434113E+00
    0.1000000000E+04    0.1546552703E+00    0.4328245876E-01    0.3507227031E-02    0.1486481326E+00    0.5747150394E+00
    0.3000000000E+04    0.1213823236E+00    0.4517684846E-01    0.2967315443E-02    0.2702337013E+00    0.6057522912E+00
    0.5000000000E+04    0.9554761790E-01    0.4562108686E-01    0.2434488695E-02    0.3516709327E+00    0.6146474969E+00
    0.7000000000E+04    0.7674530243E-01    0.4581483860E-01    0.2010396550E-02    0.4116620796E+00    0.6192204964E+00
    0.9000000000E+04    0.6283986930E-01    0.4591920037E-01    0.1678711887E-02    0.4570067826E+00    0.6220932127E+00
    0.1100000000E+05    0.5237675953E-01    0.4598163180E-01    0.1418917515E-02    0.4918592595E+00    0.6240970723E+00
    0.1300000000E+05    0.4436803111E-01    0.4602121107E-01    0.1213838851E-02    0.5190593998E+00    0.6255892454E+00
    0.1500000000E+05    0.3813521854E-01    0.4604708659E-01    0.1050249937E-02    0.5406037229E+00    0.6267516803E+00
    0.1700000000E+05    0.3320719491E-01    0.4606418190E-01    0.9182582083E-03    0.5579123100E+00    0.6276878565E+00
    0.1900000000E+05    0.2925273686E-01    0.4607537284E-01    0.8105298050E-03    0.5720054698E+00    0.6284613652E+00
    0.2100000000E+05    0.2603579248E-01    0.4608244522E-01    0.7216229290E-03    0.5836244829E+00    0.6291136104E+00
    0.2300000000E+05    0.2338572370E-01    0.4608656194E-01    0.6474755250E-03    0.5933144718E+00    0.6296727911E+00
    0.2500000000E+05    0.2117739944E-01    0.4608850958E-01    0.5850292506E-03    0.6014813845E+00    0.6301588217E+00
    0.2700000000E+05    0.1931776369E-01    0.4608883687E-01    0.5319586335E-03    0.6084313593E+00    0.6305861929E+00
    0.2900000000E+05    0.1773667471E-01    0.4608793657E-01    0.4864770765E-03    0.6143981239E+00    0.6309657175E+00
    0.3100000000E+05    0.1638058141E-01    0.4608609597E-01    0.4471976973E-03    0.6195622441E+00    0.6313056389E+00
    0.3300000000E+05    0.1520810294E-01    0.4608352907E-01    0.4130329592E-03    0.6240647925E+00    0.6316123600E+00
    0.3500000000E+05    0.1418689878E-01    0.4608039784E-01    0.3831217282E-03    0.6280171613E+00    0.6318909352E+00
    0.3700000000E+05    0.1329142474E-01    0.4607682651E-01    0.3567757961E-03    0.6315081882E+00    0.6321454122E+00
    0.3900000000E+05    0.1250130408E-01    0.4607291155E-01    0.3334403098E-03    0.6346093889E+00    0.6323790741E+00
    0.4100000000E+05    0.1180013141E-01    0.4606872858E-01    0.3126642138E-03    0.6373788404E+00    0.6325946143E+00
    0.4300000000E+05    0.1117458427E-01    0.4606433747E-01    0.2940779640E-03    0.6398640946E+00    0.6327942650E+00
    0.4500000000E+05    0.1061375622E-01    0.4605978594E-01    0.2773765698E-03    0.6421043849E+00    0.6329798936E+00
    0.4700000000E+05    0.1010865125E-01    0.4605511234E-01    0.2623065772E-03    0.6441323149E+00    0.6331530753E+00
    0.4900000000E+05    0.9651796540E-02    0.4605034761E-01    0.2486559904E-03    0.6459751616E+00    0.6333151495E+00
    0.1000000000E+05    0.5724853040E-01    0.4595412038E-01    0.1540997921E-02    0.4755432809E+00    0.6231754554E+00
    0.3000000000E+05    0.1703333333E-01    0.4608711901E-01    0.4661361353E-03    0.6170709024E+00    0.6311401920E+00
    0.5000000000E+05    0.9439469266E-02    0.4604793912E-01    0.2423060897E-03    0.6468345006E+00    0.6333923860E+00
    0.7000000000E+05    0.6641888756E-02    0.4599908616E-01    0.1585706223E-03    0.6583338032E+00    0.6345617602E+00
    0.9000000000E+05    0.5240297310E-02    0.4595306644E-01    0.1170625031E-03    0.6642085127E+00    0.6353098508E+00
    0.1100000000E+06    0.4406227972E-02    0.4591132806E-01    0.9289702597E-04    0.6677170054E+00    0.6358428852E+00
    0.1300000000E+06    0.3852915049E-02    0.4587359314E-01    0.7729335008E-04    0.6700303884E+00    0.6362486182E+00
    0.1500000000E+06    0.3457632861E-02    0.4583931733E-01    0.6646542881E-04    0.6716632107E+00    0.6365715621E+00
    0.1700000000E+06    0.3159797167E-02    0.4580798294E-01    0.5854351248E-04    0.6728742133E+00    0.6368370317E+00
    0.1900000000E+06    0.2926259276E-02    0.4577915287E-01    0.5250887147E-04    0.6738067691E+00    0.6370606366E+00
    0.2100000000E+06    0.2737416441E-02    0.4575246914E-01    0.4776349174E-04    0.6745463617E+00    0.6372526011E+00
    0.2300000000E+06    0.2580950577E-02    0.4572764007E-01    0.4393516243E-04    0.6751469624E+00    0.6374199437E+00
    0.2500000000E+06    0.2448734539E-02    0.4570442697E-01    0.4078101530E-04    0.6756442503E+00    0.6375676660E+00
    0.2700000000E+06    0.2335187732E-02    0.4568263304E-01    0.3813629445E-04    0.6760627189E+00    0.6376994436E+00
    0.2900000000E+06    0.2236348416E-02    0.4566209462E-01    0.3588553136E-04    0.6764197213E+00    0.6378180476E+00
    0.3100000000E+06    0.2149323779E-02    0.4564267438E-01    0.3394552732E-04    0.6767278847E+00    0.6379256127E+00
    0.3300000000E+06    0.2071950001E-02    0.4562425613E-01    0.3225488910E-04    0.6769966106E+00    0.6380238145E+00
    0.3500000000E+06    0.2002574464E-02    0.4560674077E-01    0.3076736544E-04    0.6772330394E+00    0.6381139891E+00
    0.3700000000E+06    0.1939911816E-02    0.4559004312E-01    0.2944747336E-04    0.6774426894E+00    0.6381972177E+00
    0.3900000000E+06    0.1882946234E-02    0.4557408950E-01    0.2826755001E-04    0.6776298917E+00    0.6382743856E+00
    0.4100000000E+06    0.1830863452E-02    0.4555881574E-01    0.2720571846E-04    0.6777980920E+00    0.6383462261E+00
    0.4300000000E+06    0.1783002467E-02    0.4554416561E-01    0.2624445430E-04    0.6779500655E+00    0.6384133525E+00
    0.4500000000E+06    0.1738820589E-02    0.4553008960E-01    0.2536955673E-04    0.6780880724E+00    0.6384762824E+00
    0.4700000000E+06    0.1697867687E-02    0.4551654389E-01    0.2456939724E-04    0.6782139713E+00    0.6385354563E+00
    0.4900000000E+06    0.1659766943E-02    0.4550348948E-01    0.2383436280E-04    0.6783293051E+00    0.6385912516E+00
    0.1000000000E+06    0.4776184522E-02    0.4593166628E-01    0.1035406202E-03    0.6661618136E+00    0.6355962865E+00
    0.3000000000E+06    0.2191508586E-02    0.4565225243E-01    0.3488094055E-04    0.6765792580E+00    0.6378730962E+00
    0.5000000000E+06    0.1641684754E-02    0.4549713549E-01    0.2348870930E-04    0.6783834219E+00    0.6386179857E+00
    0.7000000000E+06    0.1373334236E-02    0.4538906164E-01    0.1860196768E-04    0.6791364823E+00    0.6390351284E+00
    0.9000000000E+06    0.1206455786E-02    0.4530587745E-01    0.1579121508E-04    0.6795536426E+00    0.6393157364E+00
    0.1100000000E+07    0.1089640808E-02    0.4523816138E-01    0.1392435880E-04    0.6798205449E+00    0.6395233564E+00
    0.1300000000E+07    0.1001888564E-02    0.4518101330E-01    0.1257423120E-04    0.6800069829E+00    0.6396862442E+00
    0.1500000000E+07    0.9327939179E-03    0.4513155305E-01    0.1154146068E-04    0.6801451566E+00    0.6398192173E+00
    0.1700000000E+07    0.8765290531E-03    0.4508794152E-01    0.1071947399E-04    0.6802520196E+00    0.6399309316E+00
    0.1900000000E+07    0.8295390967E-03    0.4504893167E-01    0.1004565851E-04    0.6803373678E+00    0.6400268457E+00
    0.2100000000E+07    0.7895145738E-03    0.4501363835E-01    0.9480574504E-05    0.6804072663E+00    0.6401106047E+00
    0.2300000000E+07    0.7548804661E-03    0.4498141037E-01    0.8998012676E-05    0.6804656771E+00    0.6401847538E+00
    0.2500000000E+07    0.7245203799E-03    0.4495175447E-01    0.8579801022E-05    0.6805153016E+00    0.6402511345E+00
    0.2700000000E+07    0.6976177293E-03    0.4492428802E-01    0.8212898455E-05    0.6805580468E+00    0.6403111188E+00
    0.2900000000E+07    0.6735594165E-03    0.4489870812E-01    0.7887675163E-05    0.6805952991E+00    0.6403657543E+00
    0.3100000000E+07    0.6518748588E-03    0.4487477086E-01    0.7596847422E-05    0.6806280914E+00    0.6404158573E+00
    0.3300000000E+07    0.6321959781E-03    0.4485227692E-01    0.7334791938E-05    0.6806572095E+00    0.6404620754E+00
    0.3500000000E+07    0.6142301293E-03    0.4483106128E-01    0.7097089821E-05    0.6806832624E+00    0.6405049303E+00
    0.3700000000E+07    0.5977412924E-03    0.4481098577E-01    0.6880214628E-05    0.6807067298E+00    0.6405448480E+00
    0.3900000000E+07    0.5825367016E-03    0.4479193354E-01    0.6681313660E-05    0.6807279947E+00    0.6405821807E+00
    0.4100000000E+07    0.5684571457E-03    0.4477380487E-01    0.6498051303E-05    0.6807473668E+00    0.6406172222E+00
    0.4300000000E+07    0.5553698028E-03    0.4475651400E-01    0.6328494649E-05    0.6807650995E+00    0.6406502205E+00
    0.4500000000E+07    0.5431628628E-03    0.4473998659E-01    0.6171028559E-05    0.6807814022E+00    0.6406813862E+00
    0.4700000000E+07    0.5317414329E-03    0.4472415781E-01    0.6024291613E-05    0.6807964493E+00    0.6407109001E+00
    0.4900000000E+07    0.5210243778E-03    0.4470897077E-01    0.5887127151E-05    0.6808103877E+00    0.6407389179E+00
    0.1000000000E+07    0.1143469437E-02    0.4527045717E-01    0.1477455245E-04    0.6797001839E+00    0.6394264501E+00
    0.3000000000E+07    0.6624454591E-03    0.4488654753E-01    0.7738346013E-05    0.6806121988E+00    0.6403913285E+00
    0.5000000000E+07    0.5159077799E-03    0.4470160198E-01    0.5821819626E-05    0.6808169807E+00    0.6407524088E+00
    0.7000000000E+07    0.4377781285E-03    0.4457833298E-01    0.4838875901E-05    0.6809127774E+00    0.6409688398E+00
    0.9000000000E+07    0.3872966823E-03    0.4448568113E-01    0.4218124790E-05    0.6809699072E+00    0.6411213218E+00
    0.1100000000E+08    0.3512200336E-03    0.4441140618E-01    0.3781563371E-05    0.6810085143E+00    0.6412381532E+00
    0.1300000000E+08    0.3237721742E-03    0.4434940432E-01    0.3453480591E-05    0.6810366813E+00    0.6413324101E+00
    0.1500000000E+08    0.3019763314E-03    0.4429618610E-01    0.3195538560E-05    0.6810583243E+00    0.6414111609E+00
    0.1700000000E+08    0.2841211991E-03    0.4424956763E-01    0.2985991977E-05    0.6810755876E+00    0.6414786400E+00
    0.1900000000E+08    0.2691435391E-03    0.4420809062E-01    0.2811476071E-05    0.6810897516E+00    0.6415375757E+00
    0.2100000000E+08    0.2563431684E-03    0.4417073268E-01    0.2663268874E-05    0.6811016320E+00    0.6415898246E+00
    0.2300000000E+08    0.2452376024E-03    0.4413674911E-01    0.2535406593E-05    0.6811117749E+00    0.6416367047E+00
    0.2500000000E+08    0.2354820573E-03    0.4410558061E-01    0.2423656238E-05    0.6811205611E+00    0.6416791842E+00
    0.2700000000E+08    0.2268226907E-03    0.4407679641E-01    0.2324919964E-05    0.6811282648E+00    0.6417179943E+00
