  Pressure (Pa) 2mC6-400 (mol/kg) 3mC6-400 (mol/kg) 33mC5-400 (mol/kg) 23mC5-400 (mol/kg) C7-400 (mol/kg)
    0.1000000000E+01    0.3173157542E-02    0.1051453138E-02    0.3229709045E-03    0.5589237831E-03    0.5118651486E-02
    0.3000000000E+01    0.9278944310E-02    0.3073143417E-02    0.9445817121E-03    0.1662763416E-02    0.1496235000E-01
    0.5000000000E+01    0.1508426152E-01    0.4993641356E-02    0.1535801258E-02    0.2748430471E-02    0.2431558308E-01
    0.7000000000E+01    0.2061123275E-01    0.6820692923E-02    0.2098870570E-02    0.3816506947E-02    0.3321584113E-01
    0.9000000000E+01    0.2587979420E-01    0.8561265175E-02    0.2635808698E-02    0.4867549227E-02    0.4169684738E-01
    0.1100000000E+02    0.3090796285E-01    0.1022164207E-01    0.3148439965E-02    0.5902089488E-02    0.4978902107E-01
    0.1300000000E+02    0.3571206573E-01    0.1180750645E-01    0.3638417260E-02    0.6920637029E-02    0.5751987379E-01
    0.1500000000E+02    0.4030693700E-01    0.1332401051E-01    0.4107242059E-02    0.7923679503E-02    0.6491435014E-01
    0.1700000000E+02    0.4470608774E-01    0.1477583653E-01    0.4556281675E-02    0.8911684071E-02    0.7199512143E-01
    0.1900000000E+02    0.4892185296E-01    0.1616724946E-01    0.4986784180E-02    0.9885098488E-02    0.7878283994E-01
    0.2100000000E+02    0.5296551927E-01    0.1750214260E-01    0.5399891376E-02    0.1084435211E-01    0.8529635976E-01
    0.2300000000E+02    0.5684743607E-01    0.1878407737E-01    0.5796650076E-02    0.1178985686E-01    0.9155292918E-01
    0.2500000000E+02    0.6057711279E-01    0.2001631809E-01    0.6178021983E-02    0.1272200808E-01    0.9756835889E-01
    0.2700000000E+02    0.6416330414E-01    0.2120186251E-01    0.6544892333E-02    0.1364118543E-01    0.1033571694E+00
    0.2900000000E+02    0.6761408509E-01    0.2234346852E-01    0.6898077510E-02    0.1454775362E-01    0.1089327207E+00
    0.3100000000E+02    0.7093691692E-01    0.2344367788E-01    0.7238331745E-02    0.1544206317E-01    0.1143073265E+00
    0.3300000000E+02    0.7413870572E-01    0.2450483701E-01    0.7566353049E-02    0.1632445110E-01    0.1194923552E+00
    0.3500000000E+02    0.7722585420E-01    0.2552911556E-01    0.7882788469E-02    0.1719524160E-01    0.1244983195E+00
    0.3700000000E+02    0.8020430773E-01    0.2651852281E-01    0.8188238756E-02    0.1805474662E-01    0.1293349558E+00
    0.3900000000E+02    0.8307959535E-01    0.2747492228E-01    0.8483262527E-02    0.1890326648E-01    0.1340112950E+00
    0.4100000000E+02    0.8585686642E-01    0.2840004484E-01    0.8768379975E-02    0.1974109040E-01    0.1385357256E+00
    0.4300000000E+02    0.8854092339E-01    0.2929550034E-01    0.9044076192E-02    0.2056849702E-01    0.1429160504E+00
    0.4500000000E+02    0.9113625119E-01    0.3016278807E-01    0.9310804151E-02    0.2138575487E-01    0.1471595366E+00
    0.4700000000E+02    0.9364704364E-01    0.3100330616E-01    0.9568987378E-02    0.2219312289E-01    0.1512729619E+00
    0.4900000000E+02    0.9607722725E-01    0.3181836004E-01    0.9819022365E-02    0.2299085078E-01    0.1552626548E+00
    0.1000000000E+02    0.2842287003E-01    0.9401109652E-02    0.2895055615E-02    0.5386849757E-02    0.4578975491E-01
    0.3000000000E+02    0.6929105063E-01    0.2289859678E-01    0.7069776116E-02    0.1499641935E-01    0.1116444102E+00
    0.5000000000E+02    0.9726325001E-01    0.3221672237E-01    0.9941101318E-02    0.2338617530E-01    0.1572129657E+00
    0.7000000000E+02    0.1175339464E+00    0.3910490268E-01    0.1203386215E-01    0.3084092015E-01    0.1909733579E+00
    0.9000000000E+02    0.1328009279E+00    0.4444672679E-01    0.1362036612E-01    0.3755996467E-01    0.2172109352E+00
    0.1100000000E+03    0.1446202425E+00    0.4873842124E-01    0.1485759620E-01    0.4368737205E-01    0.2383341852E+00
    0.1300000000E+03    0.1539590949E+00    0.5228113699E-01    0.1584311679E-01    0.4933013470E-01    0.2558058568E+00
    0.1500000000E+03    0.1614532234E+00    0.5526880007E-01    0.1664106789E-01    0.5456956909E-01    0.2705685695E+00
    0.1700000000E+03    0.1675389725E+00    0.5783227960E-01    0.1729549157E-01    0.5946871886E-01    0.2832588954E+00
    0.1900000000E+03    0.1725263404E+00    0.6006331072E-01    0.1783769727E-01    0.6407731446E-01    0.2943233648E+00
    0.2100000000E+03    0.1766418488E+00    0.6202824975E-01    0.1829058223E-01    0.6843518553E-01    0.3040851982E+00
    0.2300000000E+03    0.1800549439E+00    0.6377638095E-01    0.1867129102E-01    0.7257466428E-01    0.3127846227E+00
    0.2500000000E+03    0.1828949121E+00    0.6534514320E-01    0.1899291942E-01    0.7652231349E-01    0.3206042505E+00
    0.2700000000E+03    0.1852620876E+00    0.6676353545E-01    0.1926564314E-01    0.8030019204E-01    0.3276856216E+00
    0.2900000000E+03    0.1872354918E+00    0.6805440319E-01    0.1949748722E-01    0.8392679710E-01    0.3341403153E+00
    0.3100000000E+03    0.1888781690E+00    0.6923601427E-01    0.1969486348E-01    0.8741777615E-01    0.3400576116E+00
    0.3300000000E+03    0.1902409942E+00    0.7032317013E-01    0.1986295420E-01    0.9078647234E-01    0.3455098957E+00
    0.3500000000E+03    0.1913654420E+00    0.7132800542E-01    0.2000599110E-01    0.9404434730E-01    0.3505565490E+00
    0.3700000000E+03    0.1922856327E+00    0.7226057409E-01    0.2012746168E-01    0.9720131278E-01    0.3552468018E+00
    0.3900000000E+03    0.1930298686E+00    0.7312928578E-01    0.2023026415E-01    0.1002659932E+00    0.3596218584E+00
    0.4100000000E+03    0.1936218017E+00    0.7394123570E-01    0.2031682523E-01    0.1032459360E+00    0.3637165046E+00
    0.4300000000E+03    0.1940813325E+00    0.7470245727E-01    0.2038919093E-01    0.1061477807E+00    0.3675603382E+00
    0.4500000000E+03    0.1944253096E+00    0.7541811799E-01    0.2044909718E-01    0.1089773971E+00    0.3711787245E+00
    0.4700000000E+03    0.1946680790E+00    0.7609267295E-01    0.2049802539E-01    0.1117399984E+00    0.3745935448E+00
    0.4900000000E+03    0.1948219207E+00    0.7672998639E-01    0.2053724656E-01    0.1144402340E+00    0.3778237897E+00
    0.1000000000E+03    0.1390711663E+00    0.4670177640E-01    0.1427554139E-01    0.4069022520E-01    0.2283047071E+00
    0.3000000000E+03    0.1880947429E+00    0.6865787009E-01    0.1960013481E-01    0.8568835739E-01    0.3371612697E+00
    0.5000000000E+03    0.1948688534E+00    0.7703574788E-01    0.2055356550E-01    0.1157682828E+00    0.3793749592E+00
    0.7000000000E+03    0.1930549521E+00    0.8182555012E-01    0.2057013529E-01    0.1398691557E+00    0.4038082087E+00
    0.9000000000E+03    0.1886544644E+00    0.8504286491E-01    0.2027781862E-01    0.1606486309E+00    0.4203890554E+00
    0.1100000000E+04    0.1834145061E+00    0.8740197500E-01    0.1986623958E-01    0.1792472290E+00    0.4326559642E+00
    0.1300000000E+04    0.1779681608E+00    0.8923023020E-01    0.1940779307E-01    0.1962603903E+00    0.4422387131E+00
    0.1500000000E+04    0.1725719591E+00    0.9070224835E-01    0.1893414229E-01    0.2120400221E+00    0.4500105955E+00
    0.1700000000E+04    0.1673342628E+00    0.9192108978E-01    0.1846033619E-01    0.2268128562E+00    0.4564891638E+00
    0.1900000000E+04    0.1622991935E+00    0.9295215481E-01    0.1799387063E-01    0.2407346542E+00    0.4620041064E+00
    0.2100000000E+04    0.1574812766E+00    0.9383927557E-01    0.1753853244E-01    0.2539179108E+00    0.4667771765E+00
    0.2300000000E+04    0.1528809708E+00    0.9461311014E-01    0.1709618221E-01    0.2664472279E+00    0.4709640027E+00
    0.2500000000E+04    0.1484920530E+00    0.9529585071E-01    0.1666763914E-01    0.2783884076E+00    0.4746775991E+00
    0.2700000000E+04    0.1443052754E+00    0.9590402067E-01    0.1625314389E-01    0.2897941121E+00    0.4780023691E+00
    0.2900000000E+04    0.1403102232E+00    0.9645021639E-01    0.1585261099E-01    0.3007075356E+00    0.4810028446E+00
    0.3100000000E+04    0.1364962637E+00    0.9694423489E-01    0.1546577098E-01    0.3111648690E+00    0.4837293578E+00
    0.3300000000E+04    0.1328530262E+00    0.9739382848E-01    0.1509225259E-01    0.3211970035E+00    0.4862218441E+00
    0.3500000000E+04    0.1293706306E+00    0.9780522410E-01    0.1473163101E-01    0.3308307362E+00    0.4885124655E+00
    0.3700000000E+04    0.1260397841E+00    0.9818348973E-01    0.1438345681E-01    0.3400896424E+00    0.4906274645E+00
    0.3900000000E+04    0.1228518057E+00    0.9853279838E-01    0.1404727308E-01    0.3489947186E+00    0.4925885032E+00
    0.4100000000E+04    0.1197986137E+00    0.9885662200E-01    0.1372262590E-01    0.3575648626E+00    0.4944136474E+00
    0.4300000000E+04    0.1168726955E+00    0.9915787627E-01    0.1340907036E-01    0.3658172401E+00    0.4961181044E+00
    0.4500000000E+04    0.1140670685E+00    0.9943903036E-01    0.1310617412E-01    0.3737675653E+00    0.4977147822E+00
    0.4700000000E+04    0.1113752394E+00    0.9970219131E-01    0.1281351927E-01    0.3814303209E+00    0.4992147201E+00
    0.4900000000E+04    0.1087911638E+00    0.9994916967E-01    0.1253070331E-01    0.3888189313E+00    0.5006274252E+00
    0.1000000000E+04    0.1860865075E+00    0.8630412616E-01    0.2008098410E-01    0.1701754804E+00    0.4269346159E+00
    0.3000000000E+04    0.1383812647E+00    0.9670322234E-01    0.1565750088E-01    0.3059911747E+00    0.4823976422E+00
    0.5000000000E+04    0.1075377582E+00    0.1000670880E+00    0.1239286340E-01    0.3924143721E+00    0.5013036835E+00
    0.7000000000E+04    0.8694278173E-01    0.1018643449E+00    0.1006669985E-01    0.4525853036E+00    0.5117730617E+00
    0.9000000000E+04    0.7255160615E-01    0.1030156951E+00    0.8373247880E-02    0.4958123965E+00    0.5186779527E+00
    0.1100000000E+05    0.6212668519E-01    0.1038286275E+00    0.7112176432E-02    0.5276517958E+00    0.5236783724E+00
    0.1300000000E+05    0.5433795817E-01    0.1044388634E+00    0.6151898816E-02    0.5516548296E+00    0.5275190264E+00
    0.1500000000E+05    0.4835916190E-01    0.1049167206E+00    0.5405068180E-02    0.5701454811E+00    0.5305910973E+00
    0.1700000000E+05    0.4365933242E-01    0.1053026962E+00    0.4812847037E-02    0.5846736394E+00    0.5331225879E+00
    0.1900000000E+05    0.3988700906E-01    0.1056219438E+00    0.4334895595E-02    0.5962934567E+00    0.5352566374E+00
    0.2100000000E+05    0.3680319278E-01    0.1058910013E+00    0.3943026497E-02    0.6057364883E+00    0.5370882781E+00
    0.2300000000E+05    0.3424129840E-01    0.1061212369E+00    0.3617165023E-02    0.6135205751E+00    0.5386834258E+00
    0.2500000000E+05    0.3208256455E-01    0.1063207494E+00    0.3342748583E-02    0.6200192890E+00    0.5400894391E+00
    0.2700000000E+05    0.3024056459E-01    0.1064954808E+00    0.3109027850E-02    0.6255069657E+00    0.5413413452E+00
    0.2900000000E+05    0.2865121386E-01    0.1066498994E+00    0.2907938432E-02    0.6301884251E+00    0.5424656870E+00
    0.3100000000E+05    0.2726617702E-01    0.1067874361E+00    0.2733338603E-02    0.6342189407E+00    0.5434829984E+00
    0.3300000000E+05    0.2604842690E-01    0.1069107738E+00    0.2580485565E-02    0.6377178927E+00    0.5444094494E+00
    0.3500000000E+05    0.2496919420E-01    0.1070220430E+00    0.2445669679E-02    0.6407782608E+00    0.5452579724E+00
    0.3700000000E+05    0.2400583445E-01    0.1071229592E+00    0.2325955026E-02    0.6434733299E+00    0.5460390514E+00
    0.3900000000E+05    0.2314031144E-01    0.1072149210E+00    0.2218992664E-02    0.6458614988E+00    0.5467612890E+00
    0.4100000000E+05    0.2235810215E-01    0.1072990804E+00    0.2122884341E-02    0.6479897768E+00    0.5474318197E+00
    0.4300000000E+05    0.2164739477E-01    0.1073763963E+00    0.2036081746E-02    0.6498963597E+00    0.5480566179E+00
    0.4500000000E+05    0.2099849337E-01    0.1074476735E+00    0.1957311116E-02    0.6516125516E+00    0.5486407299E+00
    0.4700000000E+05    0.2040337068E-01    0.1075135930E+00    0.1885516182E-02    0.6531642148E+00    0.5491884521E+00
    0.4900000000E+05    0.1985532817E-01    0.1075747353E+00    0.1819814531E-02    0.6545728751E+00    0.5497034684E+00
    0.1000000000E+05    0.6694168825E-01    0.1034537693E+00    0.7698160656E-02    0.5128978795E+00    0.5213577779E+00
    0.3000000000E+05    0.2793569428E-01    0.1067205954E+00    0.2817651623E-02    0.6322768760E+00    0.5429866238E+00
    0.5000000000E+05    0.1959716647E-01    0.1076036734E+00    0.1789012014E-02    0.6552293338E+00    0.5499497227E+00
    0.7000000000E+05    0.1591703116E-01    0.1080221467E+00    0.1362585316E-02    0.6639966668E+00    0.5537419625E+00
    0.9000000000E+05    0.1377085134E-01    0.1082636619E+00    0.1128059576E-02    0.6684730970E+00    0.5562282055E+00
    0.1100000000E+06    0.1232868866E-01    0.1084180674E+00    0.9780304648E-03    0.6711501880E+00    0.5580257780E+00
    0.1300000000E+06    0.1127441265E-01    0.1085230502E+00    0.8727186970E-03    0.6729179876E+00    0.5594070185E+00
    0.1500000000E+06    0.1045985211E-01    0.1085973161E+00    0.7940487197E-03    0.6741671661E+00    0.5605134749E+00
    0.1700000000E+06    0.9805525402E-02    0.1086512353E+00    0.7326156946E-03    0.6750943313E+00    0.5614270803E+00
    0.1900000000E+06    0.9264562303E-02    0.1086910281E+00    0.6830306997E-03    0.6758085847E+00    0.5621990383E+00
    0.2100000000E+06    0.8807318977E-02    0.1087206524E+00    0.6419748175E-03    0.6763750815E+00    0.5628632421E+00
    0.2300000000E+06    0.8414010444E-02    0.1087427453E+00    0.6072862790E-03    0.6768350241E+00    0.5634431557E+00
    0.2500000000E+06    0.8070857268E-02    0.1087591303E+00    0.5774926941E-03    0.6772156902E+00    0.5639556174E+00
    0.2700000000E+06    0.7767925564E-02    0.1087711063E+00    0.5515539965E-03    0.6775358306E+00    0.5644130733E+00
    0.2900000000E+06    0.7497846506E-02    0.1087796229E+00    0.5287129287E-03    0.6778087454E+00    0.5648249522E+00
    0.3100000000E+06    0.7255021398E-02    0.1087853890E+00    0.5084038893E-03    0.6780441222E+00    0.5651985488E+00
    0.3300000000E+06    0.7035108739E-02    0.1087889436E+00    0.4901951159E-03    0.6782491803E+00    0.5655396085E+00
    0.3500000000E+06    0.6834682176E-02    0.1087907032E+00    0.4737507498E-03    0.6784294063E+00    0.5658527284E+00
    0.3700000000E+06    0.6650995879E-02    0.1087909939E+00    0.4588052091E-03    0.6785890436E+00    0.5661416370E+00
    0.3900000000E+06    0.6481819587E-02    0.1087900744E+00    0.4451454298E-03    0.6787314236E+00    0.5664093956E+00
    0.4100000000E+06    0.6325320112E-02    0.1087881522E+00    0.4325982799E-03    0.6788591984E+00    0.5666585446E+00
    0.4300000000E+06    0.6179974564E-02    0.1087853949E+00    0.4210214616E-03    0.6789745042E+00    0.5668912132E+00
    0.4500000000E+06    0.6044505735E-02    0.1087819397E+00    0.4102968166E-03    0.6790790814E+00    0.5671092008E+00
    0.4700000000E+06    0.5917833223E-02    0.1087778992E+00    0.4003253211E-03    0.6791743613E+00    0.5673140407E+00
    0.4900000000E+06    0.5799035968E-02    0.1087733668E+00    0.3910232895E-03    0.6792615321E+00    0.5675070490E+00
    0.1000000000E+06    0.1298745419E-01    0.1083487469E+00    0.1045740851E-02    0.6699630117E+00    0.5571916289E+00
    0.3000000000E+06    0.7373323366E-02    0.1087828128E+00    0.5182715087E-03    0.6779306271E+00    0.5650161458E+00
    0.5000000000E+06    0.5742339007E-02    0.1087709409E+00    0.3866006331E-03    0.6793023938E+00    0.5675994775E+00
    0.7000000000E+06    0.4877734170E-02    0.1087099941E+00    0.3204799805E-03    0.6798674684E+00    0.5690360639E+00
    0.9000000000E+06    0.4319629671E-02    0.1086416101E+00    0.2790887667E-03    0.6801763257E+00    0.5699942501E+00
    0.1100000000E+07    0.3920698377E-02    0.1085747194E+00    0.2501101081E-03    0.6803714484E+00    0.5706973162E+00
    0.1300000000E+07    0.3617016636E-02    0.1085115397E+00    0.2283883659E-03    0.6805061471E+00    0.5712445998E+00
    0.1500000000E+07    0.3375713391E-02    0.1084524530E+00    0.2113374993E-03    0.6806048837E+00    0.5716881314E+00
    0.1700000000E+07    0.3177909695E-02    0.1083972834E+00    0.1974997055E-03    0.6806804656E+00    0.5720582425E+00
    0.1900000000E+07    0.3011880101E-02    0.1083456954E+00    0.1859828086E-03    0.6807402514E+00    0.5723740137E+00
    0.2100000000E+07    0.2869903147E-02    0.1082973293E+00    0.1762063428E-03    0.6807887724E+00    0.5726481526E+00
    0.2300000000E+07    0.2746657282E-02    0.1082518477E+00    0.1677743040E-03    0.6808289728E+00    0.5728895077E+00
    0.2500000000E+07    0.2638338771E-02    0.1082089484E+00    0.1604061001E-03    0.6808628494E+00    0.5731044632E+00
    0.2700000000E+07    0.2542146301E-02    0.1081683667E+00    0.1538966584E-03    0.6808918052E+00    0.5732977627E+00
    0.2900000000E+07    0.2455964681E-02    0.1081298719E+00    0.1480921798E-03    0.6809168546E+00    0.5734730172E+00
    0.3100000000E+07    0.2378162636E-02    0.1080932637E+00    0.1428747690E-03    0.6809387501E+00    0.5736330336E+00
    0.3300000000E+07    0.2307459019E-02    0.1080583675E+00    0.1381523421E-03    0.6809580616E+00    0.5737800325E+00
    0.3500000000E+07    0.2242831657E-02    0.1080250309E+00    0.1338517965E-03    0.6809752286E+00    0.5739157985E+00
    0.3700000000E+07    0.2183453637E-02    0.1079931205E+00    0.1299142651E-03    0.6809905959E+00    0.5740417848E+00
    0.3900000000E+07    0.2128647774E-02    0.1079625187E+00    0.1262917441E-03    0.6810044376E+00    0.5741591893E+00
    0.4100000000E+07    0.2077853429E-02    0.1079331217E+00    0.1229446478E-03    0.6810169746E+00    0.5742690100E+00
    0.4300000000E+07    0.2030601896E-02    0.1079048375E+00    0.1198400033E-03    0.6810283866E+00    0.5743720863E+00
    0.4500000000E+07    0.1986497865E-02    0.1078775840E+00    0.1169500969E-03    0.6810388217E+00    0.5744691303E+00
    0.4700000000E+07    0.1945205263E-02    0.1078512878E+00    0.1142514437E-03    0.6810484029E+00    0.5745607508E+00
    0.4900000000E+07    0.1906436295E-02    0.1078258831E+00    0.1117239941E-03    0.6810572332E+00    0.5746474722E+00
    0.1000000000E+07    0.4105318327E-02    0.1086077696E+00    0.2634583631E-03    0.6802837501E+00    0.5703698675E+00
    0.3000000000E+07    0.2416103258E-02    0.1081113435E+00    0.1454163586E-03    0.6809281574E+00    0.5735547796E+00
    0.5000000000E+07    0.1887919288E-02    0.1078134963E+00    0.1105189891E-03    0.6810613945E+00    0.5746891400E+00
    0.7000000000E+07    0.1604583053E-02    0.1076008555E+00    0.9226266362E-04    0.6811205895E+00    0.5753493908E+00
    0.9000000000E+07    0.1420973640E-02    0.1074350043E+00    0.8062688120E-04    0.6811545488E+00    0.5758048692E+00
    0.1100000000E+08    0.1289520862E-02    0.1072988204E+00    0.7239969253E-04    0.6811767913E+00    0.5761482013E+00
    0.1300000000E+08    0.1189384603E-02    0.1071831721E+00    0.6619495168E-04    0.6811925991E+00    0.5764215376E+00
    0.1500000000E+08    0.1109794635E-02    0.1070826036E+00    0.6130443501E-04    0.6812044745E+00    0.5766473753E+00
    0.1700000000E+08    0.1044547318E-02    0.1069935901E+00    0.5732396794E-04    0.6812137612E+00    0.5768390447E+00
    0.1900000000E+08    0.9897827660E-03    0.1069137199E+00    0.5400402924E-04    0.6812212478E+00    0.5770050533E+00
    0.2100000000E+08    0.9429562379E-03    0.1068412692E+00    0.5118122182E-04    0.6812274288E+00    0.5771511411E+00
    0.2300000000E+08    0.9023125979E-03    0.1067749620E+00    0.4874351797E-04    0.6812326308E+00    0.5772813524E+00
    0.2500000000E+08    0.8665966798E-03    0.1067138272E+00    0.4661122792E-04    0.6812370783E+00    0.5773986367E+00
    0.2700000000E+08    0.8348837933E-03    0.1066571082E+00    0.4472592599E-04    0.6812409312E+00    0.5775052078E+00
