  Pressure (Pa) 2mC6-400 (mol/kg) 3mC6-400 (mol/kg) 33mC5-400 (mol/kg) 23mC5-400 (mol/kg) C7-400 (mol/kg)
    0.1000000000E+01    0.3160850403E-02    0.1046551604E-02    0.6434674842E-04    0.7452177691E-03    0.8491513034E-02
    0.3000000000E+01    0.9175208327E-02    0.3031676344E-02    0.1868317514E-03    0.2216893133E-02    0.2460243544E-01
    0.5000000000E+01    0.1481382885E-01    0.4885148304E-02    0.3017284402E-03    0.3664229473E-02    0.3964990195E-01
    0.7000000000E+01    0.2011281459E-01    0.6620025689E-02    0.4097677628E-03    0.5088004841E-02    0.5373923731E-01
    0.9000000000E+01    0.2510362400E-01    0.8247682904E-02    0.5115864024E-03    0.6488963198E-02    0.6696219521E-01
    0.1100000000E+02    0.2981380326E-01    0.9778074043E-02    0.6077416575E-03    0.7867816284E-02    0.7939908096E-01
    0.1300000000E+02    0.3426758368E-01    0.1121994837E-01    0.6987235844E-03    0.9225245367E-02    0.9112048751E-01
    0.1500000000E+02    0.3848637250E-01    0.1258102768E-01    0.7849649723E-03    0.1056190288E-01    0.1021887247E+00
    0.1700000000E+02    0.4248915885E-01    0.1386815324E-01    0.8668495896E-03    0.1187841393E-01    0.1126590028E+00
    0.1900000000E+02    0.4629285120E-01    0.1508740817E-01    0.9447190393E-03    0.1317537779E-01    0.1225804192E+00
    0.2100000000E+02    0.4991255973E-01    0.1624421990E-01    0.1018878492E-02    0.1445336916E-01    0.1319967840E+00
    0.2300000000E+02    0.5336183357E-01    0.1734344652E-01    0.1089601503E-02    0.1571293948E-01    0.1409473156E+00
    0.2500000000E+02    0.5665286130E-01    0.1838944976E-01    0.1157134080E-02    0.1695461813E-01    0.1494672291E+00
    0.2700000000E+02    0.5979664109E-01    0.1938615701E-01    0.1221698139E-02    0.1817891347E-01    0.1575882366E+00
    0.2900000000E+02    0.6280312573E-01    0.2033711428E-01    0.1283494442E-02    0.1938631395E-01    0.1653389736E+00
    0.3100000000E+02    0.6568134684E-01    0.2124553158E-01    0.1342705119E-02    0.2057728907E-01    0.1727453650E+00
    0.3300000000E+02    0.6843952159E-01    0.2211432194E-01    0.1399495831E-02    0.2175229029E-01    0.1798309396E+00
    0.3500000000E+02    0.7108514479E-01    0.2294613512E-01    0.1454017635E-02    0.2291175191E-01    0.1866171023E+00
    0.3700000000E+02    0.7362506862E-01    0.2374338684E-01    0.1506408602E-02    0.2405609191E-01    0.1931233694E+00
    0.3900000000E+02    0.7606557194E-01    0.2450828418E-01    0.1556795221E-02    0.2518571269E-01    0.1993675732E+00
    0.4100000000E+02    0.7841242071E-01    0.2524284770E-01    0.1605293620E-02    0.2630100181E-01    0.2053660412E+00
    0.4300000000E+02    0.8067092081E-01    0.2594893087E-01    0.1652010639E-02    0.2740233271E-01    0.2111337521E+00
    0.4500000000E+02    0.8284596438E-01    0.2662823708E-01    0.1697044766E-02    0.2849006529E-01    0.2166844728E+00
    0.4700000000E+02    0.8494207066E-01    0.2728233456E-01    0.1740486963E-02    0.2956454661E-01    0.2220308797E+00
    0.4900000000E+02    0.8696342191E-01    0.2791266966E-01    0.1782421395E-02    0.3062611139E-01    0.2271846650E+00
    0.1000000000E+02    0.2749220646E-01    0.9024463910E-02    0.5603398748E-03    0.7181109626E-02    0.7327427549E-01
    0.3000000000E+02    0.6425773771E-01    0.2079645182E-01    0.1313412267E-02    0.1998382605E-01    0.1690836892E+00
    0.5000000000E+02    0.8794728712E-01    0.2821934786E-01    0.1802847802E-02    0.3115215145E-01    0.2296927327E+00
    0.7000000000E+02    0.1045065857E+00    0.3338120318E-01    0.2148443061E-02    0.4106771372E-01    0.2719718632E+00
    0.9000000000E+02    0.1166701364E+00    0.3720911870E-01    0.2405189777E-02    0.4999774096E-01    0.3034198052E+00
    0.1100000000E+03    0.1259010235E+00    0.4017965040E-01    0.2602487640E-02    0.5813542348E-01    0.3278952196E+00
    0.1300000000E+03    0.1330656414E+00    0.4256385157E-01    0.2757747872E-02    0.6562422559E-01    0.3475951132E+00
    0.1500000000E+03    0.1387153604E+00    0.4452780180E-01    0.2882059584E-02    0.7257315089E-01    0.3638670220E+00
    0.1700000000E+03    0.1432203279E+00    0.4617924450E-01    0.2982876931E-02    0.7906667123E-01    0.3775860439E+00
    0.1900000000E+03    0.1468394466E+00    0.4759131574E-01    0.3065422774E-02    0.8517138378E-01    0.3893467917E+00
    0.2100000000E+03    0.1497597880E+00    0.4881552055E-01    0.3133478648E-02    0.9094059375E-01    0.3995684289E+00
    0.2300000000E+03    0.1521201293E+00    0.4988925326E-01    0.3189856349E-02    0.9641754304E-01    0.4085555814E+00
    0.2500000000E+03    0.1540256911E+00    0.5084036934E-01    0.3236693180E-02    0.1016377319E+00    0.4165353889E+00
    0.2700000000E+03    0.1555577302E+00    0.5169007830E-01    0.3275644186E-02    0.1066306196E+00    0.4236809649E+00
    0.2900000000E+03    0.1567799906E+00    0.5245483778E-01    0.3308011475E-02    0.1114208898E+00    0.4301267652E+00
    0.3100000000E+03    0.1577431621E+00    0.5314763061E-01    0.3334833676E-02    0.1160294077E+00    0.4359789569E+00
    0.3300000000E+03    0.1584880364E+00    0.5377884816E-01    0.3356949285E-02    0.1204739517E+00    0.4413225943E+00
    0.3500000000E+03    0.1590477861E+00    0.5435691531E-01    0.3375042480E-02    0.1247697820E+00    0.4462266992E+00
    0.3700000000E+03    0.1594496418E+00    0.5488874136E-01    0.3389676851E-02    0.1289300847E+00    0.4507479284E+00
    0.3900000000E+03    0.1597161441E+00    0.5538005140E-01    0.3401320621E-02    0.1329663253E+00    0.4549332701E+00
    0.4100000000E+03    0.1598660935E+00    0.5583563355E-01    0.3410365799E-02    0.1368885295E+00    0.4588220574E+00
    0.4300000000E+03    0.1599152786E+00    0.5625952623E-01    0.3417142886E-02    0.1407055110E+00    0.4624474940E+00
    0.4500000000E+03    0.1598770419E+00    0.5665516178E-01    0.3421932312E-02    0.1444250562E+00    0.4658378248E+00
    0.4700000000E+03    0.1597627231E+00    0.5702547797E-01    0.3424973423E-02    0.1480540754E+00    0.4690172461E+00
    0.4900000000E+03    0.1595820106E+00    0.5737300558E-01    0.3426471603E-02    0.1515987281E+00    0.4720066195E+00
    0.1000000000E+03    0.1215883761E+00    0.3878136151E-01    0.2509988146E-02    0.5415570500E-01    0.3163654319E+00
    0.3000000000E+03    0.1572912112E+00    0.5280952816E-01    0.3322059222E-02    0.1137466916E+00    0.4331213191E+00
    0.5000000000E+03    0.1594694030E+00    0.5753892061E-01    0.3426698417E-02    0.1533411621E+00    0.4734357875E+00
    0.7000000000E+03    0.1552348387E+00    0.6006599221E-01    0.3382538153E-02    0.1848371268E+00    0.4953896179E+00
    0.9000000000E+03    0.1492848876E+00    0.6168245957E-01    0.3291141950E-02    0.2117471157E+00    0.5096647762E+00
    0.1100000000E+04    0.1429493256E+00    0.6282278949E-01    0.3183229012E-02    0.2355738245E+00    0.5198844048E+00
    0.1300000000E+04    0.1366892600E+00    0.6367863326E-01    0.3070516642E-02    0.2571035451E+00    0.5276586543E+00
    0.1500000000E+04    0.1306775042E+00    0.6434908471E-01    0.2958093726E-02    0.2768050649E+00    0.5338257335E+00
    0.1700000000E+04    0.1249760935E+00    0.6489108841E-01    0.2848331304E-02    0.2949852467E+00    0.5388703808E+00
    0.1900000000E+04    0.1196005783E+00    0.6533994212E-01    0.2742356385E-02    0.3118597596E+00    0.5430948664E+00
    0.2100000000E+04    0.1145461133E+00    0.6571881177E-01    0.2640680012E-02    0.3275889195E+00    0.5466987013E+00
    0.2300000000E+04    0.1097989167E+00    0.6604359617E-01    0.2543490535E-02    0.3422973779E+00    0.5498195577E+00
    0.2500000000E+04    0.1053415854E+00    0.6632560638E-01    0.2450800613E-02    0.3560856390E+00    0.5525558966E+00
    0.2700000000E+04    0.1011556435E+00    0.6657313124E-01    0.2362525197E-02    0.3690371429E+00    0.5549802380E+00
    0.2900000000E+04    0.9722277777E-01    0.6679239740E-01    0.2278524846E-02    0.3812228076E+00    0.5571473284E+00
    0.3100000000E+04    0.9352542713E-01    0.6698818199E-01    0.2198630707E-02    0.3927040481E+00    0.5590993713E+00
    0.3300000000E+04    0.9004704272E-01    0.6716421714E-01    0.2122659360E-02    0.4035348460E+00    0.5608694927E+00
    0.3500000000E+04    0.8677218001E-01    0.6732346504E-01    0.2050421839E-02    0.4137632113E+00    0.5624841041E+00
    0.3700000000E+04    0.8368650384E-01    0.6746830956E-01    0.1981729207E-02    0.4234322417E+00    0.5639645559E+00
    0.3900000000E+04    0.8077674966E-01    0.6760069287E-01    0.1916396004E-02    0.4325809098E+00    0.5653283182E+00
    0.4100000000E+04    0.7803066410E-01    0.6772221472E-01    0.1854242381E-02    0.4412446644E+00    0.5665898423E+00
    0.4300000000E+04    0.7543693703E-01    0.6783420576E-01    0.1795095373E-02    0.4494558974E+00    0.5677611992E+00
    0.4500000000E+04    0.7298513197E-01    0.6793778275E-01    0.1738789623E-02    0.4572443175E+00    0.5688525606E+00
    0.4700000000E+04    0.7066561807E-01    0.6803389044E-01    0.1685167732E-02    0.4646372534E+00    0.5698725660E+00
    0.4900000000E+04    0.6846950563E-01    0.6812333396E-01    0.1634080362E-02    0.4716599055E+00    0.5708286073E+00
    0.1000000000E+04    0.1461262015E+00    0.6229703276E-01    0.3238285695E-02    0.2239864791E+00    0.5151548390E+00
    0.3000000000E+04    0.9534572274E-01    0.6689297086E-01    0.2238075750E-02    0.3870479523E+00    0.5581479796E+00
    0.5000000000E+04    0.6741513466E-01    0.6816577641E-01    0.1609442645E-02    0.4750397210E+00    0.5712846659E+00
    0.7000000000E+04    0.5112188167E-01    0.6879031349E-01    0.1219511274E-02    0.5280012873E+00    0.5782128803E+00
    0.9000000000E+04    0.4089181457E-01    0.6916576252E-01    0.9657052599E-03    0.5620197271E+00    0.5826465242E+00
    0.1100000000E+05    0.3405481842E-01    0.6941711727E-01    0.7922438757E-03    0.5850935824E+00    0.5857907512E+00
    0.1300000000E+05    0.2924340650E-01    0.6959707386E-01    0.6684749019E-03    0.6014740599E+00    0.5881685048E+00
    0.1500000000E+05    0.2571073194E-01    0.6973196212E-01    0.5768689428E-03    0.6135513680E+00    0.5900476568E+00
    0.1700000000E+05    0.2302461442E-01    0.6983649258E-01    0.5069445538E-03    0.6227403988E+00    0.5915812631E+00
    0.1900000000E+05    0.2092197554E-01    0.6991956486E-01    0.4521634346E-03    0.6299180844E+00    0.5928638697E+00
    0.2100000000E+05    0.1923549836E-01    0.6998689475E-01    0.4082882110E-03    0.6356502889E+00    0.5939574096E+00
    0.2300000000E+05    0.1785466178E-01    0.7004232851E-01    0.3724782792E-03    0.6403152068E+00    0.5949043553E+00
    0.2500000000E+05    0.1670402456E-01    0.7008855312E-01    0.3427718861E-03    0.6441734644E+00    0.5957349267E+00
    0.2700000000E+05    0.1573059716E-01    0.7012750432E-01    0.3177782827E-03    0.6474095414E+00    0.5964712862E+00
    0.2900000000E+05    0.1489621615E-01    0.7016061299E-01    0.2964884733E-03    0.6501571264E+00    0.5971301040E+00
    0.3100000000E+05    0.1417278268E-01    0.7018896015E-01    0.2781552791E-03    0.6525151329E+00    0.5977241914E+00
    0.3300000000E+05    0.1353919977E-01    0.7021337800E-01    0.2622152202E-03    0.6545581067E+00    0.5982635778E+00
    0.3500000000E+05    0.1297934911E-01    0.7023451770E-01    0.2482363627E-03    0.6563431598E+00    0.5987562418E+00
    0.3700000000E+05    0.1248072252E-01    0.7025289611E-01    0.2358827202E-03    0.6579146980E+00    0.5992086206E+00
    0.3900000000E+05    0.1203347603E-01    0.7026892872E-01    0.2248894586E-03    0.6593077094E+00    0.5996259727E+00
    0.4100000000E+05    0.1162976349E-01    0.7028295331E-01    0.2150453089E-03    0.6605500945E+00    0.6000126418E+00
    0.4300000000E+05    0.1126325855E-01    0.7029524726E-01    0.2061798829E-03    0.6616643470E+00    0.6003722519E+00
    0.4500000000E+05    0.1092880648E-01    0.7030604044E-01    0.1981543857E-03    0.6626687828E+00    0.6007078533E+00
    0.4700000000E+05    0.1062216661E-01    0.7031552494E-01    0.1908547185E-03    0.6635784525E+00    0.6010220348E+00
    0.4900000000E+05    0.1033981937E-01    0.7032386247E-01    0.1841862931E-03    0.6644058278E+00    0.6013170095E+00
    0.1000000000E+05    0.3715454057E-01    0.6930275484E-01    0.8712567153E-03    0.5746002317E+00    0.5843384605E+00
    0.3000000000E+05    0.1452208600E-01    0.7017532484E-01    0.2869911122E-03    0.6513796912E+00    0.5974345568E+00
    0.5000000000E+05    0.1020681603E-01    0.7032764479E-01    0.1810635809E-03    0.6647919784E+00    0.6014579002E+00
    0.7000000000E+05    0.8308173820E-02    0.7036745001E-01    0.1380114958E-03    0.6700031816E+00    0.6036157693E+00
    0.9000000000E+05    0.7195829752E-02    0.7037162690E-01    0.1144029063E-03    0.6727273526E+00    0.6050194023E+00
    0.1100000000E+06    0.6445251352E-02    0.7036139616E-01    0.9928856243E-04    0.6743913841E+00    0.6060294753E+00
    0.1300000000E+06    0.5894872658E-02    0.7034467751E-01    0.8866211005E-04    0.6755102273E+00    0.6068032592E+00
    0.1500000000E+06    0.5468722705E-02    0.7032495826E-01    0.8071072338E-04    0.6763130451E+00    0.6074218487E+00
    0.1700000000E+06    0.5125889512E-02    0.7030393856E-01    0.7449219484E-04    0.6769167788E+00    0.6079319128E+00
    0.1900000000E+06    0.4842158619E-02    0.7028250246E-01    0.6946648905E-04    0.6773871759E+00    0.6083624869E+00
    0.2100000000E+06    0.4602166248E-02    0.7026112741E-01    0.6530071059E-04    0.6777639752E+00    0.6087327232E+00
    0.2300000000E+06    0.4395630568E-02    0.7024007509E-01    0.6177777766E-04    0.6780725836E+00    0.6090558424E+00
    0.2500000000E+06    0.4215374557E-02    0.7021948725E-01    0.5874965168E-04    0.6783299905E+00    0.6093413098E+00
    0.2700000000E+06    0.4056214441E-02    0.7019943673E-01    0.5611163232E-04    0.6785479816E+00    0.6095961081E+00
    0.2900000000E+06    0.3914298969E-02    0.7017995585E-01    0.5378739879E-04    0.6787349864E+00    0.6098255183E+00
    0.3100000000E+06    0.3786698235E-02    0.7016105288E-01    0.5171988339E-04    0.6788971923E+00    0.6100336203E+00
    0.3300000000E+06    0.3671137793E-02    0.7014272174E-01    0.4986547759E-04    0.6790392425E+00    0.6102236235E+00
    0.3500000000E+06    0.3565821010E-02    0.7012494797E-01    0.4819022715E-04    0.6791646894E+00    0.6103980933E+00
    0.3700000000E+06    0.3469307005E-02    0.7010771234E-01    0.4666725928E-04    0.6792762964E+00    0.6105591085E+00
    0.3900000000E+06    0.3380424706E-02    0.7009099318E-01    0.4527499806E-04    0.6793762459E+00    0.6107083744E+00
    0.4100000000E+06    0.3298211031E-02    0.7007476778E-01    0.4399589854E-04    0.6794662838E+00    0.6108473052E+00
    0.4300000000E+06    0.3221865563E-02    0.7005901332E-01    0.4281553092E-04    0.6795478237E+00    0.6109770855E+00
    0.4500000000E+06    0.3150716768E-02    0.7004370736E-01    0.4172190601E-04    0.6796220222E+00    0.6110987159E+00
    0.4700000000E+06    0.3084196418E-02    0.7002882823E-01    0.4070497058E-04    0.6796898350E+00    0.6112130486E+00
    0.4900000000E+06    0.3021819965E-02    0.7001435518E-01    0.3975622430E-04    0.6797520584E+00    0.6113208147E+00
    0.1000000000E+06    0.6788438599E-02    0.7036766099E-01    0.1061125772E-03    0.6736494769E+00    0.6055612179E+00
    0.3000000000E+06    0.3848864360E-02    0.7017043225E-01    0.5272454029E-04    0.6788188690E+00    0.6099320149E+00
    0.5000000000E+06    0.2992053339E-02    0.7000726473E-01    0.3930511646E-04    0.6797812875E+00    0.6113724359E+00
    0.7000000000E+06    0.2538425204E-02    0.6988255650E-01    0.3255975716E-04    0.6801899224E+00    0.6121762237E+00
    0.9000000000E+06    0.2245984242E-02    0.6978210037E-01    0.2833747231E-04    0.6804173130E+00    0.6127143959E+00
    0.1100000000E+07    0.2037173468E-02    0.6969799683E-01    0.2538233619E-04    0.6805627779E+00    0.6131107239E+00
    0.1300000000E+07    0.1878360374E-02    0.6962562683E-01    0.2316808197E-04    0.6806641609E+00    0.6134202838E+00
    0.1500000000E+07    0.1752262927E-02    0.6956208237E-01    0.2143062951E-04    0.6807390527E+00    0.6136719461E+00
    0.1700000000E+07    0.1648962705E-02    0.6950541893E-01    0.2002109549E-04    0.6807967547E+00    0.6138825590E+00
    0.1900000000E+07    0.1562303702E-02    0.6945427288E-01    0.1884836715E-04    0.6808426537E+00    0.6140627336E+00
    0.2100000000E+07    0.1488234581E-02    0.6940765111E-01    0.1785317208E-04    0.6808800889E+00    0.6142195462E+00
    0.2300000000E+07    0.1423964787E-02    0.6936480778E-01    0.1699508018E-04    0.6809112421E+00    0.6143579298E+00
    0.2500000000E+07    0.1367500714E-02    0.6932516839E-01    0.1624544965E-04    0.6809376003E+00    0.6144814485E+00
    0.2700000000E+07    0.1317374841E-02    0.6928828091E-01    0.1558335150E-04    0.6809602127E+00    0.6145927536E+00
    0.2900000000E+07    0.1272479560E-02    0.6925378320E-01    0.1499309261E-04    0.6809798413E+00    0.6146938659E+00
    0.3100000000E+07    0.1231961004E-02    0.6922138059E-01    0.1446264573E-04    0.6809970530E+00    0.6147863580E+00
    0.3300000000E+07    0.1195148819E-02    0.6919083004E-01    0.1398261861E-04    0.6810122785E+00    0.6148714757E+00
    0.3500000000E+07    0.1161508341E-02    0.6916192873E-01    0.1354555638E-04    0.6810258511E+00    0.6149502211E+00
    0.3700000000E+07    0.1130607177E-02    0.6913450562E-01    0.1314545701E-04    0.6810380330E+00    0.6150234111E+00
    0.3900000000E+07    0.1102091329E-02    0.6910841510E-01    0.1277742692E-04    0.6810490331E+00    0.6150917201E+00
    0.4100000000E+07    0.1075667806E-02    0.6908353219E-01    0.1243743136E-04    0.6810590200E+00    0.6151557102E+00
    0.4300000000E+07    0.1051091723E-02    0.6905974881E-01    0.1212211014E-04    0.6810681316E+00    0.6152158550E+00
    0.4500000000E+07    0.1028156593E-02    0.6903697083E-01    0.1182863945E-04    0.6810764814E+00    0.6152725564E+00
    0.4700000000E+07    0.1006686912E-02    0.6901511579E-01    0.1155462674E-04    0.6810841641E+00    0.6153261585E+00
    0.4900000000E+07    0.9865324196E-03    0.6899411101E-01    0.1129802973E-04    0.6810912589E+00    0.6153769578E+00
    0.1000000000E+07    0.2133783084E-02    0.6973834602E-01    0.2674340582E-04    0.6804972070E+00    0.6129259634E+00
    0.3000000000E+07    0.1251718744E-02    0.6923733626E-01    0.1472103200E-04    0.6809887197E+00    0.6147411051E+00
    0.5000000000E+07    0.9769071900E-03    0.6898390708E-01    0.1117570383E-04    0.6810946073E+00    0.6154013881E+00
    0.7000000000E+07    0.8297139289E-03    0.6881209781E-01    0.9323335900E-05    0.6811426312E+00    0.6157905443E+00
    0.9000000000E+07    0.7344180140E-03    0.6868172754E-01    0.8143681162E-05    0.6811705917E+00    0.6160614294E+00
    0.1100000000E+08    0.6662370703E-03    0.6857655400E-01    0.7310087860E-05    0.6811891216E+00    0.6162670500E+00
    0.1300000000E+08    0.6143251368E-03    0.6848835609E-01    0.6681699748E-05    0.6812024210E+00    0.6164316851E+00
    0.1500000000E+08    0.5730811433E-03    0.6841238570E-01    0.6186593162E-05    0.6812124972E+00    0.6165683637E+00
    0.1700000000E+08    0.5392807450E-03    0.6834564863E-01    0.5783742255E-05    0.6812204362E+00    0.6166848417E+00
    0.1900000000E+08    0.5109187066E-03    0.6828613366E-01    0.5447829594E-05    0.6812268794E+00    0.6167860892E+00
    0.2100000000E+08    0.4866735388E-03    0.6823242393E-01    0.5162281970E-05    0.6812322314E+00    0.6168754718E+00
    0.2300000000E+08    0.4656341034E-03    0.6818348330E-01    0.4915739910E-05    0.6812367606E+00    0.6169553682E+00
    0.2500000000E+08    0.4471490009E-03    0.6813853096E-01    0.4700125092E-05    0.6812406529E+00    0.6170275190E+00
    0.2700000000E+08    0.4307384645E-03    0.6809696376E-01    0.4509516162E-05    0.6812440407E+00    0.6170932335E+00
