  Pressure (Pa) 2mC6-400 (mol/kg) 3mC6-400 (mol/kg) 33mC5-400 (mol/kg) 23mC5-400 (mol/kg) C7-400 (mol/kg)
    0.1000000000E+01    0.3156417870E-02    0.5223403441E-03    0.1285154839E-03    0.6521124765E-03    0.1017168798E-01
    0.3000000000E+01    0.9138480578E-02    0.1508024433E-02    0.3721895274E-03    0.1940195618E-02    0.2937148901E-01
    0.5000000000E+01    0.1471963453E-01    0.2422373586E-02    0.5996792709E-03    0.3207328990E-02    0.4718834664E-01
    0.7000000000E+01    0.1994190773E-01    0.3273067923E-02    0.8126861910E-03    0.4454173435E-02    0.6377093084E-01
    0.9000000000E+01    0.2484144705E-01    0.4066716106E-02    0.1012673028E-02    0.5681361182E-02    0.7924718605E-01
    0.1100000000E+02    0.2944952126E-01    0.4809036250E-02    0.1200904572E-02    0.6889497405E-02    0.9372782899E-01
    0.1300000000E+02    0.3379332536E-01    0.5505001353E-02    0.1378480362E-02    0.8079161674E-02    0.1073091607E+00
    0.1500000000E+02    0.3789663073E-01    0.6158957114E-02    0.1546361110E-02    0.9250909309E-02    0.1200753447E+00
    0.1700000000E+02    0.4178031434E-01    0.6774718059E-02    0.1705390202E-02    0.1040527266E-01    0.1321002663E+00
    0.1900000000E+02    0.4546279256E-01    0.7355646504E-02    0.1856311318E-02    0.1154276230E-01    0.1434490591E+00
    0.2100000000E+02    0.4896037894E-01    0.7904717827E-02    0.1999782964E-02    0.1266386812E-01    0.1541793684E+00
    0.2300000000E+02    0.5228758119E-01    0.8424574739E-02    0.2136390526E-02    0.1376906043E-01    0.1643424001E+00
    0.2500000000E+02    0.5545734888E-01    0.8917572660E-02    0.2266656321E-02    0.1485879090E-01    0.1739837990E+00
    0.2700000000E+02    0.5848128135E-01    0.9385817856E-02    0.2391048039E-02    0.1593349350E-01    0.1831443863E+00
    0.2900000000E+02    0.6136980295E-01    0.9831199650E-02    0.2509985842E-02    0.1699358537E-01    0.1918607832E+00
    0.3100000000E+02    0.6413231157E-01    0.1025541776E-01    0.2623848392E-02    0.1803946765E-01    0.2001659394E+00
    0.3300000000E+02    0.6677730492E-01    0.1066000558E-01    0.2732977970E-02    0.1907152625E-01    0.2080895840E+00
    0.3500000000E+02    0.6931248857E-01    0.1104635015E-01    0.2837684852E-02    0.2009013257E-01    0.2156586115E+00
    0.3700000000E+02    0.7174486862E-01    0.1141570924E-01    0.2938251064E-02    0.2109564419E-01    0.2228974133E+00
    0.3900000000E+02    0.7408083152E-01    0.1176922619E-01    0.3034933614E-02    0.2208840551E-01    0.2298281634E+00
    0.4100000000E+02    0.7632621309E-01    0.1210794264E-01    0.3127967287E-02    0.2306874839E-01    0.2364710665E+00
    0.4300000000E+02    0.7848635844E-01    0.1243280968E-01    0.3217567070E-02    0.2403699269E-01    0.2428445727E+00
    0.4500000000E+02    0.8056617412E-01    0.1274469751E-01    0.3303930261E-02    0.2499344683E-01    0.2489655652E+00
    0.4700000000E+02    0.8257017364E-01    0.1304440392E-01    0.3387238312E-02    0.2593840831E-01    0.2548495237E+00
    0.4900000000E+02    0.8450251742E-01    0.1333266170E-01    0.3467658443E-02    0.2687216420E-01    0.2605106687E+00
    0.1000000000E+02    0.2718013041E-01    0.4443965406E-02    0.1108185954E-02    0.6287773927E-02    0.8660563136E-01
    0.3000000000E+02    0.6276625803E-01    0.1004585468E-01    0.2567529333E-02    0.1751827824E-01    0.1960628377E+00
    0.5000000000E+02    0.8544303070E-01    0.1347271020E-01    0.3506834255E-02    0.2733492701E-01    0.2632618169E+00
    0.7000000000E+02    0.1012851946E+00    0.1581079903E-01    0.4170622742E-02    0.3606446565E-01    0.3092693571E+00
    0.9000000000E+02    0.1129702152E+00    0.1752190892E-01    0.4666427266E-02    0.4393656804E-01    0.3430521023E+00
    0.1100000000E+03    0.1218969269E+00    0.1883677219E-01    0.5050380081E-02    0.5111782163E-01    0.3690955249E+00
    0.1300000000E+03    0.1288826807E+00    0.1988401881E-01    0.5355288526E-02    0.5773229006E-01    0.3899031103E+00
    0.1500000000E+03    0.1344439125E+00    0.2074129327E-01    0.5601904651E-02    0.6387447441E-01    0.4069877578E+00
    0.1700000000E+03    0.1389261318E+00    0.2145838632E-01    0.5804136170E-02    0.6961777214E-01    0.4213207343E+00
    0.1900000000E+03    0.1425707428E+00    0.2206878389E-01    0.5971721532E-02    0.7502016580E-01    0.4335559774E+00
    0.2100000000E+03    0.1455522366E+00    0.2259588936E-01    0.6111717659E-02    0.8012814946E-01    0.4441510309E+00
    0.2300000000E+03    0.1480002250E+00    0.2305658667E-01    0.6229381055E-02    0.8497950177E-01    0.4534363411E+00
    0.2500000000E+03    0.1500131642E+00    0.2346338498E-01    0.6328716659E-02    0.8960528438E-01    0.4616569971E+00
    0.2700000000E+03    0.1516672584E+00    0.2382576450E-01    0.6412834109E-02    0.9403130854E-01    0.4689989404E+00
    0.2900000000E+03    0.1530224374E+00    0.2415105140E-01    0.6484187048E-02    0.9827922882E-01    0.4756060160E+00
    0.3100000000E+03    0.1541264837E+00    0.2444500416E-01    0.6544738560E-02    0.1023673710E+00    0.4815914055E+00
    0.3300000000E+03    0.1550179545E+00    0.2471221691E-01    0.6596078385E-02    0.1063113668E+00    0.4870454988E+00
    0.3500000000E+03    0.1557282931E+00    0.2495640350E-01    0.6639507739E-02    0.1101246470E+00    0.4920414407E+00
    0.3700000000E+03    0.1562833829E+00    0.2518060163E-01    0.6676101846E-02    0.1138188280E+00    0.4966391193E+00
    0.3900000000E+03    0.1567047106E+00    0.2538732220E-01    0.6706756779E-02    0.1174040187E+00    0.5008880864E+00
    0.4100000000E+03    0.1570102485E+00    0.2557866050E-01    0.6732225076E-02    0.1208890660E+00    0.5048297323E+00
    0.4300000000E+03    0.1572151327E+00    0.2575638006E-01    0.6753143150E-02    0.1242817530E+00    0.5084989278E+00
    0.4500000000E+03    0.1573321911E+00    0.2592197683E-01    0.6770052648E-02    0.1275889605E+00    0.5119252814E+00
    0.4700000000E+03    0.1573723570E+00    0.2607672891E-01    0.6783417260E-02    0.1308167989E+00    0.5151341136E+00
    0.4900000000E+03    0.1573449986E+00    0.2622173541E-01    0.6793636075E-02    0.1339707179E+00    0.5181472200E+00
    0.1000000000E+03    0.1177180122E+00    0.1821923896E-01    0.4869963458E-02    0.4760497980E-01    0.3568538206E+00
    0.3000000000E+03    0.1536032540E+00    0.2430163392E-01    0.6515705996E-02    0.1003422384E+00    0.4786703121E+00
    0.5000000000E+03    0.1573085632E+00    0.2629088632E-01    0.6797675542E-02    0.1355215026E+00    0.5195863747E+00
    0.7000000000E+03    0.1545006128E+00    0.2733746795E-01    0.6776626917E-02    0.1636103280E+00    0.5415774681E+00
    0.9000000000E+03    0.1497723192E+00    0.2799951483E-01    0.6652139378E-02    0.1877219693E+00    0.5557503035E+00
    0.1100000000E+04    0.1444704238E+00    0.2846241743E-01    0.6486556092E-02    0.2091910652E+00    0.5658286039E+00
    0.1300000000E+04    0.1390841192E+00    0.2880724071E-01    0.6304509861E-02    0.2287145160E+00    0.5734541172E+00
    0.1500000000E+04    0.1338108319E+00    0.2907560815E-01    0.6117180299E-02    0.2467052301E+00    0.5794762117E+00
    0.1700000000E+04    0.1287325667E+00    0.2929129867E-01    0.5930105092E-02    0.2634307199E+00    0.5843835579E+00
    0.1900000000E+04    0.1238810406E+00    0.2946897665E-01    0.5746176644E-02    0.2790764024E+00    0.5884795363E+00
    0.2100000000E+04    0.1192646908E+00    0.2961822267E-01    0.5566941513E-02    0.2937778354E+00    0.5919636181E+00
    0.2300000000E+04    0.1148808414E+00    0.2974558499E-01    0.5393217753E-02    0.3076385254E+00    0.5949729764E+00
    0.2500000000E+04    0.1107215216E+00    0.2985570487E-01    0.5225409805E-02    0.3207404036E+00    0.5976054122E+00
    0.2700000000E+04    0.1067763700E+00    0.2995197177E-01    0.5063678549E-02    0.3331503069E+00    0.5999327584E+00
    0.2900000000E+04    0.1030341248E+00    0.3003692373E-01    0.4908037580E-02    0.3449241519E+00    0.6020091045E+00
    0.3100000000E+04    0.9948339794E-01    0.3011250217E-01    0.4758409899E-02    0.3561097189E+00    0.6038760498E+00
    0.3300000000E+04    0.9611307386E-01    0.3018021959E-01    0.4614662454E-02    0.3667485608E+00    0.6055661757E+00
    0.3500000000E+04    0.9291250856E-01    0.3024127326E-01    0.4476627797E-02    0.3768773470E+00    0.6071054084E+00
    0.3700000000E+04    0.8987161891E-01    0.3029662431E-01    0.4344118004E-02    0.3865288306E+00    0.6085146668E+00
    0.3900000000E+04    0.8698091249E-01    0.3034705396E-01    0.4216933812E-02    0.3957325584E+00    0.6098110389E+00
    0.4100000000E+04    0.8423148518E-01    0.3039320419E-01    0.4094870725E-02    0.4045154026E+00    0.6110086376E+00
    0.4300000000E+04    0.8161500153E-01    0.3043560788E-01    0.3977723133E-02    0.4129019664E+00    0.6121192336E+00
    0.4500000000E+04    0.7912366678E-01    0.3047471131E-01    0.3865287128E-02    0.4209148984E+00    0.6131527319E+00
    0.4700000000E+04    0.7675019514E-01    0.3051089126E-01    0.3757362429E-02    0.4285751409E+00    0.6141175349E+00
    0.4900000000E+04    0.7448777722E-01    0.3054446825E-01    0.3653753681E-02    0.4359021288E+00    0.6150208225E+00
    0.1000000000E+04    0.1471521775E+00    0.2824945516E-01    0.6572477737E-02    0.1987341190E+00    0.5611718519E+00
    0.3000000000E+04    0.1012355257E+00    0.3007578160E-01    0.4832479381E-02    0.3505877451E+00    0.6029665365E+00
    0.5000000000E+04    0.7339620784E-01    0.3056036796E-01    0.3603508311E-02    0.4394463540E+00    0.6154513626E+00
    0.7000000000E+04    0.5605626544E-01    0.3079143457E-01    0.2782741584E-02    0.4966396422E+00    0.6219610454E+00
    0.9000000000E+04    0.4468455617E-01    0.3092693882E-01    0.2220708101E-02    0.5352035147E+00    0.6260912910E+00
    0.1100000000E+05    0.3687412988E-01    0.3101555295E-01    0.1823215456E-02    0.5622634536E+00    0.6289995283E+00
    0.1300000000E+05    0.3128867789E-01    0.3107754420E-01    0.1533038974E-02    0.5819335066E+00    0.6311853825E+00
    0.1500000000E+05    0.2715311858E-01    0.3112293334E-01    0.1315014025E-02    0.5966786843E+00    0.6329036756E+00
    0.1700000000E+05    0.2399864677E-01    0.3115726674E-01    0.1146982792E-02    0.6080296150E+00    0.6342994236E+00
    0.1900000000E+05    0.2153046423E-01    0.3118387104E-01    0.1014575372E-02    0.6169698070E+00    0.6354618642E+00
    0.2100000000E+05    0.1955654319E-01    0.3120486557E-01    0.9082022070E-03    0.6241515995E+00    0.6364492407E+00
    0.2300000000E+05    0.1794778923E-01    0.3122166548E-01    0.8212896027E-03    0.6300203457E+00    0.6373013575E+00
    0.2500000000E+05    0.1661494216E-01    0.3123525209E-01    0.7492189136E-03    0.6348880901E+00    0.6380464443E+00
    0.2700000000E+05    0.1549472118E-01    0.3124632725E-01    0.6886718303E-03    0.6389786211E+00    0.6387051414E+00
    0.2900000000E+05    0.1454125209E-01    0.3125540613E-01    0.6372157344E-03    0.6424558134E+00    0.6392929296E+00
    0.3100000000E+05    0.1372060992E-01    0.3126287524E-01    0.5930345686E-03    0.6454419327E+00    0.6398216746E+00
    0.3300000000E+05    0.1300725409E-01    0.3126903008E-01    0.5547501125E-03    0.6480297470E+00    0.6403006424E+00
    0.3500000000E+05    0.1238164443E-01    0.3127410032E-01    0.5213007573E-03    0.6502907180E+00    0.6407371871E+00
    0.3700000000E+05    0.1182861260E-01    0.3127826701E-01    0.4918576641E-03    0.6522806544E+00    0.6411372290E+00
    0.3900000000E+05    0.1133622773E-01    0.3128167475E-01    0.4657657297E-03    0.6540436869E+00    0.6415055944E+00
    0.4100000000E+05    0.1089499213E-01    0.3128444026E-01    0.4425013311E-03    0.6556151095E+00    0.6418462624E+00
    0.4300000000E+05    0.1049726180E-01    0.3128665878E-01    0.4216416168E-03    0.6570234430E+00    0.6421625463E+00
    0.4500000000E+05    0.1013682252E-01    0.3128840869E-01    0.4028418778E-03    0.6582919549E+00    0.6424572304E+00
    0.4700000000E+05    0.9808575598E-02    0.3128975504E-01    0.3858186550E-03    0.6594397936E+00    0.6427326739E+00
    0.4900000000E+05    0.9508301845E-02    0.3129075221E-01    0.3703369780E-03    0.6604828450E+00    0.6429908902E+00
    0.1000000000E+05    0.4043511360E-01    0.3097548820E-01    0.2005629414E-02    0.5498640306E+00    0.6276586017E+00
    0.3000000000E+05    0.1411608799E-01    0.3125932165E-01    0.6143105437E-03    0.6440038789E+00    0.6395640517E+00
    0.5000000000E+05    0.9367531880E-02    0.3129113446E-01    0.3631116025E-03    0.6609693120E+00    0.6431140887E+00
    0.7000000000E+05    0.7410549602E-02    0.3128848522E-01    0.2654810854E-03    0.6675050675E+00    0.6449893486E+00
    0.9000000000E+05    0.6314943331E-02    0.3127660328E-01    0.2140325029E-03    0.6708902738E+00    0.6461961487E+00
    0.1100000000E+06    0.5598610233E-02    0.3126188030E-01    0.1821545608E-03    0.6729424517E+00    0.6470572522E+00
    0.1300000000E+06    0.5085085277E-02    0.3124646837E-01    0.1603324483E-03    0.6743139156E+00    0.6477122481E+00
    0.1500000000E+06    0.4694076620E-02    0.3123119489E-01    0.1443583615E-03    0.6752932025E+00    0.6482326571E+00
    0.1700000000E+06    0.4383509776E-02    0.3121639141E-01    0.1320915698E-03    0.6760267217E+00    0.6486594217E+00
    0.1900000000E+06    0.4129040506E-02    0.3120218251E-01    0.1223288511E-03    0.6765963717E+00    0.6490178997E+00
    0.2100000000E+06    0.3915512625E-02    0.3118860081E-01    0.1143415566E-03    0.6770514320E+00    0.6493247506E+00
    0.2300000000E+06    0.3732943874E-02    0.3117563701E-01    0.1076621232E-03    0.6774232843E+00    0.6495914333E+00
    0.2500000000E+06    0.3574460208E-02    0.3116326311E-01    0.1019763207E-03    0.6777328396E+00    0.6498261251E+00
    0.2700000000E+06    0.3435154033E-02    0.3115144367E-01    0.9706484007E-04    0.6779945589E+00    0.6500348402E+00
    0.2900000000E+06    0.3311415669E-02    0.3114014123E-01    0.9276973740E-04    0.6782187562E+00    0.6502221146E+00
    0.3100000000E+06    0.3200522839E-02    0.3112931907E-01    0.8897420863E-04    0.6784129831E+00    0.6503914433E+00
    0.3300000000E+06    0.3100378345E-02    0.3111894244E-01    0.8558989433E-04    0.6785828940E+00    0.6505455691E+00
    0.3500000000E+06    0.3009336675E-02    0.3110897909E-01    0.8254863125E-04    0.6787328058E+00    0.6506866793E+00
    0.3700000000E+06    0.2926085986E-02    0.3109939940E-01    0.7979693026E-04    0.6788660708E+00    0.6508165421E+00
    0.3900000000E+06    0.2849565730E-02    0.3109017632E-01    0.7729218186E-04    0.6789853315E+00    0.6509366054E+00
    0.4100000000E+06    0.2778907853E-02    0.3108128522E-01    0.7499998832E-04    0.6790926992E+00    0.6510480673E+00
    0.4300000000E+06    0.2713393996E-02    0.3107270370E-01    0.7289224931E-04    0.6791898805E+00    0.6511519295E+00
    0.4500000000E+06    0.2652423790E-02    0.3106441136E-01    0.7094576307E-04    0.6792782703E+00    0.6512490365E+00
    0.4700000000E+06    0.2595491002E-02    0.3105638965E-01    0.6914118738E-04    0.6793590194E+00    0.6513401064E+00
    0.4900000000E+06    0.2542165322E-02    0.3104862167E-01    0.6746225648E-04    0.6794330859E+00    0.6514257541E+00
    0.1000000000E+06    0.5923827137E-02    0.3126941456E-01    0.1964323072E-03    0.6720291862E+00    0.6466588717E+00
    0.3000000000E+06    0.3254506923E-02    0.3113467234E-01    0.9081560225E-04    0.6783192258E+00    0.6503088357E+00
    0.5000000000E+06    0.2516737907E-02    0.3104482793E-01    0.6666551581E-04    0.6794678696E+00    0.6514667131E+00
    0.7000000000E+06    0.2130700663E-02    0.3097915786E-01    0.5486615064E-04    0.6799537075E+00    0.6520984443E+00
    0.9000000000E+06    0.1883094253E-02    0.3092737076E-01    0.4758116770E-04    0.6802238924E+00    0.6525143552E+00
    0.1100000000E+07    0.1706792351E-02    0.3088456907E-01    0.4252354024E-04    0.6803968259E+00    0.6528164944E+00
    0.1300000000E+07    0.1572942251E-02    0.3084806273E-01    0.3875396788E-04    0.6805174778E+00    0.6530497757E+00
    0.1500000000E+07    0.1466795548E-02    0.3081621663E-01    0.3580715727E-04    0.6806067164E+00    0.6532375292E+00
    0.1700000000E+07    0.1379917149E-02    0.3078796225E-01    0.3342314329E-04    0.6806755665E+00    0.6533932629E+00
    0.1900000000E+07    0.1307084515E-02    0.3076256248E-01    0.3144389183E-04    0.6807304108E+00    0.6535254253E+00
    0.2100000000E+07    0.1244866894E-02    0.3073948711E-01    0.2976712143E-04    0.6807752053E+00    0.6536396148E+00
    0.2300000000E+07    0.1190904516E-02    0.3071834184E-01    0.2832334806E-04    0.6808125354E+00    0.6537397120E+00
    0.2500000000E+07    0.1143513424E-02    0.3069882535E-01    0.2706350917E-04    0.6808441638E+00    0.6538285057E+00
    0.2700000000E+07    0.1101455158E-02    0.3068070211E-01    0.2595185165E-04    0.6808713343E+00    0.6539080601E+00
    0.2900000000E+07    0.1063795706E-02    0.3066378451E-01    0.2496162815E-04    0.6808949509E+00    0.6539799416E+00
    0.3100000000E+07    0.1029815483E-02    0.3064792060E-01    0.2407237935E-04    0.6809156863E+00    0.6540453637E+00
    0.3300000000E+07    0.9989498687E-03    0.3063298560E-01    0.2326815515E-04    0.6809340520E+00    0.6541052837E+00
    0.3500000000E+07    0.9707487403E-03    0.3061887577E-01    0.2253631404E-04    0.6809504442E+00    0.6541604689E+00
    0.3700000000E+07    0.9448482256E-03    0.3060550389E-01    0.2186669120E-04    0.6809651742E+00    0.6542115425E+00
    0.3900000000E+07    0.9209505341E-03    0.3059279595E-01    0.2125100847E-04    0.6809784908E+00    0.6542590168E+00
    0.4100000000E+07    0.8988092732E-03    0.3058068860E-01    0.2068244745E-04    0.6809905946E+00    0.6543033179E+00
    0.4300000000E+07    0.8782185666E-03    0.3056912716E-01    0.2015533482E-04    0.6810016497E+00    0.6543448032E+00
    0.4500000000E+07    0.8590048646E-03    0.3055806414E-01    0.1966490680E-04    0.6810117914E+00    0.6543837752E+00
    0.4700000000E+07    0.8410206917E-03    0.3054745801E-01    0.1920713016E-04    0.6810211326E+00    0.6544204923E+00
    0.4900000000E+07    0.8241398122E-03    0.3053727225E-01    0.1877856439E-04    0.6810297680E+00    0.6544551763E+00
    0.1000000000E+07    0.1788314363E-02    0.3090504819E-01    0.4484901165E-04    0.6803188547E+00    0.6526761082E+00
    0.3000000000E+07    0.1046384065E-02    0.3065572920E-01    0.2450546821E-04    0.6809056436E+00    0.6540133951E+00
    0.5000000000E+07    0.8160785189E-03    0.3053232677E-01    0.1857429561E-04    0.6810338464E+00    0.6544718170E+00
    0.7000000000E+07    0.6928447515E-03    0.3044929790E-01    0.1548397402E-04    0.6810925981E+00    0.6547333160E+00
    0.9000000000E+07    0.6131026865E-03    0.3038656226E-01    0.1351857197E-04    0.6811270846E+00    0.6549112027E+00
    0.1100000000E+08    0.5560699087E-03    0.3033609480E-01    0.1213085864E-04    0.6811500934E+00    0.6550438564E+00
    0.1300000000E+08    0.5126572212E-03    0.3029386052E-01    0.1108533576E-04    0.6811667019E+00    0.6551485498E+00
    0.1500000000E+08    0.4781728804E-03    0.3025753961E-01    0.1026190475E-04    0.6811793476E+00    0.6552344207E+00
    0.1700000000E+08    0.4499168902E-03    0.3022567408E-01    0.9592120026E-05    0.6811893546E+00    0.6553068441E+00
    0.1900000000E+08    0.4262105354E-03    0.3019728719E-01    0.9033770477E-05    0.6811975079E+00    0.6553692281E+00
    0.2100000000E+08    0.4059477375E-03    0.3017169231E-01    0.8559237848E-05    0.6812043042E+00    0.6554238596E+00
    0.2300000000E+08    0.3883660104E-03    0.3014838820E-01    0.8149599896E-05    0.6812100742E+00    0.6554723418E+00
    0.2500000000E+08    0.3729203109E-03    0.3012699772E-01    0.7791404485E-05    0.6812150470E+00    0.6555158385E+00
    0.2700000000E+08    0.3592092569E-03    0.3010722993E-01    0.7474794054E-05    0.6812193871E+00    0.6555552198E+00
