  Pressure (Pa) 2mC6-400 (mol/kg) 3mC6-400 (mol/kg) 33mC5-400 (mol/kg) 23mC5-400 (mol/kg) C7-400 (mol/kg)
    0.1000000000E+01    0.3172512250E-02    0.3153450373E-02    0.6458136431E-04    0.6521557593E-03    0.3411456606E-02
    0.3000000000E+01    0.9273463123E-02    0.9211649090E-02    0.1888075915E-03    0.1940576861E-02    0.9966530478E-02
    0.5000000000E+01    0.1506986875E-01    0.1496033759E-01    0.3068749898E-03    0.3208365695E-02    0.1618824427E-01
    0.7000000000E+01    0.2058452515E-01    0.2042359596E-01    0.4192453353E-03    0.4456163086E-02    0.2210249642E-01
    0.9000000000E+01    0.2583793522E-01    0.2562304619E-01    0.5263338601E-03    0.5684582539E-02    0.2773254361E-01
    0.1100000000E+02    0.3084859447E-01    0.3057815890E-01    0.6285150606E-03    0.6894211701E-02    0.3309933021E-01
    0.1300000000E+02    0.3563323481E-01    0.3530651527E-01    0.7261276517E-03    0.8085613728E-02    0.3822176971E-01
    0.1500000000E+02    0.4020703338E-01    0.3982403147E-01    0.8194788105E-03    0.9259328566E-02    0.4311698581E-01
    0.1700000000E+02    0.4458379227E-01    0.4414515193E-01    0.9088478271E-03    0.1041587415E-01    0.4780052010E-01
    0.1900000000E+02    0.4877609359E-01    0.4828301617E-01    0.9944892550E-03    0.1155574754E-01    0.5228651128E-01
    0.2100000000E+02    0.5279543392E-01    0.5224960346E-01    0.1076635641E-02    0.1267942595E-01    0.5658785061E-01
    0.2300000000E+02    0.5665234119E-01    0.5605585859E-01    0.1155499899E-02    0.1378736778E-01    0.6071631711E-01
    0.2500000000E+02    0.6035647664E-01    0.5971180167E-01    0.1231277380E-02    0.1488001352E-01    0.6468269544E-01
    0.2700000000E+02    0.6391672402E-01    0.6322662412E-01    0.1304147683E-02    0.1595778664E-01    0.6849687919E-01
    0.2900000000E+02    0.6734126792E-01    0.6660877301E-01    0.1374276243E-02    0.1702109442E-01    0.7216796145E-01
    0.3100000000E+02    0.7063766273E-01    0.6986602525E-01    0.1441815732E-02    0.1807032872E-01    0.7570431455E-01
    0.3300000000E+02    0.7381289343E-01    0.7300555304E-01    0.1506907295E-02    0.1910586672E-01    0.7911366046E-01
    0.3500000000E+02    0.7687342952E-01    0.7603398185E-01    0.1569681636E-02    0.2012807161E-01    0.8240313306E-01
    0.3700000000E+02    0.7982527271E-01    0.7895744177E-01    0.1630259994E-02    0.2113729324E-01    0.8557933335E-01
    0.3900000000E+02    0.8267399951E-01    0.8178161323E-01    0.1688755001E-02    0.2213386875E-01    0.8864837861E-01
    0.4100000000E+02    0.8542479903E-01    0.8451176767E-01    0.1745271452E-02    0.2311812313E-01    0.9161594616E-01
    0.4300000000E+02    0.8808250693E-01    0.8715280394E-01    0.1799906988E-02    0.2409036979E-01    0.9448731242E-01
    0.4500000000E+02    0.9065163564E-01    0.8970928079E-01    0.1852752716E-02    0.2505091107E-01    0.9726738790E-01
    0.4700000000E+02    0.9313640165E-01    0.9218544611E-01    0.1903893755E-02    0.2600003874E-01    0.9996074859E-01
    0.4900000000E+02    0.9554074993E-01    0.9458526306E-01    0.1953409733E-02    0.2693803445E-01    0.1025716642E+00
    0.1000000000E+02    0.2837252422E-01    0.2813000442E-01    0.5780159205E-03    0.6291710150E-02    0.3044761780E-01
    0.3000000000E+02    0.6900503472E-01    0.6825254949E-01    0.1408360543E-02    0.1754744684E-01    0.7395248205E-01
    0.5000000000E+02    0.9671393144E-01    0.9575770742E-01    0.1977581819E-02    0.2740294319E-01    0.1038474618E+00
    0.7000000000E+02    0.1167400043E+00    0.1159792872E+00    0.2391535561E-02    0.3617817339E-01    0.1258766262E+00
    0.9000000000E+02    0.1317857629E+00    0.1315904593E+00    0.2704746312E-02    0.4409904736E-01    0.1429210745E+00
    0.1100000000E+03    0.1434035145E+00    0.1440839631E+00    0.2948513639E-02    0.5133001958E-01    0.1565909151E+00
    0.1300000000E+03    0.1525558880E+00    0.1543617080E+00    0.3142243949E-02    0.5799393781E-01    0.1678597165E+00
    0.1500000000E+03    0.1598748540E+00    0.1630023879E+00    0.3298680009E-02    0.6418461739E-01    0.1773526213E+00
    0.1700000000E+03    0.1657939564E+00    0.1703953466E+00    0.3426567779E-02    0.6997508298E-01    0.1854905358E+00
    0.1900000000E+03    0.1706211852E+00    0.1768127884E+00    0.3532124873E-02    0.7542313134E-01    0.1925679453E+00
    0.2100000000E+03    0.1745816404E+00    0.1824511571E+00    0.3619899759E-02    0.8057518333E-01    0.1987975270E+00
    0.2300000000E+03    0.1778437635E+00    0.1874560534E+00    0.3693299797E-02    0.8546901180E-01    0.2043370260E+00
    0.2500000000E+03    0.1805361293E+00    0.1919378746E+00    0.3754929173E-02    0.9013571244E-01    0.2093061318E+00
    0.2700000000E+03    0.1827585651E+00    0.1959819819E+00    0.3806812656E-02    0.9460115313E-01    0.2137974551E+00
    0.2900000000E+03    0.1845897280E+00    0.1996555147E+00    0.3850548075E-02    0.9888705712E-01    0.2178838872E+00
    0.3100000000E+03    0.1860923987E+00    0.2030120775E+00    0.3887412859E-02    0.1030118241E+00    0.2216236648E+00
    0.3300000000E+03    0.1873172589E+00    0.2060950406E+00    0.3918440089E-02    0.1069911610E+00    0.2250639379E+00
    0.3500000000E+03    0.1883056397E+00    0.2089399121E+00    0.3944473833E-02    0.1108385723E+00    0.2282433343E+00
    0.3700000000E+03    0.1890915536E+00    0.2115760727E+00    0.3966210087E-02    0.1145657455E+00    0.2311938377E+00
    0.3900000000E+03    0.1897032204E+00    0.2140280674E+00    0.3984227523E-02    0.1181828567E+00    0.2339421847E+00
    0.4100000000E+03    0.1901642272E+00    0.2163165798E+00    0.3999010896E-02    0.1216988164E+00    0.2365109205E+00
    0.4300000000E+03    0.1904944231E+00    0.2184591778E+00    0.4010969076E-02    0.1251214669E+00    0.2389192062E+00
    0.4500000000E+03    0.1907106141E+00    0.2204708909E+00    0.4020449098E-02    0.1284577441E+00    0.2411834446E+00
    0.4700000000E+03    0.1908271110E+00    0.2223646623E+00    0.4027747216E-02    0.1317138096E+00    0.2433177707E+00
    0.4900000000E+03    0.1908561630E+00    0.2241517069E+00    0.4033117681E-02    0.1348951605E+00    0.2453344394E+00
    0.1000000000E+03    0.1379530603E+00    0.1381607616E+00    0.2833897637E-02    0.4779229192E-01    0.1501064228E+00
    0.3000000000E+03    0.1853787100E+00    0.2013704983E+00    0.3869769733E-02    0.1009685443E+00    0.2197939351E+00
    0.5000000000E+03    0.1908412484E+00    0.2250083101E+00    0.4035149773E-02    0.1364593768E+00    0.2463020453E+00
    0.7000000000E+03    0.1878627140E+00    0.2383595495E+00    0.4014584632E-02    0.1647841342E+00    0.2614719871E+00
    0.9000000000E+03    0.1824233554E+00    0.2472515937E+00    0.3933753688E-02    0.1890860140E+00    0.2716867370E+00
    0.1100000000E+04    0.1762555072E+00    0.2537303785E+00    0.3830619326E-02    0.2107144037E+00    0.2792008570E+00
    0.1300000000E+04    0.1699801076E+00    0.2587265414E+00    0.3719640077E-02    0.2303742182E+00    0.2850453332E+00
    0.1500000000E+04    0.1638436875E+00    0.2627333873E+00    0.3607103846E-02    0.2484831628E+00    0.2897692891E+00
    0.1700000000E+04    0.1579462562E+00    0.2660404876E+00    0.3495965836E-02    0.2653118698E+00    0.2936964866E+00
    0.1900000000E+04    0.1523248017E+00    0.2688307283E+00    0.3387666260E-02    0.2810479361E+00    0.2970322466E+00
    0.2100000000E+04    0.1469876190E+00    0.2712261686E+00    0.3282901320E-02    0.2958285383E+00    0.2999141308E+00
    0.2300000000E+04    0.1419296200E+00    0.2733118639E+00    0.3181980783E-02    0.3097584494E+00    0.3024383479E+00
    0.2500000000E+04    0.1371395684E+00    0.2751491768E+00    0.3085005554E-02    0.3229206347E+00    0.3046745481E+00
    0.2700000000E+04    0.1326036356E+00    0.2767836577E+00    0.2991960737E-02    0.3353828037E+00    0.3066746058E+00
    0.2900000000E+04    0.1283071872E+00    0.2782499368E+00    0.2902766555E-02    0.3472016298E+00    0.3084780849E+00
    0.3100000000E+04    0.1242356851E+00    0.2795748811E+00    0.2817307179E-02    0.3584255618E+00    0.3101157746E+00
    0.3300000000E+04    0.1203751309E+00    0.2807797021E+00    0.2735447526E-02    0.3690967520E+00    0.3116120553E+00
    0.3500000000E+04    0.1167122702E+00    0.2818814023E+00    0.2657043246E-02    0.3792524125E+00    0.3129865255E+00
    0.3700000000E+04    0.1132346691E+00    0.2828937931E+00    0.2581946772E-02    0.3889257910E+00    0.3142551501E+00
    0.3900000000E+04    0.1099307223E+00    0.2838282269E+00    0.2510010996E-02    0.3981468872E+00    0.3154310869E+00
    0.4100000000E+04    0.1067896281E+00    0.2846941333E+00    0.2441091528E-02    0.4069429893E+00    0.3165252944E+00
    0.4300000000E+04    0.1038013454E+00    0.2854994193E+00    0.2375048051E-02    0.4153390830E+00    0.3175469847E+00
    0.4500000000E+04    0.1009565447E+00    0.2862507714E+00    0.2311745127E-02    0.4233581691E+00    0.3185039680E+00
    0.4700000000E+04    0.9824655653E-01    0.2869538882E+00    0.2251052628E-02    0.4310215139E+00    0.3194029165E+00
    0.4900000000E+04    0.9566332186E-01    0.2876136603E+00    0.2192845949E-02    0.4383488504E+00    0.3202495702E+00
    0.1000000000E+04    0.1793783961E+00    0.2507198149E+00    0.3883784311E-02    0.2001810753E+00    0.2757008058E+00
    0.3000000000E+04    0.1262442087E+00    0.2789286370E+00    0.2859578149E-02    0.3528851936E+00    0.3093160013E+00
    0.5000000000E+04    0.9441687386E-01    0.2879286349E+00    0.2164637379E-02    0.4418923039E+00    0.3206548658E+00
    0.7000000000E+04    0.7457932511E-01    0.2927294038E+00    0.1704970115E-02    0.4989809299E+00    0.3269330927E+00
    0.9000000000E+04    0.6146975411E-01    0.2958095725E+00    0.1390283327E-02    0.5373639396E+00    0.3310840121E+00
    0.1100000000E+05    0.5236232113E-01    0.2979905538E+00    0.1166814111E-02    0.5642359109E+00    0.3341005475E+00
    0.1300000000E+05    0.4576023916E-01    0.2996334286E+00    0.1002621646E-02    0.5837343511E+00    0.3364265340E+00
    0.1500000000E+05    0.4079887674E-01    0.3009248446E+00    0.8782811855E-03    0.5983299468E+00    0.3382946252E+00
    0.1700000000E+05    0.3695536378E-01    0.3019721589E+00    0.7816117134E-03    0.6095526182E+00    0.3398402792E+00
    0.1900000000E+05    0.3390017557E-01    0.3028420137E+00    0.7047273498E-03    0.6183832215E+00    0.3411485060E+00
    0.2100000000E+05    0.3141784488E-01    0.3035782187E+00    0.6423648823E-03    0.6254711527E+00    0.3422757549E+00
    0.2300000000E+05    0.2936280567E-01    0.3042108934E+00    0.5909114193E-03    0.6312590918E+00    0.3432612015E+00
    0.2500000000E+05    0.2763383201E-01    0.3047615045E+00    0.5478229108E-03    0.6360568233E+00    0.3441330153E+00
    0.2700000000E+05    0.2615870669E-01    0.3052458109E+00    0.5112663631E-03    0.6400862815E+00    0.3449120517E+00
    0.2900000000E+05    0.2488472372E-01    0.3056756715E+00    0.4798935924E-03    0.6435098382E+00    0.3456141327E+00
    0.3100000000E+05    0.2377263010E-01    0.3060602005E+00    0.4526944512E-03    0.6464485447E+00    0.3462515132E+00
    0.3300000000E+05    0.2279265790E-01    0.3064065301E+00    0.4288993343E-03    0.6489941858E+00    0.3468338563E+00
    0.3500000000E+05    0.2192186230E-01    0.3067203306E+00    0.4079129965E-03    0.6512174245E+00    0.3473689004E+00
    0.3700000000E+05    0.2114229664E-01    0.3070061725E+00    0.3892687231E-03    0.6531734172E+00    0.3478629276E+00
    0.3900000000E+05    0.2043973628E-01    0.3072677852E+00    0.3725960091E-03    0.6549057584E+00    0.3483210996E+00
    0.4100000000E+05    0.1980277017E-01    0.3075082452E+00    0.3575973825E-03    0.6564492987E+00    0.3487477033E+00
    0.4300000000E+05    0.1922214329E-01    0.3077301153E+00    0.3440315252E-03    0.6578321904E+00    0.3491463331E+00
    0.4500000000E+05    0.1869027364E-01    0.3079355494E+00    0.3317008081E-03    0.6590773921E+00    0.3495200296E+00
    0.4700000000E+05    0.1820089240E-01    0.3081263720E+00    0.3204419623E-03    0.6602037920E+00    0.3498713848E+00
    0.4900000000E+05    0.1774877239E-01    0.3083041404E+00    0.3101190157E-03    0.6612270560E+00    0.3502026244E+00
    0.1000000000E+05    0.5652903086E-01    0.2969839877E+00    0.1269520422E-02    0.5519292643E+00    0.3326992212E+00
    0.3000000000E+05    0.2431048736E-01    0.3058731172E+00    0.4658251600E-03    0.6450334857E+00    0.3459402548E+00
    0.5000000000E+05    0.1753528466E-01    0.3083885547E+00    0.3052721191E-03    0.6617041887E+00    0.3503613122E+00
    0.7000000000E+05    0.1444985229E-01    0.3096351845E+00    0.2375027547E-03    0.6681063970E+00    0.3528333042E+00
    0.9000000000E+05    0.1260680881E-01    0.3103883438E+00    0.1994382893E-03    0.6714138449E+00    0.3544885223E+00
    0.1100000000E+06    0.1134732631E-01    0.3108935897E+00    0.1746463038E-03    0.6734140776E+00    0.3557067817E+00
    0.1300000000E+06    0.1041546077E-01    0.3112553213E+00    0.1569861558E-03    0.6747477767E+00    0.3566575448E+00
    0.1500000000E+06    0.9689072000E-02    0.3115260462E+00    0.1436345254E-03    0.6756980101E+00    0.3574297728E+00
    0.1700000000E+06    0.9101636051E-02    0.3117352563E+00    0.1331048573E-03    0.6764082615E+00    0.3580754252E+00
    0.1900000000E+06    0.8613423214E-02    0.3119008711E+00    0.1245357919E-03    0.6769587131E+00    0.3586272421E+00
    0.2100000000E+06    0.8199039167E-02    0.3120344412E+00    0.1173913792E-03    0.6773975648E+00    0.3591070610E+00
    0.2300000000E+06    0.7841384742E-02    0.3121437624E+00    0.1113192755E-03    0.6777554819E+00    0.3595301070E+00
    0.2500000000E+06    0.7528461958E-02    0.3122342949E+00    0.1060774784E-03    0.6780528794E+00    0.3599073795E+00
    0.2700000000E+06    0.7251566194E-02    0.3123099805E+00    0.1014937435E-03    0.6783038617E+00    0.3602470595E+00
    0.2900000000E+06    0.7004205259E-02    0.3123737381E+00    0.9744180077E-04    0.6785184802E+00    0.3605553820E+00
    0.3100000000E+06    0.6781423260E-02    0.3124277763E+00    0.9382675160E-04    0.6787040872E+00    0.3608371978E+00
    0.3300000000E+06    0.6579361388E-02    0.3124737973E+00    0.9057574379E-04    0.6788661833E+00    0.3610963483E+00
    0.3500000000E+06    0.6394963283E-02    0.3125131344E+00    0.8763181541E-04    0.6790089641E+00    0.3613359229E+00
    0.3700000000E+06    0.6225771849E-02    0.3125468468E+00    0.8494971165E-04    0.6791356852E+00    0.3615584398E+00
    0.3900000000E+06    0.6069785727E-02    0.3125757863E+00    0.8249297012E-04    0.6792489108E+00    0.3617659764E+00
    0.4100000000E+06    0.5925355743E-02    0.3126006459E+00    0.8023184479E-04    0.6793506874E+00    0.3619602645E+00
    0.4300000000E+06    0.5791108789E-02    0.3126219947E+00    0.7814179802E-04    0.6794426686E+00    0.3621427619E+00
    0.4500000000E+06    0.5665890936E-02    0.3126403045E+00    0.7620238607E-04    0.6795262042E+00    0.3623147061E+00
    0.4700000000E+06    0.5548724275E-02    0.3126559694E+00    0.7439642227E-04    0.6796024075E+00    0.3624771557E+00
    0.4900000000E+06    0.5438773729E-02    0.3126693213E+00    0.7270934001E-04    0.6796722043E+00    0.3626310230E+00
    0.1000000000E+06    0.1192481524E-01    0.3106636575E+00    0.1858846794E-03    0.6725245016E+00    0.3551389650E+00
    0.3000000000E+06    0.6890004781E-02    0.3124018557E+00    0.9558465045E-04    0.6786145305E+00    0.3606993429E+00
    0.5000000000E+06    0.5386276118E-02    0.3126752194E+00    0.7190642053E-04    0.6797049479E+00    0.3627049896E+00
    0.7000000000E+06    0.4583999623E-02    0.3127217122E+00    0.5984314751E-04    0.6801594459E+00    0.3638803344E+00
    0.9000000000E+06    0.4064573858E-02    0.3126987286E+00    0.5223790101E-04    0.6804091083E+00    0.3646950005E+00
    0.1100000000E+07    0.3692617827E-02    0.3126492535E+00    0.4689054126E-04    0.6805671867E+00    0.3653113136E+00
    0.1300000000E+07    0.3409116323E-02    0.3125890240E+00    0.4287067035E-04    0.6806764052E+00    0.3658034182E+00
    0.1500000000E+07    0.3183636240E-02    0.3125247775E+00    0.3970853773E-04    0.6807564700E+00    0.3662110067E+00
    0.1700000000E+07    0.2998665100E-02    0.3124596709E+00    0.3713811618E-04    0.6808177343E+00    0.3665576574E+00
    0.1900000000E+07    0.2843310772E-02    0.3123952551E+00    0.3499603959E-04    0.6808661612E+00    0.3668584508E+00
    0.2100000000E+07    0.2710392720E-02    0.3123322990E+00    0.3317573698E-04    0.6809054285E+00    0.3671235810E+00
    0.2300000000E+07    0.2594957860E-02    0.3122711689E+00    0.3160434919E-04    0.6809379290E+00    0.3673602424E+00
    0.2500000000E+07    0.2493463265E-02    0.3122120159E+00    0.3023016114E-04    0.6809652868E+00    0.3675736908E+00
    0.2700000000E+07    0.2403298099E-02    0.3121548734E+00    0.2901532129E-04    0.6809886434E+00    0.3677678758E+00
    0.2900000000E+07    0.2322489954E-02    0.3120997106E+00    0.2793140659E-04    0.6810088249E+00    0.3679458364E+00
    0.3100000000E+07    0.2249516964E-02    0.3120464624E+00    0.2695660578E-04    0.6810264438E+00    0.3681099582E+00
    0.3300000000E+07    0.2183183420E-02    0.3119950463E+00    0.2607386685E-04    0.6810419642E+00    0.3682621463E+00
    0.3500000000E+07    0.2122534960E-02    0.3119453721E+00    0.2526964141E-04    0.6810557440E+00    0.3684039449E+00
    0.3700000000E+07    0.2066799274E-02    0.3118973482E+00    0.2453301131E-04    0.6810680639E+00    0.3685366223E+00
    0.3900000000E+07    0.2015343699E-02    0.3118508846E+00    0.2385506733E-04    0.6810791470E+00    0.3686612319E+00
    0.4100000000E+07    0.1967644306E-02    0.3118058947E+00    0.2322845812E-04    0.6810891731E+00    0.3687786582E+00
    0.4300000000E+07    0.1923262968E-02    0.3117622963E+00    0.2264705704E-04    0.6810982883E+00    0.3688896503E+00
    0.4500000000E+07    0.1881830076E-02    0.3117200121E+00    0.2210571203E-04    0.6811066132E+00    0.3689948479E+00
    0.4700000000E+07    0.1843031335E-02    0.3116789696E+00    0.2160005519E-04    0.6811142476E+00    0.3690948018E+00
    0.4900000000E+07    0.1806597542E-02    0.3116391013E+00    0.2112635591E-04    0.6811212754E+00    0.3691899889E+00
    0.1000000000E+07    0.3864820991E-02    0.3126759999E+00    0.4935591239E-04    0.6804961117E+00    0.3650221627E+00
    0.3000000000E+07    0.2285105296E-02    0.3120728521E+00    0.2743152725E-04    0.6810179227E+00    0.3680294985E+00
    0.5000000000E+07    0.1789193699E-02    0.3116195877E+00    0.2090047008E-04    0.6811245843E+00    0.3692359271E+00
    0.7000000000E+07    0.1522705582E-02    0.3112778731E+00    0.1747484259E-04    0.6811714041E+00    0.3699822556E+00
    0.9000000000E+07    0.1349812120E-02    0.3110039951E+00    0.1528805116E-04    0.6811979812E+00    0.3705187114E+00
    0.1100000000E+08    0.1225921031E-02    0.3107752510E+00    0.1374011172E-04    0.6812152265E+00    0.3709357046E+00
    0.1300000000E+08    0.1131476837E-02    0.3105786738E+00    0.1257166500E-04    0.6812273802E+00    0.3712758724E+00
    0.1500000000E+08    0.1056365310E-02    0.3104061953E+00    0.1165004045E-04    0.6812364412E+00    0.3715626220E+00
    0.1700000000E+08    0.9947569459E-03    0.3102524579E+00    0.1089945570E-04    0.6812434777E+00    0.3718101498E+00
    0.1900000000E+08    0.9430226744E-03    0.3101137215E+00    0.1027309107E-04    0.6812491138E+00    0.3720276978E+00
    0.2100000000E+08    0.8987687952E-03    0.3099872709E+00    0.9740267873E-05    0.6812537392E+00    0.3722216098E+00
    0.2300000000E+08    0.8603436547E-03    0.3098710716E+00    0.9279940957E-05    0.6812576101E+00    0.3723964244E+00
    0.2500000000E+08    0.8265656447E-03    0.3097635591E+00    0.8877132932E-05    0.6812609022E+00    0.3725554973E+00
    0.2700000000E+08    0.7965639665E-03    0.3096635042E+00    0.8520858250E-05    0.6812637399E+00    0.3727013782E+00
