  Pressure (Pa) 2mC6-400 (mol/kg) 3mC6-400 (mol/kg) 33mC5-400 (mol/kg) 23mC5-400 (mol/kg) C7-400 (mol/kg)
    0.1000000000E+01    0.3150713890E-02    0.4166664252E-02    0.1282883294E-03    0.9323531771E-04    0.8452066717E-02
    0.3000000000E+01    0.9092575252E-02    0.1196435479E-01    0.3703648246E-03    0.2778453769E-03    0.2427469037E-01
    0.5000000000E+01    0.1460530686E-01    0.1912296130E-01    0.5951438227E-03    0.4600287404E-03    0.3880671606E-01
    0.7000000000E+01    0.1974052964E-01    0.2571979960E-01    0.8047141269E-03    0.6398482344E-03    0.5220404524E-01
    0.9000000000E+01    0.2454167034E-01    0.3182012524E-01    0.1000831946E-02    0.8173644267E-03    0.6459827901E-01
    0.1100000000E+02    0.2904552742E-01    0.3747940087E-01    0.1184984568E-02    0.9926357289E-03    0.7610128453E-01
    0.1300000000E+02    0.3328349217E-01    0.4274507030E-01    0.1358440003E-02    0.1165718494E-02    0.8680876828E-01
    0.1500000000E+02    0.3728251012E-01    0.4765796020E-01    0.1522286050E-02    0.1336667108E-02    0.9680309952E-01
    0.1700000000E+02    0.4106584489E-01    0.5225339748E-01    0.1677461329E-02    0.1505534076E-02    0.1061555613E+00
    0.1900000000E+02    0.4465369015E-01    0.5656210746E-01    0.1824780136E-02    0.1672370106E-02    0.1149281599E+00
    0.2100000000E+02    0.4806366359E-01    0.6061094146E-01    0.1964952494E-02    0.1837224184E-02    0.1231750910E+00
    0.2300000000E+02    0.5131120874E-01    0.6442347044E-01    0.2098600460E-02    0.2000143652E-02    0.1309439357E+00
    0.2500000000E+02    0.5440992383E-01    0.6802047257E-01    0.2226271468E-02    0.2161174273E-02    0.1382766432E+00
    0.2700000000E+02    0.5737183278E-01    0.7142033633E-01    0.2348449317E-02    0.2320360303E-02    0.1452103431E+00
    0.2900000000E+02    0.6020760982E-01    0.7463939554E-01    0.2465563277E-02    0.2477744548E-02    0.1517780207E+00
    0.3100000000E+02    0.6292676667E-01    0.7769220961E-01    0.2577995676E-02    0.2633368430E-02    0.1580090819E+00
    0.3300000000E+02    0.6553780939E-01    0.8059179901E-01    0.2686088250E-02    0.2787272039E-02    0.1639298281E+00
    0.3500000000E+02    0.6804837044E-01    0.8334984414E-01    0.2790147494E-02    0.2939494190E-02    0.1695638566E+00
    0.3700000000E+02    0.7046532045E-01    0.8597685416E-01    0.2890449182E-02    0.3090072472E-02    0.1749324015E+00
    0.3900000000E+02    0.7279486317E-01    0.8848231078E-01    0.2987242212E-02    0.3239043302E-02    0.1800546235E+00
    0.4100000000E+02    0.7504261649E-01    0.9087479145E-01    0.3080751881E-02    0.3386441964E-02    0.1849478582E+00
    0.4300000000E+02    0.7721368194E-01    0.9316207507E-01    0.3171182696E-02    0.3532302661E-02    0.1896278294E+00
    0.4500000000E+02    0.7931270443E-01    0.9535123333E-01    0.3258720785E-02    0.3676658550E-02    0.1941088333E+00
    0.4700000000E+02    0.8134392377E-01    0.9744870964E-01    0.3343535982E-02    0.3819541790E-02    0.1984038977E+00
    0.4900000000E+02    0.8331121946E-01    0.9946038779E-01    0.3425783633E-02    0.3960983574E-02    0.2025249204E+00
    0.1000000000E+02    0.2682868301E-01    0.3470175913E-01    0.1094320019E-02    0.9052771198E-03    0.7045486114E-01
    0.3000000000E+02    0.6158121223E-01    0.7618573586E-01    0.2522342429E-02    0.2555773998E-02    0.1549339168E+00
    0.5000000000E+02    0.8427201941E-01    0.1004357531E+00    0.3465989602E-02    0.4031173413E-02    0.2045236053E+00
    0.7000000000E+02    0.1008576850E+00    0.1165302618E+00    0.4164343445E-02    0.5366207551E-02    0.2375684020E+00
    0.9000000000E+02    0.1137643771E+00    0.1280894670E+00    0.4714433516E-02    0.6586596448E-02    0.2613937544E+00
    0.1100000000E+03    0.1242065307E+00    0.1368502546E+00    0.5164755536E-02    0.7711840319E-02    0.2795190260E+00
    0.1300000000E+03    0.1328799920E+00    0.1437539647E+00    0.5543104552E-02    0.8757025909E-02    0.2938541673E+00
    0.1500000000E+03    0.1402225870E+00    0.1493570928E+00    0.5866997517E-02    0.9734032344E-02    0.3055297883E+00
    0.1700000000E+03    0.1465289669E+00    0.1540108072E+00    0.6148252819E-02    0.1065235834E-01    0.3152602813E+00
    0.1900000000E+03    0.1520075667E+00    0.1579482708E+00    0.6395256520E-02    0.1151970332E-01    0.3235205928E+00
    0.2100000000E+03    0.1568115427E+00    0.1613307393E+00    0.6614191648E-02    0.1234238439E-01    0.3306396193E+00
    0.2300000000E+03    0.1610568258E+00    0.1642735298E+00    0.6809755199E-02    0.1312564106E-01    0.3368528602E+00
    0.2500000000E+03    0.1648332802E+00    0.1668614422E+00    0.6985601409E-02    0.1387386182E-01    0.3423337113E+00
    0.2700000000E+03    0.1682119316E+00    0.1691583278E+00    0.7144629093E-02    0.1459075504E-01    0.3472128965E+00
    0.2900000000E+03    0.1712498327E+00    0.1712132506E+00    0.7289175312E-02    0.1527947977E-01    0.3515909886E+00
    0.3100000000E+03    0.1739934446E+00    0.1730645815E+00    0.7421150187E-02    0.1594274694E-01    0.3555467376E+00
    0.3300000000E+03    0.1764810522E+00    0.1747427951E+00    0.7542133339E-02    0.1658289874E-01    0.3591427629E+00
    0.3500000000E+03    0.1787445283E+00    0.1762724264E+00    0.7653444498E-02    0.1720197136E-01    0.3624295390E+00
    0.3700000000E+03    0.1808106482E+00    0.1776734691E+00    0.7756196213E-02    0.1780174515E-01    0.3654482462E+00
    0.3900000000E+03    0.1827020868E+00    0.1789623931E+00    0.7851333908E-02    0.1838378507E-01    0.3682328473E+00
    0.4100000000E+03    0.1844381849E+00    0.1801528994E+00    0.7939666753E-02    0.1894947352E-01    0.3708116266E+00
    0.4300000000E+03    0.1860355470E+00    0.1812564856E+00    0.8021891801E-02    0.1950003728E-01    0.3732083477E+00
    0.4500000000E+03    0.1875085132E+00    0.1822828786E+00    0.8098613058E-02    0.2003656971E-01    0.3754431366E+00
    0.4700000000E+03    0.1888695347E+00    0.1832403675E+00    0.8170356723E-02    0.2056004912E-01    0.3775331637E+00
    0.4900000000E+03    0.1901294767E+00    0.1841360637E+00    0.8237583484E-02    0.2107135424E-01    0.3794931759E+00
    0.1000000000E+03    0.1192419930E+00    0.1327486789E+00    0.4950007983E-02    0.7160081547E-02    0.2710249325E+00
    0.3000000000E+03    0.1726558636E+00    0.1721623015E+00    0.7356628626E-02    0.1561414132E-01    0.3536174176E+00
    0.5000000000E+03    0.1907245659E+00    0.1845626912E+00    0.8269631575E-02    0.2132269202E-01    0.3804284776E+00
    0.7000000000E+03    0.1991091959E+00    0.1909778800E+00    0.8750064773E-02    0.2586694050E-01    0.3946525778E+00
    0.9000000000E+03    0.2035096909E+00    0.1949938307E+00    0.9042907074E-02    0.2976119742E-01    0.4037561564E+00
    0.1100000000E+04    0.2059324931E+00    0.1977814132E+00    0.9237419597E-02    0.3323572372E-01    0.4102038164E+00
    0.1300000000E+04    0.2072554815E+00    0.1998467880E+00    0.9374012916E-02    0.3641371462E-01    0.4150713105E+00
    0.1500000000E+04    0.2079182736E+00    0.2014476164E+00    0.9473641675E-02    0.3936909732E-01    0.4189111072E+00
    0.1700000000E+04    0.2081625720E+00    0.2027300861E+00    0.9548249724E-02    0.4214993818E-01    0.4220392486E+00
    0.1900000000E+04    0.2081307268E+00    0.2037838387E+00    0.9605140008E-02    0.4478939324E-01    0.4246510416E+00
    0.2100000000E+04    0.2079111186E+00    0.2046671571E+00    0.9649027372E-02    0.4731139447E-01    0.4268744133E+00
    0.2300000000E+04    0.2075609567E+00    0.2054197127E+00    0.9683090936E-02    0.4973384583E-01    0.4287970574E+00
    0.2500000000E+04    0.2071185408E+00    0.2060695221E+00    0.9709551917E-02    0.5207053516E-01    0.4304813282E+00
    0.2700000000E+04    0.2066102296E+00    0.2066369807E+00    0.9730008986E-02    0.5433233697E-01    0.4319729170E+00
    0.2900000000E+04    0.2060545836E+00    0.2071373176E+00    0.9745642043E-02    0.5652800116E-01    0.4333061592E+00
    0.3100000000E+04    0.2054649252E+00    0.2075821525E+00    0.9757340912E-02    0.5866468857E-01    0.4345074146E+00
    0.3300000000E+04    0.2048509718E+00    0.2079805175E+00    0.9765789347E-02    0.6074834557E-01    0.4355972967E+00
    0.3500000000E+04    0.2042199075E+00    0.2083395479E+00    0.9771521449E-02    0.6278397284E-01    0.4365921851E+00
    0.3700000000E+04    0.2035771035E+00    0.2086649608E+00    0.9774960519E-02    0.6477582249E-01    0.4375052800E+00
    0.3900000000E+04    0.2029266130E+00    0.2089613953E+00    0.9776446404E-02    0.6672754560E-01    0.4383473519E+00
    0.4100000000E+04    0.2022715175E+00    0.2092326579E+00    0.9776255124E-02    0.6864230439E-01    0.4391272874E+00
    0.4300000000E+04    0.2016141734E+00    0.2094819037E+00    0.9774613208E-02    0.7052285902E-01    0.4398524916E+00
    0.4500000000E+04    0.2009563897E+00    0.2097117715E+00    0.9771708330E-02    0.7237163546E-01    0.4405291909E+00
    0.4700000000E+04    0.2002995588E+00    0.2099244868E+00    0.9767697318E-02    0.7419077945E-01    0.4411626632E+00
    0.4900000000E+04    0.1996447526E+00    0.2101219403E+00    0.9762712254E-02    0.7598219971E-01    0.4417574159E+00
    0.1000000000E+04    0.2048986154E+00    0.1965010784E+00    0.9149276813E-02    0.3154165451E-01    0.4072269844E+00
    0.3000000000E+04    0.2057633288E+00    0.2073660570E+00    0.9751936453E-02    0.5760332042E-01    0.4339218827E+00
    0.5000000000E+04    0.1993183745E+00    0.2102154587E+00    0.9759890143E-02    0.7686805385E-01    0.4420415050E+00
    0.7000000000E+04    0.1930161373E+00    0.2115771916E+00    0.9672290775E-02    0.9346382425E-01    0.4463979188E+00
    0.9000000000E+04    0.1872024132E+00    0.2123806499E+00    0.9552438838E-02    0.1084909334E+00    0.4492458512E+00
    0.1100000000E+05    0.1818268640E+00    0.2129103749E+00    0.9418444755E-02    0.1224364652E+00    0.4513102318E+00
    0.1300000000E+05    0.1768135958E+00    0.2132845217E+00    0.9277513025E-02    0.1355661646E+00    0.4529050639E+00
    0.1500000000E+05    0.1721004610E+00    0.2135614502E+00    0.9133106127E-02    0.1480433449E+00    0.4541914946E+00
    0.1700000000E+05    0.1676402194E+00    0.2137734619E+00    0.8987110582E-02    0.1599765028E+00    0.4552619505E+00
    0.1900000000E+05    0.1633971065E+00    0.2139399437E+00    0.8840651775E-02    0.1714418297E+00    0.4561738018E+00
    0.2100000000E+05    0.1593436955E+00    0.2140732605E+00    0.8694449062E-02    0.1824951201E+00    0.4569648332E+00
    0.2300000000E+05    0.1554585926E+00    0.2141816811E+00    0.8548987984E-02    0.1931786099E+00    0.4576611055E+00
    0.2500000000E+05    0.1517248163E+00    0.2142709493E+00    0.8404610864E-02    0.2035251543E+00    0.4582812714E+00
    0.2700000000E+05    0.1481286613E+00    0.2143451814E+00    0.8261567647E-02    0.2135609100E+00    0.4588390936E+00
    0.2900000000E+05    0.1446588925E+00    0.2144074051E+00    0.8120045971E-02    0.2233071253E+00    0.4593449883E+00
    0.3100000000E+05    0.1413061656E+00    0.2144598974E+00    0.7980189746E-02    0.2327813764E+00    0.4598070107E+00
    0.3300000000E+05    0.1380626033E+00    0.2145044032E+00    0.7842111092E-02    0.2419984417E+00    0.4602315076E+00
    0.3500000000E+05    0.1349214808E+00    0.2145422825E+00    0.7705898254E-02    0.2509709374E+00    0.4606235607E+00
    0.3700000000E+05    0.1318769896E+00    0.2145746099E+00    0.7571621024E-02    0.2597097864E+00    0.4609872975E+00
    0.3900000000E+05    0.1289240566E+00    0.2146022462E+00    0.7439334545E-02    0.2682245705E+00    0.4613261128E+00
    0.4100000000E+05    0.1260582055E+00    0.2146258883E+00    0.7309082070E-02    0.2765237992E+00    0.4616428307E+00
    0.4300000000E+05    0.1232754477E+00    0.2146461066E+00    0.7180896993E-02    0.2846151168E+00    0.4619398239E+00
    0.4500000000E+05    0.1205721975E+00    0.2146633717E+00    0.7054804399E-02    0.2925054632E+00    0.4622191049E+00
    0.4700000000E+05    0.1179452039E+00    0.2146780757E+00    0.6930822260E-02    0.3002012012E+00    0.4624823942E+00
    0.4900000000E+05    0.1153914969E+00    0.2146905474E+00    0.6808962390E-02    0.3077082162E+00    0.4627311746E+00
    0.1000000000E+05    0.1844648296E+00    0.2126702869E+00    0.9486628813E-02    0.1155790377E+00    0.4503511596E+00
    0.3000000000E+05    0.1429684214E+00    0.2144347481E+00    0.8049902032E-02    0.2280772656E+00    0.4595810528E+00
    0.5000000000E+05    0.1141412634E+00    0.2146960347E+00    0.6748830507E-02    0.3113926814E+00    0.4628505326E+00
    0.7000000000E+05    0.9241141149E-01    0.2147376599E+00    0.5656815236E-02    0.3763607990E+00    0.4647151332E+00
    0.9000000000E+05    0.7574371308E-01    0.2147141275E+00    0.4762565979E-02    0.4273528472E+00    0.4659459822E+00
    0.1100000000E+06    0.6284726352E-01    0.2146664621E+00    0.4037867559E-02    0.4675157594E+00    0.4668201203E+00
    0.1300000000E+06    0.5278185875E-01    0.2146093637E+00    0.3451815833E-02    0.4993303754E+00    0.4674707673E+00
    0.1500000000E+06    0.4484835546E-01    0.2145490041E+00    0.2976486065E-02    0.5247327297E+00    0.4679723046E+00
    0.1700000000E+06    0.3852816842E-01    0.2144882164E+00    0.2588681294E-02    0.5452054688E+00    0.4683699944E+00
    0.1900000000E+06    0.3343772494E-01    0.2144283579E+00    0.2269915124E-02    0.5618707082E+00    0.4686929485E+00
    0.2100000000E+06    0.2929303350E-01    0.2143700786E+00    0.2005748014E-02    0.5755740459E+00    0.4689606498E+00
    0.2300000000E+06    0.2588287944E-01    0.2143136692E+00    0.1784993291E-02    0.5869534397E+00    0.4691865483E+00
    0.2500000000E+06    0.2304907401E-01    0.2142592325E+00    0.1598995407E-02    0.5964924722E+00    0.4693801721E+00
    0.2700000000E+06    0.2067213157E-01    0.2142067705E+00    0.1441038491E-02    0.6045602438E+00    0.4695484234E+00
    0.2900000000E+06    0.1866095727E-01    0.2141562321E+00    0.1305884625E-02    0.6114407722E+00    0.4696964023E+00
    0.3100000000E+06    0.1694543002E-01    0.2141075392E+00    0.1189421853E-02    0.6173545199E+00    0.4698279441E+00
    0.3300000000E+06    0.1547105153E-01    0.2140606011E+00    0.1088398724E-02    0.6224741495E+00    0.4699459806E+00
    0.3500000000E+06    0.1419506434E-01    0.2140153231E+00    0.1000224801E-02    0.6269360918E+00    0.4700527856E+00
    0.3700000000E+06    0.1308361531E-01    0.2139716112E+00    0.9228205985E-03    0.6308490856E+00    0.4701501467E+00
    0.3900000000E+06    0.1210966617E-01    0.2139293744E+00    0.8545043116E-03    0.6343005248E+00    0.4702394865E+00
    0.4100000000E+06    0.1125144129E-01    0.2138885265E+00    0.7939058772E-03    0.6373612121E+00    0.4703219504E+00
    0.4300000000E+06    0.1049126441E-01    0.2138489862E+00    0.7399013759E-03    0.6400889469E+00    0.4703984705E+00
    0.4500000000E+06    0.9814679328E-02    0.2138106780E+00    0.6915626301E-03    0.6425312556E+00    0.4704698122E+00
    0.4700000000E+06    0.9209779548E-02    0.2137735311E+00    0.6481182131E-03    0.6447274860E+00    0.4705366104E+00
    0.4900000000E+06    0.8666692951E-02    0.2137374802E+00    0.6089230778E-03    0.6467104263E+00    0.4705993956E+00
    0.1000000000E+06    0.6888936376E-01    0.2146920886E+00    0.4380984114E-02    0.4486190812E+00    0.4664173817E+00
    0.3000000000E+06    0.1776995859E-01    0.2141316605E+00    0.1245537621E-02    0.6145067347E+00    0.4697640267E+00
    0.5000000000E+06    0.8415700674E-02    0.2137198466E+00    0.5907460000E-03    0.6476306817E+00    0.4706294258E+00
    0.7000000000E+06    0.5218656011E-02    0.2134121784E+00    0.3554474883E-03    0.6596235339E+00    0.4710983396E+00
    0.9000000000E+06    0.3730382137E-02    0.2131669257E+00    0.2434248528E-03    0.6654561759E+00    0.4714219075E+00
    0.1100000000E+07    0.2903121623E-02    0.2129628626E+00    0.1806536482E-03    0.6688121998E+00    0.4716707462E+00
    0.1300000000E+07    0.2387557879E-02    0.2127879934E+00    0.1415633138E-03    0.6709624587E+00    0.4718738633E+00
    0.1500000000E+07    0.2039603638E-02    0.2126349066E+00    0.1153543506E-03    0.6724464766E+00    0.4720459660E+00
    0.1700000000E+07    0.1790617962E-02    0.2124987051E+00    0.9679748787E-04    0.6735277826E+00    0.4721955612E+00
    0.1900000000E+07    0.1604310711E-02    0.2123759841E+00    0.8309672489E-04    0.6743488121E+00    0.4723280300E+00
    0.2100000000E+07    0.1459918369E-02    0.2122642794E+00    0.7264019924E-04    0.6749926790E+00    0.4724470024E+00
    0.2300000000E+07    0.1344801005E-02    0.2121617497E+00    0.6444206204E-04    0.6755108798E+00    0.4725550488E+00
    0.2500000000E+07    0.1250869441E-02    0.2120669822E+00    0.5786986399E-04    0.6759368986E+00    0.4726540588E+00
    0.2700000000E+07    0.1172729199E-02    0.2119788689E+00    0.5250158690E-04    0.6762933878E+00    0.4727454646E+00
    0.2900000000E+07    0.1106656511E-02    0.2118965247E+00    0.4804617888E-04    0.6765961887E+00    0.4728303782E+00
    0.3100000000E+07    0.1050004357E-02    0.2118192311E+00    0.4429719390E-04    0.6768566953E+00    0.4729096817E+00
    0.3300000000E+07    0.1000843019E-02    0.2117463965E+00    0.4110461217E-04    0.6770833032E+00    0.4729840864E+00
    0.3500000000E+07    0.9577344863E-03    0.2116775285E+00    0.3835709767E-04    0.6772823297E+00    0.4730541751E+00
    0.3700000000E+07    0.9195863399E-03    0.2116122120E+00    0.3597048077E-04    0.6774586164E+00    0.4731204312E+00
    0.3900000000E+07    0.8855544522E-03    0.2115500945E+00    0.3388007889E-04    0.6776159343E+00    0.4731832604E+00
    0.4100000000E+07    0.8549765989E-03    0.2114908736E+00    0.3203545366E-04    0.6777572635E+00    0.4732430064E+00
    0.4300000000E+07    0.8273261641E-03    0.2114342883E+00    0.3039675547E-04    0.6778849893E+00    0.4732999634E+00
    0.4500000000E+07    0.8021792228E-03    0.2113801112E+00    0.2893212612E-04    0.6780010435E+00    0.4733543849E+00
    0.4700000000E+07    0.7791907221E-03    0.2113281436E+00    0.2761582181E-04    0.6781070070E+00    0.4734064909E+00
    0.4900000000E+07    0.7580769703E-03    0.2112782103E+00    0.2642683546E-04    0.6782041857E+00    0.4734564739E+00
    0.1000000000E+07    0.3263460483E-02    0.2130606385E+00    0.2080159732E-03    0.6673378378E+00    0.4715533598E+00
    0.3000000000E+07    0.1077287155E-02    0.2118572861E+00    0.4609383621E-04    0.6767311465E+00    0.4728706833E+00
    0.5000000000E+07    0.7481479660E-03    0.2112539575E+00    0.2587455916E-04    0.6782498283E+00    0.4734807229E+00
    0.7000000000E+07    0.6073885426E-03    0.2108459647E+00    0.1857259450E-04    0.6788904094E+00    0.4738863737E+00
    0.9000000000E+07    0.5255396542E-03    0.2105367448E+00    0.1484082232E-04    0.6792536618E+00    0.4741916820E+00
    0.1100000000E+08    0.4704636521E-03    0.2102874560E+00    0.1256668950E-04    0.6794921052E+00    0.4744369359E+00
    0.1300000000E+08    0.4301308581E-03    0.2100784907E+00    0.1102593679E-04    0.6796628839E+00    0.4746420982E+00
    0.1500000000E+08    0.3989254986E-03    0.2098985446E+00    0.9905963604E-05    0.6797924749E+00    0.4748185515E+00
    0.1700000000E+08    0.3738341688E-03    0.2097404973E+00    0.9050244152E-05    0.6798949298E+00    0.4749734130E+00
    0.1900000000E+08    0.3530767788E-03    0.2095995705E+00    0.8371784559E-05    0.6799784470E+00    0.4751114345E+00
    0.2100000000E+08    0.3355251511E-03    0.2094724004E+00    0.7818341875E-05    0.6800481575E+00    0.4752359485E+00
    0.2300000000E+08    0.3204248088E-03    0.2093565282E+00    0.7356608797E-05    0.6801074503E+00    0.4753493838E+00
    0.2500000000E+08    0.3072493507E-03    0.2092501020E+00    0.6964315942E-05    0.6801586617E+00    0.4754535658E+00
    0.2700000000E+08    0.2956186991E-03    0.2091516918E+00    0.6625986151E-05    0.6802034599E+00    0.4755499014E+00
