  Pressure (Pa) 2mC6-400 (mol/kg) 3mC6-400 (mol/kg) 33mC5-400 (mol/kg) 23mC5-400 (mol/kg) C7-400 (mol/kg)
    0.1000000000E+01    0.3175266865E-02    0.4208274411E-02    0.1292740333E-03    0.4659232392E-03    0.1707211366E-02
    0.3000000000E+01    0.9297053348E-02    0.1231358058E-01    0.3785682316E-03    0.1386988504E-02    0.4995934137E-02
    0.5000000000E+01    0.1513231126E-01    0.2002996912E-01    0.6162722772E-03    0.2294038677E-02    0.8127572112E-02
    0.7000000000E+01    0.2070130699E-01    0.2738601545E-01    0.8432072474E-03    0.3187489970E-02    0.1111365063E-01
    0.9000000000E+01    0.2602237729E-01    0.3440753399E-01    0.1060115894E-02    0.4067741578E-02    0.1396458223E-01
    0.1100000000E+02    0.3111215719E-01    0.4111790481E-01    0.1267671906E-02    0.4935176553E-02    0.1668979828E-01
    0.1300000000E+02    0.3598577612E-01    0.4753835493E-01    0.1466487884E-02    0.5790162623E-02    0.1929786226E-01
    0.1500000000E+02    0.4065702741E-01    0.5368820147E-01    0.1657122223E-02    0.6633052968E-02    0.2179656775E-01
    0.1700000000E+02    0.4513851515E-01    0.5958506248E-01    0.1840085084E-02    0.7464186937E-02    0.2419302338E-01
    0.1900000000E+02    0.4944178203E-01    0.6524504050E-01    0.2015843582E-02    0.8283890736E-02    0.2649372679E-01
    0.2100000000E+02    0.5357742080E-01    0.7068288267E-01    0.2184826317E-02    0.9092478061E-02    0.2870462914E-01
    0.2300000000E+02    0.5755517200E-01    0.7591212104E-01    0.2347427342E-02    0.9890250711E-02    0.3083119165E-01
    0.2500000000E+02    0.6138400959E-01    0.8094519570E-01    0.2504009638E-02    0.1067749915E-01    0.3287843524E-01
    0.2700000000E+02    0.6507221650E-01    0.8579356326E-01    0.2654908184E-02    0.1145450304E-01    0.3485098422E-01
    0.2900000000E+02    0.6862745127E-01    0.9046779261E-01    0.2800432657E-02    0.1222153175E-01    0.3675310493E-01
    0.3100000000E+02    0.7205680704E-01    0.9497764967E-01    0.2940869833E-02    0.1297884486E-01    0.3858873983E-01
    0.3300000000E+02    0.7536686389E-01    0.9933217260E-01    0.3076485706E-02    0.1372669254E-01    0.4036153788E-01
    0.3500000000E+02    0.7856373549E-01    0.1035397387E+00    0.3207527381E-02    0.1446531607E-01    0.4207488150E-01
    0.3700000000E+02    0.8165311058E-01    0.1076081241E+00    0.3334224757E-02    0.1519494816E-01    0.4373191057E-01
    0.3900000000E+02    0.8464029014E-01    0.1115445570E+00    0.3456792037E-02    0.1591581337E-01    0.4533554395E-01
    0.4100000000E+02    0.8753022058E-01    0.1153557652E+00    0.3575429071E-02    0.1662812850E-01    0.4688849869E-01
    0.4300000000E+02    0.9032752367E-01    0.1190480192E+00    0.3690322569E-02    0.1733210285E-01    0.4839330729E-01
    0.4500000000E+02    0.9303652332E-01    0.1226271706E+00    0.3801647190E-02    0.1802793862E-01    0.4985233320E-01
    0.4700000000E+02    0.9566126976E-01    0.1260986865E+00    0.3909566520E-02    0.1871583118E-01    0.5126778478E-01
    0.4900000000E+02    0.9820556141E-01    0.1294676809E+00    0.4014233959E-02    0.1939596937E-01    0.5264172794E-01
    0.1000000000E+02    0.2859519977E-01    0.3780023874E-01    0.1165023345E-02    0.4503037812E-02    0.1534235036E-01
    0.3000000000E+02    0.7035744132E-01    0.9274268656E-01    0.2871270069E-02    0.1260138691E-01    0.3767899849E-01
    0.5000000000E+02    0.9944865975E-01    0.1311152411E+00    0.4065393569E-02    0.1973318787E-01    0.5331374331E-01
    0.7000000000E+02    0.1208471379E+00    0.1596994284E+00    0.4948560754E-02    0.2611183800E-01    0.6498512158E-01
    0.9000000000E+02    0.1371834365E+00    0.1819862573E+00    0.5626959382E-02    0.3188988107E-01    0.7410393545E-01
    0.1100000000E+03    0.1499943480E+00    0.1999627616E+00    0.6162588616E-02    0.3717954049E-01    0.8147377605E-01
    0.1300000000E+03    0.1602449992E+00    0.2148468613E+00    0.6594376434E-02    0.4206541214E-01    0.8758754049E-01
    0.1500000000E+03    0.1685753693E+00    0.2274288189E+00    0.6948138436E-02    0.4661261262E-01    0.9276527373E-01
    0.1700000000E+03    0.1754281557E+00    0.2382451314E+00    0.7241738345E-02    0.5087218174E-01    0.9722439821E-01
    0.1900000000E+03    0.1811201109E+00    0.2476736735E+00    0.7487964745E-02    0.5488476593E-01    0.1011181559E+00
    0.2100000000E+03    0.1858842166E+00    0.2559888508E+00    0.7696230853E-02    0.5868319172E-01    0.1045579024E+00
    0.2300000000E+03    0.1898958233E+00    0.2633951295E+00    0.7873627588E-02    0.6229430285E-01    0.1076266661E+00
    0.2500000000E+03    0.1932894987E+00    0.2700482532E+00    0.8025602121E-02    0.6574029702E-01    0.1103877312E+00
    0.2700000000E+03    0.1961702500E+00    0.2760691310E+00    0.8156409804E-02    0.6903971534E-01    0.1128902594E+00
    0.2900000000E+03    0.1986212122E+00    0.2815532008E+00    0.8269423760E-02    0.7220818613E-01    0.1151730800E+00
    0.3100000000E+03    0.2007090443E+00    0.2865769043E+00    0.8367352194E-02    0.7525899176E-01    0.1172673133E+00
    0.3300000000E+03    0.2024877978E+00    0.2912022670E+00    0.8452394197E-02    0.7820350633E-01    0.1191982263E+00
    0.3500000000E+03    0.2040017412E+00    0.2954802029E+00    0.8526353547E-02    0.8105153732E-01    0.1209865722E+00
    0.3700000000E+03    0.2052874574E+00    0.2994529414E+00    0.8590723227E-02    0.8381159535E-01    0.1226495748E+00
    0.3900000000E+03    0.2063754237E+00    0.3031558396E+00    0.8646749113E-02    0.8649110907E-01    0.1242016634E+00
    0.4100000000E+03    0.2072912179E+00    0.3066187532E+00    0.8695478621E-02    0.8909659799E-01    0.1256550296E+00
    0.4300000000E+03    0.2080564500E+00    0.3098670890E+00    0.8737798299E-02    0.9163381264E-01    0.1270200543E+00
    0.4500000000E+03    0.2086894901E+00    0.3129226218E+00    0.8774463206E-02    0.9410784907E-01    0.1283056395E+00
    0.4700000000E+03    0.2092060418E+00    0.3158041357E+00    0.8806120095E-02    0.9652324309E-01    0.1295194690E+00
    0.4900000000E+03    0.2096196001E+00    0.3185279322E+00    0.8833325874E-02    0.9888404841E-01    0.1306682149E+00
    0.1000000000E+03    0.1439595445E+00    0.1914243026E+00    0.5909795870E-02    0.3458993617E-01    0.7797146765E-01
    0.3000000000E+03    0.1997068831E+00    0.2841184277E+00    0.8320125794E-02    0.7374754589E-01    0.1162420714E+00
    0.5000000000E+03    0.2097914613E+00    0.3198352037E+00    0.8845412774E-02    0.1000451315E+00    0.1312200313E+00
    0.7000000000E+03    0.2099503391E+00    0.3403603532E+00    0.8941895644E-02    0.1211142211E+00    0.1399299010E+00
    0.9000000000E+03    0.2068713858E+00    0.3542078647E+00    0.8888229761E-02    0.1392864631E+00    0.1458640652E+00
    0.1100000000E+04    0.2025824880E+00    0.3644033489E+00    0.8771545071E-02    0.1555730756E+00    0.1502704825E+00
    0.1300000000E+04    0.1978521142E+00    0.3723354898E+00    0.8626255632E-02    0.1705043051E+00    0.1537247118E+00
    0.1500000000E+04    0.1930101524E+00    0.3787459183E+00    0.8467989959E-02    0.1843938314E+00    0.1565354729E+00
    0.1700000000E+04    0.1882083342E+00    0.3840728307E+00    0.8304522543E-02    0.1974434385E+00    0.1588859019E+00
    0.1900000000E+04    0.1835182415E+00    0.3885946069E+00    0.8139964397E-02    0.2097912126E+00    0.1608927723E+00
    0.2100000000E+04    0.1789727919E+00    0.3924980319E+00    0.7976576499E-02    0.2215362742E+00    0.1626347061E+00
    0.2300000000E+04    0.1745853630E+00    0.3959139027E+00    0.7815628203E-02    0.2327525463E+00    0.1641669369E+00
    0.2500000000E+04    0.1703591871E+00    0.3989370096E+00    0.7657832562E-02    0.2434969248E+00    0.1655296161E+00
    0.2700000000E+04    0.1662921923E+00    0.4016380139E+00    0.7503579459E-02    0.2538143795E+00    0.1667527620E+00
    0.2900000000E+04    0.1623795847E+00    0.4040708480E+00    0.7353066023E-02    0.2637412760E+00    0.1678593496E+00
    0.3100000000E+04    0.1586152606E+00    0.4062775093E+00    0.7206372233E-02    0.2733076146E+00    0.1688673177E+00
    0.3300000000E+04    0.1549925877E+00    0.4082912699E+00    0.7063506027E-02    0.2825385845E+00    0.1697909144E+00
    0.3500000000E+04    0.1515048381E+00    0.4101388874E+00    0.6924430867E-02    0.2914556696E+00    0.1706416267E+00
    0.3700000000E+04    0.1481454248E+00    0.4118421655E+00    0.6789082908E-02    0.3000774531E+00    0.1714288371E+00
    0.3900000000E+04    0.1449080248E+00    0.4134190786E+00    0.6657381848E-02    0.3084202130E+00    0.1721602985E+00
    0.4100000000E+04    0.1417866380E+00    0.4148845993E+00    0.6529237865E-02    0.3164983701E+00    0.1728424832E+00
    0.4300000000E+04    0.1387756076E+00    0.4162513157E+00    0.6404556093E-02    0.3243248314E+00    0.1734808451E+00
    0.4500000000E+04    0.1358696202E+00    0.4175299009E+00    0.6283239504E-02    0.3319112542E+00    0.1740800179E+00
    0.4700000000E+04    0.1330636935E+00    0.4187294727E+00    0.6165190775E-02    0.3392682539E+00    0.1746439686E+00
    0.4900000000E+04    0.1303531588E+00    0.4198578752E+00    0.6050313488E-02    0.3464055674E+00    0.1751761168E+00
    0.1000000000E+04    0.2048147663E+00    0.3596536768E+00    0.8834960721E-02    0.1476253728E+00    0.1482133573E+00
    0.3000000000E+04    0.1604792957E+00    0.4052001960E+00    0.7279239875E-02    0.2685678427E+00    0.1683746966E+00
    0.5000000000E+04    0.1290322851E+00    0.4203975461E+00    0.5994034444E-02    0.3498946773E+00    0.1754312075E+00
    0.7000000000E+04    0.1066938785E+00    0.4287083467E+00    0.5013164737E-02    0.4100317626E+00    0.1794130637E+00
    0.9000000000E+04    0.9025950257E-01    0.4341381446E+00    0.4257046101E-02    0.4556380798E+00    0.1820792068E+00
    0.1100000000E+05    0.7785272949E-01    0.4380395429E+00    0.3667084508E-02    0.4907870706E+00    0.1840347243E+00
    0.1300000000E+05    0.6828166684E-01    0.4410152945E+00    0.3200795329E-02    0.5182769305E+00    0.1855533870E+00
    0.1500000000E+05    0.6075428687E-01    0.4433803755E+00    0.2827347093E-02    0.5400855840E+00    0.1867801197E+00
    0.1700000000E+05    0.5472957017E-01    0.4453176127E+00    0.2524323298E-02    0.5576269054E+00    0.1877999903E+00
    0.1900000000E+05    0.4983008884E-01    0.4469413936E+00    0.2275343343E-02    0.5719210830E+00    0.1886667476E+00
    0.2100000000E+05    0.4578761758E-01    0.4483274418E+00    0.2068341727E-02    0.5837119500E+00    0.1894162856E+00
    0.2300000000E+05    0.4240822828E-01    0.4495281460E+00    0.1894343021E-02    0.5935481133E+00    0.1900736342E+00
    0.2500000000E+05    0.3954941623E-01    0.4505810590E+00    0.1746597096E-02    0.6018391005E+00    0.1906568656E+00
    0.2700000000E+05    0.3710484980E-01    0.4515138947E+00    0.1619969558E-02    0.6088943610E+00    0.1911794073E+00
    0.2900000000E+05    0.3499403967E-01    0.4523476117E+00    0.1510510610E-02    0.6149505329E+00    0.1916514779E+00
    0.3100000000E+05    0.3315523292E-01    0.4530983915E+00    0.1415148077E-02    0.6201906731E+00    0.1920810142E+00
    0.3300000000E+05    0.3154045286E-01    0.4537789525E+00    0.1331466978E-02    0.6247579552E+00    0.1924742901E+00
    0.3500000000E+05    0.3011198703E-01    0.4543994472E+00    0.1257549737E-02    0.6287655303E+00    0.1928363410E+00
    0.3700000000E+05    0.2883986663E-01    0.4549680912E+00    0.1191859157E-02    0.6323037038E+00    0.1931712634E+00
    0.3900000000E+05    0.2770003385E-01    0.4554916134E+00    0.1133151865E-02    0.6354452142E+00    0.1934824293E+00
    0.4100000000E+05    0.2667299293E-01    0.4559755844E+00    0.1080413629E-02    0.6382491590E+00    0.1937726443E+00
    0.4300000000E+05    0.2574280553E-01    0.4564246608E+00    0.1032810550E-02    0.6407639425E+00    0.1940442649E+00
    0.4500000000E+05    0.2489633443E-01    0.4568427689E+00    0.9896518843E-03    0.6430295127E+00    0.1942992873E+00
    0.4700000000E+05    0.2412266803E-01    0.4572332456E+00    0.9503614587E-03    0.6450790734E+00    0.1945394160E+00
    0.4900000000E+05    0.2341267831E-01    0.4575989475E+00    0.9144555089E-03    0.6469404075E+00    0.1947661162E+00
    0.1000000000E+05    0.8363890667E-01    0.4362325156E+00    0.3944269054E-02    0.4743217818E+00    0.1831243563E+00
    0.3000000000E+05    0.3404391038E-01    0.4527325048E+00    0.1461231513E-02    0.6176628548E+00    0.1918711375E+00
    0.5000000000E+05    0.2307911141E-01    0.4577732904E+00    0.8976414597E-03    0.6478079479E+00    0.1948748339E+00
    0.7000000000E+05    0.1839946101E-01    0.4604102485E+00    0.6669258814E-03    0.6593812498E+00    0.1965783341E+00
    0.9000000000E+05    0.1575120060E-01    0.4620802042E+00    0.5427183431E-03    0.6652528476E+00    0.1977304247E+00
    0.1100000000E+06    0.1401132331E-01    0.4632506645E+00    0.4648446910E-03    0.6687358278E+00    0.1985849892E+00
    0.1300000000E+06    0.1276040722E-01    0.4641247493E+00    0.4111222265E-03    0.6710176432E+00    0.1992561793E+00
    0.1500000000E+06    0.1180588054E-01    0.4648065678E+00    0.3715740018E-03    0.6726183895E+00    0.1998042897E+00
    0.1700000000E+06    0.1104636399E-01    0.4653556074E+00    0.3410696011E-03    0.6737987596E+00    0.2002647185E+00
    0.1900000000E+06    0.1042304496E-01    0.4658085952E+00    0.3167038423E-03    0.6747027499E+00    0.2006598698E+00
    0.2100000000E+06    0.9899246908E-02    0.4661895638E+00    0.2967076025E-03    0.6754159493E+00    0.2010047458E+00
    0.2300000000E+06    0.9450785256E-02    0.4665149693E+00    0.2799407032E-03    0.6759922324E+00    0.2013098429E+00
    0.2500000000E+06    0.9060990543E-02    0.4667964979E+00    0.2656341458E-03    0.6764671101E+00    0.2015827684E+00
    0.2700000000E+06    0.8717952594E-02    0.4670427005E+00    0.2532496156E-03    0.6768648908E+00    0.2018291969E+00
    0.2900000000E+06    0.8412904897E-02    0.4672599927E+00    0.2423984208E-03    0.6772027490E+00    0.2020534647E+00
    0.3100000000E+06    0.8139231659E-02    0.4674532911E+00    0.2327924563E-03    0.6774931485E+00    0.2022589538E+00
    0.3300000000E+06    0.7891832886E-02    0.4676264332E+00    0.2242133332E-03    0.6777453447E+00    0.2024483490E+00
    0.3500000000E+06    0.7666704459E-02    0.4677824621E+00    0.2164922683E-03    0.6779663494E+00    0.2026238139E+00
    0.3700000000E+06    0.7460652201E-02    0.4679238249E+00    0.2094965896E-03    0.6781615682E+00    0.2027871158E+00
    0.3900000000E+06    0.7271092210E-02    0.4680525139E+00    0.2031204455E-03    0.6783352333E+00    0.2029397153E+00
    0.4100000000E+06    0.7095908281E-02    0.4681701689E+00    0.1972782604E-03    0.6784907041E+00    0.2030828327E+00
    0.4300000000E+06    0.6933348091E-02    0.4682781531E+00    0.1919000308E-03    0.6786306801E+00    0.2032174965E+00
    0.4500000000E+06    0.6781946264E-02    0.4683776096E+00    0.1869278824E-03    0.6787573546E+00    0.2033445814E+00
    0.4700000000E+06    0.6640466458E-02    0.4684695051E+00    0.1823135107E-03    0.6788725276E+00    0.2034648371E+00
    0.4900000000E+06    0.6507857148E-02    0.4685546628E+00    0.1780162476E-03    0.6789776900E+00    0.2035789103E+00
    0.1000000000E+06    0.1480197949E-01    0.4627118123E+00    0.4998108036E-03    0.6671947661E+00    0.1981859505E+00
    0.3000000000E+06    0.8272495020E-02    0.4673593799E+00    0.2374547923E-03    0.6773532407E+00    0.2021583748E+00
    0.5000000000E+06    0.6444592290E-02    0.4685949395E+00    0.1759755401E-03    0.6790269145E+00    0.2036338070E+00
    0.7000000000E+06    0.5481347196E-02    0.4691748869E+00    0.1456390817E-03    0.6797024166E+00    0.2045115129E+00
    0.9000000000E+06    0.4860502855E-02    0.4695064168E+00    0.1267923067E-03    0.6800666738E+00    0.2051261269E+00
    0.1100000000E+07    0.4416827091E-02    0.4697161123E+00    0.1136492024E-03    0.6802944372E+00    0.2055947006E+00
    0.1300000000E+07    0.4079004733E-02    0.4698569132E+00    0.1038194249E-03    0.6804503443E+00    0.2059711590E+00
    0.1500000000E+07    0.3810460368E-02    0.4699550357E+00    0.9611363249E-04    0.6805637998E+00    0.2062845658E+00
    0.1700000000E+07    0.3590217140E-02    0.4700249846E+00    0.8986496676E-04    0.6806500924E+00    0.2065522826E+00
    0.1900000000E+07    0.3405256577E-02    0.4700754428E+00    0.8466684802E-04    0.6807179553E+00    0.2067854667E+00
    0.2100000000E+07    0.3247009095E-02    0.4701119249E+00    0.8025547467E-04    0.6807727390E+00    0.2069916920E+00
    0.2300000000E+07    0.3109569612E-02    0.4701380981E+00    0.7645124641E-04    0.6808179046E+00    0.2071763236E+00
    0.2500000000E+07    0.2988717394E-02    0.4701564926E+00    0.7312710566E-04    0.6808557899E+00    0.2073432939E+00
    0.2700000000E+07    0.2881343815E-02    0.4701689076E+00    0.7019030475E-04    0.6808880311E+00    0.2074955668E+00
    0.2900000000E+07    0.2785101334E-02    0.4701766554E+00    0.6757135173E-04    0.6809158078E+00    0.2076354294E+00
    0.3100000000E+07    0.2698179173E-02    0.4701807131E+00    0.6521701770E-04    0.6809399919E+00    0.2077646814E+00
    0.3300000000E+07    0.2619154929E-02    0.4701818222E+00    0.6308575255E-04    0.6809612417E+00    0.2078847636E+00
    0.3500000000E+07    0.2546893482E-02    0.4701805541E+00    0.6114458668E-04    0.6809800637E+00    0.2079968462E+00
    0.3700000000E+07    0.2480476341E-02    0.4701773553E+00    0.5936698107E-04    0.6809968541E+00    0.2081018925E+00
    0.3900000000E+07    0.2419151148E-02    0.4701725786E+00    0.5773130091E-04    0.6810119269E+00    0.2082007040E+00
    0.4100000000E+07    0.2362294878E-02    0.4701665064E+00    0.5621970964E-04    0.6810255348E+00    0.2082939548E+00
    0.4300000000E+07    0.2309386550E-02    0.4701593661E+00    0.5481735320E-04    0.6810378827E+00    0.2083822169E+00
    0.4500000000E+07    0.2259986657E-02    0.4701513431E+00    0.5351174862E-04    0.6810491393E+00    0.2084659797E+00
    0.4700000000E+07    0.2213721465E-02    0.4701425893E+00    0.5229231896E-04    0.6810594442E+00    0.2085456650E+00
    0.4900000000E+07    0.2170270851E-02    0.4701332299E+00    0.5115003513E-04    0.6810689141E+00    0.2086216386E+00
    0.1000000000E+07    0.4622159022E-02    0.4696222679E+00    0.1196986036E-03    0.6801923256E+00    0.2053744674E+00
    0.3000000000E+07    0.2740571851E-02    0.4701790945E+00    0.6636393599E-04    0.6809283036E+00    0.2077012845E+00
    0.5000000000E+07    0.2149513248E-02    0.4701283563E+00    0.5060535454E-04    0.6810733673E+00    0.2086583351E+00
    0.7000000000E+07    0.1831497522E-02    0.4700168728E+00    0.4234598789E-04    0.6811359440E+00    0.2092573240E+00
    0.9000000000E+07    0.1624970154E-02    0.4698996913E+00    0.3707299960E-04    0.6811710174E+00    0.2096911077E+00
    0.1100000000E+08    0.1476860779E-02    0.4697877601E+00    0.3333936253E-04    0.6811935400E+00    0.2100301285E+00
    0.1300000000E+08    0.1363880604E-02    0.4696833080E+00    0.3052009577E-04    0.6812092707E+00    0.2103078564E+00
    0.1500000000E+08    0.1273977312E-02    0.4695863226E+00    0.2829560284E-04    0.6812209044E+00    0.2105427712E+00
    0.1700000000E+08    0.1200200675E-02    0.4694961913E+00    0.2648334284E-04    0.6812298728E+00    0.2107461324E+00
    0.1900000000E+08    0.1138221896E-02    0.4694121859E+00    0.2497053494E-04    0.6812370079E+00    0.2109252981E+00
    0.2100000000E+08    0.1085184535E-02    0.4693336132E+00    0.2368327228E-04    0.6812428265E+00    0.2110853356E+00
    0.2300000000E+08    0.1039116898E-02    0.4692598567E+00    0.2257084921E-04    0.6812476672E+00    0.2112298807E+00
    0.2500000000E+08    0.9986079259E-03    0.4691903821E+00    0.2159717438E-04    0.6812517609E+00    0.2113616281E+00
    0.2700000000E+08    0.9626173935E-03    0.4691247298E+00    0.2073577155E-04    0.6812552708E+00    0.2114826302E+00
