  Pressure (Pa) 2mC6-400 (mol/kg) 3mC6-400 (mol/kg) 33mC5-400 (mol/kg) 23mC5-400 (mol/kg) C7-400 (mol/kg)
    0.1000000000E+01    0.3149676365E-02    0.2603509770E-02    0.1923691370E-03    0.1864331377E-03    0.1013993925E-01
    0.3000000000E+01    0.9083839087E-02    0.7472331926E-02    0.5550136256E-03    0.5553592718E-03    0.2910873019E-01
    0.5000000000E+01    0.1458251361E-01    0.1193811578E-01    0.8913231415E-03    0.9191528963E-03    0.4651479613E-01
    0.7000000000E+01    0.1969841898E-01    0.1605008771E-01    0.1204497664E-02    0.1277954364E-02    0.6254871922E-01
    0.9000000000E+01    0.2447584298E-01    0.1984972474E-01    0.1497223845E-02    0.1631898713E-02    0.7737110224E-01
    0.1100000000E+02    0.2895226665E-01    0.2337222435E-01    0.1771774095E-02    0.1981115918E-02    0.9111825194E-01
    0.1300000000E+02    0.3315962799E-01    0.2664765173E-01    0.2030083644E-02    0.2325731135E-02    0.1039066159E+00
    0.1500000000E+02    0.3712531495E-01    0.2970184431E-01    0.2273811064E-02    0.2665864921E-02    0.1158362808E+00
    0.1700000000E+02    0.4087295266E-01    0.3255713133E-01    0.2504386245E-02    0.3001633451E-02    0.1269937554E+00
    0.1900000000E+02    0.4442303299E-01    0.3523291115E-01    0.2723048745E-02    0.3333148718E-02    0.1374542041E+00
    0.2100000000E+02    0.4779342196E-01    0.3774611817E-01    0.2930878685E-02    0.3660518724E-02    0.1472832528E+00
    0.2300000000E+02    0.5099977168E-01    0.4011160305E-01    0.3128821830E-02    0.3983847657E-02    0.1565384602E+00
    0.2500000000E+02    0.5405585719E-01    0.4234244465E-01    0.3317710080E-02    0.4303236066E-02    0.1652705248E+00
    0.2700000000E+02    0.5697385353E-01    0.4445020742E-01    0.3498278330E-02    0.4618781016E-02    0.1735242809E+00
    0.2900000000E+02    0.5976456513E-01    0.4644515521E-01    0.3671178412E-02    0.4930576244E-02    0.1813395257E+00
    0.3100000000E+02    0.6243761682E-01    0.4833642975E-01    0.3836990710E-02    0.5238712304E-02    0.1887517103E+00
    0.3300000000E+02    0.6500161359E-01    0.5013220047E-01    0.3996233863E-02    0.5543276702E-02    0.1957925197E+00
    0.3500000000E+02    0.6746427513E-01    0.5183979098E-01    0.4149372940E-02    0.5844354024E-02    0.2024903623E+00
    0.3700000000E+02    0.6983254942E-01    0.5346578615E-01    0.4296826332E-02    0.6142026065E-02    0.2088707841E+00
    0.3900000000E+02    0.7211270929E-01    0.5501612346E-01    0.4438971614E-02    0.6436371940E-02    0.2149568229E+00
    0.4100000000E+02    0.7431043468E-01    0.5649617091E-01    0.4576150536E-02    0.6727468196E-02    0.2207693096E+00
    0.4300000000E+02    0.7643088316E-01    0.5791079410E-01    0.4708673297E-02    0.7015388923E-02    0.2263271281E+00
    0.4500000000E+02    0.7847875046E-01    0.5926441390E-01    0.4836822214E-02    0.7300205844E-02    0.2316474385E+00
    0.4700000000E+02    0.8045832281E-01    0.6056105639E-01    0.4960854896E-02    0.7581988422E-02    0.2367458706E+00
    0.4900000000E+02    0.8237352217E-01    0.6180439621E-01    0.5081006980E-02    0.7860803941E-02    0.2416366917E+00
    0.1000000000E+02    0.2674956659E-01    0.2164362899E-01    0.1636642886E-02    0.1807090276E-02    0.8437138279E-01
    0.3000000000E+02    0.6111523844E-01    0.4740321984E-01    0.3754936774E-02    0.5085096131E-02    0.1850939380E+00
    0.5000000000E+02    0.8330811777E-01    0.6240713923E-01    0.5139696019E-02    0.7999119507E-02    0.2440083706E+00
    0.7000000000E+02    0.9935416117E-01    0.7234446623E-01    0.6153790367E-02    0.1062450805E-01    0.2831870010E+00
    0.9000000000E+02    0.1117069519E+00    0.7947185921E-01    0.6944467884E-02    0.1301629852E-01    0.3113975551E+00
    0.1100000000E+03    0.1215954522E+00    0.8486850894E-01    0.7585388388E-02    0.1521573338E-01    0.3328387678E+00
    0.1300000000E+03    0.1297238898E+00    0.8911803328E-01    0.8118780716E-02    0.1725440080E-01    0.3497843667E+00
    0.1500000000E+03    0.1365349425E+00    0.9256491601E-01    0.8571236164E-02    0.1915695572E-01    0.3635782333E+00
    0.1700000000E+03    0.1423259430E+00    0.9542628737E-01    0.8960661545E-02    0.2094296135E-01    0.3750685492E+00
    0.1900000000E+03    0.1473066413E+00    0.9784618548E-01    0.9299728431E-02    0.2262816750E-01    0.3848187133E+00
    0.2100000000E+03    0.1516306429E+00    0.9992415729E-01    0.9597748452E-02    0.2422541819E-01    0.3932186054E+00
    0.2300000000E+03    0.1554137838E+00    0.1017313504E+00    0.9861768968E-02    0.2574530883E-01    0.4005472361E+00
    0.2500000000E+03    0.1587454978E+00    0.1033200595E+00    0.1009725114E-01    0.2719667060E-01    0.4070099445E+00
    0.2700000000E+03    0.1616961797E+00    0.1047296456E+00    0.1030850961E-01    0.2858693318E-01    0.4127614777E+00
    0.2900000000E+03    0.1643221409E+00    0.1059903439E+00    0.1049900866E-01    0.2992240033E-01    0.4179208531E+00
    0.3100000000E+03    0.1666690489E+00    0.1071257933E+00    0.1067156823E-01    0.3120846193E-01    0.4225812372E+00
    0.3300000000E+03    0.1687743798E+00    0.1081547635E+00    0.1082851100E-01    0.3244975915E-01    0.4268166951E+00
    0.3500000000E+03    0.1706692074E+00    0.1090923625E+00    0.1097176993E-01    0.3365031445E-01    0.4306869149E+00
    0.3700000000E+03    0.1723795325E+00    0.1099508995E+00    0.1110296832E-01    0.3481363498E-01    0.4342405848E+00
    0.3900000000E+03    0.1739272885E+00    0.1107405127E+00    0.1122348050E-01    0.3594279558E-01    0.4375178526E+00
    0.4100000000E+03    0.1753311132E+00    0.1114696340E+00    0.1133447850E-01    0.3704050587E-01    0.4405521485E+00
    0.4300000000E+03    0.1766069485E+00    0.1121453388E+00    0.1143696846E-01    0.3810916508E-01    0.4433715557E+00
    0.4500000000E+03    0.1777685124E+00    0.1127736118E+00    0.1153181924E-01    0.3915090703E-01    0.4459998557E+00
    0.4700000000E+03    0.1788276745E+00    0.1133595522E+00    0.1161978531E-01    0.4016763740E-01    0.4484573345E+00
    0.4900000000E+03    0.1797947565E+00    0.1139075344E+00    0.1170152509E-01    0.4116106474E-01    0.4507614136E+00
    0.1000000000E+03    0.1169070819E+00    0.8234249482E-01    0.7280521429E-02    0.1413789706E-01    0.3227928518E+00
    0.3000000000E+03    0.1655279659E+00    0.1065724537E+00    0.1058737548E-01    0.3057130088E-01    0.4203084055E+00
    0.5000000000E+03    0.1802466308E+00    0.1141684916E+00    0.1174024336E-01    0.4164952628E-01    0.4518607135E+00
    0.7000000000E+03    0.1861338088E+00    0.1180877038E+00    0.1229627379E-01    0.5049851797E-01    0.4685613120E+00
    0.9000000000E+03    0.1885363758E+00    0.1205350592E+00    0.1260161039E-01    0.5811216315E-01    0.4792275862E+00
    0.1100000000E+04    0.1892791834E+00    0.1222297965E+00    0.1277907082E-01    0.6493064202E-01    0.4867674294E+00
    0.1300000000E+04    0.1891393458E+00    0.1234825767E+00    0.1288309128E-01    0.7118796952E-01    0.4924491212E+00
    0.1500000000E+04    0.1884960807E+00    0.1244514147E+00    0.1294138447E-01    0.7702397664E-01    0.4969235387E+00
    0.1700000000E+04    0.1875525075E+00    0.1252258914E+00    0.1296948285E-01    0.8252929145E-01    0.5005627589E+00
    0.1900000000E+04    0.1864250305E+00    0.1258608943E+00    0.1297673414E-01    0.8776626812E-01    0.5035965603E+00
    0.2100000000E+04    0.1851838383E+00    0.1263920824E+00    0.1296908177E-01    0.9277981271E-01    0.5061753477E+00
    0.2300000000E+04    0.1838729373E+00    0.1268437086E+00    0.1295047393E-01    0.9760345071E-01    0.5084021550E+00
    0.2500000000E+04    0.1825207662E+00    0.1272328881E+00    0.1292362888E-01    0.1022629489E+00    0.5103501969E+00
    0.2700000000E+04    0.1811461364E+00    0.1275720706E+00    0.1289047468E-01    0.1067785898E+00    0.5120730886E+00
    0.2900000000E+04    0.1797617110E+00    0.1278705454E+00    0.1285241375E-01    0.1111666614E+00    0.5136110949E+00
    0.3100000000E+04    0.1783761203E+00    0.1281353950E+00    0.1281048846E-01    0.1154404673E+00    0.5149951090E+00
    0.3300000000E+04    0.1769952893E+00    0.1283721205E+00    0.1276548817E-01    0.1196110327E+00    0.5162492749E+00
    0.3500000000E+04    0.1756232946E+00    0.1285850646E+00    0.1271802051E-01    0.1236876103E+00    0.5173927664E+00
    0.3700000000E+04    0.1742629299E+00    0.1287777044E+00    0.1266856003E-01    0.1276780516E+00    0.5184410263E+00
    0.3900000000E+04    0.1729160869E+00    0.1289528595E+00    0.1261748213E-01    0.1315890837E+00    0.5194066483E+00
    0.4100000000E+04    0.1715840171E+00    0.1291128415E+00    0.1256508719E-01    0.1354265207E+00    0.5203000172E+00
    0.4300000000E+04    0.1702675133E+00    0.1292595653E+00    0.1251161809E-01    0.1391954265E+00    0.5211297818E+00
    0.4500000000E+04    0.1689670385E+00    0.1293946315E+00    0.1245727303E-01    0.1429002420E+00    0.5219032106E+00
    0.4700000000E+04    0.1676828177E+00    0.1295193886E+00    0.1240221514E-01    0.1465448865E+00    0.5226264614E+00
    0.4900000000E+04    0.1664149036E+00    0.1296349819E+00    0.1234657976E-01    0.1501328387E+00    0.5233047903E+00
    0.1000000000E+04    0.1890531248E+00    0.1214518942E+00    0.1270202174E-01    0.6160315954E-01    0.4832880890E+00
    0.3000000000E+04    0.1790686394E+00    0.1280067982E+00    0.1283187986E-01    0.1133171118E+00    0.5143207078E+00
    0.5000000000E+04    0.1657870432E+00    0.1296896537E+00    0.1231858158E-01    0.1519065382E+00    0.5236285458E+00
    0.7000000000E+04    0.1540351738E+00    0.1304788709E+00    0.1174789630E-01    0.1850092910E+00    0.5285690264E+00
    0.9000000000E+04    0.1436082710E+00    0.1309359953E+00    0.1118135529E-01    0.2146120263E+00    0.5317668282E+00
    0.1100000000E+05    0.1342405382E+00    0.1312317555E+00    0.1063364138E-01    0.2415802821E+00    0.5340618923E+00
    0.1300000000E+05    0.1257444704E+00    0.1314365981E+00    0.1010945645E-01    0.2663869283E+00    0.5358167549E+00
    0.1500000000E+05    0.1179886021E+00    0.1315851103E+00    0.9610391822E-02    0.2893303834E+00    0.5372170025E+00
    0.1700000000E+05    0.1108765115E+00    0.1316963251E+00    0.9136791386E-02    0.3106201703E+00    0.5383689201E+00
    0.1900000000E+05    0.1043339400E+00    0.1317816014E+00    0.8688392364E-02    0.3304160486E+00    0.5393384511E+00
    0.2100000000E+05    0.9830118631E-01    0.1318481438E+00    0.8264591815E-02    0.3488477503E+00    0.5401690505E+00
    0.2300000000E+05    0.9272854550E-01    0.1319007437E+00    0.7864578575E-02    0.3660256060E+00    0.5408907359E+00
    0.2500000000E+05    0.8757350242E-01    0.1319427111E+00    0.7487409689E-02    0.3820465381E+00    0.5415250424E+00
    0.2700000000E+05    0.8279895213E-01    0.1319764053E+00    0.7132060566E-02    0.3969975623E+00    0.5420879072E+00
    0.2900000000E+05    0.7837203591E-01    0.1320035522E+00    0.6797460748E-02    0.4109579013E+00    0.5425914339E+00
    0.3100000000E+05    0.7426335351E-01    0.1320254427E+00    0.6482520581E-02    0.4240003053E+00    0.5430450178E+00
    0.3300000000E+05    0.7044640987E-01    0.1320430605E+00    0.6186151470E-02    0.4361919143E+00    0.5434560891E+00
    0.3500000000E+05    0.6689721063E-01    0.1320571681E+00    0.5907281233E-02    0.4475948526E+00    0.5438306189E+00
    0.3700000000E+05    0.6359395407E-01    0.1320683646E+00    0.5644865572E-02    0.4582666694E+00    0.5441734729E+00
    0.3900000000E+05    0.6051678676E-01    0.1320771274E+00    0.5397896409E-02    0.4682606870E+00    0.5444886644E+00
    0.4100000000E+05    0.5764760285E-01    0.1320838405E+00    0.5165407687E-02    0.4776262971E+00    0.5447795389E+00
    0.4300000000E+05    0.5496987394E-01    0.1320888164E+00    0.4946479135E-02    0.4864092248E+00    0.5450489116E+00
    0.4500000000E+05    0.5246850139E-01    0.1320923117E+00    0.4740238412E-02    0.4946517722E+00    0.5452991716E+00
    0.4700000000E+05    0.5012968591E-01    0.1320945387E+00    0.4545861975E-02    0.5023930482E+00    0.5455323611E+00
    0.4900000000E+05    0.4794081079E-01    0.1320956743E+00    0.4362574968E-02    0.5096691865E+00    0.5457502380E+00
    0.1000000000E+05    0.1388053504E+00    0.1310984071E+00    0.1090473993E-01    0.2283902785E+00    0.5329985166E+00
    0.3000000000E+05    0.7627963420E-01    0.1320150870E+00    0.6637601471E-02    0.4175895254E+00    0.5428239651E+00
    0.5000000000E+05    0.4689895539E-01    0.1320958802E+00    0.4274860977E-02    0.5131433589E+00    0.5458539178E+00
    0.7000000000E+05    0.3161460211E-01    0.1320686460E+00    0.2950418244E-02    0.5650242361E+00    0.5474042634E+00
    0.9000000000E+05    0.2290783517E-01    0.1320146851E+00    0.2160055534E-02    0.5955333829E+00    0.5483678799E+00
    0.1100000000E+06    0.1754016888E-01    0.1319538638E+00    0.1656841905E-02    0.6148319781E+00    0.5490380680E+00
    0.1300000000E+06    0.1401048211E-01    0.1318925579E+00    0.1318064225E-02    0.6277995900E+00    0.5495395288E+00
    0.1500000000E+06    0.1156564801E-01    0.1318330424E+00    0.1079249532E-02    0.6369496066E+00    0.5499342280E+00
    0.1700000000E+06    0.9799510167E-02    0.1317761090E+00    0.9044302081E-03    0.6436667157E+00    0.5502565076E+00
    0.1900000000E+06    0.8478968832E-02    0.1317219582E+00    0.7724116573E-03    0.6487601928E+00    0.5505270129E+00
    0.2100000000E+06    0.7462998127E-02    0.1316705456E+00    0.6700941164E-03    0.6527275322E+00    0.5507589609E+00
    0.2300000000E+06    0.6662376953E-02    0.1316217270E+00    0.5890415507E-03    0.6558880120E+00    0.5509612461E+00
    0.2500000000E+06    0.6018467901E-02    0.1315753231E+00    0.5236259147E-03    0.6584542098E+00    0.5511401013E+00
    0.2700000000E+06    0.5491452988E-02    0.1315311489E+00    0.4699761083E-03    0.6605722064E+00    0.5513000422E+00
    0.2900000000E+06    0.5053517804E-02    0.1314890268E+00    0.4253578945E-03    0.6623451729E+00    0.5514444330E+00
    0.3100000000E+06    0.4684747509E-02    0.1314487917E+00    0.3877946517E-03    0.6638477369E+00    0.5515758400E+00
    0.3300000000E+06    0.4370570709E-02    0.1314102930E+00    0.3558279148E-03    0.6651350240E+00    0.5516962610E+00
    0.3500000000E+06    0.4100119190E-02    0.1313733943E+00    0.3283618483E-03    0.6662485176E+00    0.5518072786E+00
    0.3700000000E+06    0.3865147102E-02    0.1313379728E+00    0.3045596561E-03    0.6672199551E+00    0.5519101661E+00
    0.3900000000E+06    0.3659301730E-02    0.1313039178E+00    0.2837730119E-03    0.6680739797E+00    0.5520059615E+00
    0.4100000000E+06    0.3477620946E-02    0.1312711300E+00    0.2654929994E-03    0.6688299827E+00    0.5520955214E+00
    0.4300000000E+06    0.3316180178E-02    0.1312395196E+00    0.2493153765E-03    0.6695034073E+00    0.5521795602E+00
    0.4500000000E+06    0.3171840081E-02    0.1312090056E+00    0.2349155687E-03    0.6701066881E+00    0.5522586795E+00
    0.4700000000E+06    0.3042063313E-02    0.1311795151E+00    0.2220303916E-03    0.6706499374E+00    0.5523333901E+00
    0.4900000000E+06    0.2924779566E-02    0.1311509816E+00    0.2104445070E-03    0.6711414545E+00    0.5524041293E+00
    0.1000000000E+06    0.1992527911E-01    0.1319845839E+00    0.1882114030E-02    0.6062013469E+00    0.5487297132E+00
    0.3000000000E+06    0.4861500377E-02    0.1314686831E+00    0.4057955639E-03    0.6631264334E+00    0.5515116233E+00
    0.5000000000E+06    0.2870277979E-02    0.1311370547E+00    0.2050820340E-03    0.6713700073E+00    0.5524381296E+00
    0.7000000000E+06    0.2146708764E-02    0.1308967086E+00    0.1357893751E-03    0.6744016894E+00    0.5529788742E+00
    0.9000000000E+06    0.1771952841E-02    0.1307079370E+00    0.1021657816E-03    0.6759493034E+00    0.5533556555E+00
    0.1100000000E+07    0.1539715111E-02    0.1305522930E+00    0.8264272368E-04    0.6768846950E+00    0.5536427090E+00
    0.1300000000E+07    0.1379587262E-02    0.1304197543E+00    0.6997541722E-04    0.6775112860E+00    0.5538735480E+00
    0.1500000000E+07    0.1261188662E-02    0.1303042679E+00    0.6111314623E-04    0.6779610038E+00    0.5540660364E+00
    0.1700000000E+07    0.1169263065E-02    0.1302018950E+00    0.5456685093E-04    0.6783001131E+00    0.5542307759E+00
    0.1900000000E+07    0.1095288569E-02    0.1301099272E+00    0.4952948463E-04    0.6785654576E+00    0.5543745526E+00
    0.2100000000E+07    0.1034114507E-02    0.1300264208E+00    0.4552799120E-04    0.6787791317E+00    0.5545019618E+00
    0.2300000000E+07    0.9824331271E-03    0.1299499328E+00    0.4226766903E-04    0.6789551829E+00    0.5546162539E+00
    0.2500000000E+07    0.9380156364E-03    0.1298793624E+00    0.3955575508E-04    0.6791029693E+00    0.5547198091E+00
    0.2700000000E+07    0.8993006092E-03    0.1298138502E+00    0.3726103097E-04    0.6792289659E+00    0.5548144211E+00
    0.2900000000E+07    0.8651583957E-03    0.1297527122E+00    0.3529115209E-04    0.6793377977E+00    0.5549014738E+00
    0.3100000000E+07    0.8347493673E-03    0.1296953951E+00    0.3357927587E-04    0.6794328567E+00    0.5549820564E+00
    0.3300000000E+07    0.8074349732E-03    0.1296414449E+00    0.3207583777E-04    0.6795166888E+00    0.5550570413E+00
    0.3500000000E+07    0.7827199087E-03    0.1295904841E+00    0.3074330901E-04    0.6795912424E+00    0.5551271372E+00
    0.3700000000E+07    0.7602133402E-03    0.1295421960E+00    0.2955274992E-04    0.6796580351E+00    0.5551929280E+00
    0.3900000000E+07    0.7396022050E-03    0.1294963116E+00    0.2848148185E-04    0.6797182665E+00    0.5552548999E+00
    0.4100000000E+07    0.7206323896E-03    0.1294526009E+00    0.2751147656E-04    0.6797728981E+00    0.5553134620E+00
    0.4300000000E+07    0.7030951844E-03    0.1294108655E+00    0.2662821835E-04    0.6798227098E+00    0.5553689616E+00
    0.4500000000E+07    0.6868173542E-03    0.1293709331E+00    0.2581988466E-04    0.6798683410E+00    0.5554216961E+00
    0.4700000000E+07    0.6716537385E-03    0.1293326532E+00    0.2507674603E-04    0.6799103210E+00    0.5554719222E+00
    0.4900000000E+07    0.6574816542E-03    0.1292958932E+00    0.2439071974E-04    0.6799490922E+00    0.5555198626E+00
    0.1000000000E+07    0.1643873403E-02    0.1306267263E+00    0.9124738103E-04    0.6764683688E+00    0.5535077773E+00
    0.3000000000E+07    0.8495310625E-03    0.1297236065E+00    0.3440639401E-04    0.6793868732E+00    0.5549425150E+00
    0.5000000000E+07    0.6507341670E-03    0.1292780462E+00    0.2406696361E-04    0.6799673932E+00    0.5555430375E+00
    0.7000000000E+07    0.5490318206E-03    0.1289784900E+00    0.1940387676E-04    0.6802306738E+00    0.5559230956E+00
    0.9000000000E+07    0.4844258843E-03    0.1287522137E+00    0.1664101352E-04    0.6803855453E+00    0.5562004641E+00
    0.1100000000E+08    0.4386648879E-03    0.1285702067E+00    0.1477009644E-04    0.6804894324E+00    0.5564184966E+00
    0.1300000000E+08    0.4040345965E-03    0.1284178967E+00    0.1339860560E-04    0.6805648912E+00    0.5565979251E+00
    0.1500000000E+08    0.3766310900E-03    0.1282869107E+00    0.1233901815E-04    0.6806227075E+00    0.5567502581E+00
    0.1700000000E+08    0.3542363077E-03    0.1281719886E+00    0.1148927128E-04    0.6806687364E+00    0.5568825401E+00
    0.1900000000E+08    0.3354833438E-03    0.1280696071E+00    0.1078853757E-04    0.6807064521E+00    0.5569993925E+00
    0.2100000000E+08    0.3194773546E-03    0.1279772904E+00    0.1019805394E-04    0.6807380573E+00    0.5571040094E+00
    0.2300000000E+08    0.3056044663E-03    0.1278932312E+00    0.9691812153E-05    0.6807650223E+00    0.5571986895E+00
    0.2500000000E+08    0.2934275238E-03    0.1278160697E+00    0.9251633747E-05    0.6807883689E+00    0.5572851413E+00
    0.2700000000E+08    0.2826255627E-03    0.1277447573E+00    0.8864383347E-05    0.6808088319E+00    0.5573646693E+00
