  Pressure (Pa) 2mC6-400 (mol/kg) 3mC6-400 (mol/kg) 33mC5-400 (mol/kg) 23mC5-400 (mol/kg) C7-400 (mol/kg)
    0.1000000000E+01    0.3132248878E-02    0.5171722719E-03    0.1913183013E-03    0.1864326705E-03    0.1678590059E-01
    0.3000000000E+01    0.8943296415E-02    0.1465780117E-02    0.5465464871E-03    0.5553551425E-03    0.4758793130E-01
    0.5000000000E+01    0.1423082310E-01    0.2315292715E-02    0.8701530675E-03    0.9191416305E-03    0.7518791520E-01
    0.7000000000E+01    0.1907443491E-01    0.3080728521E-02    0.1166968115E-02    0.1277932673E-02    0.1000703965E+00
    0.9000000000E+01    0.2353800094E-01    0.3774203954E-02    0.1440863647E-02    0.1631863481E-02    0.1226263619E+00
    0.1100000000E+02    0.2767335143E-01    0.4405602945E-02    0.1694979201E-02    0.1981064196E-02    0.1431748159E+00
    0.1300000000E+02    0.3152298394E-01    0.4983069225E-02    0.1931886835E-02    0.2325660130E-02    0.1619786455E+00
    0.1500000000E+02    0.3512207398E-01    0.5513373787E-02    0.2153713671E-02    0.2665771986E-02    0.1792564641E+00
    0.1700000000E+02    0.3849998925E-01    0.6002192960E-02    0.2362234135E-02    0.3001516080E-02    0.1951915752E+00
    0.1900000000E+02    0.4168144449E-01    0.6454321481E-02    0.2558940278E-02    0.3333004536E-02    0.2099388410E+00
    0.2100000000E+02    0.4468739217E-01    0.6873837622E-02    0.2745095987E-02    0.3660345481E-02    0.2236300069E+00
    0.2300000000E+02    0.4753571692E-01    0.7264232519E-02    0.2921779220E-02    0.3983643221E-02    0.2363778716E+00
    0.2500000000E+02    0.5024178196E-01    0.7628512427E-02    0.3089915235E-02    0.4302998417E-02    0.2482795844E+00
    0.2700000000E+02    0.5281886308E-01    0.7969280315E-02    0.3250302954E-02    0.4618508240E-02    0.2594192774E+00
    0.2900000000E+02    0.5527849611E-01    0.8288801492E-02    0.3403636075E-02    0.4930266529E-02    0.2698701821E+00
    0.3100000000E+02    0.5763075734E-01    0.8589056812E-02    0.3550520086E-02    0.5238363933E-02    0.2796963454E+00
    0.3300000000E+02    0.5988449142E-01    0.8871786113E-02    0.3691486095E-02    0.5542888046E-02    0.2889540318E+00
    0.3500000000E+02    0.6204749785E-01    0.9138523916E-02    0.3827002134E-02    0.5843923544E-02    0.2976928747E+00
    0.3700000000E+02    0.6412668453E-01    0.9390628958E-02    0.3957482469E-02    0.6141552300E-02    0.3059568298E+00
    0.3900000000E+02    0.6612819502E-01    0.9629308757E-02    0.4083295301E-02    0.6435853509E-02    0.3137849676E+00
    0.4100000000E+02    0.6805751446E-01    0.9855640163E-02    0.4204769182E-02    0.6726903790E-02    0.3212121369E+00
    0.4300000000E+02    0.6991955837E-01    0.1007058665E-01    0.4322198382E-02    0.7014777303E-02    0.3282695230E+00
    0.4500000000E+02    0.7171874735E-01    0.1027501289E-01    0.4435847408E-02    0.7299545840E-02    0.3349851187E+00
    0.4700000000E+02    0.7345907022E-01    0.1046969722E-01    0.4545954820E-02    0.7581278924E-02    0.3413841249E+00
    0.4900000000E+02    0.7514413772E-01    0.1065534213E-01    0.4652736468E-02    0.7860043900E-02    0.3474892923E+00
    0.1000000000E+02    0.2564385469E-01    0.4097118050E-02    0.1570221476E-02    0.1807047158E-02    0.1331339373E+00
    0.3000000000E+02    0.5646746891E-01    0.8441223447E-02    0.3477849425E-02    0.5084767297E-02    0.2748576720E+00
    0.5000000000E+02    0.7596698709E-01    0.1074497586E-01    0.4704942065E-02    0.7998333819E-02    0.3504381987E+00
    0.7000000000E+02    0.9018009389E-01    0.1218938579E-01    0.5613687706E-02    0.1062316685E-01    0.3980823395E+00
    0.9000000000E+02    0.1012824990E+00    0.1318774689E-01    0.6333996835E-02    0.1301434704E-01    0.4311859157E+00
    0.1100000000E+03    0.1103052579E+00    0.1392332117E-01    0.6927386542E-02    0.1521314400E-01    0.4556998341E+00
    0.1300000000E+03    0.1178269480E+00    0.1449026796E-01    0.7428452867E-02    0.1725116295E-01    0.4746871992E+00
    0.1500000000E+03    0.1242102197E+00    0.1494212883E-01    0.7858967051E-02    0.1915306956E-01    0.4898929027E+00
    0.1700000000E+03    0.1297001641E+00    0.1531169839E-01    0.8233714877E-02    0.2093843377E-01    0.5023876032E+00
    0.1900000000E+03    0.1344714710E+00    0.1562024042E-01    0.8563290187E-02    0.2262300956E-01    0.5128667277E+00
    0.2100000000E+03    0.1386535945E+00    0.1588217737E-01    0.8855584994E-02    0.2421964345E-01    0.5218027809E+00
    0.2300000000E+03    0.1423453401E+00    0.1610765553E-01    0.9116653940E-02    0.2573893223E-01    0.5295287465E+00
    0.2500000000E+03    0.1456238817E+00    0.1630403212E-01    0.9351249710E-02    0.2718970774E-01    0.5362864860E+00
    0.2700000000E+03    0.1485506284E+00    0.1647677945E-01    0.9563172252E-02    0.2857939983E-01    0.5422562008E+00
    0.2900000000E+03    0.1511751995E+00    0.1663005721E-01    0.9755506119E-02    0.2991431211E-01    0.5475750958E+00
    0.3100000000E+03    0.1535382089E+00    0.1676708715E-01    0.9930787277E-02    0.3119983411E-01    0.5523496140E+00
    0.3300000000E+03    0.1556732701E+00    0.1689040568E-01    0.1009112356E-01    0.3244060651E-01    0.5566636924E+00
    0.3500000000E+03    0.1576084719E+00    0.1700203859E-01    0.1023828371E-01    0.3364065123E-01    0.5605844780E+00
    0.3700000000E+03    0.1593674865E+00    0.1710362459E-01    0.1037376438E-01    0.3480347482E-01    0.5641663747E+00
    0.3900000000E+03    0.1609704162E+00    0.1719650443E-01    0.1049884153E-01    0.3593215150E-01    0.5674539649E+00
    0.4100000000E+03    0.1624344474E+00    0.1728178638E-01    0.1061461029E-01    0.3702939028E-01    0.5704841573E+00
    0.4300000000E+03    0.1637743651E+00    0.1736039498E-01    0.1072201632E-01    0.3809758977E-01    0.5732877906E+00
    0.4500000000E+03    0.1650029596E+00    0.1743310802E-01    0.1082188077E-01    0.3913888322E-01    0.5758908473E+00
    0.4700000000E+03    0.1661313531E+00    0.1750058482E-01    0.1091492033E-01    0.4015517575E-01    0.5783153867E+00
    0.4900000000E+03    0.1671692628E+00    0.1756338821E-01    0.1100176344E-01    0.4114817536E-01    0.5805802674E+00
    0.1000000000E+03    0.1060108737E+00    0.1358119055E-01    0.6643990437E-02    0.1413562883E-01    0.4442827462E+00
    0.3000000000E+03    0.1523871539E+00    0.1670043092E-01    0.9845137682E-02    0.3056294097E-01    0.5500247053E+00
    0.5000000000E+03    0.1676569925E+00    0.1759319118E-01    0.1104303692E-01    0.4163642666E-01    0.5816579963E+00
    0.7000000000E+03    0.1742656434E+00    0.1803193153E-01    0.1164805589E-01    0.5048163349E-01    0.5977928216E+00
    0.9000000000E+03    0.1773217266E+00    0.1829622944E-01    0.1199551941E-01    0.5809206967E-01    0.6078479821E+00
    0.1100000000E+04    0.1786289897E+00    0.1847392515E-01    0.1220833552E-01    0.6490769848E-01    0.6148278039E+00
    0.1300000000E+04    0.1789752849E+00    0.1860195743E-01    0.1234220947E-01    0.7116240595E-01    0.6200129269E+00
    0.1500000000E+04    0.1787537376E+00    0.1869871747E-01    0.1242601080E-01    0.7699594159E-01    0.6240490516E+00
    0.1700000000E+04    0.1781794560E+00    0.1877444508E-01    0.1247617166E-01    0.8249887902E-01    0.6273000084E+00
    0.1900000000E+04    0.1773783879E+00    0.1883531641E-01    0.1250271958E-01    0.8773353433E-01    0.6299877634E+00
    0.2100000000E+04    0.1764281886E+00    0.1888528806E-01    0.1251211276E-01    0.9274478597E-01    0.6322560880E+00
    0.2300000000E+04    0.1753787174E+00    0.1892701705E-01    0.1250869366E-01    0.9756613878E-01    0.6342025666E+00
    0.2500000000E+04    0.1742630388E+00    0.1896235662E-01    0.1249548670E-01    0.1022233437E+00    0.6358959737E+00
    0.2700000000E+04    0.1731036592E+00    0.1899264034E-01    0.1247466110E-01    0.1067366709E+00    0.6373863021E+00
    0.2900000000E+04    0.1719162262E+00    0.1901885318E-01    0.1244781183E-01    0.1111223986E+00    0.6387108455E+00
    0.3100000000E+04    0.1707118059E+00    0.1904173899E-01    0.1241613684E-01    0.1153938224E+00    0.6398980428E+00
    0.3300000000E+04    0.1694983319E+00    0.1906187037E-01    0.1238055273E-01    0.1195619610E+00    0.6409699951E+00
    0.3500000000E+04    0.1682815527E+00    0.1907969542E-01    0.1234177221E-01    0.1236360620E+00    0.6419441629E+00
    0.3700000000E+04    0.1670656654E+00    0.1909557002E-01    0.1230035747E-01    0.1276239722E+00    0.6428345413E+00
    0.3900000000E+04    0.1658537498E+00    0.1910978046E-01    0.1225675765E-01    0.1315324153E+00    0.6436524923E+00
    0.4100000000E+04    0.1646480698E+00    0.1912255969E-01    0.1221133562E-01    0.1353672023E+00    0.6444073454E+00
    0.4300000000E+04    0.1634502876E+00    0.1913409926E-01    0.1216438765E-01    0.1391333944E+00    0.6451068403E+00
    0.4500000000E+04    0.1622616171E+00    0.1914455814E-01    0.1211615784E-01    0.1428354305E+00    0.6457574568E+00
    0.4700000000E+04    0.1610829355E+00    0.1915406935E-01    0.1206684903E-01    0.1464772281E+00    0.6463646659E+00
    0.4900000000E+04    0.1599148653E+00    0.1916274512E-01    0.1201663108E-01    0.1500622645E+00    0.6469331217E+00
    0.1000000000E+04    0.1781313677E+00    0.1839295792E-01    0.1211437780E-01    0.6158160567E-01    0.6116205775E+00
    0.3000000000E+04    0.1713155832E+00    0.1903067280E-01    0.1243251472E-01    0.1132716632E+00    0.6393201055E+00
    0.5000000000E+04    0.1593349499E+00    0.1916680006E-01    0.1199122684E-01    0.1518344798E+00    0.6472040857E+00
    0.7000000000E+04    0.1483373798E+00    0.1922105753E-01    0.1146067429E-01    0.1849037465E+00    0.6513121329E+00
    0.9000000000E+04    0.1384207765E+00    0.1924730098E-01    0.1092051025E-01    0.2144657526E+00    0.6539464179E+00
    0.1100000000E+05    0.1294304957E+00    0.1926091654E-01    0.1039189140E-01    0.2413865573E+00    0.6558261419E+00
    0.1300000000E+05    0.1212305789E+00    0.1926792404E-01    0.9882464381E-02    0.2661399085E+00    0.6572570388E+00
    0.1500000000E+05    0.1137170351E+00    0.1927113635E-01    0.9395363987E-02    0.2890252543E+00    0.6583940089E+00
    0.1700000000E+05    0.1068095106E+00    0.1927202887E-01    0.8931821658E-02    0.3102531890E+00    0.6593251506E+00
    0.1900000000E+05    0.1004437896E+00    0.1927144107E-01    0.8492119147E-02    0.3299845170E+00    0.6601048901E+00
    0.2100000000E+05    0.9456677166E-01    0.1926988030E-01    0.8076003926E-02    0.3483499456E+00    0.6607690191E+00
    0.2300000000E+05    0.8913326877E-01    0.1926766769E-01    0.7682898813E-02    0.3654606864E+00    0.6613422562E+00
    0.2500000000E+05    0.8410396119E-01    0.1926501402E-01    0.7312021871E-02    0.3814144344E+00    0.6618423587E+00
    0.2700000000E+05    0.7944407110E-01    0.1926206169E-01    0.6962462254E-02    0.3962988661E+00    0.6622825018E+00
    0.2900000000E+05    0.7512247902E-01    0.1925890918E-01    0.6633231789E-02    0.4101937552E+00    0.6626727265E+00
    0.3100000000E+05    0.7111111572E-01    0.1925562585E-01    0.6323301733E-02    0.4231722994E+00    0.6630208601E+00
    0.3300000000E+05    0.6738452738E-01    0.1925226132E-01    0.6031629616E-02    0.4353019913E+00    0.6633331210E+00
    0.3500000000E+05    0.6391955103E-01    0.1924885148E-01    0.5757178996E-02    0.4466452243E+00    0.6636145303E+00
    0.3700000000E+05    0.6069506137E-01    0.1924542254E-01    0.5498933912E-02    0.4572597425E+00    0.6638691992E+00
    0.3900000000E+05    0.5769176508E-01    0.1924199370E-01    0.5255909274E-02    0.4671990005E+00    0.6641005343E+00
    0.4100000000E+05    0.5489202739E-01    0.1923857912E-01    0.5027158090E-02    0.4765124693E+00    0.6643113875E+00
    0.4300000000E+05    0.5227972173E-01    0.1923518919E-01    0.4811776228E-02    0.4852459093E+00    0.6645041682E+00
    0.4500000000E+05    0.4984009661E-01    0.1923183154E-01    0.4608905273E-02    0.4934416219E+00    0.6646809280E+00
    0.4700000000E+05    0.4755965586E-01    0.1922851170E-01    0.4417733893E-02    0.5011386868E+00    0.6648434262E+00
    0.4900000000E+05    0.4542604998E-01    0.1922523361E-01    0.4237498101E-02    0.5083731862E+00    0.6649931804E+00
    0.1000000000E+05    0.1338191654E+00    0.1925519894E-01    0.1065412175E-01    0.2282210699E+00    0.6549563300E+00
    0.3000000000E+05    0.7307966670E-01    0.1925728038E-01    0.6475919303E-02    0.4167932265E+00    0.6628516339E+00
    0.5000000000E+05    0.4441073987E-01    0.1922361113E-01    0.4151255119E-02    0.5118274828E+00    0.6650636969E+00
    0.7000000000E+05    0.2954050121E-01    0.1919364424E-01    0.2850129474E-02    0.5634243246E+00    0.6660480787E+00
    0.9000000000E+05    0.2110296322E-01    0.1916806177E-01    0.2075093821E-02    0.5938014829E+00    0.6665746738E+00
    0.1100000000E+06    0.1592398217E-01    0.1914596667E-01    0.1582536612E-02    0.6130499866E+00    0.6668913317E+00
    0.1300000000E+06    0.1253434697E-01    0.1912657855E-01    0.1251544542E-02    0.6260101111E+00    0.6670982265E+00
    0.1500000000E+06    0.1019816910E-01    0.1910932336E-01    0.1018659790E-02    0.6351746502E+00    0.6672420262E+00
    0.1700000000E+06    0.8519276012E-02    0.1909378323E-01    0.8485138438E-03    0.6419174640E+00    0.6673468429E+00
    0.1900000000E+06    0.7270704982E-02    0.1907964893E-01    0.7202824223E-03    0.6470420269E+00    0.6674261701E+00
    0.2100000000E+06    0.6315398273E-02    0.1906668671E-01    0.6211047201E-03    0.6510426691E+00    0.6674880545E+00
    0.2300000000E+06    0.5566812857E-02    0.1905471610E-01    0.5427049374E-03    0.6542369250E+00    0.6675375493E+00
    0.2500000000E+06    0.4968185550E-02    0.1904359514E-01    0.4795661635E-03    0.6568364140E+00    0.6675779665E+00
    0.2700000000E+06    0.4481051207E-02    0.1903321024E-01    0.4278966862E-03    0.6589867028E+00    0.6676115566E+00
    0.2900000000E+06    0.4078598110E-02    0.1902346914E-01    0.3850204596E-03    0.6607907036E+00    0.6676398962E+00
    0.3100000000E+06    0.3741671750E-02    0.1901429592E-01    0.3490044899E-03    0.6623229326E+00    0.6676641194E+00
    0.3300000000E+06    0.3456288828E-02    0.1900562737E-01    0.3184236782E-03    0.6636384902E+00    0.6676850606E+00
    0.3500000000E+06    0.3212043960E-02    0.1899741028E-01    0.2922081592E-03    0.6647788832E+00    0.6677033463E+00
    0.3700000000E+06    0.3001061133E-02    0.1898959946E-01    0.2695416682E-03    0.6657759000E+00    0.6677194553E+00
    0.3900000000E+06    0.2817287184E-02    0.1898215623E-01    0.2497923378E-03    0.6666542488E+00    0.6677337594E+00
    0.4100000000E+06    0.2656005541E-02    0.1897504718E-01    0.2324646115E-03    0.6674333917E+00    0.6677465510E+00
    0.4300000000E+06    0.2513495105E-02    0.1896824326E-01    0.2171652136E-03    0.6681288446E+00    0.6677580634E+00
    0.4500000000E+06    0.2386786772E-02    0.1896171911E-01    0.2035786634E-03    0.6687531131E+00    0.6677684848E+00
    0.4700000000E+06    0.2273486889E-02    0.1895545237E-01    0.1914493870E-03    0.6693163777E+00    0.6677779683E+00
    0.4900000000E+06    0.2171647399E-02    0.1894942329E-01    0.1805684689E-03    0.6698270018E+00    0.6677866401E+00
    0.1000000000E+06    0.1822234743E-01    0.1915663231E-01    0.1802927298E-02    0.6044371995E+00    0.6667511299E+00
    0.3000000000E+06    0.3902917266E-02    0.1901881576E-01    0.3662538179E-03    0.6615869707E+00    0.6676524645E+00
    0.5000000000E+06    0.2124514036E-02    0.1894649232E-01    0.1755411181E-03    0.6700647866E+00    0.6677907049E+00
    0.7000000000E+06    0.1513132778E-02    0.1889695898E-01    0.1112568340E-03    0.6732458280E+00    0.6678473860E+00
    0.9000000000E+06    0.1210674545E-02    0.1885918044E-01    0.8077011663E-04    0.6748977955E+00    0.6678796677E+00
    0.1100000000E+07    0.1030086425E-02    0.1882860787E-01    0.6344594978E-04    0.6759112988E+00    0.6679013776E+00
    0.1300000000E+07    0.9092699629E-03    0.1880291503E-01    0.5242901205E-04    0.6765992404E+00    0.6679174952E+00
    0.1500000000E+07    0.8221079628E-03    0.1878074955E-01    0.4486376577E-04    0.6770988512E+00    0.6679302558E+00
    0.1700000000E+07    0.7557898672E-03    0.1876125469E-01    0.3937119188E-04    0.6774796129E+00    0.6679408169E+00
    0.1900000000E+07    0.7033117262E-03    0.1874385299E-01    0.3521162723E-04    0.6777804460E+00    0.6679498415E+00
    0.2100000000E+07    0.6605220903E-03    0.1872813655E-01    0.3195588954E-04    0.6780248535E+00    0.6679577385E+00
    0.2300000000E+07    0.6248017020E-03    0.1871380642E-01    0.2933923281E-04    0.6782278762E+00    0.6679647759E+00
    0.2500000000E+07    0.5944138289E-03    0.1870063695E-01    0.2719013640E-04    0.6783995958E+00    0.6679711372E+00
    0.2700000000E+07    0.5681594069E-03    0.1868845354E-01    0.2539291906E-04    0.6785470290E+00    0.6679769531E+00
    0.2900000000E+07    0.5451823891E-03    0.1867711833E-01    0.2386689720E-04    0.6786752151E+00    0.6679823199E+00
    0.3100000000E+07    0.5248541561E-03    0.1866652054E-01    0.2255417314E-04    0.6787878698E+00    0.6679873100E+00
    0.3300000000E+07    0.5067018797E-03    0.1865656983E-01    0.2141217339E-04    0.6788877955E+00    0.6679919795E+00
    0.3500000000E+07    0.4903624833E-03    0.1864719151E-01    0.2040892250E-04    0.6789771475E+00    0.6679963728E+00
    0.3700000000E+07    0.4755521070E-03    0.1863832315E-01    0.1951995517E-04    0.6790576120E+00    0.6680005251E+00
    0.3900000000E+07    0.4620452966E-03    0.1862991203E-01    0.1872624332E-04    0.6791305278E+00    0.6680044653E+00
    0.4100000000E+07    0.4496604732E-03    0.1862191320E-01    0.1801277061E-04    0.6791969725E+00    0.6680082172E+00
    0.4300000000E+07    0.4382495708E-03    0.1861428806E-01    0.1736753118E-04    0.6792578236E+00    0.6680118007E+00
    0.4500000000E+07    0.4276905044E-03    0.1860700318E-01    0.1678081294E-04    0.6793138033E+00    0.6680152324E+00
    0.4700000000E+07    0.4178816015E-03    0.1860002945E-01    0.1624467553E-04    0.6793655119E+00    0.6680185268E+00
    0.4900000000E+07    0.4087374217E-03    0.1859334132E-01    0.1575256425E-04    0.6794134526E+00    0.6680216959E+00
    0.1000000000E+07    0.1110343797E-02    0.1884317032E-01    0.7103738789E-04    0.6754584689E+00    0.6678914347E+00
    0.3000000000E+07    0.5347197438E-03    0.1867173332E-01    0.2318682755E-04    0.6787332910E+00    0.6679848582E+00
    0.5000000000E+07    0.4043915424E-03    0.1859009722E-01    0.1552127616E-04    0.6794361455E+00    0.6680232368E+00
    0.7000000000E+07    0.3394512287E-03    0.1853591809E-01    0.1226038576E-04    0.6797676795E+00    0.6680494507E+00
    0.9000000000E+07    0.2986843704E-03    0.1849529634E-01    0.1039250344E-04    0.6799679354E+00    0.6680698658E+00
    0.1100000000E+08    0.2700001565E-03    0.1846278617E-01    0.9155027260E-05    0.6801049493E+00    0.6680867733E+00
    0.1300000000E+08    0.2483845161E-03    0.1843568150E-01    0.8261629504E-05    0.6802060380E+00    0.6681012913E+00
    0.1500000000E+08    0.2313295206E-03    0.1841243914E-01    0.7579104956E-05    0.6802844924E+00    0.6681140604E+00
    0.1700000000E+08    0.2174214694E-03    0.1839209507E-01    0.7036415678E-05    0.6803476309E+00    0.6681254860E+00
    0.1900000000E+08    0.2057940774E-03    0.1837400652E-01    0.6591900905E-05    0.6803998496E+00    0.6681358430E+00
    0.2100000000E+08    0.1958826395E-03    0.1835772340E-01    0.6219355821E-05    0.6804439652E+00    0.6681453270E+00
    0.2300000000E+08    0.1873010389E-03    0.1834291818E-01    0.5901386545E-05    0.6804818754E+00    0.6681540830E+00
    0.2500000000E+08    0.1797750352E-03    0.1832934512E-01    0.5625944913E-05    0.6805149103E+00    0.6681622217E+00
    0.2700000000E+08    0.1731037107E-03    0.1831681506E-01    0.5384391756E-05    0.6805440334E+00    0.6681698294E+00
