  Pressure (Pa) 2mC6-400 (mol/kg) 3mC6-400 (mol/kg) 33mC5-400 (mol/kg) 23mC5-400 (mol/kg) C7-400 (mol/kg)
    0.1000000000E+01    0.3153042018E-02    0.1564619021E-02    0.1283804849E-03    0.4659217801E-03    0.1015617291E-01
    0.3000000000E+01    0.9110944917E-02    0.4504132699E-02    0.3710897533E-03    0.1386975626E-02    0.2924267415E-01
    0.5000000000E+01    0.1465010271E-01    0.7215861338E-02    0.5969057097E-03    0.2294003590E-02    0.4685717789E-01
    0.7000000000E+01    0.1981767331E-01    0.9725947945E-02    0.8077370847E-03    0.3187422499E-02    0.6316837332E-01
    0.9000000000E+01    0.2465375432E-01    0.1205665807E-01    0.1005206017E-02    0.4067632130E-02    0.7831994890E-01
    0.1100000000E+02    0.2919266424E-01    0.1422707425E-01    0.1190700153E-02    0.4935016078E-02    0.9243506790E-01
    0.1300000000E+02    0.3346395466E-01    0.1625364631E-01    0.1365413796E-02    0.5789942586E-02    0.1056199151E+00
    0.1500000000E+02    0.3749321714E-01    0.1815063122E-01    0.1530380695E-02    0.6632765316E-02    0.1179665322E+00
    0.1700000000E+02    0.4130273146E-01    0.1993044754E-01    0.1686500386E-02    0.7463824072E-02    0.1295551027E+00
    0.1900000000E+02    0.4491199066E-01    0.2160396327E-01    0.1834559515E-02    0.8283445486E-02    0.1404558072E+00
    0.2100000000E+02    0.4833812905E-01    0.2318073114E-01    0.1975249216E-02    0.9091943662E-02    0.1507303413E+00
    0.2300000000E+02    0.5159627366E-01    0.2466918234E-01    0.2109179378E-02    0.9889620776E-02    0.1604331636E+00
    0.2500000000E+02    0.5469983451E-01    0.2607678689E-01    0.2236890420E-02    0.1067676765E-01    0.1696125309E+00
    0.2700000000E+02    0.5766074577E-01    0.2741018731E-01    0.2358863078E-02    0.1145366429E-01    0.1783113594E+00
    0.2900000000E+02    0.6048966728E-01    0.2867531043E-01    0.2475526573E-02    0.1222058039E-01    0.1865679466E+00
    0.3100000000E+02    0.6319615375E-01    0.2987746168E-01    0.2587265470E-02    0.1297777581E-01    0.1944165787E+00
    0.3300000000E+02    0.6578879762E-01    0.3102140470E-01    0.2694425468E-02    0.1372550104E-01    0.2018880445E+00
    0.3500000000E+02    0.6827535014E-01    0.3211142906E-01    0.2797318303E-02    0.1446399759E-01    0.2090100725E+00
    0.3700000000E+02    0.7066282455E-01    0.3315140808E-01    0.2896225930E-02    0.1519349845E-01    0.2158077034E+00
    0.3900000000E+02    0.7295758425E-01    0.3414484831E-01    0.2991404085E-02    0.1591422843E-01    0.2223036097E+00
    0.4100000000E+02    0.7516541859E-01    0.3509493212E-01    0.3083085361E-02    0.1662640454E-01    0.2285183704E+00
    0.4300000000E+02    0.7729160819E-01    0.3600455455E-01    0.3171481840E-02    0.1733023629E-01    0.2344707088E+00
    0.4500000000E+02    0.7934098138E-01    0.3687635513E-01    0.3256787385E-02    0.1802592611E-01    0.2401776978E+00
    0.4700000000E+02    0.8131796333E-01    0.3771274560E-01    0.3339179618E-02    0.1871366955E-01    0.2456549391E+00
    0.4900000000E+02    0.8322661869E-01    0.3851593413E-01    0.3418821649E-02    0.1939365563E-01    0.2509167189E+00
    0.1000000000E+02    0.2695840730E-01    0.1316081871E-01    0.1099371179E-02    0.4502903948E-02    0.8550006724E-01
    0.3000000000E+02    0.6185765682E-01    0.2928394796E-01    0.2531989140E-02    0.1260037732E-01    0.1905412562E+00
    0.5000000000E+02    0.8415650482E-01    0.3890571731E-01    0.3457658717E-02    0.1973079701E-01    0.2534709496E+00
    0.7000000000E+02    0.9993538299E-01    0.4537096271E-01    0.4120823964E-02    0.2610778564E-01    0.2959148513E+00
    0.9000000000E+02    0.1117750149E+00    0.5005299673E-01    0.4624949893E-02    0.3188401830E-01    0.3267636373E+00
    0.1100000000E+03    0.1209971155E+00    0.5362288146E-01    0.5022971818E-02    0.3717179664E-01    0.3503672496E+00
    0.1300000000E+03    0.1283668054E+00    0.5644894216E-01    0.5345544590E-02    0.4205576375E-01    0.3691162416E+00
    0.1500000000E+03    0.1343661703E+00    0.5875095615E-01    0.5612010225E-02    0.4660106479E-01    0.3844388134E+00
    0.1700000000E+03    0.1393181459E+00    0.6066860458E-01    0.5835352898E-02    0.5085875665E-01    0.3972437831E+00
    0.1900000000E+03    0.1434492158E+00    0.6229515826E-01    0.6024702603E-02    0.5486949568E-01    0.4081387430E+00
    0.2100000000E+03    0.1469239549E+00    0.6369542287E-01    0.6186713277E-02    0.5866611379E-01    0.4175463623E+00
    0.2300000000E+03    0.1498653693E+00    0.6491592158E-01    0.6326374029E-02    0.6227545721E-01    0.4257704309E+00
    0.2500000000E+03    0.1523675263E+00    0.6599097835E-01    0.6447513008E-02    0.6571972431E-01    0.4330353421E+00
    0.2700000000E+03    0.1545037436E+00    0.6694651125E-01    0.6553124279E-02    0.6901745572E-01    0.4395107330E+00
    0.2900000000E+03    0.1563320908E+00    0.6780248531E-01    0.6645587674E-02    0.7218427851E-01    0.4453274269E+00
    0.3100000000E+03    0.1578991979E+00    0.6857454861E-01    0.6726821144E-02    0.7523347345E-01    0.4505880764E+00
    0.3300000000E+03    0.1592429588E+00    0.6927515336E-01    0.6798389076E-02    0.7817641274E-01    0.4553744605E+00
    0.3500000000E+03    0.1603944927E+00    0.6991434249E-01    0.6861580997E-02    0.8102290190E-01    0.4597526083E+00
    0.3700000000E+03    0.1613795940E+00    0.7050031305E-01    0.6917469847E-02    0.8378144952E-01    0.4637764725E+00
    0.3900000000E+03    0.1622198215E+00    0.7103982746E-01    0.6966955852E-02    0.8645948227E-01    0.4674906109E+00
    0.4100000000E+03    0.1629333295E+00    0.7153851858E-01    0.7010800030E-02    0.8906351771E-01    0.4709321785E+00
    0.4300000000E+03    0.1635355090E+00    0.7200111946E-01    0.7049650127E-02    0.9159930454E-01    0.4741324282E+00
    0.4500000000E+03    0.1640394891E+00    0.7243163876E-01    0.7084060914E-02    0.9407193702E-01    0.4771178575E+00
    0.4700000000E+03    0.1644565329E+00    0.7283349628E-01    0.7114510255E-02    0.9648594931E-01    0.4799110948E+00
    0.4900000000E+03    0.1647963531E+00    0.7320962891E-01    0.7141411927E-02    0.9884539353E-01    0.4825315931E+00
    0.1000000000E+03    0.1166566783E+00    0.5194926915E-01    0.4834957729E-02    0.3458313819E-01    0.3392914486E+00
    0.3000000000E+03    0.1571457522E+00    0.6819816316E-01    0.6687503129E-02    0.7372282838E-01    0.4480217254E+00
    0.5000000000E+03    0.1649399790E+00    0.7338885507E-01    0.7153646756E-02    0.1000058034E+00    0.4837824132E+00
    0.7000000000E+03    0.1653058173E+00    0.7608932462E-01    0.7278846728E-02    0.1210621992E+00    0.5028289702E+00
    0.9000000000E+03    0.1631199954E+00    0.7778476921E-01    0.7274565717E-02    0.1392226191E+00    0.5150362727E+00
    0.1100000000E+04    0.1599150932E+00    0.7896352226E-01    0.7210781163E-02    0.1554977327E+00    0.5236842969E+00
    0.1300000000E+04    0.1562931232E+00    0.7983762648E-01    0.7116699662E-02    0.1704174878E+00    0.5302101287E+00
    0.1500000000E+04    0.1525232802E+00    0.8051536794E-01    0.7006374545E-02    0.1842953952E+00    0.5353537355E+00
    0.1700000000E+04    0.1487358987E+00    0.8105833416E-01    0.6887256473E-02    0.1973331425E+00    0.5395392258E+00
    0.1900000000E+04    0.1449969975E+00    0.8150436302E-01    0.6763582335E-02    0.2096687627E+00    0.5430290647E+00
    0.2100000000E+04    0.1413405096E+00    0.8187809411E-01    0.6637890866E-02    0.2214013507E+00    0.5459953559E+00
    0.2300000000E+04    0.1377834774E+00    0.8219631991E-01    0.6511764630E-02    0.2326048217E+00    0.5485561754E+00
    0.2500000000E+04    0.1343337048E+00    0.8247091203E-01    0.6386219757E-02    0.2433360760E+00    0.5507955352E+00
    0.2700000000E+04    0.1309938147E+00    0.8271052012E-01    0.6261922611E-02    0.2536400963E+00    0.5527750279E+00
    0.2900000000E+04    0.1277634870E+00    0.8292160744E-01    0.6139315960E-02    0.2635532665E+00    0.5545409556E+00
    0.3100000000E+04    0.1246407336E+00    0.8310910837E-01    0.6018695395E-02    0.2731056093E+00    0.5561288761E+00
    0.3300000000E+04    0.1216226419E+00    0.8327686034E-01    0.5900257161E-02    0.2823223390E+00    0.5575666018E+00
    0.3500000000E+04    0.1187058148E+00    0.8342789604E-01    0.5784128988E-02    0.2912249663E+00    0.5588762365E+00
    0.3700000000E+04    0.1158866350E+00    0.8356464629E-01    0.5670390453E-02    0.2998321021E+00    0.5600755953E+00
    0.3900000000E+04    0.1131614235E+00    0.8368908402E-01    0.5559086746E-02    0.3081600520E+00    0.5611792162E+00
    0.4100000000E+04    0.1105265338E+00    0.8380282843E-01    0.5450238155E-02    0.3162232652E+00    0.5621990944E+00
    0.4300000000E+04    0.1079784071E+00    0.8390722182E-01    0.5343846728E-02    0.3240346760E+00    0.5631452263E+00
    0.4500000000E+04    0.1055136034E+00    0.8400338701E-01    0.5239901025E-02    0.3316059686E+00    0.5640260173E+00
    0.4700000000E+04    0.1031288165E+00    0.8409227094E-01    0.5138379564E-02    0.3389477844E+00    0.5648485926E+00
    0.4900000000E+04    0.1008208810E+00    0.8417467822E-01    0.5039253351E-02    0.3460698855E+00    0.5656190372E+00
    0.1000000000E+04    0.1615957328E+00    0.7842195403E-01    0.7247766526E-02    0.1475557616E+00    0.5196917473E+00
    0.3000000000E+04    0.1261888301E+00    0.8301804461E-01    0.6078743248E-02    0.2683728674E+00    0.5553552745E+00
    0.5000000000E+04    0.9969478201E-01    0.8421367218E-01    0.4990577823E-02    0.3495513859E+00    0.5659863746E+00
    0.7000000000E+04    0.8054367777E-01    0.8477803196E-01    0.4132674540E-02    0.4095398828E+00    0.5715513374E+00
    0.9000000000E+04    0.6639168699E-01    0.8510646913E-01    0.3463056797E-02    0.4550137638E+00    0.5750943427E+00
    0.1100000000E+05    0.5572852769E-01    0.8531982893E-01    0.2938369148E-02    0.4900526388E+00    0.5775943865E+00
    0.1300000000E+05    0.4754802069E-01    0.8546815599E-01    0.2523642064E-02    0.5174547496E+00    0.5794753974E+00
    0.1500000000E+05    0.4116429579E-01    0.8557608911E-01    0.2192262202E-02    0.5391953961E+00    0.5809545755E+00
    0.1700000000E+05    0.3610229686E-01    0.8565721778E-01    0.1924402039E-02    0.5566850869E+00    0.5821560730E+00
    0.1900000000E+05    0.3202815354E-01    0.8571966810E-01    0.1705375839E-02    0.5709407825E+00    0.5831565616E+00
    0.2100000000E+05    0.2870376168E-01    0.8576860300E-01    0.1524282623E-02    0.5827035437E+00    0.5840062109E+00
    0.2300000000E+05    0.2595679321E-01    0.8580746152E-01    0.1372977760E-02    0.5925197166E+00    0.5847393630E+00
    0.2500000000E+05    0.2366069587E-01    0.8583862291E-01    0.1245322005E-02    0.6007970345E+00    0.5853803939E+00
    0.2700000000E+05    0.2172121125E-01    0.8586378522E-01    0.1136641473E-02    0.6078435410E+00    0.5859471299E+00
    0.2900000000E+05    0.2006717850E-01    0.8588419224E-01    0.1043340871E-02    0.6138947800E+00    0.5864529390E+00
    0.3100000000E+05    0.1864418198E-01    0.8590077531E-01    0.9626258687E-03    0.6191329578E+00    0.5869080617E+00
    0.3300000000E+05    0.1741010615E-01    0.8591424511E-01    0.8923026833E-03    0.6237005865E+00    0.5873204893E+00
    0.3500000000E+05    0.1633198480E-01    0.8592515296E-01    0.8306322580E-03    0.6277103017E+00    0.5876965586E+00
    0.3700000000E+05    0.1538373922E-01    0.8593393270E-01    0.7762232428E-03    0.6312520053E+00    0.5880413665E+00
    0.3900000000E+05    0.1454453456E-01    0.8594093011E-01    0.7279527148E-03    0.6343981198E+00    0.5883590638E+00
    0.4100000000E+05    0.1379757127E-01    0.8594642392E-01    0.6849068950E-03    0.6372074934E+00    0.5886530695E+00
    0.4300000000E+05    0.1312918640E-01    0.8595064107E-01    0.6463364040E-03    0.6397283340E+00    0.5889262281E+00
    0.4500000000E+05    0.1252817829E-01    0.8595376803E-01    0.6116221819E-03    0.6420004337E+00    0.5891809275E+00
    0.4700000000E+05    0.1198529382E-01    0.8595595927E-01    0.5802493026E-03    0.6440568725E+00    0.5894191893E+00
    0.4900000000E+05    0.1149283544E-01    0.8595734373E-01    0.5517866818E-03    0.6459253349E+00    0.5896427377E+00
    0.1000000000E+05    0.6069605861E-01    0.8522353119E-01    0.3184992494E-02    0.4736395200E+00    0.5764412092E+00
    0.3000000000E+05    0.1932967914E-01    0.8589291301E-01    0.1001559425E-02    0.6166057946E+00    0.5866862920E+00
    0.5000000000E+05    0.1126345966E-01    0.8595776797E-01    0.5385309564E-03    0.6467965080E+00    0.5897494654E+00
    0.7000000000E+05    0.8202044949E-02    0.8594285053E-01    0.3624947187E-03    0.6584432926E+00    0.5913813932E+00
    0.9000000000E+05    0.6627095291E-02    0.8590759245E-01    0.2739142096E-03    0.6643794233E+00    0.5924421312E+00
    0.1100000000E+06    0.5668002588E-02    0.8586670907E-01    0.2216147619E-03    0.6679160110E+00    0.5932065321E+00
    0.1300000000E+06    0.5018994788E-02    0.8582500914E-01    0.1873993423E-03    0.6702424823E+00    0.5937934672E+00
    0.1500000000E+06    0.4547385178E-02    0.8578425939E-01    0.1633644374E-03    0.6718809303E+00    0.5942639494E+00
    0.1700000000E+06    0.4186804014E-02    0.8574511202E-01    0.1455792834E-03    0.6730935957E+00    0.5946529971E+00
    0.1900000000E+06    0.3900482407E-02    0.8570776716E-01    0.1318875244E-03    0.6740256211E+00    0.5949823653E+00
    0.2100000000E+06    0.3666420789E-02    0.8567223213E-01    0.1210149064E-03    0.6747634445E+00    0.5952663928E+00
    0.2300000000E+06    0.3470642422E-02    0.8563843200E-01    0.1121631890E-03    0.6753615770E+00    0.5955149753E+00
    0.2500000000E+06    0.3303830727E-02    0.8560625956E-01    0.1048082490E-03    0.6758560146E+00    0.5957351982E+00
    0.2700000000E+06    0.3159526788E-02    0.8557559849E-01    0.9859236932E-04    0.6762714413E+00    0.5959322902E+00
    0.2900000000E+06    0.3033104181E-02    0.8554633412E-01    0.9326336598E-04    0.6766253271E+00    0.5961102078E+00
    0.3100000000E+06    0.2921156490E-02    0.8551835833E-01    0.8863849381E-04    0.6769303713E+00    0.5962720094E+00
    0.3300000000E+06    0.2821115856E-02    0.8549157132E-01    0.8458215684E-04    0.6771960199E+00    0.5964201029E+00
    0.3500000000E+06    0.2731006820E-02    0.8546588211E-01    0.8099165523E-04    0.6774294402E+00    0.5965564141E+00
    0.3700000000E+06    0.2649282518E-02    0.8544120823E-01    0.7778779137E-04    0.6776361665E+00    0.5966825053E+00
    0.3900000000E+06    0.2574712715E-02    0.8541747511E-01    0.7490851259E-04    0.6778205383E+00    0.5967996589E+00
    0.4100000000E+06    0.2506305443E-02    0.8539461540E-01    0.7230450692E-04    0.6779860052E+00    0.5969089397E+00
    0.4300000000E+06    0.2443250997E-02    0.8537256823E-01    0.6993608791E-04    0.6781353435E+00    0.5970112400E+00
    0.4500000000E+06    0.2384881157E-02    0.8535127854E-01    0.6777094985E-04    0.6782708118E+00    0.5971073146E+00
    0.4700000000E+06    0.2330638986E-02    0.8533069643E-01    0.6578252267E-04    0.6783942667E+00    0.5971978067E+00
    0.4900000000E+06    0.2280056135E-02    0.8531077659E-01    0.6394874810E-04    0.6785072477E+00    0.5972832689E+00
    0.1000000000E+06    0.6095921036E-02    0.8588744281E-01    0.2447366492E-03    0.6663494028E+00    0.5928519749E+00
    0.3000000000E+06    0.2975497731E-02    0.8553219159E-01    0.9087229670E-04    0.6767833012E+00    0.5961929597E+00
    0.5000000000E+06    0.2256010474E-02    0.8530105198E-01    0.6308396407E-04    0.6785602212E+00    0.5973242655E+00
    0.7000000000E+06    0.1896273114E-02    0.8513305707E-01    0.5067651211E-04    0.6792942996E+00    0.5979681049E+00
    0.9000000000E+06    0.1670036575E-02    0.8500093281E-01    0.4337080126E-04    0.6796977796E+00    0.5984058718E+00
    0.1100000000E+07    0.1510658776E-02    0.8489190802E-01    0.3844378886E-04    0.6799542797E+00    0.5987323716E+00
    0.1300000000E+07    0.1390446354E-02    0.8479901860E-01    0.3484224942E-04    0.6801324707E+00    0.5989901576E+00
    0.1500000000E+07    0.1295528637E-02    0.8471804968E-01    0.3206552836E-04    0.6802638965E+00    0.5992017072E+00
    0.1700000000E+07    0.1218078728E-02    0.8464625466E-01    0.2984219863E-04    0.6803651023E+00    0.5993802289E+00
    0.1900000000E+07    0.1153296494E-02    0.8458174276E-01    0.2801099739E-04    0.6804456155E+00    0.5995340935E+00
    0.2100000000E+07    0.1098050705E-02    0.8452315606E-01    0.2646941609E-04    0.6805113172E+00    0.5996689156E+00
    0.2300000000E+07    0.1050199116E-02    0.8446948592E-01    0.2514881864E-04    0.6805660384E+00    0.5997886301E+00
    0.2500000000E+07    0.1008219412E-02    0.8441996236E-01    0.2400131466E-04    0.6806123842E+00    0.5998960941E+00
    0.2700000000E+07    0.9709957823E-03    0.8437398404E-01    0.2299235014E-04    0.6806521895E+00    0.5999934427E+00
    0.2900000000E+07    0.9376890248E-03    0.8433107221E-01    0.2209629115E-04    0.6806867851E+00    0.6000823105E+00
    0.3100000000E+07    0.9076540763E-03    0.8429083946E-01    0.2129367064E-04    0.6807171603E+00    0.6001639747E+00
    0.3300000000E+07    0.8803857600E-03    0.8425296777E-01    0.2056940620E-04    0.6807440662E+00    0.6002394509E+00
    0.3500000000E+07    0.8554819997E-03    0.8421719284E-01    0.1991160878E-04    0.6807680841E+00    0.6003095594E+00
    0.3700000000E+07    0.8326182174E-03    0.8418329260E-01    0.1931076414E-04    0.6807896705E+00    0.6003749709E+00
    0.3900000000E+07    0.8115291031E-03    0.8415107865E-01    0.1875915667E-04    0.6808091895E+00    0.6004362411E+00
    0.4100000000E+07    0.7919953705E-03    0.8412038976E-01    0.1825045520E-04    0.6808269352E+00    0.6004938348E+00
    0.4300000000E+07    0.7738339629E-03    0.8409108686E-01    0.1777940961E-04    0.6808431477E+00    0.6005481444E+00
    0.4500000000E+07    0.7568906939E-03    0.8406304916E-01    0.1734162485E-04    0.6808580249E+00    0.6005995043E+00
    0.4700000000E+07    0.7410346375E-03    0.8403617106E-01    0.1693339012E-04    0.6808717317E+00    0.6006482015E+00
    0.4900000000E+07    0.7261537975E-03    0.8401035973E-01    0.1655154788E-04    0.6808844066E+00    0.6006944837E+00
    0.1000000000E+07    0.1584197011E-02    0.8494405529E-01    0.4069519127E-04    0.6798387948E+00    0.5985796944E+00
    0.3000000000E+07    0.9222969289E-03    0.8431064225E-01    0.2168433031E-04    0.6807024486E+00    0.6001239743E+00
    0.5000000000E+07    0.7190484126E-03    0.8399782807E-01    0.1636966303E-04    0.6808903943E+00    0.6007167878E+00
    0.7000000000E+07    0.6104828942E-03    0.8378747649E-01    0.1362621079E-04    0.6809767810E+00    0.6010762657E+00
    0.9000000000E+07    0.5402738350E-03    0.8362857445E-01    0.1188841425E-04    0.6810276516E+00    0.6013313981E+00
    0.1100000000E+08    0.4900713569E-03    0.8350076023E-01    0.1066409138E-04    0.6810616901E+00    0.6015279133E+00
    0.1300000000E+08    0.4518616618E-03    0.8339380280E-01    0.9742914020E-05    0.6810863231E+00    0.6016870994E+00
    0.1500000000E+08    0.4215112826E-03    0.8330182256E-01    0.9018067264E-05    0.6811051210E+00    0.6018205297E+00
    0.1700000000E+08    0.3966425825E-03    0.8322112530E-01    0.8428844319E-05    0.6811200262E+00    0.6019351685E+00
    0.1900000000E+08    0.3757776990E-03    0.8314923667E-01    0.7937879863E-05    0.6811321918E+00    0.6020355202E+00
    0.2100000000E+08    0.3579430776E-03    0.8308441751E-01    0.7520761629E-05    0.6811423488E+00    0.6021246596E+00
    0.2300000000E+08    0.3424676751E-03    0.8302539841E-01    0.7160782500E-05    0.6811509842E+00    0.6022047761E+00
    0.2500000000E+08    0.3288718555E-03    0.8297122433E-01    0.6846075509E-05    0.6811584363E+00    0.6022774816E+00
    0.2700000000E+08    0.3168024252E-03    0.8292115852E-01    0.6567950813E-05    0.6811649478E+00    0.6023439961E+00
