  Pressure (Pa) 2mC6-400 (mol/kg) 3mC6-400 (mol/kg) 33mC5-400 (mol/kg) 23mC5-400 (mol/kg) C7-400 (mol/kg)
    0.1000000000E+01    0.3939291535E-02    0.1042813579E-02    0.1924710653E-03    0.3724772389E-03    0.1015358681E-01
    0.3000000000E+01    0.1137162745E-01    0.3000611724E-02    0.5557885096E-03    0.1107290966E-02    0.2922180996E-01
    0.5000000000E+01    0.1826784298E-01    0.4805220199E-02    0.8931340534E-03    0.1828982873E-02    0.4680504260E-01
    0.7000000000E+01    0.2468885525E-01    0.6474498487E-02    0.1207466713E-02    0.2538011527E-02    0.6307615633E-01
    0.9000000000E+01    0.3068636836E-01    0.8023613025E-02    0.1501296825E-02    0.3234813410E-02    0.7818197460E-01
    0.1100000000E+02    0.3630456733E-01    0.9465527516E-02    0.1776768690E-02    0.3919804258E-02    0.9224801305E-01
    0.1300000000E+02    0.4158145128E-01    0.1081138980E-01    0.2035725578E-02    0.4593380297E-02    0.1053822201E+00
    0.1500000000E+02    0.4654989213E-01    0.1207083991E-01    0.2279761356E-02    0.5255919396E-02    0.1176779554E+00
    0.1700000000E+02    0.5123848269E-01    0.1325225736E-01    0.2510261815E-02    0.5907782137E-02    0.1292163820E+00
    0.1900000000E+02    0.5567222132E-01    0.1436296134E-01    0.2728438034E-02    0.6549312810E-02    0.1400684013E+00
    0.2100000000E+02    0.5987306871E-01    0.1540937381E-01    0.2935353503E-02    0.7180840339E-02    0.1502962315E+00
    0.2300000000E+02    0.6386040391E-01    0.1639715340E-01    0.3131946321E-02    0.7802679146E-02    0.1599547025E+00
    0.2500000000E+02    0.6765140016E-01    0.1733130600E-01    0.3319047500E-02    0.8415129958E-02    0.1690923252E+00
    0.2700000000E+02    0.7126133656E-01    0.1821627656E-01    0.3497396128E-02    0.9018480552E-02    0.1777521805E+00
    0.2900000000E+02    0.7470385805E-01    0.1905602592E-01    0.3667652011E-02    0.9613006469E-02    0.1859726616E+00
    0.3100000000E+02    0.7799119331E-01    0.1985409522E-01    0.3830406281E-02    0.1019897166E-01    0.1937880981E+00
    0.3300000000E+02    0.8113433850E-01    0.2061366030E-01    0.3986190317E-02    0.1077662910E-01    0.2012292822E+00
    0.3500000000E+02    0.8414321282E-01    0.2133757791E-01    0.4135483316E-02    0.1134622138E-01    0.2083239155E+00
    0.3700000000E+02    0.8702679089E-01    0.2202842494E-01    0.4278718714E-02    0.1190798123E-01    0.2150969891E+00
    0.3900000000E+02    0.8979321584E-01    0.2268853210E-01    0.4416289686E-02    0.1246213201E-01    0.2215711094E+00
    0.4100000000E+02    0.9244989631E-01    0.2332001277E-01    0.4548553853E-02    0.1300888824E-01    0.2277667774E+00
    0.4300000000E+02    0.9500359013E-01    0.2392478791E-01    0.4675837341E-02    0.1354845598E-01    0.2337026298E+00
    0.4500000000E+02    0.9746047650E-01    0.2450460760E-01    0.4798438289E-02    0.1408103328E-01    0.2393956477E+00
    0.4700000000E+02    0.9982621878E-01    0.2506106975E-01    0.4916629890E-02    0.1460681058E-01    0.2448613374E+00
    0.4900000000E+02    0.1021060190E+00    0.2559563637E-01    0.5030663035E-02    0.1512597107E-01    0.2501138885E+00
    0.1000000000E+02    0.3354037576E-01    0.8757234922E-02    0.1641205941E-02    0.3578760006E-02    0.8533784594E-01
    0.3000000000E+02    0.7636620976E-01    0.1946006410E-01    0.3749932331E-02    0.9907043093E-02    0.1899290086E+00
    0.5000000000E+02    0.1032152023E+00    0.2585513212E-01    0.5086193070E-02    0.1538312537E-01    0.2526643455E+00
    0.7000000000E+02    0.1218701151E+00    0.3016828920E-01    0.6025872027E-02    0.2021838290E-01    0.2951319310E+00
    0.9000000000E+02    0.1356321298E+00    0.3330659162E-01    0.6728091547E-02    0.2455693705E-01    0.3261406101E+00
    0.1100000000E+03    0.1461872860E+00    0.3571166353E-01    0.7274084663E-02    0.2850080635E-01    0.3499846242E+00
    0.1300000000E+03    0.1545058200E+00    0.3762551802E-01    0.7710629272E-02    0.3212447990E-01    0.3690201599E+00
    0.1500000000E+03    0.1611938389E+00    0.3919251262E-01    0.8066991238E-02    0.3548378270E-01    0.3846543606E+00
    0.1700000000E+03    0.1666531871E+00    0.4050443507E-01    0.8362613610E-02    0.3862149265E-01    0.3977830103E+00
    0.1900000000E+03    0.1711625210E+00    0.4162263496E-01    0.8611012212E-02    0.4157102472E-01    0.4090055446E+00
    0.2100000000E+03    0.1749219672E+00    0.4258979544E-01    0.8821920562E-02    0.4435892029E-01    0.4187394979E+00
    0.2300000000E+03    0.1780793555E+00    0.4343660689E-01    0.9002549926E-02    0.4700657327E-01    0.4272854332E+00
    0.2500000000E+03    0.1807464388E+00    0.4418575220E-01    0.9158368779E-02    0.4953145447E-01    0.4348657440E+00
    0.2700000000E+03    0.1830093496E+00    0.4485439183E-01    0.9293605663E-02    0.5194799770E-01    0.4416488668E+00
    0.2900000000E+03    0.1849355771E+00    0.4545577107E-01    0.9411585079E-02    0.5426825269E-01    0.4477649521E+00
    0.3100000000E+03    0.1865787607E+00    0.4600029258E-01    0.9514958499E-02    0.5650237396E-01    0.4533163286E+00
    0.3300000000E+03    0.1879820653E+00    0.4649625183E-01    0.9605867272E-02    0.5865899215E-01    0.4583846843E+00
    0.3500000000E+03    0.1891806094E+00    0.4695035343E-01    0.9686059984E-02    0.6074549996E-01    0.4630361110E+00
    0.3700000000E+03    0.1902032452E+00    0.4736808143E-01    0.9756978614E-02    0.6276827479E-01    0.4673247245E+00
    0.3900000000E+03    0.1910738848E+00    0.4775396973E-01    0.9819822841E-02    0.6473285416E-01    0.4712953108E+00
    0.4100000000E+03    0.1918125027E+00    0.4811180295E-01    0.9875598745E-02    0.6664407528E-01    0.4749852921E+00
    0.4300000000E+03    0.1924359045E+00    0.4844476791E-01    0.9925156176E-02    0.6850618705E-01    0.4784262109E+00
    0.4500000000E+03    0.1929583216E+00    0.4875556939E-01    0.9969217775E-02    0.7032294084E-01    0.4816448649E+00
    0.4700000000E+03    0.1933918780E+00    0.4904651964E-01    0.1000840175E-01    0.7209766459E-01    0.4846641853E+00
    0.4900000000E+03    0.1937469593E+00    0.4931960852E-01    0.1004323994E-01    0.7383332370E-01    0.4875039246E+00
    0.1000000000E+03    0.1412386534E+00    0.3458258407E-01    0.7017150588E-02    0.2657303062E-01    0.3387810997E+00
    0.3000000000E+03    0.1857896383E+00    0.4573457809E-01    0.9464953304E-02    0.5539550862E-01    0.4506057072E+00
    0.5000000000E+03    0.1938979156E+00    0.4945000249E-01    0.1005917555E-01    0.7468734419E-01    0.4888618912E+00
    0.7000000000E+03    0.1944234635E+00    0.5143807376E-01    0.1023410720E-01    0.9023520402E-01    0.5097575783E+00
    0.9000000000E+03    0.1924752555E+00    0.5271266247E-01    0.1025618568E-01    0.1037319275E+00    0.5233928694E+00
    0.1100000000E+04    0.1895772465E+00    0.5361368929E-01    0.1020948348E-01    0.1159037840E+00    0.5331856510E+00
    0.1300000000E+04    0.1863045103E+00    0.5429113590E-01    0.1012797057E-01    0.1271311682E+00    0.5406562416E+00
    0.1500000000E+04    0.1829049958E+00    0.5482263766E-01    0.1002759216E-01    0.1376396039E+00    0.5465973898E+00
    0.1700000000E+04    0.1794943183E+00    0.5525286759E-01    0.9916632015E-02    0.1475745988E+00    0.5514683517E+00
    0.1900000000E+04    0.1761285415E+00    0.5560955391E-01    0.9799720095E-02    0.1570359784E+00    0.5555559910E+00
    0.2100000000E+04    0.1728348766E+00    0.5591091782E-01    0.9679589890E-02    0.1660954928E+00    0.5590499442E+00
    0.2300000000E+04    0.1696258249E+00    0.5616947947E-01    0.9557924430E-02    0.1748066322E+00    0.5620812552E+00
    0.2500000000E+04    0.1665061384E+00    0.5639415594E-01    0.9435794230E-02    0.1832104673E+00    0.5647437639E+00
    0.2700000000E+04    0.1634764229E+00    0.5659148842E-01    0.9313897494E-02    0.1913393099E+00    0.5671066668E+00
    0.2900000000E+04    0.1605350743E+00    0.5676639527E-01    0.9192698241E-02    0.1992191070E+00    0.5692222555E+00
    0.3100000000E+04    0.1576793480E+00    0.5692265319E-01    0.9072508934E-02    0.2068710630E+00    0.5711308792E+00
    0.3300000000E+04    0.1549059609E+00    0.5706321512E-01    0.8953541562E-02    0.2143127734E+00    0.5728642356E+00
    0.3500000000E+04    0.1522114315E+00    0.5719042653E-01    0.8835940132E-02    0.2215590359E+00    0.5744476176E+00
    0.3700000000E+04    0.1495922719E+00    0.5730617631E-01    0.8719801850E-02    0.2286224454E+00    0.5759014857E+00
    0.3900000000E+04    0.1470450940E+00    0.5741200437E-01    0.8605191207E-02    0.2355138382E+00    0.5772425934E+00
    0.4100000000E+04    0.1445666639E+00    0.5750917989E-01    0.8492149540E-02    0.2422426292E+00    0.5784848079E+00
    0.4300000000E+04    0.1421539277E+00    0.5759875921E-01    0.8380701609E-02    0.2488170722E+00    0.5796397192E+00
    0.4500000000E+04    0.1398040192E+00    0.5768162928E-01    0.8270860201E-02    0.2552444629E+00    0.5807170993E+00
    0.4700000000E+04    0.1375142580E+00    0.5775854088E-01    0.8162629379E-02    0.2615313000E+00    0.5817252529E+00
    0.4900000000E+04    0.1352821413E+00    0.5783013413E-01    0.8056006813E-02    0.2676834133E+00    0.5826712893E+00
    0.1000000000E+04    0.1910975346E+00    0.5319805031E-01    0.1023868526E-01    0.1099547087E+00    0.5286499999E+00
    0.3000000000E+04    0.1590967059E+00    0.5684665441E-01    0.9132462190E-02    0.2030723916E+00    0.5702002844E+00
    0.5000000000E+04    0.1341869637E+00    0.5786411116E-01    0.8003296573E-02    0.2707106134E+00    0.5831229614E+00
    0.7000000000E+04    0.1148189893E+00    0.5836438485E-01    0.7030393895E-02    0.3252413964E+00    0.5900175997E+00
    0.9000000000E+04    0.9931352204E-01    0.5866528101E-01    0.6199694956E-02    0.3702984944E+00    0.5944637346E+00
    0.1100000000E+05    0.8669630976E-01    0.5886666023E-01    0.5491809967E-02    0.4078902710E+00    0.5976308680E+00
    0.1300000000E+05    0.7631792665E-01    0.5901071504E-01    0.4888554520E-02    0.4394388978E+00    0.6000306104E+00
    0.1500000000E+05    0.6770740621E-01    0.5911855913E-01    0.4373675981E-02    0.4660502629E+00    0.6019273803E+00
    0.1700000000E+05    0.6050843179E-01    0.5920200177E-01    0.3933036675E-02    0.4886114243E+00    0.6034736089E+00
    0.1900000000E+05    0.5444567474E-01    0.5926819316E-01    0.3554585421E-02    0.5078400490E+00    0.6047642285E+00
    0.2100000000E+05    0.4930390899E-01    0.5932172833E-01    0.3228196188E-02    0.5243177177E+00    0.6058618646E+00
    0.2300000000E+05    0.4491360374E-01    0.5936570071E-01    0.2945439841E-02    0.5385158767E+00    0.6068097127E+00
    0.2500000000E+05    0.4114039783E-01    0.5940227205E-01    0.2699337720E-02    0.5508170055E+00    0.6076386448E+00
    0.2700000000E+05    0.3787719303E-01    0.5943300003E-01    0.2484126268E-02    0.5615319590E+00    0.6083713756E+00
    0.2900000000E+05    0.3503813615E-01    0.5945903622E-01    0.2295046893E-02    0.5709140667E+00    0.6090250282E+00
    0.3100000000E+05    0.3255400805E-01    0.5948125066E-01    0.2128165847E-02    0.5791704966E+00    0.6096127789E+00
    0.3300000000E+05    0.3036867568E-01    0.5950031310E-01    0.1980223634E-02    0.5864713497E+00    0.6101449484E+00
    0.3500000000E+05    0.2843635196E-01    0.5951674758E-01    0.1848511098E-02    0.5929569093E+00    0.6106297461E+00
    0.3700000000E+05    0.2671947191E-01    0.5953097000E-01    0.1730768409E-02    0.5987434052E+00    0.6110737916E+00
    0.3900000000E+05    0.2518703958E-01    0.5954331463E-01    0.1625103164E-02    0.6039275974E+00    0.6114824870E+00
    0.4100000000E+05    0.2381333583E-01    0.5955405316E-01    0.1529924149E-02    0.6085904248E+00    0.6118602890E+00
    0.4300000000E+05    0.2257690346E-01    0.5956340865E-01    0.1443887800E-02    0.6127999153E+00    0.6122109100E+00
    0.4500000000E+05    0.2145974619E-01    0.5957156590E-01    0.1365854885E-02    0.6166135148E+00    0.6125374698E+00
    0.4700000000E+05    0.2044669328E-01    0.5957867928E-01    0.1294855398E-02    0.6200799563E+00    0.6128426113E+00
    0.4900000000E+05    0.1952489286E-01    0.5958487870E-01    0.1230060020E-02    0.6232407669E+00    0.6131285896E+00
    0.1000000000E+05    0.9268975381E-01    0.5877505150E-01    0.5831578469E-02    0.3899294829E+00    0.5961668154E+00
    0.3000000000E+05    0.3375548549E-01    0.5947057534E-01    0.2209049527E-02    0.5751715843E+00    0.6093264394E+00
    0.5000000000E+05    0.1909472860E-01    0.5958767076E-01    0.1199762367E-02    0.6247178723E+00    0.6132650088E+00
    0.7000000000E+05    0.1333449676E-01    0.5961508946E-01    0.7910903196E-03    0.6445977977E+00    0.6153403525E+00
    0.9000000000E+05    0.1040346457E-01    0.5961449762E-01    0.5826646354E-03    0.6547180442E+00    0.6166765225E+00
    0.1100000000E+06    0.8658803668E-02    0.5960281107E-01    0.4599481889E-03    0.6606774164E+00    0.6176316928E+00
    0.1300000000E+06    0.7507458135E-02    0.5958629049E-01    0.3803957328E-03    0.6645421340E+00    0.6183599900E+00
    0.1500000000E+06    0.6690809558E-02    0.5956766289E-01    0.3251682070E-03    0.6672251293E+00    0.6189401506E+00
    0.1700000000E+06    0.6080144608E-02    0.5954823905E-01    0.2848201038E-03    0.6691840882E+00    0.6194171780E+00
    0.1900000000E+06    0.5604850881E-02    0.5952868766E-01    0.2541585728E-03    0.6706708795E+00    0.6198189269E+00
    0.2100000000E+06    0.5223188410E-02    0.5950936035E-01    0.2301188105E-03    0.6718343809E+00    0.6201636953E+00
    0.2300000000E+06    0.4908985670E-02    0.5949044225E-01    0.2107872315E-03    0.6727677103E+00    0.6204640728E+00
    0.2500000000E+06    0.4645030974E-02    0.5947202724E-01    0.1949131285E-03    0.6735318382E+00    0.6207290481E+00
    0.2700000000E+06    0.4419550772E-02    0.5945415758E-01    0.1816474861E-03    0.6741682252E+00    0.6209652365E+00
    0.2900000000E+06    0.4224221403E-02    0.5943684591E-01    0.1703952963E-03    0.6747059745E+00    0.6211776316E+00
    0.3100000000E+06    0.4052991015E-02    0.5942008775E-01    0.1607280668E-03    0.6751660754E+00    0.6213700840E+00
    0.3300000000E+06    0.3901352321E-02    0.5940386889E-01    0.1523298918E-03    0.6755640214E+00    0.6215456186E+00
    0.3500000000E+06    0.3765877544E-02    0.5938816975E-01    0.1449630563E-03    0.6759114839E+00    0.6217066494E+00
    0.3700000000E+06    0.3643911789E-02    0.5937296812E-01    0.1384454363E-03    0.6762174126E+00    0.6218551303E+00
    0.3900000000E+06    0.3533365360E-02    0.5935824072E-01    0.1326352579E-03    0.6764887791E+00    0.6219926624E+00
    0.4100000000E+06    0.3432569730E-02    0.5934396419E-01    0.1274205785E-03    0.6767310906E+00    0.6221205721E+00
    0.4300000000E+06    0.3340175517E-02    0.5933011573E-01    0.1227118755E-03    0.6769487525E+00    0.6222399692E+00
    0.4500000000E+06    0.3255078844E-02    0.5931667341E-01    0.1184367285E-03    0.6771453293E+00    0.6223517903E+00
    0.4700000000E+06    0.3176367264E-02    0.5930361632E-01    0.1145359382E-03    0.6773237343E+00    0.6224568327E+00
    0.4900000000E+06    0.3103279445E-02    0.5929092472E-01    0.1109606512E-03    0.6774863712E+00    0.6225557795E+00
    0.1000000000E+06    0.9431885545E-02    0.5960952488E-01    0.5140943821E-03    0.6580476397E+00    0.6171895297E+00
    0.3000000000E+06    0.4135905328E-02    0.5942839836E-01    0.1653854694E-03    0.6749446570E+00    0.6212761451E+00
    0.5000000000E+06    0.3068640195E-02    0.5928471013E-01    0.1092820912E-03    0.6775624151E+00    0.6226031545E+00
    0.7000000000E+06    0.2558000760E-02    0.5917567909E-01    0.8575632301E-04    0.6786014682E+00    0.6233389446E+00
    0.9000000000E+06    0.2243398341E-02    0.5908813371E-01    0.7241775109E-04    0.6791600265E+00    0.6238294944E+00
    0.1100000000E+07    0.2024312147E-02    0.5901497710E-01    0.6364384031E-04    0.6795101398E+00    0.6241895870E+00
    0.1300000000E+07    0.1860256086E-02    0.5895210595E-01    0.5734200299E-04    0.6797510207E+00    0.6244701130E+00
    0.1500000000E+07    0.1731352737E-02    0.5889695230E-01    0.5254600551E-04    0.6799274446E+00    0.6246976743E+00
    0.1700000000E+07    0.1626538474E-02    0.5884780538E-01    0.4874375794E-04    0.6800625904E+00    0.6248877602E+00
    0.1900000000E+07    0.1539095066E-02    0.5880346860E-01    0.4563648882E-04    0.6801696700E+00    0.6250501074E+00
    0.2100000000E+07    0.1464672611E-02    0.5876307217E-01    0.4303707893E-04    0.6802567729E+00    0.6251911977E+00
    0.2300000000E+07    0.1400312236E-02    0.5872596382E-01    0.4082177574E-04    0.6803291338E+00    0.6253155432E+00
    0.2500000000E+07    0.1343920928E-02    0.5869164171E-01    0.3890512472E-04    0.6803902929E+00    0.6254263997E+00
    0.2700000000E+07    0.1293970251E-02    0.5865971139E-01    0.3722601281E-04    0.6804427321E+00    0.6255261857E+00
    0.2900000000E+07    0.1249314173E-02    0.5862985708E-01    0.3573944846E-04    0.6804882442E+00    0.6256167429E+00
    0.3100000000E+07    0.1209074026E-02    0.5860182202E-01    0.3441149040E-04    0.6805281577E+00    0.6256995031E+00
    0.3300000000E+07    0.1172563170E-02    0.5857539458E-01    0.3321599501E-04    0.6805634781E+00    0.6257755991E+00
    0.3500000000E+07    0.1139236103E-02    0.5855039824E-01    0.3213245990E-04    0.6805949814E+00    0.6258459415E+00
    0.3700000000E+07    0.1108653170E-02    0.5852668417E-01    0.3114455297E-04    0.6806232760E+00    0.6259112720E+00
    0.3900000000E+07    0.1080455491E-02    0.5850412578E-01    0.3023908378E-04    0.6806488460E+00    0.6259722024E+00
    0.4100000000E+07    0.1054346801E-02    0.5848261442E-01    0.2940526851E-04    0.6806720815E+00    0.6260292423E+00
    0.4300000000E+07    0.1030080049E-02    0.5846205616E-01    0.2863419440E-04    0.6806933007E+00    0.6260828206E+00
    0.4500000000E+07    0.1007447341E-02    0.5844236923E-01    0.2791842276E-04    0.6807127656E+00    0.6261333012E+00
    0.4700000000E+07    0.9862722982E-03    0.5842348201E-01    0.2725169024E-04    0.6807306940E+00    0.6261809953E+00
    0.4900000000E+07    0.9664041577E-03    0.5840533142E-01    0.2662868077E-04    0.6807472687E+00    0.6262261711E+00
    0.1000000000E+07    0.2125161868E-02    0.5905006085E-01    0.6763097484E-04    0.6793529963E+00    0.6240218464E+00
    0.3000000000E+07    0.1228688835E-02    0.5861562629E-01    0.3505743099E-04    0.6805088316E+00    0.6256590209E+00
    0.5000000000E+07    0.9569189133E-03    0.5839651465E-01    0.2633212570E-04    0.6807550975E+00    0.6262478884E+00
    0.7000000000E+07    0.8120988792E-03    0.5824811857E-01    0.2187409021E-04    0.6808679948E+00    0.6265930730E+00
    0.9000000000E+07    0.7185354022E-03    0.5813557779E-01    0.1906328065E-04    0.6809344849E+00    0.6268324994E+00
    0.1100000000E+08    0.6516685235E-03    0.5804482219E-01    0.1708819183E-04    0.6809790140E+00    0.6270137707E+00
    0.1300000000E+08    0.6007919298E-03    0.5796873631E-01    0.1560464532E-04    0.6810112747E+00    0.6271586181E+00
    0.1500000000E+08    0.5603890951E-03    0.5790321305E-01    0.1443865438E-04    0.6810359220E+00    0.6272786734E+00
    0.1700000000E+08    0.5272889331E-03    0.5784566357E-01    0.1349164327E-04    0.6810554877E+00    0.6273808464E+00
    0.1900000000E+08    0.4995213057E-03    0.5779434954E-01    0.1270307400E-04    0.6810714747E+00    0.6274695571E+00
    0.2100000000E+08    0.4757888042E-03    0.5774804666E-01    0.1203346148E-04    0.6810848360E+00    0.6275477938E+00
    0.2300000000E+08    0.4551973915E-03    0.5770585984E-01    0.1145581878E-04    0.6810962069E+00    0.6276176661E+00
    0.2500000000E+08    0.4371081726E-03    0.5766711467E-01    0.1095099748E-04    0.6811060288E+00    0.6276807156E+00
    0.2700000000E+08    0.4210507557E-03    0.5763129031E-01    0.1050498787E-04    0.6811146183E+00    0.6277381009E+00
