  Pressure (Pa) 2mC6-400 (mol/kg) 3mC6-400 (mol/kg) 33mC5-400 (mol/kg) 23mC5-400 (mol/kg) C7-400 (mol/kg)
    0.1000000000E+01    0.3962323215E-02    0.1050773114E-02    0.6452668631E-04    0.8376112958E-03    0.5115353130E-02
    0.3000000000E+01    0.1156317431E-01    0.3067370040E-02    0.1883350337E-03    0.2487341410E-02    0.1493434430E-01
    0.5000000000E+01    0.1876084782E-01    0.4978488795E-02    0.3056129901E-03    0.4104189800E-02    0.2424207325E-01
    0.7000000000E+01    0.2558643561E-01    0.6792589512E-02    0.4168646823E-03    0.5689424085E-02    0.3307948939E-01
    0.9000000000E+01    0.3206783554E-01    0.8517241252E-02    0.5225423718E-03    0.7244245003E-02    0.4148323226E-01
    0.1100000000E+02    0.3823015802E-01    0.1015923671E-01    0.6230530634E-03    0.8769790821E-02    0.4948618603E-01
    0.1300000000E+02    0.4409607138E-01    0.1172468965E-01    0.7187641203E-03    0.1026714140E-01    0.5711795050E-01
    0.1500000000E+02    0.4968609669E-01    0.1321911794E-01    0.8100080557E-03    0.1173732193E-01    0.6440524283E-01
    0.1700000000E+02    0.5501886048E-01    0.1464751477E-01    0.8970866396E-03    0.1318130644E-01    0.7137224159E-01
    0.1900000000E+02    0.6011131223E-01    0.1601440977E-01    0.9802744321E-03    0.1460002094E-01    0.7804088264E-01
    0.2100000000E+02    0.6497891226E-01    0.1732392189E-01    0.1059821836E-02    0.1599434641E-01    0.8443111444E-01
    0.2300000000E+02    0.6963579461E-01    0.1857980505E-01    0.1135957743E-02    0.1736512157E-01    0.9056111931E-01
    0.2500000000E+02    0.7409490883E-01    0.1978548794E-01    0.1208891837E-02    0.1871314537E-01    0.9644750555E-01
    0.2700000000E+02    0.7836814374E-01    0.2094410868E-01    0.1278816600E-02    0.2003917940E-01    0.1021054751E+00
    0.2900000000E+02    0.8246643573E-01    0.2205854507E-01    0.1345909076E-02    0.2134395007E-01    0.1075489702E+00
    0.3100000000E+02    0.8639986405E-01    0.2313144122E-01    0.1410332413E-02    0.2262815062E-01    0.1127908018E+00
    0.3300000000E+02    0.9017773460E-01    0.2416523091E-01    0.1472237226E-02    0.2389244307E-01    0.1178427627E+00
    0.3500000000E+02    0.9380865406E-01    0.2516215824E-01    0.1531762800E-02    0.2513745995E-01    0.1227157276E+00
    0.3700000000E+02    0.9730059549E-01    0.2612429582E-01    0.1589038152E-02    0.2636380598E-01    0.1274197411E+00
    0.3900000000E+02    0.1006609566E+00    0.2705356100E-01    0.1644182980E-02    0.2757205957E-01    0.1319640957E+00
    0.4100000000E+02    0.1038966118E+00    0.2795173020E-01    0.1697308500E-02    0.2876277430E-01    0.1363574018E+00
    0.4300000000E+02    0.1070139580E+00    0.2882045169E-01    0.1748518203E-02    0.2993648023E-01    0.1406076495E+00
    0.4500000000E+02    0.1100189567E+00    0.2966125706E-01    0.1797908520E-02    0.3109368516E-01    0.1447222635E+00
    0.4700000000E+02    0.1129171706E+00    0.3047557143E-01    0.1845569430E-02    0.3223487583E-01    0.1487081530E+00
    0.4900000000E+02    0.1157137971E+00    0.3126472257E-01    0.1891584995E-02    0.3336051901E-01    0.1525717560E+00
    0.1000000000E+02    0.3518741113E-01    0.9348174033E-02    0.5734197628E-03    0.8010608485E-02    0.4553288583E-01
    0.3000000000E+02    0.8445315902E-01    0.2260002889E-01    0.1378444694E-02    0.2198857952E-01    0.1101943342E+00
    0.5000000000E+02    0.1170755469E+00    0.3165025229E-01    0.1914000546E-02    0.3391765094E-01    0.1544595928E+00
    0.7000000000E+02    0.1400061300E+00    0.3830042080E-01    0.2292569814E-02    0.4434386637E-01    0.1870603447E+00
    0.9000000000E+02    0.1567784878E+00    0.4344075986E-01    0.2571290161E-02    0.5362827025E-01    0.2123147361E+00
    0.1100000000E+03    0.1693934355E+00    0.4756379593E-01    0.2782506040E-02    0.6202003824E-01    0.2326136958E+00
    0.1300000000E+03    0.1790736785E+00    0.5096524025E-01    0.2945984517E-02    0.6969727412E-01    0.2493938225E+00
    0.1500000000E+03    0.1866101094E+00    0.5383400418E-01    0.3074515868E-02    0.7679105441E-01    0.2635735520E+00
    0.1700000000E+03    0.1925373443E+00    0.5629680370E-01    0.3176750611E-02    0.8340025929E-01    0.2757693929E+00
    0.1900000000E+03    0.1972297101E+00    0.5844204925E-01    0.3258750118E-02    0.8960107774E-01    0.2864117951E+00
    0.2100000000E+03    0.2009569629E+00    0.6033346016E-01    0.3324886421E-02    0.9545330220E-01    0.2958112126E+00
    0.2300000000E+03    0.2039182306E+00    0.6201822741E-01    0.3378390273E-02    0.1010046166E+00    0.3041977295E+00
    0.2500000000E+03    0.2062635332E+00    0.6353211953E-01    0.3421698593E-02    0.1062935910E+00    0.3117458583E+00
    0.2700000000E+03    0.2081078913E+00    0.6490279309E-01    0.3456682273E-02    0.1113518182E+00    0.3185906248E+00
    0.2900000000E+03    0.2095408451E+00    0.6615200629E-01    0.3484799883E-02    0.1162054687E+00    0.3248383289E+00
    0.3100000000E+03    0.2106330362E+00    0.6729713929E-01    0.3507203984E-02    0.1208764422E+00    0.3305739368E+00
    0.3300000000E+03    0.2114408596E+00    0.6835226308E-01    0.3524816284E-02    0.1253832322E+00    0.3358662824E+00
    0.3500000000E+03    0.2120098132E+00    0.6932890689E-01    0.3538381769E-02    0.1297415868E+00    0.3407718014E+00
    0.3700000000E+03    0.2123769517E+00    0.7023661920E-01    0.3548508382E-02    0.1339650175E+00    0.3453372635E+00
    0.3900000000E+03    0.2125727115E+00    0.7108338486E-01    0.3555696535E-02    0.1380651983E+00    0.3496018039E+00
    0.4100000000E+03    0.2126222857E+00    0.7187593991E-01    0.3560361373E-02    0.1420522796E+00    0.3535984574E+00
    0.4300000000E+03    0.2125466746E+00    0.7262001223E-01    0.3562849769E-02    0.1459351393E+00    0.3573553319E+00
    0.4500000000E+03    0.2123634955E+00    0.7332050805E-01    0.3563453454E-02    0.1497215845E+00    0.3608965177E+00
    0.4700000000E+03    0.2120876145E+00    0.7398165784E-01    0.3562419263E-02    0.1534185156E+00    0.3642427994E+00
    0.4900000000E+03    0.2117316437E+00    0.7460713185E-01    0.3559957197E-02    0.1570320602E+00    0.3674122196E+00
    0.1000000000E+03    0.1635162141E+00    0.4560771533E-01    0.2683890573E-02    0.5792327630E-01    0.2229781247E+00
    0.3000000000E+03    0.2101257218E+00    0.6673663601E-01    0.3496653823E-02    0.1185625630E+00    0.3277655142E+00
    0.5000000000E+03    0.2115270486E+00    0.7490750728E-01    0.3558247870E-02    0.1588092937E+00    0.3689356081E+00
    0.7000000000E+03    0.2051499556E+00    0.7964078550E-01    0.3481355039E-02    0.1910379980E+00    0.3930664846E+00
    0.9000000000E+03    0.1969675073E+00    0.8285440934E-01    0.3366779886E-02    0.2187086764E+00    0.4096079738E+00
    0.1100000000E+04    0.1885535560E+00    0.8523174007E-01    0.3242468686E-02    0.2432793095E+00    0.4219461108E+00
    0.1300000000E+04    0.1804103558E+00    0.8708790304E-01    0.3118143942E-02    0.2655111045E+00    0.4316499836E+00
    0.1500000000E+04    0.1727028580E+00    0.8859200903E-01    0.2997565609E-02    0.2858598269E+00    0.4395653241E+00
    0.1700000000E+04    0.1654737948E+00    0.8984442964E-01    0.2882205676E-02    0.3046263131E+00    0.4461960976E+00
    0.1900000000E+04    0.1587183731E+00    0.9090918957E-01    0.2772564328E-02    0.3220243540E+00    0.4518649558E+00
    0.2100000000E+04    0.1524132320E+00    0.9182940408E-01    0.2668702176E-02    0.3382149072E+00    0.4567899237E+00
    0.2300000000E+04    0.1465284875E+00    0.9263536277E-01    0.2570475061E-02    0.3533248112E+00    0.4611246643E+00
    0.2500000000E+04    0.1410329355E+00    0.9334908047E-01    0.2477644461E-02    0.3674576898E+00    0.4649812032E+00
    0.2700000000E+04    0.1358963038E+00    0.9398701052E-01    0.2389931881E-02    0.3807006371E+00    0.4684435091E+00
    0.2900000000E+04    0.1310901766E+00    0.9456174010E-01    0.2307046497E-02    0.3931284923E+00    0.4715759985E+00
    0.3100000000E+04    0.1265883058E+00    0.9508309129E-01    0.2228699431E-02    0.4048066766E+00    0.4744290711E+00
    0.3300000000E+04    0.1223666385E+00    0.9555886020E-01    0.2154611100E-02    0.4157931399E+00    0.4770428332E+00
    0.3500000000E+04    0.1184032182E+00    0.9599532713E-01    0.2084514850E-02    0.4261397384E+00    0.4794496731E+00
    0.3700000000E+04    0.1146780341E+00    0.9639761748E-01    0.2018158581E-02    0.4358932395E+00    0.4816760856E+00
    0.3900000000E+04    0.1111728550E+00    0.9676996244E-01    0.1955305244E-02    0.4450960756E+00    0.4837439939E+00
    0.4100000000E+04    0.1078710656E+00    0.9711589099E-01    0.1895732722E-02    0.4537869249E+00    0.4856717233E+00
    0.4300000000E+04    0.1047575122E+00    0.9743837358E-01    0.1839233361E-02    0.4620011722E+00    0.4874747321E+00
    0.4500000000E+04    0.1018183612E+00    0.9773993137E-01    0.1785613327E-02    0.4697712808E+00    0.4891661680E+00
    0.4700000000E+04    0.9904097158E-01    0.9802272028E-01    0.1734691861E-02    0.4771271018E+00    0.4907572968E+00
    0.4900000000E+04    0.9641377905E-01    0.9828859662E-01    0.1686300513E-02    0.4840961341E+00    0.4922578378E+00
    0.1000000000E+04    0.1927458272E+00    0.8412303911E-01    0.3305020386E-02    0.2313240282E+00    0.4161802658E+00
    0.3000000000E+04    0.1288027632E+00    0.9482856011E-01    0.2267323421E-02    0.3990575147E+00    0.4730347486E+00
    0.5000000000E+04    0.9515316176E-01    0.9841570367E-01    0.1663004167E-02    0.4874436104E+00    0.4929768184E+00
    0.7000000000E+04    0.7568448916E-01    0.1003672602E+00    0.1297216122E-02    0.5392978221E+00    0.5041656806E+00
    0.9000000000E+04    0.6337036790E-01    0.1016332140E+00    0.1060773488E-02    0.5719458225E+00    0.5116091621E+00
    0.1100000000E+05    0.5500666811E-01    0.1025358006E+00    0.8987541827E-03    0.5937629205E+00    0.5170348769E+00
    0.1300000000E+05    0.4899597709E-01    0.1032188121E+00    0.7821874246E-03    0.6090796755E+00    0.5212239932E+00
    0.1500000000E+05    0.4447796721E-01    0.1037573815E+00    0.6948971430E-03    0.6202772794E+00    0.5245892683E+00
    0.1700000000E+05    0.4095755283E-01    0.1041950801E+00    0.6273458197E-03    0.6287408993E+00    0.5273724546E+00
    0.1900000000E+05    0.3813333615E-01    0.1045591302E+00    0.5736294750E-03    0.6353173462E+00    0.5297259716E+00
    0.2100000000E+05    0.3581286185E-01    0.1048675220E+00    0.5299347552E-03    0.6405471117E+00    0.5317514015E+00
    0.2300000000E+05    0.3386814468E-01    0.1051326775E+00    0.4937062676E-03    0.6447882585E+00    0.5335194485E+00
    0.2500000000E+05    0.3221106161E-01    0.1053634827E+00    0.4631760711E-03    0.6482857593E+00    0.5350810738E+00
    0.2700000000E+05    0.3077909084E-01    0.1055664811E+00    0.4370865798E-03    0.6512119735E+00    0.5364740787E+00
    0.2900000000E+05    0.2952670556E-01    0.1057466099E+00    0.4145212435E-03    0.6536911750E+00    0.5377271854E+00
    0.3100000000E+05    0.2841999233E-01    0.1059076725E+00    0.3947976394E-03    0.6558149158E+00    0.5388626684E+00
    0.3300000000E+05    0.2743317873E-01    0.1060526510E+00    0.3773979698E-03    0.6576519380E+00    0.5398981083E+00
    0.3500000000E+05    0.2654632965E-01    0.1061839206E+00    0.3619226864E-03    0.6592547386E+00    0.5408475948E+00
    0.3700000000E+05    0.2574378067E-01    0.1063033987E+00    0.3480588148E-03    0.6606640197E+00    0.5417225729E+00
    0.3900000000E+05    0.2501304869E-01    0.1064126518E+00    0.3355578603E-03    0.6619117717E+00    0.5425324503E+00
    0.4100000000E+05    0.2434405923E-01    0.1065129740E+00    0.3242201021E-03    0.6630234490E+00    0.5432850425E+00
    0.4300000000E+05    0.2372858834E-01    0.1066054443E+00    0.3138832348E-03    0.6640195325E+00    0.5439869043E+00
    0.4500000000E+05    0.2315985284E-01    0.1066909703E+00    0.3044140245E-03    0.6649166696E+00    0.5446435803E+00
    0.4700000000E+05    0.2263220497E-01    0.1067703216E+00    0.2957020909E-03    0.6657285183E+00    0.5452597976E+00
    0.4900000000E+05    0.2214090176E-01    0.1068441556E+00    0.2876552132E-03    0.6664663799E+00    0.5458396148E+00
    0.1000000000E+05    0.5881843270E-01    0.1021186268E+00    0.9726774957E-03    0.5838753192E+00    0.5145130445E+00
    0.3000000000E+05    0.2895691011E-01    0.1058293217E+00    0.4043398144E-03    0.6547927366E+00    0.5383084373E+00
    0.5000000000E+05    0.2190760031E-01    0.1068791832E+00    0.2838564162E-03    0.6668105735E+00    0.5461169882E+00
    0.7000000000E+05    0.1843490879E-01    0.1073930945E+00    0.2291080767E-03    0.6714436902E+00    0.5503991243E+00
    0.9000000000E+05    0.1626421727E-01    0.1076987609E+00    0.1966909378E-03    0.6738557765E+00    0.5532168181E+00
    0.1100000000E+06    0.1473821582E-01    0.1079002333E+00    0.1747613427E-03    0.6753250413E+00    0.5552585992E+00
    0.1300000000E+06    0.1358757527E-01    0.1080417185E+00    0.1586950079E-03    0.6763107584E+00    0.5568298156E+00
    0.1500000000E+06    0.1267858898E-01    0.1081454026E+00    0.1462847471E-03    0.6770167434E+00    0.5580897452E+00
    0.1700000000E+06    0.1193622483E-01    0.1082237097E+00    0.1363312657E-03    0.6775467934E+00    0.5591308300E+00
    0.1900000000E+06    0.1131462371E-01    0.1082841623E+00    0.1281209648E-03    0.6779591726E+00    0.5600109603E+00
    0.2100000000E+06    0.1078393293E-01    0.1083315909E+00    0.1211997114E-03    0.6782890510E+00    0.5607685186E+00
    0.2300000000E+06    0.1032375326E-01    0.1083692419E+00    0.1152631307E-03    0.6785588888E+00    0.5614301127E+00
    0.2500000000E+06    0.9919597622E-02    0.1083993794E+00    0.1100986530E-03    0.6787836899E+00    0.5620148584E+00
    0.2700000000E+06    0.9560849854E-02    0.1084236304E+00    0.1055527724E-03    0.6789738531E+00    0.5625368984E+00
    0.2900000000E+06    0.9239525147E-02    0.1084431942E+00    0.1015115164E-03    0.6791368102E+00    0.5630069560E+00
    0.3100000000E+06    0.8949484438E-02    0.1084589736E+00    0.9788826208E-04    0.6792780115E+00    0.5634333327E+00
    0.3300000000E+06    0.8685918205E-02    0.1084716613E+00    0.9461584503E-04    0.6794015446E+00    0.5638225711E+00
    0.3500000000E+06    0.8444996754E-02    0.1084817967E+00    0.9164128170E-04    0.6795105342E+00    0.5641799088E+00
    0.3700000000E+06    0.8223626953E-02    0.1084898064E+00    0.8892214091E-04    0.6796074098E+00    0.5645095960E+00
    0.3900000000E+06    0.8019279068E-02    0.1084960316E+00    0.8642398862E-04    0.6796940887E+00    0.5648151235E+00
    0.4100000000E+06    0.7829860987E-02    0.1085007481E+00    0.8411855003E-04    0.6797721039E+00    0.5650993896E+00
    0.4300000000E+06    0.7653625206E-02    0.1085041814E+00    0.8198236269E-04    0.6798426960E+00    0.5653648235E+00
    0.4500000000E+06    0.7489098933E-02    0.1085065173E+00    0.7999577277E-04    0.6799068792E+00    0.5656134797E+00
    0.4700000000E+06    0.7335030808E-02    0.1085079100E+00    0.7814217579E-04    0.6799654913E+00    0.5658471087E+00
    0.4900000000E+06    0.7190349749E-02    0.1085084888E+00    0.7640743449E-04    0.6800192300E+00    0.5660672133E+00
    0.1000000000E+06    0.1544215216E-01    0.1078090058E+00    0.1847889113E-03    0.6746704074E+00    0.5543106787E+00
    0.3000000000E+06    0.9090921317E-02    0.1084515095E+00    0.9965222116E-04    0.6792098484E+00    0.5632251605E+00
    0.5000000000E+06    0.7121235893E-02    0.1085085076E+00    0.7558077813E-04    0.6800444587E+00    0.5661726067E+00
    0.7000000000E+06    0.6062635971E-02    0.1084852453E+00    0.6308404224E-04    0.6803959777E+00    0.5678094633E+00
    0.9000000000E+06    0.5375302173E-02    0.1084415633E+00    0.5513909699E-04    0.6805903079E+00    0.5688993889E+00
    0.1100000000E+07    0.4882423649E-02    0.1083924961E+00    0.4952694143E-04    0.6807139212E+00    0.5696977664E+00
    0.1300000000E+07    0.4506471731E-02    0.1083429724E+00    0.4529587814E-04    0.6807996398E+00    0.5703182357E+00
    0.1500000000E+07    0.4207332719E-02    0.1082947887E+00    0.4196124142E-04    0.6808626697E+00    0.5708203081E+00
    0.1700000000E+07    0.3961874699E-02    0.1082485901E+00    0.3924696072E-04    0.6809110268E+00    0.5712386643E+00
    0.1900000000E+07    0.3755689827E-02    0.1082045548E+00    0.3698279776E-04    0.6809493408E+00    0.5715951111E+00
    0.2100000000E+07    0.3579270200E-02    0.1081626636E+00    0.3505735402E-04    0.6809804742E+00    0.5719041651E+00
    0.2300000000E+07    0.3426052435E-02    0.1081228146E+00    0.3339428778E-04    0.6810062927E+00    0.5721759286E+00
    0.2500000000E+07    0.3291339125E-02    0.1080848748E+00    0.3193930961E-04    0.6810280652E+00    0.5724176871E+00
    0.2700000000E+07    0.3171667195E-02    0.1080487044E+00    0.3065262315E-04    0.6810466849E+00    0.5726348506E+00
    0.2900000000E+07    0.3064419517E-02    0.1080141676E+00    0.2950430757E-04    0.6810627990E+00    0.5728315356E+00
    0.3100000000E+07    0.2967576251E-02    0.1079811370E+00    0.2847137841E-04    0.6810768884E+00    0.5730109397E+00
    0.3300000000E+07    0.2879550105E-02    0.1079494957E+00    0.2753585073E-04    0.6810893175E+00    0.5731755917E+00
    0.3500000000E+07    0.2799073971E-02    0.1079191374E+00    0.2668342427E-04    0.6811003679E+00    0.5733275225E+00
    0.3700000000E+07    0.2725122314E-02    0.1078899660E+00    0.2590256769E-04    0.6811102606E+00    0.5734683853E+00
    0.3900000000E+07    0.2656854950E-02    0.1078618945E+00    0.2518386621E-04    0.6811191715E+00    0.5735995420E+00
    0.4100000000E+07    0.2593576041E-02    0.1078348444E+00    0.2451954765E-04    0.6811272424E+00    0.5737221266E+00
    0.4300000000E+07    0.2534703665E-02    0.1078087451E+00    0.2390313192E-04    0.6811345888E+00    0.5738370927E+00
    0.4500000000E+07    0.2479746886E-02    0.1077835323E+00    0.2332916780E-04    0.6811413060E+00    0.5739452487E+00
    0.4700000000E+07    0.2428288222E-02    0.1077591480E+00    0.2279303223E-04    0.6811474730E+00    0.5740472853E+00
    0.4900000000E+07    0.2379970078E-02    0.1077355395E+00    0.2229077559E-04    0.6811531560E+00    0.5741437974E+00
    0.1000000000E+07    0.5110669657E-02    0.1084172812E+00    0.5211683213E-04    0.6806582812E+00    0.5693260915E+00
    0.3000000000E+07    0.3014805159E-02    0.1079974716E+00    0.2897464315E-04    0.6810700718E+00    0.5729232263E+00
    0.5000000000E+07    0.2356890667E-02    0.1077240109E+00    0.2205127143E-04    0.6811558339E+00    0.5741901453E+00
    0.7000000000E+07    0.2003630016E-02    0.1075245323E+00    0.1841937746E-04    0.6811939002E+00    0.5749223297E+00
    0.9000000000E+07    0.1774602980E-02    0.1073672404E+00    0.1610163604E-04    0.6812156981E+00    0.5754247643E+00
    0.1100000000E+08    0.1610588187E-02    0.1072371987E+00    0.1446165039E-04    0.6812299480E+00    0.5758018931E+00
    0.1300000000E+08    0.1485623248E-02    0.1071262373E+00    0.1322421643E-04    0.6812400572E+00    0.5761010818E+00
    0.1500000000E+08    0.1386284887E-02    0.1070293989E+00    0.1224854824E-04    0.6812476391E+00    0.5763475375E+00
    0.1700000000E+08    0.1304838958E-02    0.1069434466E+00    0.1145423260E-04    0.6812535594E+00    0.5765561582E+00
    0.1900000000E+08    0.1236472202E-02    0.1068661480E+00    0.1079159486E-04    0.6812583258E+00    0.5767364301E+00
    0.2100000000E+08    0.1178010773E-02    0.1067958976E+00    0.1022809054E-04    0.6812622562E+00    0.5768947405E+00
    0.2300000000E+08    0.1127265320E-02    0.1067315013E+00    0.9741398302E-05    0.6812655604E+00    0.5770355811E+00
    0.2500000000E+08    0.1082669967E-02    0.1066720466E+00    0.9315635282E-05    0.6812683826E+00    0.5771622226E+00
    0.2700000000E+08    0.1043071003E-02    0.1066168202E+00    0.8939153818E-05    0.6812708254E+00    0.5772771153E+00
