  Pressure (Pa) 2mC6-400 (mol/kg) 3mC6-400 (mol/kg) 33mC5-400 (mol/kg) 23mC5-400 (mol/kg) C7-400 (mol/kg)
    0.1000000000E+01    0.3965772779E-02    0.2103543002E-02    0.6458234441E-04    0.7446453043E-03    0.3413459811E-02
    0.3000000000E+01    0.1159257507E-01    0.6151764488E-02    0.1888092943E-03    0.2211864787E-02    0.9983722483E-02
    0.5000000000E+01    0.1883830777E-01    0.1000184565E-01    0.3068621910E-03    0.3650593154E-02    0.1623384519E-01
    0.7000000000E+01    0.2573064277E-01    0.1366873778E-01    0.4191897774E-03    0.5061903384E-02    0.2218795154E-01
    0.9000000000E+01    0.3229457545E-01    0.1716590725E-01    0.5261973331E-03    0.6446813083E-02    0.2786777095E-01
    0.1100000000E+02    0.3855274579E-01    0.2050551605E-01    0.6282518948E-03    0.7806288063E-02    0.3329292964E-01
    0.1300000000E+02    0.4452571395E-01    0.2369857660E-01    0.7256867363E-03    0.9141245641E-02    0.3848120013E-01
    0.1500000000E+02    0.5023219768E-01    0.2675508502E-01    0.8188052260E-03    0.1045255769E-01    0.4344871604E-01
    0.1700000000E+02    0.5568927758E-01    0.2968413622E-01    0.9078841633E-03    0.1174105345E-01    0.4821015754E-01
    0.1900000000E+02    0.6091257528E-01    0.3249402366E-01    0.9931766735E-03    0.1300752216E-01    0.5277891225E-01
    0.2100000000E+02    0.6591640858E-01    0.3519232615E-01    0.1074914728E-02    0.1425271547E-01    0.5716721511E-01
    0.2300000000E+02    0.7071392700E-01    0.3778598359E-01    0.1153311345E-02    0.1547734968E-01    0.6138627047E-01
    0.2500000000E+02    0.7531723054E-01    0.4028136322E-01    0.1228562521E-02    0.1668210781E-01    0.6544635893E-01
    0.2700000000E+02    0.7973747420E-01    0.4268431781E-01    0.1300848927E-02    0.1786764160E-01    0.6935693113E-01
    0.2900000000E+02    0.8398495993E-01    0.4500023690E-01    0.1370337399E-02    0.1903457325E-01    0.7312669037E-01
    0.3100000000E+02    0.8806921810E-01    0.4723409194E-01    0.1437182264E-02    0.2018349711E-01    0.7676366543E-01
    0.3300000000E+02    0.9199907956E-01    0.4939047637E-01    0.1501526510E-02    0.2131498129E-01    0.8027527512E-01
    0.3500000000E+02    0.9578273979E-01    0.5147364100E-01    0.1563502823E-02    0.2242956905E-01    0.8366838544E-01
    0.3700000000E+02    0.9942781594E-01    0.5348752566E-01    0.1623234518E-02    0.2352778024E-01    0.8694936052E-01
    0.3900000000E+02    0.1029413978E+00    0.5543578723E-01    0.1680836361E-02    0.2461011250E-01    0.9012410792E-01
    0.4100000000E+02    0.1063300935E+00    0.5732182483E-01    0.1736415316E-02    0.2567704250E-01    0.9319811913E-01
    0.4300000000E+02    0.1096000701E+00    0.5914880223E-01    0.1790071199E-02    0.2672902704E-01    0.9617650584E-01
    0.4500000000E+02    0.1127570909E+00    0.6091966804E-01    0.1841897284E-02    0.2776650410E-01    0.9906403247E-01
    0.4700000000E+02    0.1158065478E+00    0.6263717382E-01    0.1891980830E-02    0.2878989379E-01    0.1018651453E+00
    0.4900000000E+02    0.1187534917E+00    0.6430389040E-01    0.1940403574E-02    0.2979959929E-01    0.1045839991E+00
    0.1000000000E+02    0.3546055011E-01    0.1885469317E-01    0.5778221652E-03    0.7129671481E-02    0.3061103133E-01
    0.3000000000E+02    0.8604692493E-01    0.4612712691E-01    0.1404081093E-02    0.1961125005E-01    0.7496129865E-01
    0.5000000000E+02    0.1201900132E+00    0.6511896035E-01    0.1964016285E-02    0.3029944205E-01    0.1059138031E+00
    0.7000000000E+02    0.1445457868E+00    0.7926264406E-01    0.2365375836E-02    0.3966430435E-01    0.1290135787E+00
    0.9000000000E+02    0.1625883465E+00    0.9030390062E-01    0.2664366020E-02    0.4801899353E-01    0.1470829105E+00
    0.1100000000E+03    0.1763206745E+00    0.9922839203E-01    0.2893384305E-02    0.5558097035E-01    0.1617164577E+00
    0.1300000000E+03    0.1869830369E+00    0.1066369124E+00    0.3072491885E-02    0.6250646765E-01    0.1738869020E+00
    0.1500000000E+03    0.1953858622E+00    0.1129177768E+00    0.3214800441E-02    0.6891096423E-01    0.1842233549E+00
    0.1700000000E+03    0.2020814548E+00    0.1183338857E+00    0.3329249249E-02    0.7488189665E-01    0.1931520296E+00
    0.1900000000E+03    0.2074591588E+00    0.1230700590E+00    0.3422143609E-02    0.8048685224E-01    0.2009727539E+00
    0.2100000000E+03    0.2118011896E+00    0.1272603403E+00    0.3498057138E-02    0.8577902119E-01    0.2079031237E+00
    0.2300000000E+03    0.2153169403E+00    0.1310045311E+00    0.3560386126E-02    0.9080092653E-01    0.2141052530E+00
    0.2500000000E+03    0.2181648902E+00    0.1343786207E+00    0.3611703495E-02    0.9558703859E-01    0.2197026535E+00
    0.2700000000E+03    0.2204670562E+00    0.1374415961E+00    0.3653992304E-02    0.1001656469E+00    0.2247912621E+00
    0.2900000000E+03    0.2223187942E+00    0.1402400249E+00    0.3688804120E-02    0.1045602265E+00    0.2294468622E+00
    0.3100000000E+03    0.2237956093E+00    0.1428112178E+00    0.3717369076E-02    0.1087904518E+00    0.2337302104E+00
    0.3300000000E+03    0.2249579883E+00    0.1451854645E+00    0.3740673977E-02    0.1128729608E+00    0.2376906589E+00
    0.3500000000E+03    0.2258548923E+00    0.1473876439E+00    0.3759518779E-02    0.1168219395E+00    0.2413687684E+00
    0.3700000000E+03    0.2265263246E+00    0.1494384067E+00    0.3774558113E-02    0.1206495733E+00    0.2447982255E+00
    0.3900000000E+03    0.2270052464E+00    0.1513550571E+00    0.3786332274E-02    0.1243664013E+00    0.2480072742E+00
    0.4100000000E+03    0.2273190243E+00    0.1531522202E+00    0.3795290655E-02    0.1279815963E+00    0.2510197990E+00
    0.4300000000E+03    0.2274905389E+00    0.1548423538E+00    0.3801809700E-02    0.1315031876E+00    0.2538561565E+00
    0.4500000000E+03    0.2275390425E+00    0.1564361457E+00    0.3806206786E-02    0.1349382422E+00    0.2565338207E+00
    0.4700000000E+03    0.2274808292E+00    0.1579428256E+00    0.3808751092E-02    0.1382930105E+00    0.2590678899E+00
    0.4900000000E+03    0.2273297635E+00    0.1593704123E+00    0.3809672179E-02    0.1415730465E+00    0.2614714886E+00
    0.1000000000E+03    0.1699028973E+00    0.9498677850E-01    0.2786159632E-02    0.5188816007E-01    0.1547579959E+00
    0.3000000000E+03    0.2230999810E+00    0.1415519895E+00    0.3703800825E-02    0.1066947800E+00    0.2316317506E+00
    0.5000000000E+03    0.2272231849E+00    0.1600567699E+00    0.3809586628E-02    0.1431866098E+00    0.2626280036E+00
    0.7000000000E+03    0.2223452328E+00    0.1709444043E+00    0.3758152465E-02    0.1724983130E+00    0.2810607152E+00
    0.9000000000E+03    0.2151061244E+00    0.1784238394E+00    0.3660614607E-02    0.1977710286E+00    0.2938331750E+00
    0.1100000000E+04    0.2073238545E+00    0.1840103564E+00    0.3548600828E-02    0.2203301369E+00    0.3034435642E+00
    0.1300000000E+04    0.1996122636E+00    0.1884080527E+00    0.3433476115E-02    0.2408650883E+00    0.3110579035E+00
    0.1500000000E+04    0.1921955987E+00    0.1919972069E+00    0.3319855133E-02    0.2597852697E+00    0.3173084669E+00
    0.1700000000E+04    0.1851518937E+00    0.1950048096E+00    0.3209711565E-02    0.2773575348E+00    0.3225740298E+00
    0.1900000000E+04    0.1784993665E+00    0.1975764020E+00    0.3103871272E-02    0.2937685343E+00    0.3270982632E+00
    0.2100000000E+04    0.1722307976E+00    0.1998104612E+00    0.3002625020E-02    0.3091562964E+00    0.3310465508E+00
    0.2300000000E+04    0.1663283101E+00    0.2017764756E+00    0.2906002991E-02    0.3236276032E+00    0.3345359310E+00
    0.2500000000E+04    0.1607700483E+00    0.2035251588E+00    0.2813906048E-02    0.3372681748E+00    0.3376520532E+00
    0.2700000000E+04    0.1555332741E+00    0.2050945598E+00    0.2726171642E-02    0.3501489440E+00    0.3404593440E+00
    0.2900000000E+04    0.1505957978E+00    0.2065138929E+00    0.2642608111E-02    0.3623300838E+00    0.3430073926E+00
    0.3100000000E+04    0.1459366095E+00    0.2078060331E+00    0.2563012970E-02    0.3738636813E+00    0.3453351197E+00
    0.3300000000E+04    0.1415361173E+00    0.2089891961E+00    0.2487182791E-02    0.3847955663E+00    0.3474735886E+00
    0.3500000000E+04    0.1373761952E+00    0.2100781015E+00    0.2414918525E-02    0.3951665952E+00    0.3494479549E+00
    0.3700000000E+04    0.1334401374E+00    0.2110847972E+00    0.2346028310E-02    0.4050135738E+00    0.3512788519E+00
    0.3900000000E+04    0.1297125727E+00    0.2120192569E+00    0.2280328861E-02    0.4143699361E+00    0.3529833954E+00
    0.4100000000E+04    0.1261793630E+00    0.2128898216E+00    0.2217646044E-02    0.4232662548E+00    0.3545759271E+00
    0.4300000000E+04    0.1228275002E+00    0.2137035299E+00    0.2157814996E-02    0.4317306329E+00    0.3560685727E+00
    0.4500000000E+04    0.1196450073E+00    0.2144663705E+00    0.2100679980E-02    0.4397890107E+00    0.3574716680E+00
    0.4700000000E+04    0.1166208459E+00    0.2151834766E+00    0.2046094092E-02    0.4474654116E+00    0.3587940883E+00
    0.4900000000E+04    0.1137448323E+00    0.2158592781E+00    0.1993918894E-02    0.4547821425E+00    0.3600435061E+00
    0.1000000000E+04    0.2112305092E+00    0.1813989139E+00    0.3605466939E-02    0.2093376337E+00    0.2989429849E+00
    0.3000000000E+04    0.1482326766E+00    0.2071746300E+00    0.2602327262E-02    0.3681748315E+00    0.3441966969E+00
    0.5000000000E+04    0.1123594134E+00    0.2161829116E+00    0.1968694257E-02    0.4583121747E+00    0.3606429587E+00
    0.7000000000E+04    0.9049327757E-01    0.2212008813E+00    0.1562979005E-02    0.5143783024E+00    0.3700415496E+00
    0.9000000000E+04    0.7618463087E-01    0.2245124259E+00    0.1290398885E-02    0.5511335074E+00    0.3763722450E+00
    0.1100000000E+05    0.6625781942E-01    0.2269063828E+00    0.1098736114E-02    0.5763704510E+00    0.3810302345E+00
    0.1300000000E+05    0.5903109917E-01    0.2287394446E+00    0.9584552694E-03    0.5944137725E+00    0.3846536935E+00
    0.1500000000E+05    0.5355756401E-01    0.2301999637E+00    0.8521981655E-03    0.6077681561E+00    0.3875828543E+00
    0.1700000000E+05    0.4927450093E-01    0.2313981376E+00    0.7693398914E-03    0.6179467723E+00    0.3900184429E+00
    0.1900000000E+05    0.4583127635E-01    0.2324033434E+00    0.7031190001E-03    0.6259008149E+00    0.3920877850E+00
    0.2100000000E+05    0.4300017423E-01    0.2332617391E+00    0.6490769867E-03    0.6322501709E+00    0.3938761822E+00
    0.2300000000E+05    0.4062787733E-01    0.2340053909E+00    0.6041788510E-03    0.6374120337E+00    0.3954432792E+00
    0.2500000000E+05    0.3860786254E-01    0.2346573630E+00    0.5662993805E-03    0.6416753118E+00    0.3968322407E+00
    0.2700000000E+05    0.3686405428E-01    0.2352347265E+00    0.5339126722E-03    0.6452451975E+00    0.3980752018E+00
    0.2900000000E+05    0.3534079218E-01    0.2357504231E+00    0.5058984928E-03    0.6482707293E+00    0.3991966606E+00
    0.3100000000E+05    0.3399647394E-01    0.2362144657E+00    0.4814179899E-03    0.6508623408E+00    0.4002156734E+00
    0.3300000000E+05    0.3279941022E-01    0.2366347386E+00    0.4598318116E-03    0.6531033308E+00    0.4011473232E+00
    0.3500000000E+05    0.3172505169E-01    0.2370175456E+00    0.4406448734E-03    0.6550575426E+00    0.4020037295E+00
    0.3700000000E+05    0.3075409054E-01    0.2373679944E+00    0.4234682936E-03    0.6567746171E+00    0.4027947608E+00
    0.3900000000E+05    0.2987113353E-01    0.2376902737E+00    0.4079926452E-03    0.6582936577E+00    0.4035285475E+00
    0.4100000000E+05    0.2906375664E-01    0.2379878544E+00    0.3939688235E-03    0.6596458325E+00    0.4042118584E+00
    0.4300000000E+05    0.2832182009E-01    0.2382636407E+00    0.3811941369E-03    0.6608562538E+00    0.4048503819E+00
    0.4500000000E+05    0.2763696411E-01    0.2385200832E+00    0.3695020454E-03    0.6619453542E+00    0.4054489392E+00
    0.4700000000E+05    0.2700223237E-01    0.2387592659E+00    0.3587544857E-03    0.6629299096E+00    0.4060116479E+00
    0.4900000000E+05    0.2641178717E-01    0.2389829740E+00    0.3488360581E-03    0.6638238081E+00    0.4065420496E+00
    0.1000000000E+05    0.7080186352E-01    0.2257961568E+00    0.1186674189E-02    0.5648649924E+00    0.3788604700E+00
    0.3000000000E+05    0.3464844028E-01    0.2359883658E+00    0.4932604177E-03    0.6496150374E+00    0.3997179506E+00
    0.5000000000E+05    0.2613159883E-01    0.2390895143E+00    0.3441567858E-03    0.6642404586E+00    0.4067961096E+00
    0.7000000000E+05    0.2197535735E-01    0.2406899206E+00    0.2769699645E-03    0.6698222218E+00    0.4107471653E+00
    0.9000000000E+05    0.1938985870E-01    0.2416882327E+00    0.2374417265E-03    0.6727006610E+00    0.4133802189E+00
    0.1100000000E+06    0.1757673881E-01    0.2423771631E+00    0.2108176186E-03    0.6744404704E+00    0.4153075321E+00
    0.1300000000E+06    0.1621138337E-01    0.2428836575E+00    0.1913700723E-03    0.6756003855E+00    0.4168032415E+00
    0.1500000000E+06    0.1513350328E-01    0.2432725854E+00    0.1763795387E-03    0.6764268442E+00    0.4180114321E+00
    0.1700000000E+06    0.1425348519E-01    0.2435808774E+00    0.1643747283E-03    0.6770446559E+00    0.4190162602E+00
    0.1900000000E+06    0.1351670288E-01    0.2438312434E+00    0.1544833034E-03    0.6775235366E+00    0.4198707164E+00
    0.2100000000E+06    0.1288766420E-01    0.2440384810E+00    0.1461517193E-03    0.6779053863E+00    0.4206101058E+00
    0.2300000000E+06    0.1234214986E-01    0.2442126788E+00    0.1390098576E-03    0.6782168602E+00    0.4212590096E+00
    0.2500000000E+06    0.1186297737E-01    0.2443609696E+00    0.1327997454E-03    0.6784757037E+00    0.4218351580E+00
    0.2700000000E+06    0.1143756479E-01    0.2444885493E+00    0.1273353967E-03    0.6786941777E+00    0.4223517169E+00
    0.2900000000E+06    0.1105645403E-01    0.2445992985E+00    0.1224789151E-03    0.6788810202E+00    0.4228187026E+00
    0.3100000000E+06    0.1071237625E-01    0.2446961777E+00    0.1181256180E-03    0.6790426235E+00    0.4232438941E+00
    0.3300000000E+06    0.1039963852E-01    0.2447814872E+00    0.1141944194E-03    0.6791837706E+00    0.4236334404E+00
    0.3500000000E+06    0.1011370865E-01    0.2448570430E+00    0.1106214080E-03    0.6793081100E+00    0.4239922779E+00
    0.3700000000E+06    0.9850926622E-02    0.2449242985E+00    0.1073554392E-03    0.6794184731E+00    0.4243244231E+00
    0.3900000000E+06    0.9608299367E-02    0.2449844319E+00    0.1043550340E-03    0.6795170902E+00    0.4246331832E+00
    0.4100000000E+06    0.9383351691E-02    0.2450384082E+00    0.1015861517E-03    0.6796057416E+00    0.4249213107E+00
    0.4300000000E+06    0.9174016146E-02    0.2450870263E+00    0.9902055873E-04    0.6796858658E+00    0.4251911181E+00
    0.4500000000E+06    0.8978550274E-02    0.2451309530E+00    0.9663461451E-04    0.6797586373E+00    0.4254445650E+00
    0.4700000000E+06    0.8795473543E-02    0.2451707495E+00    0.9440835372E-04    0.6798250247E+00    0.4256833254E+00
    0.4900000000E+06    0.8623518659E-02    0.2452068917E+00    0.9232478305E-04    0.6798858337E+00    0.4259088387E+00
    0.1000000000E+06    0.1841273392E-01    0.2420613267E+00    0.2229802094E-03    0.6736667687E+00    0.4144105779E+00
    0.3000000000E+06    0.1088017314E-01    0.2446493149E+00    0.1202449021E-03    0.6789646466E+00    0.4230361057E+00
    0.5000000000E+06    0.8541364649E-02    0.2452237217E+00    0.9133187196E-04    0.6799143619E+00    0.4260170239E+00
    0.7000000000E+06    0.7282008105E-02    0.2454415843E+00    0.7631797102E-04    0.6803104065E+00    0.4277154969E+00
    0.9000000000E+06    0.6463157452E-02    0.2455343729E+00    0.6676640080E-04    0.6805279992E+00    0.4288680641E+00
    0.1100000000E+07    0.5875316180E-02    0.2455705576E+00    0.6001481310E-04    0.6806657793E+00    0.4297252547E+00
    0.1300000000E+07    0.5426525780E-02    0.2455774098E+00    0.5492157082E-04    0.6807609722E+00    0.4303999899E+00
    0.1500000000E+07    0.5069161970E-02    0.2455677790E+00    0.5090518885E-04    0.6808307521E+00    0.4309520326E+00
    0.1700000000E+07    0.4775739485E-02    0.2455484154E+00    0.4763435599E-04    0.6808841432E+00    0.4314165280E+00
    0.1900000000E+07    0.4529126827E-02    0.2455231455E+00    0.4490470474E-04    0.6809263435E+00    0.4318157521E+00
    0.2100000000E+07    0.4318011651E-02    0.2454942620E+00    0.4258245943E-04    0.6809605592E+00    0.4321646409E+00
    0.2300000000E+07    0.4134580596E-02    0.2454631968E+00    0.4057591336E-04    0.6809888763E+00    0.4324736565E+00
    0.2500000000E+07    0.3973238841E-02    0.2454308725E+00    0.3881982995E-04    0.6810127106E+00    0.4327503896E+00
    0.2700000000E+07    0.3829859836E-02    0.2453978979E+00    0.3726637369E-04    0.6810330574E+00    0.4330005076E+00
    0.2900000000E+07    0.3701323757E-02    0.2453646813E+00    0.3587956916E-04    0.6810506368E+00    0.4332283458E+00
    0.3100000000E+07    0.3585221872E-02    0.2453314996E+00    0.3463177336E-04    0.6810659828E+00    0.4334372880E+00
    0.3300000000E+07    0.3479660614E-02    0.2452985415E+00    0.3350135048E-04    0.6810795000E+00    0.4336300225E+00
    0.3500000000E+07    0.3383127888E-02    0.2452659354E+00    0.3247109314E-04    0.6810915004E+00    0.4338087174E+00
    0.3700000000E+07    0.3294399503E-02    0.2452337678E+00    0.3152712245E-04    0.6811022285E+00    0.4339751451E+00
    0.3900000000E+07    0.3212472239E-02    0.2452020958E+00    0.3065810446E-04    0.6811118790E+00    0.4341307713E+00
    0.4100000000E+07    0.3136515008E-02    0.2451709555E+00    0.2985468065E-04    0.6811206085E+00    0.4342768212E+00
    0.4300000000E+07    0.3065832608E-02    0.2451403681E+00    0.2910904674E-04    0.6811285444E+00    0.4344143283E+00
    0.4500000000E+07    0.2999838390E-02    0.2451103441E+00    0.2841463622E-04    0.6811357917E+00    0.4345441721E+00
    0.4700000000E+07    0.2938033370E-02    0.2450808862E+00    0.2776587920E-04    0.6811424376E+00    0.4346671064E+00
    0.4900000000E+07    0.2879990052E-02    0.2450519916E+00    0.2715801625E-04    0.6811485550E+00    0.4347837823E+00
    0.1000000000E+07    0.6147610218E-02    0.2455573351E+00    0.6313106951E-04    0.6806038306E+00    0.4293247361E+00
    0.3000000000E+07    0.3641847157E-02    0.2453480726E+00    0.3523976685E-04    0.6810585612E+00    0.4333349970E+00
    0.5000000000E+07    0.2852261811E-02    0.2450377536E+00    0.2686811789E-04    0.6811514352E+00    0.4348399530E+00
    0.7000000000E+07    0.2427544864E-02    0.2447799003E+00    0.2246907203E-04    0.6811921787E+00    0.4357399768E+00
    0.9000000000E+07    0.2151868082E-02    0.2445641818E+00    0.1965856957E-04    0.6812152977E+00    0.4363724619E+00
    0.1100000000E+08    0.1954273685E-02    0.2443794572E+00    0.1766821419E-04    0.6812302954E+00    0.4368559340E+00
    0.1300000000E+08    0.1803619973E-02    0.2442180444E+00    0.1616538409E-04    0.6812408639E+00    0.4372451679E+00
    0.1500000000E+08    0.1683792372E-02    0.2440747048E+00    0.1497978649E-04    0.6812487426E+00    0.4375697587E+00
    0.1700000000E+08    0.1585499822E-02    0.2439457618E+00    0.1401409205E-04    0.6812548612E+00    0.4378474216E+00
    0.1900000000E+08    0.1502956867E-02    0.2438285505E+00    0.1320814354E-04    0.6812597625E+00    0.4380895616E+00
    0.2100000000E+08    0.1432346743E-02    0.2437210823E+00    0.1252251025E-04    0.6812637854E+00    0.4383039321E+00
    0.2300000000E+08    0.1371035489E-02    0.2436218356E+00    0.1193013652E-04    0.6812671526E+00    0.4384960329E+00
    0.2500000000E+08    0.1317138519E-02    0.2435296206E+00    0.1141176360E-04    0.6812700169E+00    0.4386699000E+00
    0.2700000000E+08    0.1269266829E-02    0.2434434895E+00    0.1095326339E-04    0.6812724866E+00    0.4388285788E+00
