  Pressure (Pa) 2mC6-400 (mol/kg) 3mC6-400 (mol/kg) 33mC5-400 (mol/kg) 23mC5-400 (mol/kg) C7-400 (mol/kg)
    0.1000000000E+01    0.3964390684E-02    0.5254699638E-03    0.5810446686E-03    0.1862184348E-03    0.5116158826E-02
    0.3000000000E+01    0.1158124641E-01    0.1534406292E-02    0.1697677018E-02    0.5534684038E-03    0.1494131228E-01
    0.5000000000E+01    0.1880963597E-01    0.2491171664E-02    0.2757702878E-02    0.9140117758E-03    0.2426069355E-01
    0.7000000000E+01    0.2567942745E-01    0.3399932274E-02    0.3765479442E-02    0.1268088654E-02    0.3311463630E-01
    0.9000000000E+01    0.3221741115E-01    0.4264416762E-02    0.4724914244E-02    0.1615927263E-02    0.4153924118E-01
    0.1100000000E+02    0.3844769254E-01    0.5087972411E-02    0.5639522627E-02    0.1957744686E-02    0.4956691922E-01
    0.1300000000E+02    0.4439202603E-01    0.5873612889E-02    0.6512476561E-02    0.2293747550E-02    0.5722685353E-01
    0.1500000000E+02    0.5007009972E-01    0.6624058983E-02    0.7346646290E-02    0.2624132660E-02    0.6454539326E-01
    0.1700000000E+02    0.5549977947E-01    0.7341773499E-02    0.8144636004E-02    0.2949087588E-02    0.7154639108E-01
    0.1900000000E+02    0.6069731877E-01    0.8028991271E-02    0.8908814529E-02    0.3268791219E-02    0.7825149353E-01
    0.2100000000E+02    0.6567754005E-01    0.8687745079E-02    0.9641341825E-02    0.3583414255E-02    0.8468039159E-01
    0.2300000000E+02    0.7045399177E-01    0.9319888093E-02    0.1034419194E-01    0.3893119691E-02    0.9085103789E-01
    0.2500000000E+02    0.7503908512E-01    0.9927113391E-02    0.1101917300E-01    0.4198063252E-02    0.9677983546E-01
    0.2700000000E+02    0.7944421321E-01    0.1051097098E-01    0.1166794458E-01    0.4498393804E-02    0.1024818024E+00
    0.2900000000E+02    0.8367985551E-01    0.1107288267E-01    0.1229203303E-01    0.4794253731E-02    0.1079707159E+00
    0.3100000000E+02    0.8775566944E-01    0.1161415516E-01    0.1289284477E-01    0.5085779296E-02    0.1132592385E+00
    0.3300000000E+02    0.9168057111E-01    0.1213599152E-01    0.1347167815E-01    0.5373100972E-02    0.1183590296E+00
    0.3500000000E+02    0.9546280659E-01    0.1263950131E-01    0.1402973383E-01    0.5656343753E-02    0.1232808434E+00
    0.3700000000E+02    0.9911001501E-01    0.1312570959E-01    0.1456812397E-01    0.5935627442E-02    0.1280346154E+00
    0.3900000000E+02    0.1026292845E+00    0.1359556484E-01    0.1508788043E-01    0.6211066930E-02    0.1326295400E+00
    0.4100000000E+02    0.1060272022E+00    0.1404994604E-01    0.1558996205E-01    0.6482772444E-02    0.1370741383E+00
    0.4300000000E+02    0.1093098985E+00    0.1448966897E-01    0.1607526112E-01    0.6750849790E-02    0.1413763193E+00
    0.4500000000E+02    0.1124830870E+00    0.1491549182E-01    0.1654460916E-01    0.7015400579E-02    0.1455434344E+00
    0.4700000000E+02    0.1155520997E+00    0.1532812024E-01    0.1699878219E-01    0.7276522432E-02    0.1495823261E+00
    0.4900000000E+02    0.1185219196E+00    0.1572821184E-01    0.1743850529E-01    0.7534309185E-02    0.1534993713E+00
    0.1000000000E+02    0.3536960343E-01    0.4681115026E-02    0.5187615962E-02    0.1787575471E-02    0.4560080137E-01
    0.3000000000E+02    0.8573716726E-01    0.1134602132E-01    0.1259526493E-01    0.4940550022E-02    0.1106392750E+00
    0.5000000000E+02    0.1199711010E+00    0.1592374971E-01    0.1765316183E-01    0.7661980232E-02    0.1554140769E+00
    0.7000000000E+02    0.1447342795E+00    0.1930550310E-01    0.2133129799E-01    0.1006052146E-01    0.1885642467E+00
    0.9000000000E+02    0.1634197871E+00    0.2193270139E-01    0.2412330427E-01    0.1220969503E-01    0.2143721407E+00
    0.1100000000E+03    0.1779565364E+00    0.2405008222E-01    0.2630972299E-01    0.1416124086E-01    0.2352138376E+00
    0.1300000000E+03    0.1895297997E+00    0.2580487381E-01    0.2806294617E-01    0.1595276570E-01    0.2525197808E+00
    0.1500000000E+03    0.1989113050E+00    0.2729130605E-01    0.2949524826E-01    0.1761235309E-01    0.2672061487E+00
    0.1700000000E+03    0.2066265261E+00    0.2857269855E-01    0.3068311285E-01    0.1916146243E-01    0.2798890177E+00
    0.1900000000E+03    0.2130462568E+00    0.2969330640E-01    0.3168054290E-01    0.2061681880E-01    0.2909992709E+00
    0.2100000000E+03    0.2184398770E+00    0.3068507926E-01    0.3252680059E-01    0.2199168335E-01    0.3008481918E+00
    0.2300000000E+03    0.2230078961E+00    0.3157171862E-01    0.3325113530E-01    0.2329673044E-01    0.3096668564E+00
    0.2500000000E+03    0.2269026572E+00    0.3237121846E-01    0.3387579146E-01    0.2454066745E-01    0.3176308108E+00
    0.2700000000E+03    0.2302419665E+00    0.3309751434E-01    0.3441798857E-01    0.2573068209E-01    0.3248760955E+00
    0.2900000000E+03    0.2331183277E+00    0.3376158726E-01    0.3489126306E-01    0.2687277102E-01    0.3315099764E+00
    0.3100000000E+03    0.2356053588E+00    0.3437222246E-01    0.3530640069E-01    0.2797198536E-01    0.3376183243E+00
    0.3300000000E+03    0.2377623472E+00    0.3493654361E-01    0.3567209884E-01    0.2903261688E-01    0.3432708120E+00
    0.3500000000E+03    0.2396375480E+00    0.3546039655E-01    0.3599544600E-01    0.3005834100E-01    0.3485246493E+00
    0.3700000000E+03    0.2412706115E+00    0.3594863019E-01    0.3628227498E-01    0.3105232810E-01    0.3534273180E+00
    0.3900000000E+03    0.2426943982E+00    0.3640530557E-01    0.3653742693E-01    0.3201733101E-01    0.3580186083E+00
    0.4100000000E+03    0.2439363543E+00    0.3683385366E-01    0.3676495167E-01    0.3295575462E-01    0.3623321569E+00
    0.4300000000E+03    0.2450195668E+00    0.3723719632E-01    0.3696826131E-01    0.3386971160E-01    0.3663966253E+00
    0.4500000000E+03    0.2459635823E+00    0.3761783993E-01    0.3715024959E-01    0.3476106766E-01    0.3702366134E+00
    0.4700000000E+03    0.2467850491E+00    0.3797794878E-01    0.3731338552E-01    0.3563147827E-01    0.3738733757E+00
    0.4900000000E+03    0.2474982249E+00    0.3831940331E-01    0.3745978740E-01    0.3648241904E-01    0.3773253889E+00
    0.1000000000E+03    0.1711202364E+00    0.2304430869E-01    0.2527962884E-01    0.1320755445E-01    0.2253087563E+00
    0.3000000000E+03    0.2344065119E+00    0.3407310549E-01    0.3510551280E-01    0.2742745333E-01    0.3346251573E+00
    0.5000000000E+03    0.2478181071E+00    0.3848365682E-01    0.3752729399E-01    0.3690100641E-01    0.3789872424E+00
    0.7000000000E+03    0.2507621032E+00    0.4109740256E-01    0.3833235753E-01    0.4450881124E-01    0.4055563462E+00
    0.9000000000E+03    0.2502498972E+00    0.4290251288E-01    0.3857108940E-01    0.5109497434E-01    0.4240626988E+00
    0.1100000000E+04    0.2483739469E+00    0.4425604079E-01    0.3856551111E-01    0.5702357994E-01    0.4380405175E+00
    0.1300000000E+04    0.2459266296E+00    0.4532464336E-01    0.3844197378E-01    0.6248649490E-01    0.4491468059E+00
    0.1500000000E+04    0.2432516915E+00    0.4619871473E-01    0.3825791704E-01    0.6759819004E-01    0.4582838669E+00
    0.1700000000E+04    0.2405109055E+00    0.4693241742E-01    0.3804211558E-01    0.7243298668E-01    0.4659942686E+00
    0.1900000000E+04    0.2377838304E+00    0.4756059589E-01    0.3780998460E-01    0.7704218672E-01    0.4726281968E+00
    0.2100000000E+04    0.2351099865E+00    0.4810689625E-01    0.3757017777E-01    0.8146288180E-01    0.4784240081E+00
    0.2300000000E+04    0.2325083465E+00    0.4858804733E-01    0.3732770761E-01    0.8572287858E-01    0.4835508034E+00
    0.2500000000E+04    0.2299869656E+00    0.4901628601E-01    0.3708553012E-01    0.8984363738E-01    0.4881326017E+00
    0.2700000000E+04    0.2275479900E+00    0.4940081194E-01    0.3684539603E-01    0.9384211927E-01    0.4922628712E+00
    0.2900000000E+04    0.2251903628E+00    0.4974870148E-01    0.3660832941E-01    0.9773199764E-01    0.4960136762E+00
    0.3100000000E+04    0.2229113309E+00    0.5006550450E-01    0.3637490684E-01    0.1015244816E+00    0.4994416618E+00
    0.3300000000E+04    0.2207072984E+00    0.5035564687E-01    0.3614542529E-01    0.1052288929E+00    0.5025920977E+00
    0.3500000000E+04    0.2185743163E+00    0.5062270970E-01    0.3592000560E-01    0.1088530801E+00    0.5055016873E+00
    0.3700000000E+04    0.2165083627E+00    0.5086962757E-01    0.3569865766E-01    0.1124037238E+00    0.5082005679E+00
    0.3900000000E+04    0.2145055011E+00    0.5109883253E-01    0.3548132198E-01    0.1158865645E+00    0.5107137625E+00
    0.4100000000E+04    0.2125619659E+00    0.5131236041E-01    0.3526789672E-01    0.1193065768E+00    0.5130622562E+00
    0.4300000000E+04    0.2106742050E+00    0.5151193076E-01    0.3505825524E-01    0.1226681046E+00    0.5152638055E+00
    0.4500000000E+04    0.2088388973E+00    0.5169900783E-01    0.3485225769E-01    0.1259749665E+00    0.5173335561E+00
    0.4700000000E+04    0.2070529544E+00    0.5187484760E-01    0.3464975855E-01    0.1292305400E+00    0.5192845220E+00
    0.4900000000E+04    0.2053135138E+00    0.5204053473E-01    0.3445061162E-01    0.1324378293E+00    0.5211279595E+00
    0.1000000000E+04    0.2494171065E+00    0.4362277010E-01    0.3858853994E-01    0.5412699471E-01    0.4314890228E+00
    0.3000000000E+04    0.2240412345E+00    0.4991068959E-01    0.3649113895E-01    0.9963979258E-01    0.4977649632E+00
    0.5000000000E+04    0.2044603964E+00    0.5211987044E-01    0.3435225015E-01    0.1340242178E+00    0.5220124664E+00
    0.7000000000E+04    0.1892965122E+00    0.5334862969E-01    0.3252915473E-01    0.1637423739E+00    0.5358822446E+00
    0.9000000000E+04    0.1767594817E+00    0.5415717101E-01    0.3091573195E-01    0.1905209157E+00    0.5452217236E+00
    0.1100000000E+05    0.1659721258E+00    0.5473970649E-01    0.2945100000E-01    0.2151184895E+00    0.5520874158E+00
    0.1300000000E+05    0.1564553771E+00    0.5518418491E-01    0.2810066441E-01    0.2379473764E+00    0.5574215988E+00
    0.1500000000E+05    0.1479204706E+00    0.5553706951E-01    0.2684400984E-01    0.2592630133E+00    0.5617272095E+00
    0.1700000000E+05    0.1401793564E+00    0.5582554166E-01    0.2566758825E-01    0.2792395778E+00    0.5653012196E+00
    0.1900000000E+05    0.1331017701E+00    0.5606670653E-01    0.2456207299E-01    0.2980052568E+00    0.5683321328E+00
    0.2100000000E+05    0.1265927840E+00    0.5627193725E-01    0.2352059341E-01    0.3156604714E+00    0.5709463086E+00
    0.2300000000E+05    0.1205802294E+00    0.5644912849E-01    0.2253780538E-01    0.3322879735E+00    0.5732321442E+00
    0.2500000000E+05    0.1150072521E+00    0.5660395367E-01    0.2160934991E-01    0.3479587199E+00    0.5752536422E+00
    0.2700000000E+05    0.1098277035E+00    0.5674060796E-01    0.2073152757E-01    0.3627354119E+00    0.5770584733E+00
    0.2900000000E+05    0.1050031806E+00    0.5686226853E-01    0.1990109766E-01    0.3766746830E+00    0.5786829957E+00
    0.3100000000E+05    0.1005010624E+00    0.5697139103E-01    0.1911515198E-01    0.3898284795E+00    0.5801555053E+00
    0.3300000000E+05    0.9629316999E-01    0.5706990699E-01    0.1837103431E-01    0.4022449480E+00    0.5814984086E+00
    0.3500000000E+05    0.9235482931E-01    0.5715935904E-01    0.1766628834E-01    0.4139690161E+00    0.5827297187E+00
    0.3700000000E+05    0.8866419797E-01    0.5724099586E-01    0.1699862357E-01    0.4250427834E+00    0.5838641105E+00
    0.3900000000E+05    0.8520177144E-01    0.5731584020E-01    0.1636589247E-01    0.4355057933E+00    0.5849136794E+00
    0.4100000000E+05    0.8195001174E-01    0.5738473874E-01    0.1576607496E-01    0.4453952310E+00    0.5858885002E+00
    0.4300000000E+05    0.7889306218E-01    0.5744839906E-01    0.1519726731E-01    0.4547460763E+00    0.5867970430E+00
    0.4500000000E+05    0.7601652324E-01    0.5750741761E-01    0.1465767394E-01    0.4635912290E+00    0.5876464893E+00
    0.4700000000E+05    0.7330727286E-01    0.5756230107E-01    0.1414560103E-01    0.4719616174E+00    0.5884429746E+00
    0.4900000000E+05    0.7075331944E-01    0.5761348294E-01    0.1365945106E-01    0.4798862980E+00    0.5891917771E+00
    0.1000000000E+05    0.1711830709E+00    0.5446980036E-01    0.3016734926E-01    0.2030615276E+00    0.5488902037E+00
    0.3000000000E+05    0.1027136736E+00    0.5691826586E-01    0.1950273549E-01    0.3833466753E+00    0.5794367338E+00
    0.5000000000E+05    0.6953111027E-01    0.5763780449E-01    0.1342562311E-01    0.4836900894E+00    0.5895497497E+00
    0.7000000000E+05    0.5101239254E-01    0.5799817708E-01    0.9789155833E-02    0.5421257722E+00    0.5950495789E+00
    0.9000000000E+05    0.3981203167E-01    0.5821673041E-01    0.7504982399E-02    0.5780137858E+00    0.5986309408E+00
    0.1100000000E+06    0.3255870835E-01    0.5836346392E-01    0.5993619345E-02    0.6013112338E+00    0.6012014989E+00
    0.1300000000E+06    0.2758451392E-01    0.5846842390E-01    0.4945074970E-02    0.6172065947E+00    0.6031635478E+00
    0.1500000000E+06    0.2400831648E-01    0.5854681620E-01    0.4187439969E-02    0.6285203037E+00    0.6047259769E+00
    0.1700000000E+06    0.2133534457E-01    0.5860721819E-01    0.3620931988E-02    0.6368634931E+00    0.6060093106E+00
    0.1900000000E+06    0.1927224599E-01    0.5865485762E-01    0.3184960576E-02    0.6432015258E+00    0.6070885734E+00
    0.2100000000E+06    0.1763664567E-01    0.5869311168E-01    0.2841183855E-02    0.6481383088E+00    0.6080132275E+00
    0.2300000000E+06    0.1631041388E-01    0.5872426352E-01    0.2564433296E-02    0.6520662594E+00    0.6088173843E+00
    0.2500000000E+06    0.1521426914E-01    0.5874991406E-01    0.2337646563E-02    0.6552489883E+00    0.6095254369E+00
    0.2700000000E+06    0.1429333618E-01    0.5877122001E-01    0.2148924740E-02    0.6578688045E+00    0.6101553564E+00
    0.2900000000E+06    0.1350859614E-01    0.5878903839E-01    0.1989760581E-02    0.6600550495E+00    0.6107207173E+00
    0.3100000000E+06    0.1283164102E-01    0.5880401785E-01    0.1853936502E-02    0.6619015738E+00    0.6112319925E+00
    0.3300000000E+06    0.1224135162E-01    0.5881665837E-01    0.1736818772E-02    0.6634778471E+00    0.6116974106E+00
    0.3500000000E+06    0.1172173345E-01    0.5882735157E-01    0.1634893410E-02    0.6648362127E+00    0.6121235394E+00
    0.3700000000E+06    0.1126047080E-01    0.5883640847E-01    0.1545453704E-02    0.6660167417E+00    0.6125156951E+00
    0.3900000000E+06    0.1084793854E-01    0.5884407919E-01    0.1466385274E-02    0.6670505517E+00    0.6128782332E+00
    0.4100000000E+06    0.1047651276E-01    0.5885056704E-01    0.1396015335E-02    0.6679621213E+00    0.6132147616E+00
    0.4300000000E+06    0.1014008091E-01    0.5885603896E-01    0.1333005121E-02    0.6687709341E+00    0.6135282984E+00
    0.4500000000E+06    0.9833687718E-02    0.5886063324E-01    0.1276271865E-02    0.6694926636E+00    0.6138213903E+00
    0.4700000000E+06    0.9553275459E-02    0.5886446536E-01    0.1224931380E-02    0.6701400425E+00    0.6140962039E+00
    0.4900000000E+06    0.9295490512E-02    0.5886763243E-01    0.1178255239E-02    0.6707235076E+00    0.6143545953E+00
    0.1000000000E+06    0.3582175608E-01    0.5829669099E-01    0.6676425939E-02    0.5908366667E+00    0.6000108936E+00
    0.3000000000E+06    0.1315810655E-01    0.5879684880E-01    0.1919251411E-02    0.6610159629E+00    0.6109825566E+00
    0.5000000000E+06    0.9174191177E-02    0.5886899279E-01    0.1156473127E-02    0.6709940280E+00    0.6144781419E+00
    0.7000000000E+06    0.7451066442E-02    0.5887587348E-01    0.8614966689E-03    0.6745222474E+00    0.6163808322E+00
    0.9000000000E+06    0.6447650343E-02    0.5886339140E-01    0.7044710410E-03    0.6762629237E+00    0.6176289158E+00
    0.1100000000E+07    0.5772432228E-02    0.5884391135E-01    0.6059598202E-03    0.6772848998E+00    0.6185319705E+00
    0.1300000000E+07    0.5278033302E-02    0.5882187369E-01    0.5377190150E-03    0.6779525976E+00    0.6192264230E+00
    0.1500000000E+07    0.4895556678E-02    0.5879912987E-01    0.4872323979E-03    0.6784214820E+00    0.6197831564E+00
    0.1700000000E+07    0.4588028078E-02    0.5877651553E-01    0.4480997706E-03    0.6787682953E+00    0.6202431995E+00
    0.1900000000E+07    0.4333611865E-02    0.5875441846E-01    0.4167010209E-03    0.6790350356E+00    0.6206321957E+00
    0.2100000000E+07    0.4118474143E-02    0.5873301322E-01    0.3908291012E-03    0.6792465240E+00    0.6209671229E+00
    0.2300000000E+07    0.3933366563E-02    0.5871236765E-01    0.3690582413E-03    0.6794183321E+00    0.6212597372E+00
    0.2500000000E+07    0.3771838396E-02    0.5869249468E-01    0.3504239801E-03    0.6795607047E+00    0.6215184776E+00
    0.2700000000E+07    0.3629233101E-02    0.5867337892E-01    0.3342490018E-03    0.6796806499E+00    0.6217495834E+00
    0.2900000000E+07    0.3502092640E-02    0.5865499077E-01    0.3200426389E-03    0.6797831193E+00    0.6219577827E+00
    0.3100000000E+07    0.3387787162E-02    0.5863729406E-01    0.3074400191E-03    0.6798717086E+00    0.6221467343E+00
    0.3300000000E+07    0.3284275708E-02    0.5862025037E-01    0.2961636926E-03    0.6799490905E+00    0.6223193211E+00
    0.3500000000E+07    0.3189946448E-02    0.5860382127E-01    0.2859985858E-03    0.6800172930E+00    0.6224778500E+00
    0.3700000000E+07    0.3103506954E-02    0.5858796964E-01    0.2767751589E-03    0.6800778819E+00    0.6226241929E+00
    0.3900000000E+07    0.3023906974E-02    0.5857266027E-01    0.2683577815E-03    0.6801320854E+00    0.6227598870E+00
    0.4100000000E+07    0.2950282905E-02    0.5855786014E-01    0.2606365262E-03    0.6801808803E+00    0.6228862082E+00
    0.4300000000E+07    0.2881917092E-02    0.5854353853E-01    0.2535212557E-03    0.6802250532E+00    0.6230042262E+00
    0.4500000000E+07    0.2818207497E-02    0.5852966694E-01    0.2469372854E-03    0.6802652447E+00    0.6231148454E+00
    0.4700000000E+07    0.2758644741E-02    0.5851621902E-01    0.2408221495E-03    0.6803019816E+00    0.6232188365E+00
    0.4900000000E+07    0.2702794496E-02    0.5850317042E-01    0.2351231558E-03    0.6803357013E+00    0.6233168610E+00
    0.1000000000E+07    0.6081005485E-02    0.5885415645E-01    0.6502314807E-03    0.6768333851E+00    0.6181128266E+00
    0.3000000000E+07    0.3443474718E-02    0.5864605837E-01    0.3135599076E-03    0.6798289641E+00    0.6220544688E+00
    0.5000000000E+07    0.2676142930E-02    0.5849678876E-01    0.2324154477E-03    0.6803515466E+00    0.6233638175E+00
    0.7000000000E+07    0.2270041808E-02    0.5838549911E-01    0.1920759873E-03    0.6805740161E+00    0.6240949490E+00
    0.9000000000E+07    0.2008295429E-02    0.5829682288E-01    0.1669552268E-03    0.6806995100E+00    0.6245841815E+00
    0.1100000000E+08    0.1821428773E-02    0.5822304495E-01    0.1494256868E-03    0.6807811092E+00    0.6249441223E+00
    0.1300000000E+08    0.1679321290E-02    0.5815982117E-01    0.1363163014E-03    0.6808389365E+00    0.6252249618E+00
    0.1500000000E+08    0.1566498121E-02    0.5810447102E-01    0.1260436743E-03    0.6808823543E+00    0.6254530296E+00
    0.1700000000E+08    0.1474079125E-02    0.5805522448E-01    0.1177181463E-03    0.6809163324E+00    0.6256436961E+00
    0.1900000000E+08    0.1396553289E-02    0.5801085110E-01    0.1107966183E-03    0.6809437646E+00    0.6258066425E+00
    0.2100000000E+08    0.1330294059E-02    0.5797046047E-01    0.1049264509E-03    0.6809664559E+00    0.6259483240E+00
    0.2300000000E+08    0.1272803653E-02    0.5793338716E-01    0.9986746413E-04    0.6809855937E+00    0.6260732402E+00
    0.2500000000E+08    0.1222297743E-02    0.5789912062E-01    0.9544971174E-04    0.6810019931E+00    0.6261846409E+00
    0.2700000000E+08    0.1177462932E-02    0.5786726043E-01    0.9154913438E-04    0.6810162332E+00    0.6262849429E+00
