  Pressure (Pa) 2mC6-400 (mol/kg) 3mC6-400 (mol/kg) 33mC5-400 (mol/kg) 23mC5-400 (mol/kg) C7-400 (mol/kg)
    0.1000000000E+01    0.3964440577E-02    0.5256714610E-03    0.2582433853E-03    0.6515283658E-03    0.5118112547E-02
    0.3000000000E+01    0.1158127617E-01    0.1536115932E-02    0.7545080228E-03    0.1935064587E-02    0.1495789029E-01
    0.5000000000E+01    0.1880868618E-01    0.2495656041E-02    0.1225537654E-02    0.3193413112E-02    0.2430418100E-01
    0.7000000000E+01    0.2567577031E-01    0.3408244689E-02    0.1673219733E-02    0.4427534731E-02    0.3319525249E-01
    0.9000000000E+01    0.3220873008E-01    0.4277430999E-02    0.2099253473E-02    0.5638339956E-02    0.4166546646E-01
    0.1100000000E+02    0.3843122667E-01    0.5106410784E-02    0.2505173115E-02    0.6826692318E-02    0.4974576648E-01
    0.1300000000E+02    0.4436468658E-01    0.5898069619E-02    0.2892367802E-02    0.7993411402E-02    0.5746409444E-01
    0.1500000000E+02    0.5002856373E-01    0.6655019747E-02    0.3262098612E-02    0.9139275653E-02    0.6484574754E-01
    0.1700000000E+02    0.5544056522E-01    0.7379631839E-02    0.3615513239E-02    0.1026502496E-01    0.7191368539E-01
    0.1900000000E+02    0.6061684641E-01    0.8074062407E-02    0.3953658664E-02    0.1137136307E-01    0.7868879519E-01
    0.2100000000E+02    0.6557218018E-01    0.8740277577E-02    0.4277492158E-02    0.1245895976E-01    0.8519012157E-01
    0.2300000000E+02    0.7032010430E-01    0.9380073737E-02    0.4587890855E-02    0.1352845296E-01    0.9143506647E-01
    0.2500000000E+02    0.7487305009E-01    0.9995095571E-02    0.4885660110E-02    0.1458045059E-01    0.9743956343E-01
    0.2700000000E+02    0.7924245521E-01    0.1058685182E-01    0.5171540821E-02    0.1561553238E-01    0.1032182302E+00
    0.2900000000E+02    0.8343886266E-01    0.1115672912E-01    0.5446215867E-02    0.1663425149E-01    0.1087845024E+00
    0.3100000000E+02    0.8747200818E-01    0.1170600420E-01    0.5710315777E-02    0.1763713604E-01    0.1141507517E+00
    0.3300000000E+02    0.9135089737E-01    0.1223585458E-01    0.5964423736E-02    0.1862469057E-01    0.1193283896E+00
    0.3500000000E+02    0.9508387408E-01    0.1274736812E-01    0.6209080029E-02    0.1959739730E-01    0.1243279591E+00
    0.3700000000E+02    0.9867868115E-01    0.1324155145E-01    0.6444785982E-02    0.2055571744E-01    0.1291592169E+00
    0.3900000000E+02    0.1021425145E+00    0.1371933744E-01    0.6672007468E-02    0.2150009230E-01    0.1338312054E+00
    0.4100000000E+02    0.1054820713E+00    0.1418159187E-01    0.6891178048E-02    0.2243094439E-01    0.1383523175E+00
    0.4300000000E+02    0.1087035934E+00    0.1462911945E-01    0.7102701765E-02    0.2334867841E-01    0.1427303544E+00
    0.4500000000E+02    0.1118129059E+00    0.1506266908E-01    0.7306955661E-02    0.2425368223E-01    0.1469725771E+00
    0.4700000000E+02    0.1148154519E+00    0.1548293870E-01    0.7504292031E-02    0.2514632775E-01    0.1510857528E+00
    0.4900000000E+02    0.1177163237E+00    0.1589057954E-01    0.7695040458E-02    0.2602697171E-01    0.1550761963E+00
    0.1000000000E+02    0.3535739801E-01    0.4696759548E-02    0.2304637546E-02    0.6235270525E-02    0.4575254344E-01
    0.3000000000E+02    0.8547526404E-01    0.1143386614E-01    0.5579550210E-02    0.1713764101E-01    0.1114918953E+00
    0.5000000000E+02    0.1191301343E+00    0.1608985587E-01    0.7788041430E-02    0.2646290065E-01    0.1570272526E+00
    0.7000000000E+02    0.1430804774E+00    0.1954076141E-01    0.9367681105E-02    0.3462777667E-01    0.1908502041E+00
    0.9000000000E+02    0.1608096925E+00    0.2222620891E-01    0.1054386267E-01    0.4190876717E-01    0.2172254380E+00
    0.1100000000E+03    0.1743092263E+00    0.2439211955E-01    0.1144541138E-01    0.4849728526E-01    0.2385403394E+00
    0.1300000000E+03    0.1848048694E+00    0.2618737478E-01    0.1215162561E-01    0.5453052461E-01    0.2562412830E+00
    0.1500000000E+03    0.1930940986E+00    0.2770770844E-01    0.1271410877E-01    0.6010970511E-01    0.2712589730E+00
    0.1700000000E+03    0.1997186050E+00    0.2901767690E-01    0.1316792836E-01    0.6531135714E-01    0.2842214469E+00
    0.1900000000E+03    0.2050592859E+00    0.3016252062E-01    0.1353775735E-01    0.7019457140E-01    0.2955691251E+00
    0.2100000000E+03    0.2093916889E+00    0.3117496789E-01    0.1384145780E-01    0.7480581066E-01    0.3056208337E+00
    0.2300000000E+03    0.2129199426E+00    0.3207933641E-01    0.1409227350E-01    0.7918219453E-01    0.3146136211E+00
    0.2500000000E+03    0.2157983512E+00    0.3289411054E-01    0.1430022551E-01    0.8335379746E-01    0.3227277895E+00
    0.2700000000E+03    0.2181456014E+00    0.3363361900E-01    0.1447303009E-01    0.8734529172E-01    0.3301031943E+00
    0.2900000000E+03    0.2200543748E+00    0.3430916050E-01    0.1461672004E-01    0.9117714475E-01    0.3368501858E+00
    0.3100000000E+03    0.2215980150E+00    0.3492977918E-01    0.1473607556E-01    0.9486650692E-01    0.3430571497E+00
    0.3300000000E+03    0.2228352494E+00    0.3550281128E-01    0.1483492959E-01    0.9842787998E-01    0.3487958244E+00
    0.3500000000E+03    0.2238135990E+00    0.3603427853E-01    0.1491638829E-01    0.1018736275E+00    0.3541251299E+00
    0.3700000000E+03    0.2245718809E+00    0.3652917641E-01    0.1498299292E-01    0.1052143695E+00    0.3590939736E+00
    0.3900000000E+03    0.2251420738E+00    0.3699168889E-01    0.1503684058E-01    0.1084592913E+00    0.3637433423E+00
    0.4100000000E+03    0.2255507264E+00    0.3742535077E-01    0.1507967544E-01    0.1116163877E+00    0.3681078832E+00
    0.4300000000E+03    0.2258200355E+00    0.3783317202E-01    0.1511295846E-01    0.1146926579E+00    0.3722171163E+00
    0.4500000000E+03    0.2259686786E+00    0.3821773426E-01    0.1513792145E-01    0.1176942625E+00    0.3760963748E+00
    0.4700000000E+03    0.2260124651E+00    0.3858126639E-01    0.1515560927E-01    0.1206266511E+00    0.3797675429E+00
    0.4900000000E+03    0.2259648495E+00    0.3892570450E-01    0.1516691307E-01    0.1234946669E+00    0.3832496404E+00
    0.1000000000E+03    0.1679986946E+00    0.2336319244E-01    0.1102317816E-01    0.4527999751E-01    0.2284094257E+00
    0.3000000000E+03    0.2208678687E+00    0.3462584186E-01    0.1467918076E-01    0.9303867539E-01    0.3400163482E+00
    0.5000000000E+03    0.2259104288E+00    0.3909130027E-01    0.1517041406E-01    0.1249059040E+00    0.3849250652E+00
    0.7000000000E+03    0.2220904294E+00    0.4171766690E-01    0.1504316489E-01    0.1505919717E+00    0.4116252509E+00
    0.9000000000E+03    0.2158609420E+00    0.4352097196E-01    0.1472933636E-01    0.1728378611E+00    0.4301194010E+00
    0.1100000000E+04    0.2089998043E+00    0.4486694060E-01    0.1435246620E-01    0.1928012287E+00    0.4440269462E+00
    0.1300000000E+04    0.2021148968E+00    0.4592559623E-01    0.1395733683E-01    0.2110836056E+00    0.4550381758E+00
    0.1500000000E+04    0.1954339961E+00    0.4678881722E-01    0.1356240819E-01    0.2280406368E+00    0.4640701834E+00
    0.1700000000E+04    0.1890413430E+00    0.4751147116E-01    0.1317579970E-01    0.2439022769E+00    0.4716726358E+00
    0.1900000000E+04    0.1829619113E+00    0.4812874989E-01    0.1280111446E-01    0.2588274553E+00    0.4781992694E+00
    0.2100000000E+04    0.1771950853E+00    0.4866447057E-01    0.1243983701E-01    0.2729318999E+00    0.4838902307E+00
    0.2300000000E+04    0.1717292167E+00    0.4913544171E-01    0.1209241097E-01    0.2863035341E+00    0.4889154924E+00
    0.2500000000E+04    0.1665482479E+00    0.4955393108E-01    0.1175875586E-01    0.2990115607E+00    0.4933994501E+00
    0.2700000000E+04    0.1616348101E+00    0.4992914278E-01    0.1143852715E-01    0.3111121014E+00    0.4974356763E+00
    0.2900000000E+04    0.1569716764E+00    0.5026814336E-01    0.1113125177E-01    0.3226518441E+00    0.5010961906E+00
    0.3100000000E+04    0.1525424183E+00    0.5057646545E-01    0.1083640041E-01    0.3336704831E+00    0.5044375129E+00
    0.3300000000E+04    0.1483316701E+00    0.5085851414E-01    0.1055342653E-01    0.3442023980E+00    0.5075047470E+00
    0.3500000000E+04    0.1443251993E+00    0.5111784839E-01    0.1028178736E-01    0.3542778378E+00    0.5103344130E+00
    0.3700000000E+04    0.1405098842E+00    0.5135738064E-01    0.1002095503E-01    0.3639237729E+00    0.5129564602E+00
    0.3900000000E+04    0.1368736471E+00    0.5157952146E-01    0.9770422081E-02    0.3731645206E+00    0.5153957274E+00
    0.4100000000E+04    0.1334053731E+00    0.5178628621E-01    0.9529703957E-02    0.3820222110E+00    0.5176730231E+00
    0.4300000000E+04    0.1300948238E+00    0.5197937526E-01    0.9298339671E-02    0.3905171409E+00    0.5198059367E+00
    0.4500000000E+04    0.1269325559E+00    0.5216023489E-01    0.9075891563E-02    0.3986680451E+00    0.5218094578E+00
    0.4700000000E+04    0.1239098454E+00    0.5233010447E-01    0.8861944542E-02    0.4064923087E+00    0.5236964548E+00
    0.4900000000E+04    0.1210186187E+00    0.5249005324E-01    0.8656105071E-02    0.4140061349E+00    0.5254780492E+00
    0.1000000000E+04    0.2124576909E+00    0.4423789280E-01    0.1454504805E-01    0.1830593235E+00    0.4375151230E+00
    0.3000000000E+04    0.1547287997E+00    0.5042584126E-01    0.1098230715E-01    0.3282240441E+00    0.5028037022E+00
    0.5000000000E+04    0.1196199515E+00    0.5256660221E-01    0.8556108312E-02    0.4176514079E+00    0.5263323925E+00
    0.7000000000E+04    0.9699259405E-01    0.5374888059E-01    0.6900935752E-02    0.4774870941E+00    0.5396849582E+00
    0.9000000000E+04    0.8157770155E-01    0.5452326701E-01    0.5734349405E-02    0.5189715119E+00    0.5486246799E+00
    0.1100000000E+05    0.7059853518E-01    0.5507930018E-01    0.4885927797E-02    0.5486467055E+00    0.5551668822E+00
    0.1300000000E+05    0.6247801187E-01    0.5550240987E-01    0.4250559294E-02    0.5705016426E+00    0.5602312399E+00
    0.1500000000E+05    0.5627478927E-01    0.5583757078E-01    0.3761964651E-02    0.5870285368E+00    0.5643069465E+00
    0.1700000000E+05    0.5140348794E-01    0.5611102056E-01    0.3377299268E-02    0.5998240755E+00    0.5676819598E+00
    0.1900000000E+05    0.4748659099E-01    0.5633923281E-01    0.3068133320E-02    0.6099384580E+00    0.5705385306E+00
    0.2100000000E+05    0.4427252891E-01    0.5653313951E-01    0.2815109138E-02    0.6180805944E+00    0.5729984912E+00
    0.2300000000E+05    0.4158865444E-01    0.5670031640E-01    0.2604720083E-02    0.6247409384E+00    0.5751468475E+00
    0.2500000000E+05    0.3931331565E-01    0.5684619965E-01    0.2427326023E-02    0.6302666382E+00    0.5770449917E+00
    0.2700000000E+05    0.3735874316E-01    0.5697480369E-01    0.2275902127E-02    0.6349086010E+00    0.5787385380E+00
    0.2900000000E+05    0.3566025721E-01    0.5708916519E-01    0.2145231602E-02    0.6388516611E+00    0.5802621942E+00
    0.3100000000E+05    0.3416927778E-01    0.5719162867E-01    0.2031373160E-02    0.6422343568E+00    0.5816429086E+00
    0.3300000000E+05    0.3284868670E-01    0.5728403642E-01    0.1931302270E-02    0.6451621722E+00    0.5829019732E+00
    0.3500000000E+05    0.3166968137E-01    0.5736785841E-01    0.1842664685E-02    0.6477165809E+00    0.5840564675E+00
    0.3700000000E+05    0.3060959661E-01    0.5744428351E-01    0.1763604008E-02    0.6499613373E+00    0.5851202761E+00
    0.3900000000E+05    0.2965036859E-01    0.5751428469E-01    0.1692638987E-02    0.6519469278E+00    0.5861048198E+00
    0.4100000000E+05    0.2877743284E-01    0.5757866682E-01    0.1628574829E-02    0.6537137699E+00    0.5870195925E+00
    0.4300000000E+05    0.2797892135E-01    0.5763810207E-01    0.1570438176E-02    0.6552945464E+00    0.5878725611E+00
    0.4500000000E+05    0.2724506903E-01    0.5769315662E-01    0.1517428773E-02    0.6567159297E+00    0.5886704681E+00
    0.4700000000E+05    0.2656776912E-01    0.5774431116E-01    0.1468883109E-02    0.6579998728E+00    0.5894190641E+00
    0.4900000000E+05    0.2594023604E-01    0.5779197671E-01    0.1424246740E-02    0.6591645873E+00    0.5901232886E+00
    0.1000000000E+05    0.7565176687E-01    0.5482187875E-01    0.5278088438E-02    0.5349914171E+00    0.5521235748E+00
    0.3000000000E+05    0.3489137510E-01    0.5714175902E-01    0.2086408066E-02    0.6406058093E+00    0.5809689752E+00
    0.5000000000E+05    0.2564330793E-01    0.5781461360E-01    0.1403245756E-02    0.6597070896E+00    0.5904601187E+00
    0.7000000000E+05    0.2130598282E-01    0.5814880865E-01    0.1106380483E-02    0.6669402312E+00    0.5956537272E+00
    0.9000000000E+05    0.1867202651E-01    0.5835002780E-01    0.9365312479E-03    0.6706305014E+00    0.5990614887E+00
    0.1100000000E+06    0.1685301772E-01    0.5848419491E-01    0.8244529077E-03    0.6728400008E+00    0.6015236056E+00
    0.1300000000E+06    0.1549739009E-01    0.5857950608E-01    0.7438355104E-03    0.6743014521E+00    0.6034128297E+00
    0.1500000000E+06    0.1443511114E-01    0.5865018866E-01    0.6824264740E-03    0.6753359352E+00    0.6049235555E+00
    0.1700000000E+06    0.1357262166E-01    0.5870424718E-01    0.6337069304E-03    0.6761050082E+00    0.6061685470E+00
    0.1900000000E+06    0.1285359422E-01    0.5874654866E-01    0.5938665805E-03    0.6766983694E+00    0.6072183712E+00
    0.2100000000E+06    0.1224179096E-01    0.5878023026E-01    0.5605169583E-03    0.6771696311E+00    0.6081197786E+00
    0.2300000000E+06    0.1171268052E-01    0.5880740838E-01    0.5320777702E-03    0.6775527296E+00    0.6089051496E+00
    0.2500000000E+06    0.1124897299E-01    0.5882956396E-01    0.5074575535E-03    0.6778701555E+00    0.6095977268E+00
    0.2700000000E+06    0.1083807692E-01    0.5884776492E-01    0.4858756559E-03    0.6781373852E+00    0.6102146903E+00
    0.2900000000E+06    0.1047057079E-01    0.5886280094E-01    0.4667573118E-03    0.6783654073E+00    0.6107690544E+00
    0.3100000000E+06    0.1013924238E-01    0.5887526855E-01    0.4496688867E-03    0.6785622337E+00    0.6112708846E+00
    0.3300000000E+06    0.9838462338E-02    0.5888562670E-01    0.4342763366E-03    0.6787338406E+00    0.6117281070E+00
    0.3500000000E+06    0.9563762362E-02    0.5889423418E-01    0.4203176662E-03    0.6788847741E+00    0.6121470605E+00
    0.3700000000E+06    0.9311543419E-02    0.5890137539E-01    0.4075841417E-03    0.6790185529E+00    0.6125328844E+00
    0.3900000000E+06    0.9078869048E-02    0.5890727861E-01    0.3959071543E-03    0.6791379422E+00    0.6128897961E+00
    0.4100000000E+06    0.8863315850E-02    0.5891212906E-01    0.3851488330E-03    0.6792451445E+00    0.6132212938E+00
    0.4300000000E+06    0.8662863336E-02    0.5891607853E-01    0.3751952054E-03    0.6793419356E+00    0.6135303074E+00
    0.4500000000E+06    0.8475811429E-02    0.5891925250E-01    0.3659511286E-03    0.6794297631E+00    0.6138193120E+00
    0.4700000000E+06    0.8300717758E-02    0.5892175557E-01    0.3573364742E-03    0.6795098182E+00    0.6140904153E+00
    0.4900000000E+06    0.8136349364E-02    0.5892367552E-01    0.3492832159E-03    0.6795830906E+00    0.6143454251E+00
    0.1000000000E+06    0.1768896602E-01    0.5842325408E-01    0.8754114520E-03    0.6718597613E+00    0.6003814312E+00
    0.3000000000E+06    0.1030076758E-01    0.5886932439E-01    0.4579821959E-03    0.6784673071E+00    0.6110259981E+00
    0.5000000000E+06    0.8057849666E-02    0.5892444048E-01    0.3454485968E-03    0.6796174476E+00    0.6144673910E+00
    0.7000000000E+06    0.6856797137E-02    0.5892223737E-01    0.2876981895E-03    0.6800932719E+00    0.6163486349E+00
    0.9000000000E+06    0.6078010607E-02    0.5890390462E-01    0.2511709426E-03    0.6803539316E+00    0.6175855462E+00
    0.1100000000E+07    0.5519909220E-02    0.5888025957E-01    0.2254426805E-03    0.6805188254E+00    0.6184819435E+00
    0.1300000000E+07    0.5094358566E-02    0.5885506541E-01    0.2060809975E-03    0.6806327534E+00    0.6191721058E+00
    0.1500000000E+07    0.4755828289E-02    0.5882982438E-01    0.1908403721E-03    0.6807163119E+00    0.6197259340E+00
    0.1700000000E+07    0.4478087563E-02    0.5880517145E-01    0.1784461875E-03    0.6807802995E+00    0.6201839450E+00
    0.1900000000E+07    0.4244808375E-02    0.5878136988E-01    0.1681144085E-03    0.6808309273E+00    0.6205714903E+00
    0.2100000000E+07    0.4045220227E-02    0.5875851234E-01    0.1593329411E-03    0.6808720230E+00    0.6209053696E+00
    0.2300000000E+07    0.3871890402E-02    0.5873661033E-01    0.1517513503E-03    0.6809060750E+00    0.6211972247E+00
    0.2500000000E+07    0.3719500496E-02    0.5871563659E-01    0.1451207134E-03    0.6809347724E+00    0.6214554178E+00
    0.2700000000E+07    0.3584130280E-02    0.5869554618E-01    0.1392587295E-03    0.6809593018E+00    0.6216861353E+00
    0.2900000000E+07    0.3462817534E-02    0.5867628723E-01    0.1340284411E-03    0.6809805222E+00    0.6218940676E+00
    0.3100000000E+07    0.3353276318E-02    0.5865780646E-01    0.1293247086E-03    0.6809990704E+00    0.6220828460E+00
    0.3300000000E+07    0.3253710371E-02    0.5864005199E-01    0.1250653071E-03    0.6810154290E+00    0.6222553330E+00
    0.3500000000E+07    0.3162685869E-02    0.5862297472E-01    0.1211848886E-03    0.6810299704E+00    0.6224138203E+00
    0.3700000000E+07    0.3079042405E-02    0.5860652888E-01    0.1176307797E-03    0.6810429866E+00    0.6225601677E+00
    0.3900000000E+07    0.3001829345E-02    0.5859067220E-01    0.1143599907E-03    0.6810547099E+00    0.6226959033E+00
    0.4100000000E+07    0.2930259404E-02    0.5857536585E-01    0.1113370433E-03    0.6810653273E+00    0.6228222960E+00
    0.4300000000E+07    0.2863674208E-02    0.5856057422E-01    0.1085323660E-03    0.6810749913E+00    0.6229404096E+00
    0.4500000000E+07    0.2801518334E-02    0.5854626472E-01    0.1059210886E-03    0.6810838274E+00    0.6230511439E+00
    0.4700000000E+07    0.2743319476E-02    0.5853240751E-01    0.1034821239E-03    0.6810919397E+00    0.6231552660E+00
    0.4900000000E+07    0.2688673088E-02    0.5851897526E-01    0.1011974603E-03    0.6810994156E+00    0.6232534344E+00
    0.1000000000E+07    0.5778327885E-02    0.5889242990E-01    0.2373087458E-03    0.6804446926E+00    0.6180657394E+00
    0.3000000000E+07    0.3406697510E-02    0.5866695287E-01    0.1316163498E-03    0.6809900971E+00    0.6219906568E+00
    0.5000000000E+07    0.2662571164E-02    0.5851241059E-01    0.1001080650E-03    0.6811029384E+00    0.6233004670E+00
    0.7000000000E+07    0.2263065230E-02    0.5839833944E-01    0.8359281527E-04    0.6811530298E+00    0.6240333868E+00
    0.9000000000E+07    0.2004078116E-02    0.5830788097E-01    0.7305764202E-04    0.6811817413E+00    0.6245244721E+00
    0.1100000000E+08    0.1818621529E-02    0.5823283766E-01    0.6560508721E-04    0.6812005318E+00    0.6248861236E+00
    0.1300000000E+08    0.1677329363E-02    0.5816865615E-01    0.5998288660E-04    0.6812138769E+00    0.6251685057E+00
    0.1500000000E+08    0.1565019011E-02    0.5811254869E-01    0.5555064703E-04    0.6812238962E+00    0.6253979609E+00
    0.1700000000E+08    0.1472942903E-02    0.5806268393E-01    0.5194268294E-04    0.6812317273E+00    0.6255898798E+00
    0.1900000000E+08    0.1395657235E-02    0.5801779347E-01    0.4893313660E-04    0.6812380376E+00    0.6257539628E+00
    0.2100000000E+08    0.1329572483E-02    0.5797696200E-01    0.4637405854E-04    0.6812432455E+00    0.6258966816E+00
    0.2300000000E+08    0.1272212623E-02    0.5793950700E-01    0.4416398652E-04    0.6812476268E+00    0.6260225496E+00
    0.2500000000E+08    0.1221806789E-02    0.5790490577E-01    0.4223073195E-04    0.6812513717E+00    0.6261348283E+00
    0.2700000000E+08    0.1177050271E-02    0.5787274893E-01    0.4052136013E-04    0.6812546150E+00    0.6262359437E+00
