  Pressure (Pa) 2mC6-400 (mol/kg) 3mC6-400 (mol/kg) 33mC5-400 (mol/kg) 23mC5-400 (mol/kg) C7-400 (mol/kg)
    0.1000000000E+01    0.3962274692E-02    0.1050370585E-02    0.3871582866E-03    0.3724066444E-03    0.5113401662E-02
    0.3000000000E+01    0.1156317818E-01    0.3063962296E-02    0.1130036144E-02    0.1106670984E-02    0.1491782212E-01
    0.5000000000E+01    0.1876193945E-01    0.4969569164E-02    0.1833853960E-02    0.1827301784E-02    0.2419882356E-01
    0.7000000000E+01    0.2559044816E-01    0.6776088967E-02    0.2501713011E-02    0.2534794130E-02    0.3299947480E-01
    0.9000000000E+01    0.3207720791E-01    0.8491456869E-02    0.3136384745E-02    0.3229618336E-02    0.4135818856E-01
    0.1100000000E+02    0.3824778123E-01    0.1012277264E-01    0.3740354186E-02    0.3912221506E-02    0.4930933653E-01
    0.1300000000E+02    0.4412516579E-01    0.1167640820E-01    0.4315856612E-02    0.4583028968E-02    0.5688376933E-01
    0.1500000000E+02    0.4973011369E-01    0.1315809891E-01    0.4864908699E-02    0.5242445615E-02    0.6410925808E-01
    0.1700000000E+02    0.5508140398E-01    0.1457302151E-01    0.5389335069E-02    0.5890857130E-02    0.7101087097E-01
    0.1900000000E+02    0.6019607594E-01    0.1592586076E-01    0.5890791041E-02    0.6528631141E-02    0.7761129586E-01
    0.2100000000E+02    0.6508962980E-01    0.1722086686E-01    0.6370782185E-02    0.7156118278E-02    0.8393111765E-01
    0.2300000000E+02    0.6977620001E-01    0.1846190486E-01    0.6830681203E-02    0.7773653169E-02    0.8998905766E-01
    0.2500000000E+02    0.7426870538E-01    0.1965249763E-01    0.7271742556E-02    0.8381555353E-02    0.9580218097E-01
    0.2700000000E+02    0.7857897957E-01    0.2079586305E-01    0.7695115180E-02    0.8980130141E-02    0.1013860766E+00
    0.2900000000E+02    0.8271788507E-01    0.2189494649E-01    0.8101853576E-02    0.9569669413E-02    0.1067550149E+00
    0.3100000000E+02    0.8669541281E-01    0.2295244928E-01    0.8492927516E-02    0.1015045236E-01    0.1119220843E+00
    0.3300000000E+02    0.9052076967E-01    0.2397085354E-01    0.8869230562E-02    0.1072274620E-01    0.1168993127E+00
    0.3500000000E+02    0.9420245556E-01    0.2495244419E-01    0.9231587565E-02    0.1128680678E-01    0.1216977730E+00
    0.3700000000E+02    0.9774833139E-01    0.2589932820E-01    0.9580761285E-02    0.1184287924E-01    0.1263276767E+00
    0.3900000000E+02    0.1011656793E+00    0.2681345176E-01    0.9917458250E-02    0.1239119855E-01    0.1307984567E+00
    0.4100000000E+02    0.1044612562E+00    0.2769661540E-01    0.1024233396E-01    0.1293199003E-01    0.1351188408E+00
    0.4300000000E+02    0.1076413410E+00    0.2855048744E-01    0.1055599749E-01    0.1346546988E-01    0.1392969164E+00
    0.4500000000E+02    0.1107117775E+00    0.2937661604E-01    0.1085901566E-01    0.1399184565E-01    0.1433401892E+00
    0.4700000000E+02    0.1136780118E+00    0.3017643987E-01    0.1115191668E-01    0.1451131663E-01    0.1472556345E+00
    0.4900000000E+02    0.1165451267E+00    0.3095129770E-01    0.1143519345E-01    0.1502407431E-01    0.1510497438E+00
    0.1000000000E+02    0.3520052440E-01    0.9317207109E-02    0.3442062083E-02    0.3572420473E-02    0.4538270310E-01
    0.3000000000E+02    0.8472622831E-01    0.2242873547E-01    0.8299291062E-02    0.9861138455E-02    0.1093630079E+00
    0.5000000000E+02    0.1179430108E+00    0.3132975756E-01    0.1157336788E-01    0.1527799347E-01    0.1529032041E+00
    0.7000000000E+02    0.1417000955E+00    0.3785012592E-01    0.1392885090E-01    0.2004512357E-01    0.1848724366E+00
    0.9000000000E+02    0.1594380294E+00    0.4288255917E-01    0.1569930569E-01    0.2431221029E-01    0.2096012163E+00
    0.1100000000E+03    0.1730944806E+00    0.4691673993E-01    0.1707253232E-01    0.2818420697E-01    0.2294668496E+00
    0.1300000000E+03    0.1838518651E+00    0.5024489412E-01    0.1816313592E-01    0.3173715251E-01    0.2458891310E+00
    0.1500000000E+03    0.1924758319E+00    0.5305288239E-01    0.1904535025E-01    0.3502766687E-01    0.2597717574E+00
    0.1700000000E+03    0.1994853311E+00    0.5546496428E-01    0.1976951744E-01    0.3809890252E-01    0.2717193551E+00
    0.1900000000E+03    0.2052450951E+00    0.5756762108E-01    0.2037104480E-01    0.4098441229E-01    0.2821530345E+00
    0.2100000000E+03    0.2100191520E+00    0.5942306416E-01    0.2087558598E-01    0.4371074228E-01    0.2913759432E+00
    0.2300000000E+03    0.2140033795E+00    0.6107730171E-01    0.2130219209E-01    0.4629921765E-01    0.2996124310E+00
    0.2500000000E+03    0.2173461407E+00    0.6256516798E-01    0.2166530927E-01    0.4876720187E-01    0.3070324783E+00
    0.2700000000E+03    0.2201618249E+00    0.6391357544E-01    0.2197608936E-01    0.5112900327E-01    0.3137674992E+00
    0.2900000000E+03    0.2225399974E+00    0.6514368447E-01    0.2224327578E-01    0.5339653996E-01    0.3199208900E+00
    0.3100000000E+03    0.2245517399E+00    0.6627239076E-01    0.2247381750E-01    0.5557983568E-01    0.3255752631E+00
    0.3300000000E+03    0.2262541421E+00    0.6731336947E-01    0.2267330415E-01    0.5768739508E-01    0.3307975280E+00
    0.3500000000E+03    0.2276935459E+00    0.6827782385E-01    0.2284628035E-01    0.5972649162E-01    0.3356425348E+00
    0.3700000000E+03    0.2289079290E+00    0.6917503195E-01    0.2299647682E-01    0.6170339130E-01    0.3401557371E+00
    0.3900000000E+03    0.2299286829E+00    0.7001275275E-01    0.2312698278E-01    0.6362352822E-01    0.3443751703E+00
    0.4100000000E+03    0.2307819581E+00    0.7079753235E-01    0.2324037652E-01    0.6549164411E-01    0.3483329440E+00
    0.4300000000E+03    0.2314896943E+00    0.7153493805E-01    0.2333882538E-01    0.6731189997E-01    0.3520563833E+00
    0.4500000000E+03    0.2320704179E+00    0.7222973945E-01    0.2342416328E-01    0.6908796636E-01    0.3555689123E+00
    0.4700000000E+03    0.2325398669E+00    0.7288605024E-01    0.2349795143E-01    0.7082309701E-01    0.3588907458E+00
    0.4900000000E+03    0.2329114838E+00    0.7350744034E-01    0.2356152626E-01    0.7252018919E-01    0.3620394367E+00
    0.1000000000E+03    0.1666899679E+00    0.4500292855E-01    0.1642719176E-01    0.2629229821E-01    0.2200374795E+00
    0.3000000000E+03    0.2235878194E+00    0.6571979272E-01    0.2236275018E-01    0.5449815454E-01    0.3228059522E+00
    0.5000000000E+03    0.2330642767E+00    0.7380602944E-01    0.2358984945E-01    0.7335529126E-01    0.3635537206E+00
    0.7000000000E+03    0.2330716946E+00    0.7852742945E-01    0.2382914041E-01    0.8856594433E-01    0.3876205273E+00
    0.9000000000E+03    0.2301522715E+00    0.8175242367E-01    0.2373767506E-01    0.1017810728E+00    0.4042140167E+00
    0.1100000000E+04    0.2261964945E+00    0.8414956193E-01    0.2351188614E-01    0.1137070598E+00    0.4166472960E+00
    0.1300000000E+04    0.2218930576E+00    0.8602846388E-01    0.2322678574E-01    0.1247137049E+00    0.4264621229E+00
    0.1500000000E+04    0.2175259942E+00    0.8755593839E-01    0.2291542968E-01    0.1350203276E+00    0.4344926713E+00
    0.1700000000E+04    0.2132197734E+00    0.8883133921E-01    0.2259377192E-01    0.1447685293E+00    0.4412377057E+00
    0.1900000000E+04    0.2090291877E+00    0.8991824123E-01    0.2226997250E-01    0.1540555333E+00    0.4470175074E+00
    0.2100000000E+04    0.2049765163E+00    0.9085957754E-01    0.2194834555E-01    0.1629512754E+00    0.4520490771E+00
    0.2300000000E+04    0.2010682634E+00    0.9168558657E-01    0.2163119399E-01    0.1715079332E+00    0.4564857202E+00
    0.2500000000E+04    0.1973031795E+00    0.9241829661E-01    0.2131972337E-01    0.1797655974E+00    0.4604394399E+00
    0.2700000000E+04    0.1936762799E+00    0.9307420571E-01    0.2101452242E-01    0.1877558270E+00    0.4639943498E+00
    0.2900000000E+04    0.1901809180E+00    0.9366595956E-01    0.2071582662E-01    0.1955039768E+00    0.4672150901E+00
    0.3100000000E+04    0.1868098706E+00    0.9420344342E-01    0.2042366776E-01    0.2030307748E+00    0.4701523158E+00
    0.3300000000E+04    0.1835559041E+00    0.9469451638E-01    0.2013796094E-01    0.2103534249E+00    0.4728463951E+00
    0.3500000000E+04    0.1804120622E+00    0.9514551917E-01    0.1985855615E-01    0.2174863971E+00    0.4753299710E+00
    0.3700000000E+04    0.1773718011E+00    0.9556163377E-01    0.1958526935E-01    0.2244420067E+00    0.4776297804E+00
    0.3900000000E+04    0.1744290417E+00    0.9594714382E-01    0.1931790109E-01    0.2312308475E+00    0.4797679717E+00
    0.4100000000E+04    0.1715781762E+00    0.9630562645E-01    0.1905624786E-01    0.2378621206E+00    0.4817630787E+00
    0.4300000000E+04    0.1688140512E+00    0.9664009618E-01    0.1880010869E-01    0.2443438887E+00    0.4836307512E+00
    0.4500000000E+04    0.1661319385E+00    0.9695311438E-01    0.1854928906E-01    0.2506832743E+00    0.4853843124E+00
    0.4700000000E+04    0.1635275019E+00    0.9724687364E-01    0.1830360293E-01    0.2568866168E+00    0.4870351890E+00
    0.4900000000E+04    0.1609967626E+00    0.9752326369E-01    0.1806287372E-01    0.2629595986E+00    0.4885932473E+00
    0.1000000000E+04    0.2282465429E+00    0.8303035952E-01    0.2363541054E-01    0.1078772556E+00    0.4108307499E+00
    0.3000000000E+04    0.1884803112E+00    0.9394095338E-01    0.2056893338E-01    0.1992938974E+00    0.4687164126E+00
    0.5000000000E+04    0.1597578753E+00    0.9765546601E-01    0.1794431545E-01    0.2659488257E+00    0.4893401928E+00
    0.7000000000E+04    0.1381023167E+00    0.9969107758E-01    0.1579777692E-01    0.3199188476E+00    0.5009985498E+00
    0.9000000000E+04    0.1210108969E+00    0.1010178003E+00    0.1400712928E-01    0.3647234116E+00    0.5087894790E+00
    0.1100000000E+05    0.1071836296E+00    0.1019670282E+00    0.1249782494E-01    0.4022836508E+00    0.5144841826E+00
    0.1300000000E+05    0.9582114668E-01    0.1026873455E+00    0.1121759371E-01    0.4339514062E+00    0.5188881169E+00
    0.1500000000E+05    0.8637598718E-01    0.1032566644E+00    0.1012619003E-01    0.4607782941E+00    0.5224289951E+00
    0.1700000000E+05    0.7844941502E-01    0.1037202941E+00    0.9191315479E-02    0.4836115175E+00    0.5253584194E+00
    0.1900000000E+05    0.7174069742E-01    0.1041066087E+00    0.8386647165E-02    0.5031407171E+00    0.5278356105E+00
    0.2100000000E+05    0.6601823602E-01    0.1044343959E+00    0.7690626131E-02    0.5199285190E+00    0.5299670137E+00
    0.2300000000E+05    0.6110120932E-01    0.1047166507E+00    0.7085568425E-02    0.5344340468E+00    0.5318269059E+00
    0.2500000000E+05    0.5684699942E-01    0.1049626828E+00    0.6556954894E-02    0.5470321386E+00    0.5334689313E+00
    0.2700000000E+05    0.5314217565E-01    0.1051793567E+00    0.6092848205E-02    0.5580292226E+00    0.5349329432E+00
    0.2900000000E+05    0.4989584698E-01    0.1053718585E+00    0.5683413145E-02    0.5676763569E+00    0.5362492581E+00
    0.3100000000E+05    0.4703467566E-01    0.1055441873E+00    0.5320523943E-02    0.5761798477E+00    0.5374414066E+00
    0.3300000000E+05    0.4449909357E-01    0.1056994821E+00    0.4997444802E-02    0.5837098313E+00    0.5385279711E+00
    0.3500000000E+05    0.4224040629E-01    0.1058402454E+00    0.4708571248E-02    0.5904071742E+00    0.5395238496E+00
    0.3700000000E+05    0.4021856086E-01    0.1059684988E+00    0.4449221358E-02    0.5963890051E+00    0.5404411455E+00
    0.3900000000E+05    0.3840041410E-01    0.1060858959E+00    0.4215467490E-02    0.6017531454E+00    0.5412898080E+00
    0.4100000000E+05    0.3675838109E-01    0.1061938031E+00    0.4004000641E-02    0.6065816584E+00    0.5420781018E+00
    0.4300000000E+05    0.3526937432E-01    0.1062933611E+00    0.3812020990E-02    0.6109436978E+00    0.5428129574E+00
    0.4500000000E+05    0.3391396604E-01    0.1063855298E+00    0.3637149402E-02    0.6148977976E+00    0.5435002359E+00
    0.4700000000E+05    0.3267572329E-01    0.1064711236E+00    0.3477355673E-02    0.6184937205E+00    0.5441449328E+00
    0.4900000000E+05    0.3154067700E-01    0.1065508387E+00    0.3330900191E-02    0.6217739530E+00    0.5447513355E+00
    0.1000000000E+05    0.1137469288E+00    0.1015279357E+00    0.1322093154E-01    0.3843157883E+00    0.5118358522E+00
    0.3000000000E+05    0.4842112474E-01    0.1054603312E+00    0.5496600577E-02    0.5720596647E+00    0.5368595928E+00
    0.5000000000E+05    0.3100805426E-01    0.1065886822E+00    0.3262198223E-02    0.6233072766E+00    0.5450413541E+00
    0.7000000000E+05    0.2363512148E-01    0.1071461964E+00    0.2317277165E-02    0.6439596615E+00    0.5495127082E+00
    0.9000000000E+05    0.1961921540E-01    0.1074805862E+00    0.1815105944E-02    0.6544687116E+00    0.5524488499E+00
    0.1100000000E+06    0.1708120171E-01    0.1077028114E+00    0.1507804447E-02    0.6606441347E+00    0.5545735453E+00
    0.1300000000E+06    0.1531688314E-01    0.1078601928E+00    0.1301294741E-02    0.6646380198E+00    0.5562069230E+00
    0.1500000000E+06    0.1400793741E-01    0.1079765551E+00    0.1153057924E-02    0.6674024171E+00    0.5575156627E+00
    0.1700000000E+06    0.1299040459E-01    0.1080652783E+00    0.1041351336E-02    0.6694146439E+00    0.5585963728E+00
    0.1900000000E+06    0.1217135773E-01    0.1081344856E+00    0.9539910360E-03    0.6709372166E+00    0.5595094911E+00
    0.2100000000E+06    0.1149415077E-01    0.1081894058E+00    0.8836516855E-03    0.6721251577E+00    0.5602950574E+00
    0.2300000000E+06    0.1092222350E-01    0.1082335618E+00    0.8256766634E-03    0.6730753150E+00    0.5609808100E+00
    0.2500000000E+06    0.1043087083E-01    0.1082694163E+00    0.7769690184E-03    0.6738510185E+00    0.5615866662E+00
    0.2700000000E+06    0.1000275865E-01    0.1082987431E+00    0.7353907395E-03    0.6744952738E+00    0.5621273548E+00
    0.2900000000E+06    0.9625337463E-02    0.1083228525E+00    0.6994188421E-03    0.6750382258E+00    0.5626140388E+00
    0.3100000000E+06    0.9289278130E-02    0.1083427335E+00    0.6679391319E-03    0.6755015832E+00    0.5630553569E+00
    0.3300000000E+06    0.8987486820E-02    0.1083591461E+00    0.6401175592E-03    0.6759013478E+00    0.5634581155E+00
    0.3500000000E+06    0.8714463057E-02    0.1083726842E+00    0.6153172038E-03    0.6762495561E+00    0.5638277616E+00
    0.3700000000E+06    0.8465868620E-02    0.1083838179E+00    0.5930431036E-03    0.6765554243E+00    0.5641687141E+00
    0.3900000000E+06    0.8238230419E-02    0.1083929242E+00    0.5729046265E-03    0.6768261217E+00    0.5644846015E+00
    0.4100000000E+06    0.8028730938E-02    0.1084003090E+00    0.5545892143E-03    0.6770673033E+00    0.5647784356E+00
    0.4300000000E+06    0.7835057397E-02    0.1084062225E+00    0.5378436842E-03    0.6772834869E+00    0.5650527405E+00
    0.4500000000E+06    0.7655291185E-02    0.1084108714E+00    0.5224606685E-03    0.6774783224E+00    0.5653096500E+00
    0.4700000000E+06    0.7487825478E-02    0.1084144280E+00    0.5082686163E-03    0.6776547892E+00    0.5655509823E+00
    0.4900000000E+06    0.7331302941E-02    0.1084170367E+00    0.4951243121E-03    0.6778153423E+00    0.5657782978E+00
    0.1000000000E+06    0.1822317360E-01    0.1076019596E+00    0.1644798387E-02    0.6579209379E+00    0.5535874321E+00
    0.3000000000E+06    0.9452624521E-02    0.1083332695E+00    0.6831750159E-03    0.6752787440E+00    0.5628399066E+00
    0.5000000000E+06    0.7256777433E-02    0.1084180245E+00    0.4889066332E-03    0.6778903025E+00    0.5658871277E+00
    0.7000000000E+06    0.6132946357E-02    0.1084095304E+00    0.3982857634E-03    0.6789061489E+00    0.5675759081E+00
    0.9000000000E+06    0.5418109124E-02    0.1083753455E+00    0.3436159481E-03    0.6794437217E+00    0.5686987324E+00
    0.1100000000E+07    0.4911099061E-02    0.1083330317E+00    0.3061717163E-03    0.6797763252E+00    0.5695202356E+00
    0.1300000000E+07    0.4526940422E-02    0.1082886218E+00    0.2785059806E-03    0.6800026120E+00    0.5701580484E+00
    0.1500000000E+07    0.4222619959E-02    0.1082444811E+00    0.2570079341E-03    0.6801667187E+00    0.5706737185E+00
    0.1700000000E+07    0.3973685483E-02    0.1082015811E+00    0.2396906207E-03    0.6802913193E+00    0.5711030868E+00
    0.1900000000E+07    0.3765057703E-02    0.1081603024E+00    0.2253597191E-03    0.6803892504E+00    0.5714686749E+00
    0.2100000000E+07    0.3586857842E-02    0.1081207589E+00    0.2132489211E-03    0.6804683226E+00    0.5717854666E+00
    0.2300000000E+07    0.3432304087E-02    0.1080829401E+00    0.2028411843E-03    0.6805335619E+00    0.5720638836E+00
    0.2500000000E+07    0.3296563599E-02    0.1080467783E+00    0.1937734274E-03    0.6805883490E+00    0.5723114385E+00
    0.2700000000E+07    0.3176085719E-02    0.1080121818E+00    0.1857822515E-03    0.6806350427E+00    0.5725337070E+00
    0.2900000000E+07    0.3068194657E-02    0.1079790506E+00    0.1786713399E-03    0.6806753388E+00    0.5727349302E+00
    0.3100000000E+07    0.2970830085E-02    0.1079472852E+00    0.1722909997E-03    0.6807104884E+00    0.5729184013E+00
    0.3300000000E+07    0.2882376047E-02    0.1079167906E+00    0.1665248417E-03    0.6807414348E+00    0.5730867236E+00
    0.3500000000E+07    0.2801544686E-02    0.1078874777E+00    0.1612808313E-03    0.6807689028E+00    0.5732419869E+00
    0.3700000000E+07    0.2727295150E-02    0.1078592643E+00    0.1564851118E-03    0.6807934588E+00    0.5733858922E+00
    0.3900000000E+07    0.2658775750E-02    0.1078320750E+00    0.1520776389E-03    0.6808155516E+00    0.5735198402E+00
    0.4100000000E+07    0.2595281875E-02    0.1078058408E+00    0.1480090313E-03    0.6808355418E+00    0.5736449969E+00
    0.4300000000E+07    0.2536224822E-02    0.1077804988E+00    0.1442382559E-03    0.6808537226E+00    0.5737623424E+00
    0.4500000000E+07    0.2481108343E-02    0.1077559914E+00    0.1407308989E-03    0.6808703344E+00    0.5738727073E+00
    0.4700000000E+07    0.2429510753E-02    0.1077322662E+00    0.1374578547E-03    0.6808855767E+00    0.5739768015E+00
    0.4900000000E+07    0.2381071097E-02    0.1077092754E+00    0.1343943189E-03    0.6808996163E+00    0.5740752356E+00
    0.1000000000E+07    0.5145374483E-02    0.1083546959E+00    0.3233397824E-03    0.6796275290E+00    0.5691379035E+00
    0.3000000000E+07    0.3018306400E-02    0.1079630033E+00    0.1753977818E-03    0.6806934920E+00    0.5728287083E+00
    0.5000000000E+07    0.2357936590E-02    0.1076980415E+00    0.1329343449E-03    0.6809062298E+00    0.5741224983E+00
    0.7000000000E+07    0.2004041479E-02    0.1075030364E+00    0.1108598061E-03    0.6810001618E+00    0.5748683897E+00
    0.9000000000E+07    0.1774774363E-02    0.1073486058E+00    0.9682838831E-04    0.6810539788E+00    0.5753793842E+00
    0.1100000000E+08    0.1610649643E-02    0.1072205925E+00    0.8692187485E-04    0.6810892370E+00    0.5757624623E+00
    0.1300000000E+08    0.1485628494E-02    0.1071111640E+00    0.7945738862E-04    0.6811143174E+00    0.5760660715E+00
    0.1500000000E+08    0.1386259411E-02    0.1070155361E+00    0.7357751908E-04    0.6811331803E+00    0.5763159656E+00
    0.1700000000E+08    0.1304796059E-02    0.1069305707E+00    0.6879385870E-04    0.6811479497E+00    0.5765273517E+00
    0.1900000000E+08    0.1236419302E-02    0.1068540965E+00    0.6480527737E-04    0.6811598714E+00    0.5767099053E+00
    0.2100000000E+08    0.1177952226E-02    0.1067845482E+00    0.6141477215E-04    0.6811697263E+00    0.5768701364E+00
    0.2300000000E+08    0.1127203773E-02    0.1067207591E+00    0.5848737413E-04    0.6811780302E+00    0.5770126204E+00
    0.2500000000E+08    0.1082607073E-02    0.1066618362E+00    0.5592713021E-04    0.6811851380E+00    0.5771406870E+00
    0.2700000000E+08    0.1043007811E-02    0.1066070806E+00    0.5366372385E-04    0.6811913024E+00    0.5772568295E+00
