  Pressure (Pa) 2mC6-400 (mol/kg) 3mC6-400 (mol/kg) 33mC5-400 (mol/kg) 23mC5-400 (mol/kg) C7-400 (mol/kg)
    0.1000000000E+01    0.3973468557E-02    0.2107670117E-02    0.5176528427E-03    0.1862305505E-03    0.1710061381E-02
    0.3000000000E+01    0.1165870997E-01    0.6187176091E-02    0.1519015631E-02    0.5535748173E-03    0.5020447723E-02
    0.5000000000E+01    0.1901393695E-01    0.1009574055E-01    0.2477575847E-02    0.9143003449E-03    0.8192724796E-02
    0.7000000000E+01    0.2606012101E-01    0.1384461611E-01    0.3396055035E-02    0.1268640994E-02    0.1123597189E-01
    0.9000000000E+01    0.3281645449E-01    0.1744407430E-01    0.4276943623E-02    0.1616819203E-02    0.1415847724E-01
    0.1100000000E+02    0.3930053824E-01    0.2090351074E-01    0.5122525332E-02    0.1959046691E-02    0.1696782280E-01
    0.1300000000E+02    0.4552854587E-01    0.2423153704E-01    0.5934898521E-02    0.2295525110E-02    0.1967095832E-01
    0.1500000000E+02    0.5151536785E-01    0.2743606133E-01    0.6715994919E-02    0.2626446642E-02    0.2227426622E-01
    0.1700000000E+02    0.5727473828E-01    0.3052435907E-01    0.7467596105E-02    0.2951994565E-02    0.2478361873E-01
    0.1900000000E+02    0.6281934681E-01    0.3350313541E-01    0.8191348051E-02    0.3272343771E-02    0.2720442809E-01
    0.2100000000E+02    0.6816093766E-01    0.3637858036E-01    0.8888773992E-02    0.3587661250E-02    0.2954169106E-01
    0.2300000000E+02    0.7331039750E-01    0.3915641763E-01    0.9561285837E-02    0.3898106538E-02    0.3180002827E-01
    0.2500000000E+02    0.7827783350E-01    0.4184194796E-01    0.1021019432E-01    0.4203832140E-02    0.3398371920E-01
    0.2700000000E+02    0.8307264304E-01    0.4444008778E-01    0.1083671806E-01    0.4504983919E-02    0.3609673329E-01
    0.2900000000E+02    0.8770357591E-01    0.4695540363E-01    0.1144199160E-01    0.4801701464E-02    0.3814275772E-01
    0.3100000000E+02    0.9217879004E-01    0.4939214295E-01    0.1202707273E-01    0.5094118425E-02    0.4012522224E-01
    0.3300000000E+02    0.9650590147E-01    0.5175426169E-01    0.1259294887E-01    0.5382362840E-02    0.4204732142E-01
    0.3500000000E+02    0.1006920293E+00    0.5404544905E-01    0.1314054301E-01    0.5666557426E-02    0.4391203460E-01
    0.3700000000E+02    0.1047438364E+00    0.5626914975E-01    0.1367071891E-01    0.5946819863E-02    0.4572214388E-01
    0.3900000000E+02    0.1086675655E+00    0.5842858416E-01    0.1418428586E-01    0.6223263054E-02    0.4748025028E-01
    0.4100000000E+02    0.1124690728E+00    0.6052676634E-01    0.1468200297E-01    0.6495995367E-02    0.4918878839E-01
    0.4300000000E+02    0.1161538575E+00    0.6256652048E-01    0.1516458309E-01    0.6765120874E-02    0.5085003954E-01
    0.4500000000E+02    0.1197270893E+00    0.6455049573E-01    0.1563269629E-01    0.7030739556E-02    0.5246614380E-01
    0.4700000000E+02    0.1231936328E+00    0.6648117966E-01    0.1608697310E-01    0.7292947516E-02    0.5403911085E-01
    0.4900000000E+02    0.1265580702E+00    0.6836091051E-01    0.1652800740E-01    0.7551837163E-02    0.5557082982E-01
    0.1000000000E+02    0.3609148506E-01    0.1919073963E-01    0.4704012576E-02    0.1788663955E-02    0.1557684662E-01
    0.3000000000E+02    0.8996015967E-01    0.4818334158E-01    0.1173699293E-01    0.4948439387E-02    0.3914173004E-01
    0.5000000000E+02    0.1282033589E+00    0.6928236116E-01    0.1674373485E-01    0.7680065532E-02    0.5632178090E-01
    0.7000000000E+02    0.1566772022E+00    0.8550722332E-01    0.2048340091E-01    0.1009035259E-01    0.6955579510E-01
    0.9000000000E+02    0.1786167796E+00    0.9849139056E-01    0.2337522898E-01    0.1225186560E-01    0.8016394030E-01
    0.1100000000E+03    0.1959647819E+00    0.1091994380E+00    0.2567093459E-01    0.1421583751E-01    0.8892625142E-01
    0.1300000000E+03    0.2099621957E+00    0.1182397360E+00    0.2753131149E-01    0.1601960564E-01    0.9633498980E-01
    0.1500000000E+03    0.2214404911E+00    0.1260162372E+00    0.2906410405E-01    0.1769111399E-01    0.1027171957E+00
    0.1700000000E+03    0.2309783238E+00    0.1328084707E+00    0.3034431115E-01    0.1925175499E-01    0.1082992994E+00
    0.1900000000E+03    0.2389910819E+00    0.1388165374E+00    0.3142578576E-01    0.2071822789E-01    0.1132434778E+00
    0.2100000000E+03    0.2457847463E+00    0.1441877988E+00    0.3234821047E-01    0.2210379126E-01    0.1176692263E+00
    0.2300000000E+03    0.2515896824E+00    0.1490334193E+00    0.3314147351E-01    0.2341912982E-01    0.1216667343E+00
    0.2500000000E+03    0.2565826068E+00    0.1534390085E+00    0.3382851311E-01    0.2467296829E-01    0.1253054937E+00
    0.2700000000E+03    0.2609013033E+00    0.1574716901E+00    0.3442722307E-01    0.2587251504E-01    0.1286400175E+00
    0.2900000000E+03    0.2646547424E+00    0.1611849277E+00    0.3495176318E-01    0.2702378865E-01    0.1317137463E+00
    0.3100000000E+03    0.2679301999E+00    0.1646219008E+00    0.3541348099E-01    0.2813186219E-01    0.1345617817E+00
    0.3300000000E+03    0.2707983650E+00    0.1678179164E+00    0.3582157340E-01    0.2920104867E-01    0.1372128390E+00
    0.3500000000E+03    0.2733170716E+00    0.1708021664E+00    0.3618357002E-01    0.3023504370E-01    0.1396906711E+00
    0.3700000000E+03    0.2755340681E+00    0.1735990275E+00    0.3650569184E-01    0.3123703660E-01    0.1420151223E+00
    0.3900000000E+03    0.2774891016E+00    0.1762290405E+00    0.3679312141E-01    0.3220979782E-01    0.1442029215E+00
    0.4100000000E+03    0.2792155080E+00    0.1787096563E+00    0.3705020883E-01    0.3315574856E-01    0.1462682875E+00
    0.4300000000E+03    0.2807414384E+00    0.1810558116E+00    0.3728063072E-01    0.3407701657E-01    0.1482233961E+00
    0.4500000000E+03    0.2820908160E+00    0.1832803796E+00    0.3748751427E-01    0.3497548141E-01    0.1500787456E+00
    0.4700000000E+03    0.2832840890E+00    0.1853945248E+00    0.3767353493E-01    0.3585281134E-01    0.1518434446E+00
    0.4900000000E+03    0.2843388297E+00    0.1874079866E+00    0.3784099405E-01    0.3671049371E-01    0.1535254423E+00
    0.1000000000E+03    0.1877750529E+00    0.1040858210E+00    0.2458597822E-01    0.1325594804E-01    0.8474014134E-01
    0.3000000000E+03    0.2663474613E+00    0.1629355793E+00    0.3518985604E-01    0.2758293990E-01    0.1331640501E+00
    0.5000000000E+03    0.2848190755E+00    0.1883796720E+00    0.3791839550E-01    0.3713238865E-01    0.1543376416E+00
    0.7000000000E+03    0.2899269211E+00    0.2041391521E+00    0.3885660234E-01    0.4479921874E-01    0.1675568417E+00
    0.9000000000E+03    0.2904112361E+00    0.2153956154E+00    0.3915433469E-01    0.5143482053E-01    0.1770579390E+00
    0.1100000000E+04    0.2889653478E+00    0.2240741929E+00    0.3917111385E-01    0.5740679421E-01    0.1844211717E+00
    0.1300000000E+04    0.2866416600E+00    0.2310913379E+00    0.3905016038E-01    0.6290890799E-01    0.1904013864E+00
    0.1500000000E+04    0.2839129494E+00    0.2369524345E+00    0.3885746046E-01    0.6805676209E-01    0.1954161023E+00
    0.1700000000E+04    0.2810112544E+00    0.2419648462E+00    0.3862648893E-01    0.7292539879E-01    0.1997199299E+00
    0.1900000000E+04    0.2780570356E+00    0.2463290558E+00    0.3837540152E-01    0.7756660656E-01    0.2034793488E+00
    0.2100000000E+04    0.2751148288E+00    0.2501828859E+00    0.3811451911E-01    0.8201782026E-01    0.2068090619E+00
    0.2300000000E+04    0.2722194895E+00    0.2536250387E+00    0.3784989988E-01    0.8630709737E-01    0.2097913841E+00
    0.2500000000E+04    0.2693894476E+00    0.2567285535E+00    0.3758516956E-01    0.9045608694E-01    0.2124873451E+00
    0.2700000000E+04    0.2666337716E+00    0.2595489475E+00    0.3732251332E-01    0.9448189554E-01    0.2149434170E+00
    0.2900000000E+04    0.2639560952E+00    0.2621293736E+00    0.3706323818E-01    0.9839831104E-01    0.2171957834E+00
    0.3100000000E+04    0.2613568740E+00    0.2645040150E+00    0.3680810400E-01    0.1022166342E+00    0.2192731523E+00
    0.3300000000E+04    0.2588347174E+00    0.2667003926E+00    0.3655752428E-01    0.1059462613E+00    0.2211986719E+00
    0.3500000000E+04    0.2563871891E+00    0.2687409781E+00    0.3631169111E-01    0.1095951024E+00    0.2229912705E+00
    0.3700000000E+04    0.2540112951E+00    0.2706443475E+00    0.3607065458E-01    0.1131698890E+00    0.2246666167E+00
    0.3900000000E+04    0.2517037839E+00    0.2724260249E+00    0.3583437403E-01    0.1166764047E+00    0.2262378221E+00
    0.4100000000E+04    0.2494613295E+00    0.2740991097E+00    0.3560275169E-01    0.1201196607E+00    0.2277159644E+00
    0.4300000000E+04    0.2472806436E+00    0.2756747522E+00    0.3537565487E-01    0.1235040321E+00    0.2291104846E+00
    0.4500000000E+04    0.2451585415E+00    0.2771625175E+00    0.3515293074E-01    0.1268333644E+00    0.2304294910E+00
    0.4700000000E+04    0.2430919793E+00    0.2785706694E+00    0.3493441617E-01    0.1301110586E+00    0.2316799967E+00
    0.4900000000E+04    0.2410780729E+00    0.2799063933E+00    0.3471994434E-01    0.1333401392E+00    0.2328681064E+00
    0.1000000000E+04    0.2898435896E+00    0.2199862524E+00    0.3918621133E-01    0.5448914046E-01    0.1809484534E+00
    0.3000000000E+04    0.2626467326E+00    0.2633405628E+00    0.3693512125E-01    0.1003191078E+00    0.2182547834E+00
    0.5000000000E+04    0.2400900100E+00    0.2805490899E+00    0.3461417240E-01    0.1349373055E+00    0.2334404594E+00
    0.7000000000E+04    0.2225208820E+00    0.2907819149E+00    0.3267345240E-01    0.1648571010E+00    0.2426184167E+00
    0.9000000000E+04    0.2080345815E+00    0.2978385085E+00    0.3098675721E-01    0.1918159778E+00    0.2490293975E+00
    0.1100000000E+05    0.1956274845E+00    0.3031111235E+00    0.2947821865E-01    0.2165765469E+00    0.2538720110E+00
    0.1300000000E+05    0.1847342810E+00    0.3072564213E+00    0.2810414647E-01    0.2395529652E+00    0.2577157592E+00
    0.1500000000E+05    0.1750083272E+00    0.3106326891E+00    0.2683775559E-01    0.2610017730E+00    0.2608733294E+00
    0.1700000000E+05    0.1662216198E+00    0.3134552069E+00    0.2566152419E-01    0.2810979546E+00    0.2635336534E+00
    0.1900000000E+05    0.1582153906E+00    0.3158625779E+00    0.2456329587E-01    0.2999704014E+00    0.2658189899E+00
    0.2100000000E+05    0.1508737452E+00    0.3179488116E+00    0.2353417881E-01    0.3177202184E+00    0.2678126549E+00
    0.2300000000E+05    0.1441086698E+00    0.3197803276E+00    0.2256735325E-01    0.3344308522E+00    0.2695737744E+00
    0.2500000000E+05    0.1378510508E+00    0.3214056207E+00    0.2165736473E-01    0.3501739728E+00    0.2711457003E+00
    0.2700000000E+05    0.1320450585E+00    0.3228610704E+00    0.2079969053E-01    0.3650130084E+00    0.2725610851E+00
    0.2900000000E+05    0.1266445075E+00    0.3241745944E+00    0.1999046594E-01    0.3790053258E+00    0.2738450837E+00
    0.3100000000E+05    0.1216104226E+00    0.3253680347E+00    0.1922630741E-01    0.3922036001E+00    0.2750174504E+00
    0.3300000000E+05    0.1169093668E+00    0.3264587671E+00    0.1850419597E-01    0.4046566930E+00    0.2760939568E+00
    0.3500000000E+05    0.1125122623E+00    0.3274608162E+00    0.1782139888E-01    0.4164102254E+00    0.2770873774E+00
    0.3700000000E+05    0.1083935408E+00    0.3283856472E+00    0.1717541600E-01    0.4275069615E+00    0.2780081911E+00
    0.3900000000E+05    0.1045305158E+00    0.3292427393E+00    0.1656394233E-01    0.4379870755E+00    0.2788650898E+00
    0.4100000000E+05    0.1009029106E+00    0.3300400093E+00    0.1598484110E-01    0.4478883465E+00    0.2796653562E+00
    0.4300000000E+05    0.9749249424E-01    0.3307841292E+00    0.1543612410E-01    0.4572463090E+00    0.2804151466E+00
    0.4500000000E+05    0.9428279572E-01    0.3314807682E+00    0.1491593662E-01    0.4660943774E+00    0.2811197078E+00
    0.4700000000E+05    0.9125887587E-01    0.3321347790E+00    0.1442254567E-01    0.4744639546E+00    0.2817835440E+00
    0.4900000000E+05    0.8840714088E-01    0.3327503440E+00    0.1395433035E-01    0.4823845329E+00    0.2824105478E+00
    0.1000000000E+05    0.2016133179E+00    0.3006468781E+00    0.3021347431E-01    0.2044401106E+00    0.2516026584E+00
    0.3000000000E+05    0.1240838606E+00    0.3247851493E+00    0.1960294958E-01    0.3857005829E+00    0.2744441552E+00
    0.5000000000E+05    0.8704192403E-01    0.3330448619E+00    0.1372918565E-01    0.4861851646E+00    0.2827113128E+00
    0.7000000000E+05    0.6627789052E-01    0.3375882918E+00    0.1022849323E-01    0.5444629196E+00    0.2874225644E+00
    0.9000000000E+05    0.5357182535E-01    0.3405616775E+00    0.8022809699E-02    0.5801324015E+00    0.2905940522E+00
    0.1100000000E+06    0.4521739383E-01    0.3426979313E+00    0.6554124498E-02    0.6032250517E+00    0.2929294811E+00
    0.1300000000E+06    0.3939042032E-01    0.3443256903E+00    0.5526943916E-02    0.6189457695E+00    0.2947492623E+00
    0.1500000000E+06    0.3512676516E-01    0.3456173788E+00    0.4778002378E-02    0.6301143138E+00    0.2962235464E+00
    0.1700000000E+06    0.3188313864E-01    0.3466733596E+00    0.4212592412E-02    0.6383371238E+00    0.2974524103E+00
    0.1900000000E+06    0.2933569188E-01    0.3475565525E+00    0.3773140048E-02    0.6445746902E+00    0.2984991929E+00
    0.2100000000E+06    0.2728176883E-01    0.3483086711E+00    0.3423131270E-02    0.6494268189E+00    0.2994062625E+00
    0.2300000000E+06    0.2558913718E-01    0.3489586058E+00    0.3138526664E-02    0.6532826905E+00    0.3002032136E+00
    0.2500000000E+06    0.2416834975E-01    0.3495270815E+00    0.2902972976E-02    0.6564034134E+00    0.3009114515E+00
    0.2700000000E+06    0.2295698388E-01    0.3500294019E+00    0.2705022174E-02    0.6589693685E+00    0.3015469077E+00
    0.2900000000E+06    0.2191027750E-01    0.3504771443E+00    0.2536455885E-02    0.6611084053E+00    0.3021217274E+00
    0.3100000000E+06    0.2099536032E-01    0.3508792490E+00    0.2391241888E-02    0.6629132110E+00    0.3026453600E+00
    0.3300000000E+06    0.2018758364E-01    0.3512427436E+00    0.2264864655E-02    0.6644523397E+00    0.3031252874E+00
    0.3500000000E+06    0.1946811784E-01    0.3515732377E+00    0.2153884284E-02    0.6657774071E+00    0.3035675241E+00
    0.3700000000E+06    0.1882233881E-01    0.3518752703E+00    0.2055638880E-02    0.6669279004E+00    0.3039769704E+00
    0.3900000000E+06    0.1823871942E-01    0.3521525581E+00    0.1968039349E-02    0.6679344640E+00    0.3043576662E+00
    0.4100000000E+06    0.1770805190E-01    0.3524081774E+00    0.1889425124E-02    0.6688211903E+00    0.3047129771E+00
    0.4300000000E+06    0.1722289219E-01    0.3526446987E+00    0.1818460930E-02    0.6696072437E+00    0.3050457339E+00
    0.4500000000E+06    0.1677715613E-01    0.3528642889E+00    0.1754061702E-02    0.6703080332E+00    0.3053583373E+00
    0.4700000000E+06    0.1636582142E-01    0.3530687886E+00    0.1695337183E-02    0.6709360696E+00    0.3056528397E+00
    0.4900000000E+06    0.1598470448E-01    0.3532597727E+00    0.1641550473E-02    0.6715016028E+00    0.3059310078E+00
    0.1000000000E+06    0.4899262633E-01    0.3417086473E+00    0.7218994864E-02    0.5928494693E+00    0.2918412117E+00
    0.3000000000E+06    0.2143804559E-01    0.3506834239E+00    0.2461241588E-02    0.6620478355E+00    0.3023894351E+00
    0.5000000000E+06    0.1580435717E-01    0.3533506278E+00    0.1616312566E-02    0.6717636356E+00    0.3060644528E+00
    0.7000000000E+06    0.1316597331E-01    0.3547063305E+00    0.1263988721E-02    0.6751678634E+00    0.3081588453E+00
    0.9000000000E+06    0.1155719799E-01    0.3555409219E+00    0.1065829178E-02    0.6768334358E+00    0.3095782492E+00
    0.1100000000E+07    0.1044236458E-01    0.3561097721E+00    0.9362669117E-03    0.6778036908E+00    0.3106320816E+00
    0.1300000000E+07    0.9609471893E-02    0.3565229612E+00    0.8436029895E-03    0.6784329100E+00    0.3114600917E+00
    0.1500000000E+07    0.8955661990E-02    0.3568364526E+00    0.7732897692E-03    0.6788716631E+00    0.3121363116E+00
    0.1700000000E+07    0.8424143414E-02    0.3570819605E+00    0.7176610053E-03    0.6791940098E+00    0.3127042933E+00
    0.1900000000E+07    0.7980620309E-02    0.3572789041E+00    0.6722658960E-03    0.6794403389E+00    0.3131916422E+00
    0.2100000000E+07    0.7602971987E-02    0.3574398864E+00    0.6343284632E-03    0.6796344409E+00    0.3136168634E+00
    0.2300000000E+07    0.7276192000E-02    0.3575734667E+00    0.6020191543E-03    0.6797911914E+00    0.3139929148E+00
    0.2500000000E+07    0.6989685201E-02    0.3576856740E+00    0.5740782693E-03    0.6799203467E+00    0.3143291933E+00
    0.2700000000E+07    0.6735724531E-02    0.3577808844E+00    0.5496071114E-03    0.6800285595E+00    0.3146327117E+00
    0.2900000000E+07    0.6508521330E-02    0.3578623545E+00    0.5279454015E-03    0.6801205161E+00    0.3149088312E+00
    0.3100000000E+07    0.6303639979E-02    0.3579325604E+00    0.5085958814E-03    0.6801996094E+00    0.3151617340E+00
    0.3300000000E+07    0.6117615446E-02    0.3579934193E+00    0.4911760838E-03    0.6802683543E+00    0.3153947408E+00
    0.3500000000E+07    0.5947695441E-02    0.3580464394E+00    0.4753864342E-03    0.6803286532E+00    0.3156105280E+00
    0.3700000000E+07    0.5791661794E-02    0.3580928240E+00    0.4609885383E-03    0.6803819711E+00    0.3158112822E+00
    0.3900000000E+07    0.5647703776E-02    0.3581335450E+00    0.4477900274E-03    0.6804294539E+00    0.3159988105E+00
    0.4100000000E+07    0.5514326390E-02    0.3581693962E+00    0.4356337465E-03    0.6804720106E+00    0.3161746226E+00
    0.4300000000E+07    0.5390282728E-02    0.3582010321E+00    0.4243898889E-03    0.6805103711E+00    0.3163399912E+00
    0.4500000000E+07    0.5274523283E-02    0.3582289975E+00    0.4139501740E-03    0.6805451285E+00    0.3164959985E+00
    0.4700000000E+07    0.5166157390E-02    0.3582537492E+00    0.4042234699E-03    0.6805767691E+00    0.3166435719E+00
    0.4900000000E+07    0.5064423513E-02    0.3582756733E+00    0.3951324565E-03    0.6806056959E+00    0.3167835116E+00
    0.1000000000E+07    0.1095509884E-01    0.3558498423E+00    0.9950641807E-03    0.6773759305E+00    0.3101399187E+00
    0.3000000000E+07    0.6403526242E-02    0.3578987346E+00    0.5180077773E-03    0.6801614965E+00    0.3150379599E+00
    0.5000000000E+07    0.5015835096E-02    0.3582856797E+00    0.3908043013E-03    0.6806192489E+00    0.3168508396E+00
    0.7000000000E+07    0.4272278738E-02    0.3583961270E+00    0.3256617794E-03    0.6808063543E+00    0.3179257005E+00
    0.9000000000E+07    0.3789988054E-02    0.3584156348E+00    0.2844889949E-03    0.6809085576E+00    0.3186763641E+00
    0.1100000000E+08    0.3444273422E-02    0.3583970470E+00    0.2554961974E-03    0.6809732447E+00    0.3192474070E+00
    0.1300000000E+08    0.3180601877E-02    0.3583605852E+00    0.2336789897E-03    0.6810180292E+00    0.3197053445E+00
    0.1500000000E+08    0.2970798085E-02    0.3583153631E+00    0.2165046218E-03    0.6810509671E+00    0.3200859792E+00
    0.1700000000E+08    0.2798628586E-02    0.3582659315E+00    0.2025363539E-03    0.6810762700E+00    0.3204106722E+00
    0.1900000000E+08    0.2653987897E-02    0.3582147206E+00    0.1908907983E-03    0.6810963569E+00    0.3206931357E+00
    0.2100000000E+08    0.2530209735E-02    0.3581630857E+00    0.1809911319E-03    0.6811127174E+00    0.3209426681E+00
    0.2300000000E+08    0.2422693435E-02    0.3581118012E+00    0.1724427003E-03    0.6811263201E+00    0.3211658497E+00
    0.2500000000E+08    0.2328146833E-02    0.3580613119E+00    0.1649652060E-03    0.6811378225E+00    0.3213674994E+00
    0.2700000000E+08    0.2244143092E-02    0.3580118693E+00    0.1583533873E-03    0.6811476870E+00    0.3215512460E+00
