  Pressure (Pa) 2mC6-400 (mol/kg) 3mC6-400 (mol/kg) 33mC5-400 (mol/kg) 23mC5-400 (mol/kg) C7-400 (mol/kg)
    0.1000000000E+01    0.3935090433E-02    0.2082436429E-02    0.1922694739E-03    0.1862894109E-03    0.1013812958E-01
    0.3000000000E+01    0.1133764745E-01    0.5974919409E-02    0.5541601395E-03    0.5540922950E-03    0.2909436678E-01
    0.5000000000E+01    0.1818270812E-01    0.9543253140E-02    0.8890598595E-03    0.9157049412E-03    0.4647948174E-01
    0.7000000000E+01    0.2453785449E-01    0.1282747714E-01    0.1200250646E-02    0.1271331929E-02    0.6248725529E-01
    0.9000000000E+01    0.3045980527E-01    0.1586125115E-01    0.1490485487E-02    0.1621168487E-02    0.7728061471E-01
    0.1100000000E+02    0.3599652788E-01    0.1867307978E-01    0.1762091381E-02    0.1965401030E-02    0.9099755374E-01
    0.1300000000E+02    0.4118887655E-01    0.2128726538E-01    0.2017049223E-02    0.2304207660E-02    0.1037557388E+00
    0.1500000000E+02    0.4607187571E-01    0.2372465683E-01    0.2257056374E-02    0.2637758635E-02    0.1156561296E+00
    0.1700000000E+02    0.5067573513E-01    0.2600324368E-01    0.2483576135E-02    0.2966216805E-02    0.1267858515E+00
    0.1900000000E+02    0.5502665986E-01    0.2813863151E-01    0.2697877208E-02    0.3289738015E-02    0.1372204947E+00
    0.2100000000E+02    0.5914750174E-01    0.3014442546E-01    0.2901065427E-02    0.3608471488E-02    0.1470259686E+00
    0.2300000000E+02    0.6305828745E-01    0.3203254191E-01    0.3094109464E-02    0.3922560179E-02    0.1562600093E+00
    0.2500000000E+02    0.6677664952E-01    0.3381346357E-01    0.3277861810E-02    0.4232141109E-02    0.1649734138E+00
    0.2700000000E+02    0.7031818051E-01    0.3549644966E-01    0.3453076002E-02    0.4537345673E-02    0.1732110561E+00
    0.2900000000E+02    0.7369672580E-01    0.3708971002E-01    0.3620420865E-02    0.4838299933E-02    0.1810127302E+00
    0.3100000000E+02    0.7692462716E-01    0.3860055037E-01    0.3780492353E-02    0.5135124895E-02    0.1884138523E+00
    0.3300000000E+02    0.8001292637E-01    0.4003549398E-01    0.3933823446E-02    0.5427936759E-02    0.1954460499E+00
    0.3500000000E+02    0.8297153641E-01    0.4140038421E-01    0.4080892462E-02    0.5716847164E-02    0.2021376576E+00
    0.3700000000E+02    0.8580938612E-01    0.4270047123E-01    0.4222130086E-02    0.6001963416E-02    0.2085141375E+00
    0.3900000000E+02    0.8853454294E-01    0.4394048588E-01    0.4357925327E-02    0.6283388695E-02    0.2145984356E+00
    0.4100000000E+02    0.9115431752E-01    0.4512470265E-01    0.4488630593E-02    0.6561222264E-02    0.2204112876E+00
    0.4300000000E+02    0.9367535336E-01    0.4625699373E-01    0.4614566043E-02    0.6835559649E-02    0.2259714801E+00
    0.4500000000E+02    0.9610370380E-01    0.4734087553E-01    0.4736023313E-02    0.7106492822E-02    0.2312960757E+00
    0.4700000000E+02    0.9844489845E-01    0.4837954886E-01    0.4853268744E-02    0.7374110368E-02    0.2364006078E+00
    0.4900000000E+02    0.1007040008E+00    0.4937593377E-01    0.4966546165E-02    0.7638497640E-02    0.2412992493E+00
    0.1000000000E+02    0.3327361652E-01    0.1729330088E-01    0.1628485941E-02    0.1793973940E-02    0.8426585278E-01
    0.3000000000E+02    0.7532878855E-01    0.3785500794E-01    0.3701331098E-02    0.4987221204E-02    0.1847613010E+00
    0.5000000000E+02    0.1018042346E+00    0.4985911138E-01    0.5021767517E-02    0.7769505750E-02    0.2436754545E+00
    0.7000000000E+02    0.1204482548E+00    0.5784294696E-01    0.5963556782E-02    0.1023860363E-01    0.2830143803E+00
    0.9000000000E+02    0.1344373658E+00    0.6359705288E-01    0.6679560052E-02    0.1246228537E-01    0.3114744090E+00
    0.1100000000E+03    0.1453671751E+00    0.6797589246E-01    0.7246521802E-02    0.1448918072E-01    0.3332111801E+00
    0.1300000000E+03    0.1541496814E+00    0.7144129763E-01    0.7708345808E-02    0.1635520605E-01    0.3504737912E+00
    0.1500000000E+03    0.1613540613E+00    0.7426596787E-01    0.8092483327E-02    0.1808754314E-01    0.3645920201E+00
    0.1700000000E+03    0.1673586120E+00    0.7662195049E-01    0.8417225188E-02    0.1970719780E-01    0.3764059159E+00
    0.1900000000E+03    0.1724268460E+00    0.7862352884E-01    0.8695349524E-02    0.2123069966E-01    0.3864741980E+00
    0.2100000000E+03    0.1767490912E+00    0.8034981152E-01    0.8936115035E-02    0.2267126357E-01    0.3951841069E+00
    0.2300000000E+03    0.1804668309E+00    0.8185743836E-01    0.9146427478E-02    0.2403960290E-01    0.4028132412E+00
    0.2500000000E+03    0.1836877339E+00    0.8318811936E-01    0.9331560445E-02    0.2534451150E-01    0.4095662766E+00
    0.2700000000E+03    0.1864953501E+00    0.8437331028E-01    0.9495620773E-02    0.2659328808E-01    0.4155977563E+00
    0.2900000000E+03    0.1889555922E+00    0.8543722279E-01    0.9641860110E-02    0.2779205120E-01    0.4210267741E+00
    0.3100000000E+03    0.1911212019E+00    0.8639882528E-01    0.9772889891E-02    0.2894597655E-01    0.4259467426E+00
    0.3300000000E+03    0.1930349056E+00    0.8727321008E-01    0.9890833523E-02    0.3005947825E-01    0.4304320715E+00
    0.3500000000E+03    0.1947316940E+00    0.8807255045E-01    0.9997436495E-02    0.3113634917E-01    0.4345428472E+00
    0.3700000000E+03    0.1962405007E+00    0.8880678493E-01    0.1009414758E-01    0.3217987073E-01    0.4383281809E+00
    0.3900000000E+03    0.1975854575E+00    0.8948411604E-01    0.1018217976E-01    0.3319289978E-01    0.4418286497E+00
    0.4100000000E+03    0.1987868486E+00    0.9011137976E-01    0.1026255652E-01    0.3417793801E-01    0.4450781081E+00
    0.4300000000E+03    0.1998618450E+00    0.9069432373E-01    0.1033614762E-01    0.3513718788E-01    0.4481050508E+00
    0.4500000000E+03    0.2008250758E+00    0.9123781927E-01    0.1040369701E-01    0.3607259806E-01    0.4509336541E+00
    0.4700000000E+03    0.2016890782E+00    0.9174602531E-01    0.1046584474E-01    0.3698590069E-01    0.4535845803E+00
    0.4900000000E+03    0.2024646551E+00    0.9222251639E-01    0.1052314456E-01    0.3787864208E-01    0.4560756068E+00
    0.1000000000E+03    0.1402170279E+00    0.6592353777E-01    0.6978415676E-02    0.1349784400E-01    0.3230135836E+00
    0.3000000000E+03    0.1900723512E+00    0.8592979148E-01    0.9709133501E-02    0.2837432668E-01    0.4235453562E+00
    0.5000000000E+03    0.2028222575E+00    0.9244985138E-01    0.1055012945E-01    0.3831774108E-01    0.4572660486E+00
    0.7000000000E+03    0.2070520274E+00    0.9590076538E-01    0.1092453254E-01    0.4629183574E-01    0.4755194838E+00
    0.9000000000E+03    0.2081920186E+00    0.9809682888E-01    0.1111535358E-01    0.5318492990E-01    0.4873632028E+00
    0.1100000000E+04    0.2079647032E+00    0.9964056820E-01    0.1121672576E-01    0.5938270268E-01    0.4958356723E+00
    0.1300000000E+04    0.2070630494E+00    0.1007960484E+00    0.1126854492E-01    0.6508875625E-01    0.5022802974E+00
    0.1500000000E+04    0.2058086601E+00    0.1016992337E+00    0.1129043429E-01    0.7042454704E-01    0.5073943132E+00
    0.1700000000E+04    0.2043656760E+00    0.1024280170E+00    0.1129308583E-01    0.7546885869E-01    0.5115801126E+00
    0.1900000000E+04    0.2028236268E+00    0.1030305647E+00    0.1128277981E-01    0.8027600455E-01    0.5150882437E+00
    0.2100000000E+04    0.2012337019E+00    0.1035384252E+00    0.1126342432E-01    0.8488519919E-01    0.5180838873E+00
    0.2300000000E+04    0.1996261409E+00    0.1039732137E+00    0.1123756519E-01    0.8932579943E-01    0.5206809199E+00
    0.2500000000E+04    0.1980191766E+00    0.1043502850E+00    0.1120692372E-01    0.9362043079E-01    0.5229607200E+00
    0.2700000000E+04    0.1964238995E+00    0.1046808767E+00    0.1117270024E-01    0.9778695159E-01    0.5249831860E+00
    0.2900000000E+04    0.1948470241E+00    0.1049734207E+00    0.1113575385E-01    0.1018397404E+00    0.5267935093E+00
    0.3100000000E+04    0.1932925238E+00    0.1052343788E+00    0.1109671323E-01    0.1057905704E+00    0.5284265097E+00
    0.3300000000E+04    0.1917626248E+00    0.1054687948E+00    0.1105604741E-01    0.1096492210E+00    0.5299095047E+00
    0.3500000000E+04    0.1902584280E+00    0.1056806679E+00    0.1101411215E-01    0.1134239176E+00    0.5312642660E+00
    0.3700000000E+04    0.1887803051E+00    0.1058732142E+00    0.1097118137E-01    0.1171216542E+00    0.5325083863E+00
    0.3900000000E+04    0.1873281566E+00    0.1060490517E+00    0.1092746870E-01    0.1207484347E+00    0.5336562561E+00
    0.4100000000E+04    0.1859015804E+00    0.1062103353E+00    0.1088314273E-01    0.1243094575E+00    0.5347197759E+00
    0.4300000000E+04    0.1844999855E+00    0.1063588562E+00    0.1083833788E-01    0.1278092573E+00    0.5357088831E+00
    0.4500000000E+04    0.1831226669E+00    0.1064961166E+00    0.1079316234E-01    0.1312518175E+00    0.5366319494E+00
    0.4700000000E+04    0.1817688571E+00    0.1066233869E+00    0.1074770397E-01    0.1346406586E+00    0.5374960845E+00
    0.4900000000E+04    0.1804377599E+00    0.1067417487E+00    0.1070203463E-01    0.1379789092E+00    0.5383073699E+00
    0.1000000000E+04    0.2081931101E+00    0.9892939384E-01    0.1117403453E-01    0.5635537058E-01    0.4919150354E+00
    0.3000000000E+04    0.1940668057E+00    0.1051075046E+00    0.1111646290E-01    0.1038272481E+00    0.5276303181E+00
    0.5000000000E+04    0.1797804778E+00    0.1067978840E+00    0.1067913976E-01    0.1396299482E+00    0.5386948593E+00
    0.7000000000E+04    0.1676432830E+00    0.1076213563E+00    0.1022018095E-01    0.1705406983E+00    0.5446284140E+00
    0.9000000000E+04    0.1570287009E+00    0.1081133835E+00    0.9770916404E-02    0.1983527717E+00    0.5484865913E+00
    0.1100000000E+05    0.1475401466E+00    0.1084408965E+00    0.9337702408E-02    0.2238503144E+00    0.5512621058E+00
    0.1300000000E+05    0.1389381400E+00    0.1086740520E+00    0.8922229587E-02    0.2474590903E+00    0.5533872997E+00
    0.1500000000E+05    0.1310683272E+00    0.1088478155E+00    0.8524914752E-02    0.2694438385E+00    0.5550847797E+00
    0.1700000000E+05    0.1238242610E+00    0.1089816794E+00    0.8145715912E-02    0.2899865641E+00    0.5564825114E+00
    0.1900000000E+05    0.1171280125E+00    0.1090874126E+00    0.7784375479E-02    0.3092228267E+00    0.5576600717E+00
    0.2100000000E+05    0.1109195467E+00    0.1091725599E+00    0.7440507570E-02    0.3272603256E+00    0.5586699628E+00
    0.2300000000E+05    0.1051506071E+00    0.1092421891E+00    0.7113637160E-02    0.3441890783E+00    0.5595484649E+00
    0.2500000000E+05    0.9978104332E-01    0.1092998348E+00    0.6803222982E-02    0.3600872589E+00    0.5603215994E+00
    0.2700000000E+05    0.9477652588E-01    0.1093480390E+00    0.6508674319E-02    0.3750246578E+00    0.5610086097E+00
    0.2900000000E+05    0.9010707926E-01    0.1093886778E+00    0.6229364947E-02    0.3890647823E+00    0.5616240963E+00
    0.3100000000E+05    0.8574611195E-01    0.1094231663E+00    0.5964645234E-02    0.4022661580E+00    0.5621793796E+00
    0.3300000000E+05    0.8166975697E-01    0.1094525922E+00    0.5713852688E-02    0.4146831540E+00    0.5626834018E+00
    0.3500000000E+05    0.7785640999E-01    0.1094778051E+00    0.5476321022E-02    0.4263665188E+00    0.5631433412E+00
    0.3700000000E+05    0.7428639551E-01    0.1094994785E+00    0.5251387787E-02    0.4373637436E+00    0.5635650410E+00
    0.3900000000E+05    0.7094171740E-01    0.1095181530E+00    0.5038400661E-02    0.4477193221E+00    0.5639533169E+00
    0.4100000000E+05    0.6780586602E-01    0.1095342673E+00    0.4836722479E-02    0.4574749484E+00    0.5643121808E+00
    0.4300000000E+05    0.6486366396E-01    0.1095481810E+00    0.4645735143E-02    0.4666696794E+00    0.5646450072E+00
    0.4500000000E+05    0.6210113859E-01    0.1095601919E+00    0.4464842543E-02    0.4753400775E+00    0.5649546591E+00
    0.4700000000E+05    0.5950541385E-01    0.1095705482E+00    0.4293472632E-02    0.4835203419E+00    0.5652435842E+00
    0.4900000000E+05    0.5706461624E-01    0.1095794588E+00    0.4131078771E-02    0.4912424335E+00    0.5655138896E+00
    0.1000000000E+05    0.1521612546E+00    0.1082921127E+00    0.9552150022E-02    0.2113590708E+00    0.5499755356E+00
    0.3000000000E+05    0.8788958506E-01    0.1094066164E+00    0.6095222601E-02    0.3957668256E+00    0.5619086570E+00
    0.5000000000E+05    0.5589885812E-01    0.1095834282E+00    0.4053084181E-02    0.4949410701E+00    0.5656426399E+00
    0.7000000000E+05    0.3847681530E-01    0.1096182304E+00    0.2852306901E-02    0.5510887475E+00    0.5675772256E+00
    0.9000000000E+05    0.2825552529E-01    0.1096096940E+00    0.2113774614E-02    0.5849198815E+00    0.5687871801E+00
    0.1100000000E+06    0.2183338741E-01    0.1095845253E+00    0.1634438588E-02    0.6066142552E+00    0.5696301262E+00
    0.1300000000E+06    0.1755615775E-01    0.1095524677E+00    0.1307605780E-02    0.6213013968E+00    0.5702602471E+00
    0.1500000000E+06    0.1456688524E-01    0.1095176931E+00    0.1075176714E-02    0.6317049076E+00    0.5707550046E+00
    0.1700000000E+06    0.1239318405E-01    0.1094821635E+00    0.9039513680E-03    0.6393550264E+00    0.5711576722E+00
    0.1900000000E+06    0.1075970120E-01    0.1094468510E+00    0.7740345024E-03    0.6451577959E+00    0.5714944109E+00
    0.2100000000E+06    0.9497940058E-02    0.1094122452E+00    0.6729786427E-03    0.6496750984E+00    0.5717820342E+00
    0.2300000000E+06    0.8500378934E-02    0.1093785865E+00    0.5926943692E-03    0.6532696894E+00    0.5720318868E+00
    0.2500000000E+06    0.7695879708E-02    0.1093459819E+00    0.5277469242E-03    0.6561840727E+00    0.5722519317E+00
    0.2700000000E+06    0.7035878896E-02    0.1093144646E+00    0.4743775075E-03    0.6585853458E+00    0.5724479441E+00
    0.2900000000E+06    0.6486306820E-02    0.1092840270E+00    0.4299194536E-03    0.6605917290E+00    0.5726242283E+00
    0.3100000000E+06    0.6022683119E-02    0.1092546393E+00    0.3924380339E-03    0.6622888241E+00    0.5727840681E+00
    0.3300000000E+06    0.5627042361E-02    0.1092262598E+00    0.3605014315E-03    0.6637398963E+00    0.5729300192E+00
    0.3500000000E+06    0.5285950737E-02    0.1091988417E+00    0.3330311372E-03    0.6649925603E+00    0.5730641051E+00
    0.3700000000E+06    0.4989193426E-02    0.1091723359E+00    0.3092018317E-03    0.6660832382E+00    0.5731879524E+00
    0.3900000000E+06    0.4728885655E-02    0.1091466940E+00    0.2883729114E-03    0.6670401992E+00    0.5733028864E+00
    0.4100000000E+06    0.4498858123E-02    0.1091218687E+00    0.2700407241E-03    0.6678856753E+00    0.5734099995E+00
    0.4300000000E+06    0.4294224081E-02    0.1090978151E+00    0.2538046528E-03    0.6686373595E+00    0.5735102019E+00
    0.4500000000E+06    0.4111069162E-02    0.1090744907E+00    0.2393426389E-03    0.6693094864E+00    0.5736042590E+00
    0.4700000000E+06    0.3946225676E-02    0.1090518557E+00    0.2263932526E-03    0.6699136214E+00    0.5736928202E+00
    0.4900000000E+06    0.3797106039E-02    0.1090298727E+00    0.2147423819E-03    0.6704592477E+00    0.5737764405E+00
    0.1000000000E+06    0.2469898535E-01    0.1095983820E+00    0.1849918776E-02    0.5968859718E+00    0.5692422809E+00
    0.3000000000E+06    0.6244999653E-02    0.1092692043E+00    0.4104058887E-03    0.6614745517E+00    0.5727060296E+00
    0.5000000000E+06    0.3727761355E-02    0.1090191147E+00    0.2093474030E-03    0.6707126245E+00    0.5738165497E+00
    0.7000000000E+06    0.2803679287E-02    0.1088309282E+00    0.1394712031E-03    0.6740489571E+00    0.5744468901E+00
    0.9000000000E+06    0.2321887216E-02    0.1086804055E+00    0.1054177045E-03    0.6757288862E+00    0.5748771087E+00
    0.1100000000E+07    0.2021870395E-02    0.1085549066E+00    0.8557612700E-04    0.6767336640E+00    0.5751995907E+00
    0.1300000000E+07    0.1814246671E-02    0.1084472148E+00    0.7266361101E-04    0.6774012181E+00    0.5754554995E+00
    0.1500000000E+07    0.1660288834E-02    0.1083528447E+00    0.6360597166E-04    0.6778771734E+00    0.5756665248E+00
    0.1700000000E+07    0.1540481922E-02    0.1082688214E+00    0.5689964654E-04    0.6782341204E+00    0.5758454078E+00
    0.1900000000E+07    0.1443892766E-02    0.1081930705E+00    0.5172825820E-04    0.6785121567E+00    0.5760002295E+00
    0.2100000000E+07    0.1363896221E-02    0.1081240879E+00    0.4761249098E-04    0.6787351913E+00    0.5761364170E+00
    0.2300000000E+07    0.1296227970E-02    0.1080607473E+00    0.4425328528E-04    0.6789183495E+00    0.5762577802E+00
    0.2500000000E+07    0.1238008919E-02    0.1080021838E+00    0.4145474581E-04    0.6790716629E+00    0.5763670902E+00
    0.2700000000E+07    0.1187218475E-02    0.1079477182E+00    0.3908334081E-04    0.6792020455E+00    0.5764664220E+00
    0.2900000000E+07    0.1142392478E-02    0.1078968073E+00    0.3704497681E-04    0.6793144179E+00    0.5765573669E+00
    0.3100000000E+07    0.1102441130E-02    0.1078490098E+00    0.3527146223E-04    0.6794123778E+00    0.5766411710E+00
    0.3300000000E+07    0.1066534566E-02    0.1078039624E+00    0.3371217355E-04    0.6794986176E+00    0.5767188267E+00
    0.3500000000E+07    0.1034028349E-02    0.1077613622E+00    0.3232873789E-04    0.6795751923E+00    0.5767911372E+00
    0.3700000000E+07    0.1004413438E-02    0.1077209537E+00    0.3109153351E-04    0.6796436987E+00    0.5768587605E+00
    0.3900000000E+07    0.9772817042E-03    0.1076825201E+00    0.2997732397E-04    0.6797053962E+00    0.5769222426E+00
    0.4100000000E+07    0.9523015833E-03    0.1076458752E+00    0.2896761993E-04    0.6797612924E+00    0.5769820409E+00
    0.4300000000E+07    0.9292005413E-03    0.1076108580E+00    0.2804752082E-04    0.6798122027E+00    0.5770385426E+00
    0.4500000000E+07    0.9077522047E-03    0.1075773286E+00    0.2720487998E-04    0.6798587946E+00    0.5770920777E+00
    0.4700000000E+07    0.8877667621E-03    0.1075451644E+00    0.2642969288E-04    0.6799016199E+00    0.5771429301E+00
    0.4900000000E+07    0.8690836960E-03    0.1075142574E+00    0.2571364163E-04    0.6799411388E+00    0.5771913454E+00
    0.1000000000E+07    0.2156580501E-02    0.1086150641E+00    0.9432891083E-04    0.6762875835E+00    0.5750485867E+00
    0.3000000000E+07    0.1121864411E-02    0.1078725437E+00    0.3612861567E-04    0.6793650136E+00    0.5766000944E+00
    0.5000000000E+07    0.8601870032E-03    0.1074992451E+00    0.2537556746E-04    0.6799597818E+00    0.5772147072E+00
    0.7000000000E+07    0.7259845695E-03    0.1072466524E+00    0.2049535644E-04    0.6802272095E+00    0.5775939711E+00
    0.9000000000E+07    0.6406437960E-03    0.1070551726E+00    0.1759397752E-04    0.6803838618E+00    0.5778663842E+00
    0.1100000000E+08    0.5801625335E-03    0.1069007958E+00    0.1562510046E-04    0.6804886857E+00    0.5780781041E+00
    0.1300000000E+08    0.5343772170E-03    0.1067713916E+00    0.1417973573E-04    0.6805647037E+00    0.5782508348E+00
    0.1500000000E+08    0.4981387336E-03    0.1066599626E+00    0.1306193312E-04    0.6806228844E+00    0.5783964713E+00
    0.1700000000E+08    0.4685194306E-03    0.1065621001E+00    0.1216481627E-04    0.6806691664E+00    0.5785222200E+00
    0.1900000000E+08    0.4437141915E-03    0.1064748447E+00    0.1142458459E-04    0.6807070667E+00    0.5786327691E+00
    0.2100000000E+08    0.4225408585E-03    0.1063961125E+00    0.1080052747E-04    0.6807388120E+00    0.5787313352E+00
    0.2300000000E+08    0.4041882280E-03    0.1063243805E+00    0.1026530120E-04    0.6807658866E+00    0.5788202188E+00
    0.2500000000E+08    0.3880784940E-03    0.1062585011E+00    0.9799777235E-05    0.6807893215E+00    0.5789011206E+00
    0.2700000000E+08    0.3737873505E-03    0.1061975884E+00    0.9390123659E-05    0.6808098571E+00    0.5789753327E+00
