  Pressure (Pa) 2mC6-400 (mol/kg) 3mC6-400 (mol/kg) 33mC5-400 (mol/kg) 23mC5-400 (mol/kg) C7-400 (mol/kg)
    0.1000000000E+01    0.3954565286E-02    0.1047759511E-02    0.3864154406E-03    0.2793428783E-03    0.6801003567E-02
    0.3000000000E+01    0.1149839303E-01    0.3041882956E-02    0.1123797262E-02    0.8303361904E-03    0.1974780423E-01
    0.5000000000E+01    0.1859355955E-01    0.4911827718E-02    0.1817647967E-02    0.1371379529E-02    0.3189207780E-01
    0.7000000000E+01    0.2528105291E-01    0.6669337739E-02    0.2471951580E-02    0.1902824910E-02    0.4330961363E-01
    0.9000000000E+01    0.3159684471E-01    0.8324706686E-02    0.3090203534E-02    0.2425007159E-02    0.5406684855E-01
    0.1100000000E+02    0.3757264542E-01    0.9886995803E-02    0.3675484344E-02    0.2938244972E-02    0.6422227108E-01
    0.1300000000E+02    0.4323652657E-01    0.1136421360E-01    0.4230520287E-02    0.3442841893E-02    0.7382757978E-01
    0.1500000000E+02    0.4861343647E-01    0.1276346494E-01    0.4757733683E-02    0.3939087214E-02    0.8292864442E-01
    0.1700000000E+02    0.5372563014E-01    0.1409107550E-01    0.5259284800E-02    0.4427256827E-02    0.9156630825E-01
    0.1900000000E+02    0.5859302965E-01    0.1535269613E-01    0.5737106979E-02    0.4907613997E-02    0.9977706099E-01
    0.2100000000E+02    0.6323352775E-01    0.1655339086E-01    0.6192936210E-02    0.5380410094E-02    0.1075936064E+00
    0.2300000000E+02    0.6766324488E-01    0.1769771153E-01    0.6628336177E-02    0.5845885270E-02    0.1150453433E+00
    0.2500000000E+02    0.7189674782E-01    0.1878976118E-01    0.7044719543E-02    0.6304269091E-02    0.1221587745E+00
    0.2700000000E+02    0.7594723640E-01    0.1983324836E-01    0.7443366141E-02    0.6755781122E-02    0.1289578569E+00
    0.2900000000E+02    0.7982670371E-01    0.2083153362E-01    0.7825438562E-02    0.7200631480E-02    0.1354643015E+00
    0.3100000000E+02    0.8354607404E-01    0.2178766960E-01    0.8191995587E-02    0.7639021345E-02    0.1416978323E+00
    0.3300000000E+02    0.8711532216E-01    0.2270443574E-01    0.8544003789E-02    0.8071143442E-02    0.1476764093E+00
    0.3500000000E+02    0.9054357676E-01    0.2358436831E-01    0.8882347598E-02    0.8497182488E-02    0.1534164232E+00
    0.3700000000E+02    0.9383921048E-01    0.2442978661E-01    0.9207838060E-02    0.8917315611E-02    0.1589328637E+00
    0.3900000000E+02    0.9700991860E-01    0.2524281581E-01    0.9521220487E-02    0.9331712747E-02    0.1642394672E+00
    0.4100000000E+02    0.1000627879E+00    0.2602540698E-01    0.9823181154E-02    0.9740537008E-02    0.1693488461E+00
    0.4300000000E+02    0.1030043574E+00    0.2677935468E-01    0.1011435319E-01    0.1014394503E-01    0.1742726021E+00
    0.4500000000E+02    0.1058406713E+00    0.2750631246E-01    0.1039532176E-01    0.1054208729E-01    0.1790214262E+00
    0.4700000000E+02    0.1085773265E+00    0.2820780649E-01    0.1066662864E-01    0.1093510842E-01    0.1836051871E+00
    0.4900000000E+02    0.1112195145E+00    0.2888524776E-01    0.1092877629E-01    0.1132314751E-01    0.1880330091E+00
    0.1000000000E+02    0.3462541070E-01    0.9116962898E-02    0.3386787272E-02    0.2682724804E-02    0.5921640819E-01
    0.3000000000E+02    0.8170575660E-01    0.2131469052E-01    0.8010594052E-02    0.7420621736E-02    0.1386140197E+00
    0.5000000000E+02    0.1125067038E+00    0.2921536070E-01    0.1105656256E-01    0.1151534079E-01    0.1901911081E+00
    0.7000000000E+02    0.1342982424E+00    0.3482578972E-01    0.1322889222E-01    0.1512764207E-01    0.2269189262E+00
    0.9000000000E+02    0.1505042949E+00    0.3906017301E-01    0.1485884150E-01    0.1836671445E-01    0.2547122902E+00
    0.1100000000E+03    0.1629791043E+00    0.4239711410E-01    0.1612572805E-01    0.2130962070E-01    0.2766706985E+00
    0.1300000000E+03    0.1728265325E+00    0.4511271443E-01    0.1713631944E-01    0.2401249904E-01    0.2945838791E+00
    0.1500000000E+03    0.1807500193E+00    0.4737811961E-01    0.1795869449E-01    0.2651734548E-01    0.3095622303E+00
    0.1700000000E+03    0.1872213784E+00    0.4930546263E-01    0.1863855830E-01    0.2885629491E-01    0.3223339242E+00
    0.1900000000E+03    0.1925699384E+00    0.5097152350E-01    0.1920785171E-01    0.3105442027E-01    0.3333979944E+00
    0.2100000000E+03    0.1970330326E+00    0.5243079790E-01    0.1968962586E-01    0.3313161895E-01    0.3431089432E+00
    0.2300000000E+03    0.2007862353E+00    0.5372313586E-01    0.2010096072E-01    0.3510391799E-01    0.3517262214E+00
    0.2500000000E+03    0.2039623065E+00    0.5487842032E-01    0.2045479381E-01    0.3698439819E-01    0.3594445505E+00
    0.2700000000E+03    0.2066635148E+00    0.5591954715E-01    0.2076111003E-01    0.3878386182E-01    0.3664132463E+00
    0.2900000000E+03    0.2089699113E+00    0.5686438800E-01    0.2102774067E-01    0.4051132397E-01    0.3727489543E+00
    0.3100000000E+03    0.2109450347E+00    0.5772712098E-01    0.2126091476E-01    0.4217438001E-01    0.3785442869E+00
    0.3300000000E+03    0.2126399385E+00    0.5851915575E-01    0.2146564843E-01    0.4377948442E-01    0.3838738317E+00
    0.3500000000E+03    0.2140960928E+00    0.5924979110E-01    0.2164602561E-01    0.4533216533E-01    0.3887984248E+00
    0.3700000000E+03    0.2153475113E+00    0.5992669161E-01    0.2180540401E-01    0.4683719141E-01    0.3933682487E+00
    0.3900000000E+03    0.2164223364E+00    0.6055623925E-01    0.2194656869E-01    0.4829870333E-01    0.3976251203E+00
    0.4100000000E+03    0.2173440375E+00    0.6114379690E-01    0.2207184827E-01    0.4972031823E-01    0.4016042055E+00
    0.4300000000E+03    0.2181323278E+00    0.6169390868E-01    0.2218320393E-01    0.5110521355E-01    0.4053353229E+00
    0.4500000000E+03    0.2188038741E+00    0.6221045419E-01    0.2228229837E-01    0.5245619499E-01    0.4088439492E+00
    0.4700000000E+03    0.2193728529E+00    0.6269676863E-01    0.2237054992E-01    0.5377575184E-01    0.4121520020E+00
    0.4900000000E+03    0.2198513892E+00    0.6315573751E-01    0.2244917521E-01    0.5506610257E-01    0.4152784569E+00
    0.1000000000E+03    0.1571269014E+00    0.4082032931E-01    0.1552981449E-01    0.1987128435E-01    0.2662880524E+00
    0.3000000000E+03    0.2099954372E+00    0.5730524874E-01    0.2114817157E-01    0.4135047539E-01    0.3757091402E+00
    0.5000000000E+03    0.2200600571E+00    0.6337576495E-01    0.2248521161E-01    0.5570095426E-01    0.4167788335E+00
    0.7000000000E+03    0.2213760153E+00    0.6680815496E-01    0.2289204140E-01    0.6725267707E-01    0.4403329026E+00
    0.9000000000E+03    0.2198777373E+00    0.6909803267E-01    0.2297196256E-01    0.7727344221E-01    0.4562331853E+00
    0.1100000000E+04    0.2173109790E+00    0.7076833144E-01    0.2291005536E-01    0.8630868151E-01    0.4679512527E+00
    0.1300000000E+04    0.2143262432E+00    0.7205712399E-01    0.2277912047E-01    0.9464498953E-01    0.4770768242E+00
    0.1500000000E+04    0.2112002174E+00    0.7309085379E-01    0.2261239003E-01    0.1024528385E+00    0.4844586198E+00
    0.1700000000E+04    0.2080598058E+00    0.7394389745E-01    0.2242661249E-01    0.1098425737E+00    0.4905982407E+00
    0.1900000000E+04    0.2049651868E+00    0.7466331854E-01    0.2223083571E-01    0.1168901323E+00    0.4958144762E+00
    0.2100000000E+04    0.2019445818E+00    0.7528057956E-01    0.2203019700E-01    0.1236502510E+00    0.5003213097E+00
    0.2300000000E+04    0.1990101465E+00    0.7581763564E-01    0.2182771821E-01    0.1301638407E+00    0.5042686360E+00
    0.2500000000E+04    0.1961657260E+00    0.7629034493E-01    0.2162521937E-01    0.1364623803E+00    0.5077651169E+00
    0.2700000000E+04    0.1934108285E+00    0.7671049094E-01    0.2142381087E-01    0.1425706759E+00    0.5108917727E+00
    0.2900000000E+04    0.1907427371E+00    0.7708703951E-01    0.2122417119E-01    0.1485086667E+00    0.5137104540E+00
    0.3100000000E+04    0.1881576594E+00    0.7742695141E-01    0.2102670956E-01    0.1542926525E+00    0.5162693309E+00
    0.3300000000E+04    0.1856513626E+00    0.7773572517E-01    0.2083166443E-01    0.1599361515E+00    0.5186065708E+00
    0.3500000000E+04    0.1832195239E+00    0.7801777025E-01    0.2063916446E-01    0.1654505164E+00    0.5207528709E+00
    0.3700000000E+04    0.1808579212E+00    0.7827666983E-01    0.2044926729E-01    0.1708453866E+00    0.5227332472E+00
    0.3900000000E+04    0.1785625325E+00    0.7851536993E-01    0.2026198450E-01    0.1761290267E+00    0.5245683240E+00
    0.4100000000E+04    0.1763295823E+00    0.7873631817E-01    0.2007729805E-01    0.1813085843E+00    0.5262752820E+00
    0.4300000000E+04    0.1741555576E+00    0.7894156722E-01    0.1989517109E-01    0.1863902896E+00    0.5278685674E+00
    0.4500000000E+04    0.1720372072E+00    0.7913285311E-01    0.1971555520E-01    0.1913796114E+00    0.5293604287E+00
    0.4700000000E+04    0.1699715314E+00    0.7931165542E-01    0.1953839527E-01    0.1962813814E+00    0.5307613310E+00
    0.4900000000E+04    0.1679557662E+00    0.7947924398E-01    0.1936363277E-01    0.2010998936E+00    0.5320802775E+00
    0.1000000000E+04    0.2186740788E+00    0.6999200797E-01    0.2295280869E-01    0.8189260880E-01    0.4624908396E+00
    0.3000000000E+04    0.1894400809E+00    0.7726120214E-01    0.2112515007E-01    0.1514190083E+00    0.5150197822E+00
    0.5000000000E+04    0.1669657968E+00    0.7955918178E-01    0.1927713188E-01    0.2034791432E+00    0.5327114947E+00
    0.7000000000E+04    0.1492672898E+00    0.8077089182E-01    0.1765908173E-01    0.2474447856E+00    0.5424725980E+00
    0.9000000000E+04    0.1346241226E+00    0.8153955368E-01    0.1622371643E-01    0.2858052523E+00    0.5489025408E+00
    0.1100000000E+05    0.1221803825E+00    0.8207789932E-01    0.1493965504E-01    0.3197120933E+00    0.5535567752E+00
    0.1300000000E+05    0.1114413576E+00    0.8247915894E-01    0.1378618407E-01    0.3498655210E+00    0.5571300058E+00
    0.1500000000E+05    0.1020830036E+00    0.8279136207E-01    0.1274785809E-01    0.3767699157E+00    0.5599863213E+00
    0.1700000000E+05    0.9387284804E-01    0.8304203823E-01    0.1181202645E-01    0.4008271951E+00    0.5623377884E+00
    0.1900000000E+05    0.8663330855E-01    0.8324821626E-01    0.1096775010E-01    0.4223757629E+00    0.5643176016E+00
    0.2100000000E+05    0.8022295820E-01    0.8342105150E-01    0.1020532098E-01    0.4417084849E+00    0.5660142957E+00
    0.2300000000E+05    0.7452607639E-01    0.8356818672E-01    0.9516037449E-02    0.4590819735E+00    0.5674893791E+00
    0.2500000000E+05    0.6944631079E-01    0.8369505026E-01    0.8892084880E-02    0.4747221249E+00    0.5687871244E+00
    0.2700000000E+05    0.6490251877E-01    0.8380561370E-01    0.8326456314E-02    0.4888279942E+00    0.5699403357E+00
    0.2900000000E+05    0.6082584323E-01    0.8390285572E-01    0.7812886659E-02    0.5015748885E+00    0.5709739143E+00
    0.3100000000E+05    0.5715753758E-01    0.8398905800E-01    0.7345790565E-02    0.5131170435E+00    0.5719071528E+00
    0.3300000000E+05    0.5384727813E-01    0.8406600031E-01    0.6920201448E-02    0.5235900270E+00    0.5727552636E+00
    0.3500000000E+05    0.5085181514E-01    0.8413509298E-01    0.6531711810E-02    0.5331129188E+00    0.5735304247E+00
    0.3700000000E+05    0.4813387283E-01    0.8419746922E-01    0.6176415847E-02    0.5417902857E+00    0.5742425162E+00
    0.3900000000E+05    0.4566124040E-01    0.8425405080E-01    0.5850855315E-02    0.5497139578E+00    0.5748996484E+00
    0.4100000000E+05    0.4340601463E-01    0.8430559575E-01    0.5551969346E-02    0.5569646156E+00    0.5755085488E+00
    0.4300000000E+05    0.4134396499E-01    0.8435273358E-01    0.5277048612E-02    0.5636131969E+00    0.5760748509E+00
    0.4500000000E+05    0.3945399959E-01    0.8439599174E-01    0.5023693922E-02    0.5697221360E+00    0.5766033115E+00
    0.4700000000E+05    0.3771771450E-01    0.8443581573E-01    0.4789779191E-02    0.5753464506E+00    0.5770979789E+00
    0.4900000000E+05    0.3611901276E-01    0.8447258457E-01    0.4573418531E-02    0.5805346912E+00    0.5775623221E+00
    0.1000000000E+05    0.1281636551E+00    0.8183015749E-01    0.1556423497E-01    0.3032652787E+00    0.5513970559E+00
    0.3000000000E+05    0.5894396961E-01    0.8394721562E-01    0.7573853622E-02    0.5074876745E+00    0.5714520438E+00
    0.5000000000E+05    0.3536677566E-01    0.8448992661E-01    0.4471290090E-02    0.5829788930E+00    0.5777840733E+00
    0.7000000000E+05    0.2491211902E-01    0.8473519469E-01    0.3031385646E-02    0.6170757886E+00    0.5811757234E+00
    0.9000000000E+05    0.1933760898E-01    0.8486973859E-01    0.2251055468E-02    0.6352102550E+00    0.5833751634E+00
    0.1100000000E+06    0.1596074769E-01    0.8495091287E-01    0.1777645058E-02    0.6460499287E+00    0.5849537288E+00
    0.1300000000E+06    0.1372189311E-01    0.8500242655E-01    0.1465942146E-02    0.6530963859E+00    0.5861603661E+00
    0.1500000000E+06    0.1213614561E-01    0.8503588753E-01    0.1247805962E-02    0.6579707819E+00    0.5871231867E+00
    0.1700000000E+06    0.1095551454E-01    0.8505764619E-01    0.1087837030E-02    0.6615066827E+00    0.5879157741E+00
    0.1900000000E+06    0.1004181076E-01    0.8507146174E-01    0.9661210253E-03    0.6641691176E+00    0.5885838343E+00
    0.2100000000E+06    0.9312633376E-02    0.8507969482E-01    0.8707214789E-03    0.6662348567E+00    0.5891574745E+00
    0.2300000000E+06    0.8716087501E-02    0.8508389742E-01    0.7941058941E-03    0.6678774779E+00    0.5896574546E+00
    0.2500000000E+06    0.8217989204E-02    0.8508512794E-01    0.7313145242E-03    0.6692106388E+00    0.5900986234E+00
    0.2700000000E+06    0.7794960600E-02    0.8508413008E-01    0.6789631790E-03    0.6703114964E+00    0.5904919258E+00
    0.2900000000E+06    0.7430498349E-02    0.8508143955E-01    0.6346717475E-03    0.6712340566E+00    0.5908456338E+00
    0.3100000000E+06    0.7112631158E-02    0.8507745035E-01    0.5967221658E-03    0.6720171273E+00    0.5911661337E+00
    0.3300000000E+06    0.6832468646E-02    0.8507245746E-01    0.5638459302E-03    0.6726892375E+00    0.5914584465E+00
    0.3500000000E+06    0.6583271577E-02    0.8506668510E-01    0.5350877459E-03    0.6732717820E+00    0.5917265832E+00
    0.3700000000E+06    0.6359838324E-02    0.8506030596E-01    0.5097155136E-03    0.6737810899E+00    0.5919737923E+00
    0.3900000000E+06    0.6158089344E-02    0.8505345453E-01    0.4871594002E-03    0.6742298203E+00    0.5922027376E+00
    0.4100000000E+06    0.5974779211E-02    0.8504623664E-01    0.4669696679E-03    0.6746279248E+00    0.5924156271E+00
    0.4300000000E+06    0.5807292872E-02    0.8503873625E-01    0.4487868983E-03    0.6749833257E+00    0.5926143092E+00
    0.4500000000E+06    0.5653498825E-02    0.8503102046E-01    0.4323205885E-03    0.6753024015E+00    0.5928003450E+00
    0.4700000000E+06    0.5511641513E-02    0.8502314326E-01    0.4173335135E-03    0.6755903408E+00    0.5929750631E+00
    0.4900000000E+06    0.5380261265E-02    0.8501514834E-01    0.4036301320E-03    0.6758514045E+00    0.5931396029E+00
    0.1000000000E+06    0.1746079023E-01    0.8491509850E-01    0.1987722116E-02    0.6412578023E+00    0.5842223920E+00
    0.3000000000E+06    0.7266355410E-02    0.8507958691E-01    0.6149921641E-03    0.6716410476E+00    0.5910096938E+00
    0.5000000000E+06    0.5318109625E-02    0.8501111809E-01    0.3972079279E-03    0.6759729850E+00    0.5932183686E+00
    0.7000000000E+06    0.4410269389E-02    0.8493013014E-01    0.3080696741E-03    0.6775992470E+00    0.5944400871E+00
    0.9000000000E+06    0.3858275227E-02    0.8485422742E-01    0.2583739597E-03    0.6784414661E+00    0.5952522585E+00
    0.1100000000E+07    0.3476744041E-02    0.8478534967E-01    0.2260700686E-03    0.6789552677E+00    0.5958467428E+00
    0.1300000000E+07    0.3192380308E-02    0.8472297171E-01    0.2030678063E-03    0.6793014763E+00    0.5963086182E+00
    0.1500000000E+07    0.2969643778E-02    0.8466620258E-01    0.1856759400E-03    0.6795508470E+00    0.5966823408E+00
    0.1700000000E+07    0.2788926215E-02    0.8461420802E-01    0.1719574339E-03    0.6797392595E+00    0.5969937784E+00
    0.1900000000E+07    0.2638397355E-02    0.8456628573E-01    0.1607914437E-03    0.6798868172E+00    0.5972591786E+00
    0.2100000000E+07    0.2510434653E-02    0.8452186045E-01    0.1514808507E-03    0.6800056512E+00    0.5974893481E+00
    0.2300000000E+07    0.2399872720E-02    0.8448046280E-01    0.1435673267E-03    0.6801035130E+00    0.5976918031E+00
    0.2500000000E+07    0.2303068646E-02    0.8444170802E-01    0.1367359828E-03    0.6801855879E+00    0.5978719614E+00
    0.2700000000E+07    0.2217368594E-02    0.8440527832E-01    0.1307626104E-03    0.6802554756E+00    0.5980338444E+00
    0.2900000000E+07    0.2140786625E-02    0.8437090890E-01    0.1254827759E-03    0.6803157539E+00    0.5981805112E+00
    0.3100000000E+07    0.2071802595E-02    0.8433837720E-01    0.1207728475E-03    0.6803683179E+00    0.5983143377E+00
    0.3300000000E+07    0.2009230204E-02    0.8430749458E-01    0.1165378781E-03    0.6804145921E+00    0.5984372024E+00
    0.3500000000E+07    0.1952128092E-02    0.8427809988E-01    0.1127036040E-03    0.6804556685E+00    0.5985506136E+00
    0.3700000000E+07    0.1899738300E-02    0.8425005443E-01    0.1092110061E-03    0.6804923981E+00    0.5986557993E+00
    0.3900000000E+07    0.1851442650E-02    0.8422323803E-01    0.1060125190E-03    0.6805254545E+00    0.5987537707E+00
    0.4100000000E+07    0.1806731198E-02    0.8419754590E-01    0.1030693295E-03    0.6805553777E+00    0.5988453701E+00
    0.4300000000E+07    0.1765178976E-02    0.8417288611E-01    0.1003494140E-03    0.6805826060E+00    0.5989313056E+00
    0.4500000000E+07    0.1726428580E-02    0.8414917762E-01    0.9782608728E-04    0.6806074986E+00    0.5990121774E+00
    0.4700000000E+07    0.1690176928E-02    0.8412634859E-01    0.9547691253E-04    0.6806303532E+00    0.5990884986E+00
    0.4900000000E+07    0.1656165070E-02    0.8410433506E-01    0.9328287116E-04    0.6806514182E+00    0.5991607108E+00
    0.1000000000E+07    0.3652100906E-02    0.8481892466E-01    0.2407104017E-03    0.6787261269E+00    0.5955700215E+00
    0.3000000000E+07    0.2105425631E-02    0.8435442584E-01    0.1230630707E-03    0.6803429020E+00    0.5982489021E+00
    0.5000000000E+07    0.1639928217E-02    0.8409361599E-01    0.9223885620E-04    0.6806613464E+00    0.5991953975E+00
    0.7000000000E+07    0.1392064929E-02    0.8391088143E-01    0.7656992052E-04    0.6808028681E+00    0.5997441699E+00
    0.9000000000E+07    0.1231941695E-02    0.8376973925E-01    0.6671178873E-04    0.6808846236E+00    0.6001217749E+00
    0.1100000000E+08    0.1117497960E-02    0.8365456009E-01    0.5979251009E-04    0.6809386191E+00    0.6004058681E+00
    0.1300000000E+08    0.1030411536E-02    0.8355717567E-01    0.5459868760E-04    0.6809773160E+00    0.6006317056E+00
    0.1500000000E+08    0.9612444664E-03    0.8347276792E-01    0.5051832783E-04    0.6810066201E+00    0.6008180712E+00
    0.1700000000E+08    0.9045720883E-03    0.8339825185E-01    0.4720520933E-04    0.6810297097E+00    0.6009760784E+00
    0.1900000000E+08    0.8570242402E-03    0.8333153093E-01    0.4444692872E-04    0.6810484554E+00    0.6011128111E+00
    0.2100000000E+08    0.8163815028E-03    0.8327111437E-01    0.4210505325E-04    0.6810640343E+00    0.6012330438E+00
    0.2300000000E+08    0.7811144205E-03    0.8321590361E-01    0.4008502172E-04    0.6810772262E+00    0.6013401371E+00
    0.2500000000E+08    0.7501299568E-03    0.8316506548E-01    0.3831976817E-04    0.6810885700E+00    0.6014365402E+00
    0.2700000000E+08    0.7226233037E-03    0.8311795281E-01    0.3676024152E-04    0.6810984503E+00    0.6015240896E+00
