  Pressure (Pa) 2mC6-400 (mol/kg) 3mC6-400 (mol/kg) 33mC5-400 (mol/kg) 23mC5-400 (mol/kg) C7-400 (mol/kg)
    0.1000000000E+01    0.3926241114E-02    0.5191957798E-03    0.2557897738E-03    0.1862772853E-03    0.1348098847E-01
    0.3000000000E+01    0.1126569170E-01    0.1482169927E-02    0.7342525500E-03    0.5539856206E-03    0.3849376225E-01
    0.5000000000E+01    0.1800127164E-01    0.2356497391E-02    0.1173752714E-02    0.9154152076E-03    0.6121497256E-01
    0.7000000000E+01    0.2421365796E-01    0.3154193390E-02    0.1579513261E-02    0.1270776508E-02    0.8195475478E-01
    0.9000000000E+01    0.2996931304E-01    0.3885181883E-02    0.1955834240E-02    0.1620270228E-02    0.1009693054E+00
    0.1100000000E+02    0.3532349694E-01    0.4557732446E-02    0.2306288695E-02    0.1964087887E-02    0.1184721450E+00
    0.1300000000E+02    0.4032254601E-01    0.5178791951E-02    0.2633870834E-02    0.2302412347E-02    0.1346426699E+00
    0.1500000000E+02    0.4500561761E-01    0.5754239478E-02    0.2941109431E-02    0.2635418305E-02    0.1496327253E+00
    0.1700000000E+02    0.4940604116E-01    0.6289084401E-02    0.3230155613E-02    0.2963272756E-02    0.1635717137E+00
    0.1900000000E+02    0.5355237516E-01    0.6787621932E-02    0.3502851516E-02    0.3286135417E-02    0.1765706066E+00
    0.2100000000E+02    0.5746924213E-01    0.7253556390E-02    0.3760784489E-02    0.3604159129E-02    0.1887251235E+00
    0.2300000000E+02    0.6117799385E-01    0.7690099763E-02    0.4005330270E-02    0.3917490230E-02    0.2001182751E+00
    0.2500000000E+02    0.6469724595E-01    0.8100051155E-02    0.4237687664E-02    0.4226268906E-02    0.2108224126E+00
    0.2700000000E+02    0.6804331062E-01    0.8485861312E-02    0.4458906602E-02    0.4530629514E-02    0.2209008923E+00
    0.2900000000E+02    0.7123054946E-01    0.8849685387E-02    0.4669911010E-02    0.4830700892E-02    0.2304094375E+00
    0.3100000000E+02    0.7427166314E-01    0.9193426389E-02    0.4871517580E-02    0.5126606642E-02    0.2393972597E+00
    0.3300000000E+02    0.7717793062E-01    0.9518771174E-02    0.5064451258E-02    0.5418465401E-02    0.2479079871E+00
    0.3500000000E+02    0.7995940800E-01    0.9827220422E-02    0.5249358116E-02    0.5706391093E-02    0.2559804388E+00
    0.3700000000E+02    0.8262509459E-01    0.1012011376E-01    0.5426816100E-02    0.5990493166E-02    0.2636492729E+00
    0.3900000000E+02    0.8518307247E-01    0.1039865092E-01    0.5597344054E-02    0.6270876812E-02    0.2709455329E+00
    0.4100000000E+02    0.8764062424E-01    0.1066390960E-01    0.5761409334E-02    0.6547643179E-02    0.2778971092E+00
    0.4300000000E+02    0.9000433299E-01    0.1091686074E-01    0.5919434265E-02    0.6820889568E-02    0.2845291325E+00
    0.4500000000E+02    0.9228016736E-01    0.1115838143E-01    0.6071801638E-02    0.7090709615E-02    0.2908643082E+00
    0.4700000000E+02    0.9447355438E-01    0.1138926609E-01    0.6218859411E-02    0.7357193470E-02    0.2969232049E+00
    0.4900000000E+02    0.9658944208E-01    0.1161023603E-01    0.6360924747E-02    0.7620427959E-02    0.3027245008E+00
    0.1000000000E+02    0.3269350638E-01    0.4228300031E-02    0.2134095552E-02    0.1792876940E-02    0.1098977623E+00
    0.3000000000E+02    0.7276863619E-01    0.9023956155E-02    0.4771841728E-02    0.4979166942E-02    0.2349655911E+00
    0.5000000000E+02    0.9761975237E-01    0.1171721047E-01    0.6430176811E-02    0.7750852954E-02    0.3055339218E+00
    0.7000000000E+02    0.1150743934E+00    0.1346796513E-01    0.7611869249E-02    0.1020758085E-01    0.3516125110E+00
    0.9000000000E+02    0.1281885672E+00    0.1471039465E-01    0.8512679762E-02    0.1241812978E-01    0.3844525207E+00
    0.1100000000E+03    0.1384617039E+00    0.1564512884E-01    0.9228633225E-02    0.1443168602E-01    0.4092610824E+00
    0.1300000000E+03    0.1467413856E+00    0.1637826210E-01    0.9814090461E-02    0.1628447517E-01    0.4287959287E+00
    0.1500000000E+03    0.1535541124E+00    0.1697145159E-01    0.1030290778E-01    0.1800384865E-01    0.4446621118E+00
    0.1700000000E+03    0.1592493439E+00    0.1746312676E-01    0.1071763126E-01    0.1961090122E-01    0.4578614909E+00
    0.1900000000E+03    0.1640705971E+00    0.1787856931E-01    0.1107403008E-01    0.2112220419E-01    0.4690541145E+00
    0.2100000000E+03    0.1681939775E+00    0.1823514192E-01    0.1138355291E-01    0.2255098631E-01    0.4786939300E+00
    0.2300000000E+03    0.1717506143E+00    0.1854519388E-01    0.1165475898E-01    0.2390795847E-01    0.4871042625E+00
    0.2500000000E+03    0.1748404802E+00    0.1881776796E-01    0.1189420069E-01    0.2520190268E-01    0.4945221947E+00
    0.2700000000E+03    0.1775412980E+00    0.1905965027E-01    0.1210699322E-01    0.2644010069E-01    0.5011258879E+00
    0.2900000000E+03    0.1799144965E+00    0.1927604148E-01    0.1229719618E-01    0.2762865155E-01    0.5070520621E+00
    0.3100000000E+03    0.1820093164E+00    0.1947100016E-01    0.1246807729E-01    0.2877271050E-01    0.5124075551E+00
    0.3300000000E+03    0.1838657157E+00    0.1964774422E-01    0.1262229926E-01    0.2987667122E-01    0.5172771849E+00
    0.3500000000E+03    0.1855164710E+00    0.1980886086E-01    0.1276205537E-01    0.3094430672E-01    0.5217292337E+00
    0.3700000000E+03    0.1869887263E+00    0.1995645610E-01    0.1288916957E-01    0.3197887947E-01    0.5258193545E+00
    0.3900000000E+03    0.1883051542E+00    0.2009226333E-01    0.1300517170E-01    0.3298322845E-01    0.5295934109E+00
    0.4100000000E+03    0.1894848388E+00    0.2021772347E-01    0.1311135489E-01    0.3395983858E-01    0.5330895757E+00
    0.4300000000E+03    0.1905439564E+00    0.2033404516E-01    0.1320881985E-01    0.3491089673E-01    0.5363399059E+00
    0.4500000000E+03    0.1914963066E+00    0.2044225042E-01    0.1329850952E-01    0.3583833707E-01    0.5393715429E+00
    0.4700000000E+03    0.1923537299E+00    0.2054320998E-01    0.1338123641E-01    0.3674387831E-01    0.5422076367E+00
    0.4900000000E+03    0.1931264413E+00    0.2063767066E-01    0.1345770448E-01    0.3762905433E-01    0.5448680671E+00
    0.1000000000E+03    0.1336172614E+00    0.1520817699E-01    0.8889725514E-02    0.1344702110E-01    0.3976516657E+00
    0.3000000000E+03    0.1809940166E+00    0.1937598188E-01    0.1238487316E-01    0.2820595189E-01    0.5097954000E+00
    0.5000000000E+03    0.1934838444E+00    0.2068266887E-01    0.1349378614E-01    0.3806444051E-01    0.5461378693E+00
    0.7000000000E+03    0.1978161290E+00    0.2135975323E-01    0.1400069494E-01    0.4597220258E-01    0.5654712954E+00
    0.9000000000E+03    0.1991461435E+00    0.2178392667E-01    0.1426714453E-01    0.5280970278E-01    0.5778657876E+00
    0.1100000000E+04    0.1991265317E+00    0.2207832187E-01    0.1441486825E-01    0.5895872739E-01    0.5866510953E+00
    0.1300000000E+04    0.1984286739E+00    0.2229628134E-01    0.1449598719E-01    0.6462074780E-01    0.5932843193E+00
    0.1500000000E+04    0.1973673047E+00    0.2246501335E-01    0.1453637799E-01    0.6991594669E-01    0.5985155393E+00
    0.1700000000E+04    0.1961048364E+00    0.2259998085E-01    0.1455026589E-01    0.7492229189E-01    0.6027746992E+00
    0.1900000000E+04    0.1947309684E+00    0.2271067869E-01    0.1454607934E-01    0.7969354521E-01    0.6063279352E+00
    0.2100000000E+04    0.1932977407E+00    0.2280328698E-01    0.1452910813E-01    0.8426853194E-01    0.6093498050E+00
    0.2300000000E+04    0.1918364390E+00    0.2288201594E-01    0.1450282746E-01    0.8867632443E-01    0.6119601002E+00
    0.2500000000E+04    0.1903663433E+00    0.2294984088E-01    0.1446960694E-01    0.9293933429E-01    0.6142440753E+00
    0.2700000000E+04    0.1888995155E+00    0.2300892882E-01    0.1443111300E-01    0.9707525504E-01    0.6162642479E+00
    0.2900000000E+04    0.1874435427E+00    0.2306089843E-01    0.1438854849E-01    0.1010983358E+00    0.6180676246E+00
    0.3100000000E+04    0.1860031692E+00    0.2310698504E-01    0.1434280121E-01    0.1050202459E+00    0.6196903104E+00
    0.3300000000E+04    0.1845812982E+00    0.2314814899E-01    0.1429453917E-01    0.1088506811E+00    0.6211605489E+00
    0.3500000000E+04    0.1831796232E+00    0.2318514895E-01    0.1424427355E-01    0.1125977975E+00    0.6225007890E+00
    0.3700000000E+04    0.1817990353E+00    0.2321859281E-01    0.1419240135E-01    0.1162685314E+00    0.6237291249E+00
    0.3900000000E+04    0.1804398901E+00    0.2324897374E-01    0.1413923500E-01    0.1198688387E+00    0.6248603225E+00
    0.4100000000E+04    0.1791021859E+00    0.2327669636E-01    0.1408502326E-01    0.1234038766E+00    0.6259065653E+00
    0.4300000000E+04    0.1777856848E+00    0.2330209595E-01    0.1402996633E-01    0.1268781450E+00    0.6268780059E+00
    0.4500000000E+04    0.1764899941E+00    0.2332545286E-01    0.1397422686E-01    0.1302955972E+00    0.6277831803E+00
    0.4700000000E+04    0.1752146234E+00    0.2334700342E-01    0.1391793815E-01    0.1336597276E+00    0.6286293239E+00
    0.4900000000E+04    0.1739590231E+00    0.2336694837E-01    0.1386121032E-01    0.1369736421E+00    0.6294226149E+00
    0.1000000000E+04    0.1992507664E+00    0.2194312407E-01    0.1435169523E-01    0.5595507387E-01    0.5825945471E+00
    0.3000000000E+04    0.1867211902E+00    0.2308461164E-01    0.1436602666E-01    0.1030712907E+00    0.6188996324E+00
    0.5000000000E+04    0.1733384560E+00    0.2337637338E-01    0.1383271099E-01    0.1386126473E+00    0.6298011299E+00
    0.7000000000E+04    0.1618238501E+00    0.2351160389E-01    0.1325545260E-01    0.1692986513E+00    0.6355657819E+00
    0.9000000000E+04    0.1516889950E+00    0.2358877988E-01    0.1268382074E-01    0.1969106185E+00    0.6392811579E+00
    0.1100000000E+05    0.1425936207E+00    0.2363785961E-01    0.1212928867E-01    0.2222283827E+00    0.6419368697E+00
    0.1300000000E+05    0.1343260280E+00    0.2367118932E-01    0.1159551810E-01    0.2456756606E+00    0.6439599674E+00
    0.1500000000E+05    0.1267474397E+00    0.2369481738E-01    0.1108381826E-01    0.2675159436E+00    0.6455688268E+00
    0.1700000000E+05    0.1197609992E+00    0.2371206294E-01    0.1059457776E-01    0.2879302718E+00    0.6468883099E+00
    0.1900000000E+05    0.1132951310E+00    0.2372490049E-01    0.1012773746E-01    0.3070533182E+00    0.6479957344E+00
    0.2100000000E+05    0.1072942706E+00    0.2373457791E-01    0.9682977999E-02    0.3249918955E+00    0.6489419414E+00
    0.2300000000E+05    0.1017134690E+00    0.2374192195E-01    0.9259808904E-02    0.3418351106E+00    0.6497619712E+00
    0.2500000000E+05    0.9651512871E-01    0.2374750146E-01    0.8857619227E-02    0.3576602033E+00    0.6504809060E+00
    0.2700000000E+05    0.9166696108E-01    0.2375172011E-01    0.8475711451E-02    0.3725360173E+00    0.6511172688E+00
    0.2900000000E+05    0.8714066873E-01    0.2375487190E-01    0.8113326828E-02    0.3865251147E+00    0.6516850991E+00
    0.3100000000E+05    0.8291107194E-01    0.2375717568E-01    0.7769665583E-02    0.3996850925E+00    0.6521952766E+00
    0.3300000000E+05    0.7895551263E-01    0.2375879743E-01    0.7443903478E-02    0.4120694194E+00    0.6526563930E+00
    0.3500000000E+05    0.7525343584E-01    0.2375986511E-01    0.7135205472E-02    0.4237279828E+00    0.6530753453E+00
    0.3700000000E+05    0.7178608640E-01    0.2376047878E-01    0.6842736915E-02    0.4347074587E+00    0.6534577487E+00
    0.3900000000E+05    0.6853628169E-01    0.2376071767E-01    0.6565672607E-02    0.4450515772E+00    0.6538082326E+00
    0.4100000000E+05    0.6548823536E-01    0.2376064522E-01    0.6303203980E-02    0.4548013224E+00    0.6541306553E+00
    0.4300000000E+05    0.6262741585E-01    0.2376031271E-01    0.6054544663E-02    0.4639950970E+00    0.6544282635E+00
    0.4500000000E+05    0.5994042918E-01    0.2375976199E-01    0.5818934645E-02    0.4726688637E+00    0.6547038131E+00
    0.4700000000E+05    0.5741491904E-01    0.2375902745E-01    0.5595643274E-02    0.4808562756E+00    0.6549596612E+00
    0.4900000000E+05    0.5503947966E-01    0.2375813761E-01    0.5383971253E-02    0.4885887985E+00    0.6551978376E+00
    0.1000000000E+05    0.1470268209E+00    0.2361584304E-01    0.1240410345E-01    0.2098246439E+00    0.6407076738E+00
    0.3000000000E+05    0.8499025303E-01    0.2375611838E-01    0.7939206898E-02    0.3932053125E+00    0.6519468118E+00
    0.5000000000E+05    0.5390471289E-01    0.2375764204E-01    0.5282282849E-02    0.4922937409E+00    0.6553108579E+00
    0.7000000000E+05    0.3693007995E-01    0.2374366981E-01    0.3714540432E-02    0.5486544090E+00    0.6569683789E+00
    0.9000000000E+05    0.2696192076E-01    0.2372695380E-01    0.2748322253E-02    0.5827405369E+00    0.6579539578E+00
    0.1100000000E+06    0.2070028705E-01    0.2371028764E-01    0.2120524532E-02    0.6046621082E+00    0.6586093134E+00
    0.1300000000E+06    0.1653423104E-01    0.2369441415E-01    0.1692273551E-02    0.6195376918E+00    0.6590792807E+00
    0.1500000000E+06    0.1362721908E-01    0.2367950486E-01    0.1387717886E-02    0.6300950791E+00    0.6594350314E+00
    0.1700000000E+06    0.1151744799E-01    0.2366555005E-01    0.1163424269E-02    0.6378712405E+00    0.6597153789E+00
    0.1900000000E+06    0.9935517613E-02    0.2365248239E-01    0.9933282617E-03    0.6437782621E+00    0.6599432257E+00
    0.2100000000E+06    0.8716518529E-02    0.2364022026E-01    0.8611067425E-03    0.6483828134E+00    0.6601329482E+00
    0.2300000000E+06    0.7755218405E-02    0.2362868346E-01    0.7561445831E-03    0.6520513001E+00    0.6602940310E+00
    0.2500000000E+06    0.6982011649E-02    0.2361779852E-01    0.6713071197E-03    0.6550289846E+00    0.6604329926E+00
    0.2700000000E+06    0.6349402441E-02    0.2360750014E-01    0.6016586097E-03    0.6574850556E+00    0.6605544674E+00
    0.2900000000E+06    0.5824090266E-02    0.2359773093E-01    0.5436969912E-03    0.6595393325E+00    0.6606618461E+00
    0.3100000000E+06    0.5382164827E-02    0.2358844072E-01    0.4948813980E-03    0.6612786521E+00    0.6607576710E+00
    0.3300000000E+06    0.5006093536E-02    0.2357958560E-01    0.4533315625E-03    0.6627672444E+00    0.6608438886E+00
    0.3500000000E+06    0.4682778140E-02    0.2357112715E-01    0.4176313742E-03    0.6640534860E+00    0.6609220172E+00
    0.3700000000E+06    0.4402268676E-02    0.2356303160E-01    0.3866973749E-03    0.6651744071E+00    0.6609932599E+00
    0.3900000000E+06    0.4156892731E-02    0.2355526917E-01    0.3596887954E-03    0.6661587678E+00    0.6610585837E+00
    0.4100000000E+06    0.3940653637E-02    0.2354781353E-01    0.3359447920E-03    0.6670291995E+00    0.6611187758E+00
    0.4300000000E+06    0.3748806701E-02    0.2354064127E-01    0.3149398764E-03    0.6678037235E+00    0.6611744844E+00
    0.4500000000E+06    0.3577555725E-02    0.2353373155E-01    0.2962517461E-03    0.6684968462E+00    0.6612262483E+00
    0.4700000000E+06    0.3423832279E-02    0.2352706568E-01    0.2795377226E-03    0.6691203606E+00    0.6612745198E+00
    0.4900000000E+06    0.3285132881E-02    0.2352062692E-01    0.2645172573E-03    0.6696839407E+00    0.6613196818E+00
    0.1000000000E+06    0.2349372195E-01    0.2371854652E-01    0.2402798540E-02    0.5948250123E+00    0.6583113429E+00
    0.3000000000E+06    0.5593922715E-02    0.2359302883E-01    0.5182762479E-03    0.6604439104E+00    0.6607110694E+00
    0.5000000000E+06    0.3220758752E-02    0.2351748793E-01    0.2575681208E-03    0.6699458115E+00    0.6613412005E+00
    0.7000000000E+06    0.2372341403E-02    0.2346364623E-01    0.1680393449E-03    0.6734059711E+00    0.6616671449E+00
    0.9000000000E+06    0.1939344082E-02    0.2342171399E-01    0.1249103377E-03    0.6751607157E+00    0.6618763961E+00
    0.1100000000E+07    0.1674223713E-02    0.2338732409E-01    0.1000506195E-03    0.6762169599E+00    0.6620262298E+00
    0.1300000000E+07    0.1493186478E-02    0.2335814903E-01    0.8403245812E-04    0.6769227839E+00    0.6621408708E+00
    0.1500000000E+07    0.1360372127E-02    0.2333279950E-01    0.7289824217E-04    0.6774287000E+00    0.6622325853E+00
    0.1700000000E+07    0.1257911187E-02    0.2331037869E-01    0.6472282736E-04    0.6778099734E+00    0.6623083489E+00
    0.1900000000E+07    0.1175892475E-02    0.2329027354E-01    0.5846645813E-04    0.6781083035E+00    0.6623724659E+00
    0.2100000000E+07    0.1108364045E-02    0.2327204613E-01    0.5352179738E-04    0.6783486252E+00    0.6624277591E+00
    0.2300000000E+07    0.1051525732E-02    0.2325537258E-01    0.4951178694E-04    0.6785467559E+00    0.6624761689E+00
    0.2500000000E+07    0.1002830365E-02    0.2324000654E-01    0.4619062012E-04    0.6787132129E+00    0.6625190801E+00
    0.2700000000E+07    0.9605019177E-03    0.2322575619E-01    0.4339151449E-04    0.6788552635E+00    0.6625575121E+00
    0.2900000000E+07    0.9232609818E-03    0.2321246921E-01    0.4099746684E-04    0.6789780918E+00    0.6625922345E+00
    0.3100000000E+07    0.8901603081E-03    0.2320002261E-01    0.3892404344E-04    0.6790854971E+00    0.6626238412E+00
    0.3300000000E+07    0.8604820358E-03    0.2318831564E-01    0.3710881953E-04    0.6791803287E+00    0.6626527990E+00
    0.3500000000E+07    0.8336711263E-03    0.2317726471E-01    0.3550466271E-04    0.6792647664E+00    0.6626794811E+00
    0.3700000000E+07    0.8092908925E-03    0.2316679969E-01    0.3407532678E-04    0.6793405069E+00    0.6627041895E+00
    0.3900000000E+07    0.7869924775E-03    0.2315686118E-01    0.3279248187E-04    0.6794088916E+00    0.6627271722E+00
    0.4100000000E+07    0.7664934081E-03    0.2314739840E-01    0.3163366429E-04    0.6794709954E+00    0.6627486348E+00
    0.4300000000E+07    0.7475622045E-03    0.2313836761E-01    0.3058083113E-04    0.6795276900E+00    0.6627687495E+00
    0.4500000000E+07    0.7300071308E-03    0.2312973085E-01    0.2961932145E-04    0.6795796902E+00    0.6627876619E+00
    0.4700000000E+07    0.7136678314E-03    0.2312145498E-01    0.2873709716E-04    0.6796275879E+00    0.6628054962E+00
    0.4900000000E+07    0.6984090215E-03    0.2311351088E-01    0.2792417941E-04    0.6796718777E+00    0.6628223588E+00
    0.1000000000E+07    0.1792780908E-02    0.2340375166E-01    0.1109855846E-03    0.6757472463E+00    0.6619568164E+00
    0.3000000000E+07    0.9062424407E-03    0.2320614762E-01    0.3992500168E-04    0.6790335259E+00    0.6626083956E+00
    0.5000000000E+07    0.6911481671E-03    0.2310965509E-01    0.2754104859E-04    0.6796928024E+00    0.6628304549E+00
    0.7000000000E+07    0.5820045989E-03    0.2304503757E-01    0.2206049878E-04    0.6799954431E+00    0.6629583127E+00
    0.9000000000E+07    0.5129336843E-03    0.2299634245E-01    0.1884792811E-04    0.6801752979E+00    0.6630461999E+00
    0.1100000000E+08    0.4641176166E-03    0.2295723874E-01    0.1668743102E-04    0.6802969760E+00    0.6631123936E+00
    0.1300000000E+08    0.4272289654E-03    0.2292455627E-01    0.1511124189E-04    0.6803859961E+00    0.6631651175E+00
    0.1500000000E+08    0.3980687478E-03    0.2289647754E-01    0.1389779873E-04    0.6804546266E+00    0.6632087291E+00
    0.1700000000E+08    0.3742571585E-03    0.2287186268E-01    0.1292729460E-04    0.6805095604E+00    0.6632457980E+00
    0.1900000000E+08    0.3543302545E-03    0.2284994929E-01    0.1212869092E-04    0.6805547876E+00    0.6632779583E+00
    0.2100000000E+08    0.3373309816E-03    0.2283020214E-01    0.1145690347E-04    0.6805928489E+00    0.6633063097E+00
    0.2300000000E+08    0.3226034999E-03    0.2281223093E-01    0.1088178517E-04    0.6806254466E+00    0.6633316259E+00
    0.2500000000E+08    0.3096811789E-03    0.2279574229E-01    0.1038232436E-04    0.6806537683E+00    0.6633544704E+00
    0.2700000000E+08    0.2982216631E-03    0.2278051006E-01    0.9943375025E-05    0.6806786708E+00    0.6633752656E+00
