  Pressure (Pa) 2mC6-400 (mol/kg) 3mC6-400 (mol/kg) 33mC5-400 (mol/kg) 23mC5-400 (mol/kg) C7-400 (mol/kg)
    0.1000000000E+01    0.3933795665E-02    0.5204781632E-03    0.2562749622E-03    0.2793780103E-03    0.1182485659E-01
    0.3000000000E+01    0.1132678064E-01    0.1492655004E-02    0.7381721955E-03    0.8306448903E-03    0.3391911711E-01
    0.5000000000E+01    0.1815444641E-01    0.2383078812E-02    0.1183571391E-02    0.1372216998E-02    0.5416420533E-01
    0.7000000000E+01    0.2448580556E-01    0.3201941932E-02    0.1596941397E-02    0.1904428517E-02    0.7279032056E-01
    0.9000000000E+01    0.3037869681E-01    0.3957798193E-02    0.1982025525E-02    0.2427597728E-02    0.8999068291E-01
    0.1100000000E+02    0.3588197444E-01    0.4657880136E-02    0.2341983965E-02    0.2942027966E-02    0.1059286895E+00
    0.1300000000E+02    0.4103720238E-01    0.5308345241E-02    0.2679503939E-02    0.3448008495E-02    0.1207434692E+00
    0.1500000000E+02    0.4587997880E-01    0.5914469028E-02    0.2996885804E-02    0.3945815341E-02    0.1345542399E+00
    0.1700000000E+02    0.5044098178E-01    0.6480797945E-02    0.3296111004E-02    0.4435712043E-02    0.1474637579E+00
    0.1900000000E+02    0.5474680212E-01    0.7011271481E-02    0.3578896165E-02    0.4917950373E-02    0.1595610737E+00
    0.2100000000E+02    0.5882061219E-01    0.7509320509E-02    0.3846736530E-02    0.5392770993E-02    0.1709237518E+00
    0.2300000000E+02    0.6268270724E-01    0.7977947087E-02    0.4100941099E-02    0.5860404076E-02    0.1816196712E+00
    0.2500000000E+02    0.6635094662E-01    0.8419789663E-02    0.4342661256E-02    0.6321069880E-02    0.1917084978E+00
    0.2700000000E+02    0.6984111585E-01    0.8837176728E-02    0.4572914260E-02    0.6774979289E-02    0.2012428953E+00
    0.2900000000E+02    0.7316722568E-01    0.9232171215E-02    0.4792602636E-02    0.7222334314E-02    0.2102695278E+00
    0.3100000000E+02    0.7634176051E-01    0.9606607476E-02    0.5002530272E-02    0.7663328566E-02    0.2188298943E+00
    0.3300000000E+02    0.7937588594E-01    0.9962122229E-02    0.5203415877E-02    0.8098147696E-02    0.2269610280E+00
    0.3500000000E+02    0.8227962308E-01    0.1030018060E-01    0.5395904263E-02    0.8526969807E-02    0.2346960838E+00
    0.3700000000E+02    0.8506199566E-01    0.1062209817E-01    0.5580575875E-02    0.8949965846E-02    0.2420648366E+00
    0.3900000000E+02    0.8773115488E-01    0.1092905964E-01    0.5757954870E-02    0.9367299962E-02    0.2490941032E+00
    0.4100000000E+02    0.9029448567E-01    0.1122213485E-01    0.5928515989E-02    0.9779129852E-02    0.2558081028E+00
    0.4300000000E+02    0.9275869763E-01    0.1150229239E-01    0.6092690446E-02    0.1018560708E-01    0.2622287667E+00
    0.4500000000E+02    0.9512990324E-01    0.1177041142E-01    0.6250870974E-02    0.1058687737E-01    0.2683760032E+00
    0.4700000000E+02    0.9741368515E-01    0.1202729182E-01    0.6403416185E-02    0.1098308092E-01    0.2742679275E+00
    0.4900000000E+02    0.9961515457E-01    0.1227366295E-01    0.6550654333E-02    0.1137435263E-01    0.2799210605E+00
    0.1000000000E+02    0.3317628579E-01    0.4314403401E-02    0.2164967530E-02    0.2685886820E-02    0.9810827241E-01
    0.3000000000E+02    0.7477271340E-01    0.9421852524E-02    0.4898739772E-02    0.7443614752E-02    0.2146055825E+00
    0.5000000000E+02    0.1006865030E+00    0.1239311809E-01    0.6622378351E-02    0.1156817981E-01    0.2826628500E+00
    0.7000000000E+02    0.1187497933E+00    0.1436529928E-01    0.7839713784E-02    0.1521496727E-01    0.3280170515E+00
    0.9000000000E+02    0.1321668392E+00    0.1578481385E-01    0.8756406430E-02    0.1849035233E-01    0.3607867529E+00
    0.1100000000E+03    0.1425446766E+00    0.1686403163E-01    0.9475561609E-02    0.2146989194E-01    0.3857922003E+00
    0.1300000000E+03    0.1507999775E+00    0.1771749743E-01    0.1005604993E-01    0.2420891603E-01    0.4056367769E+00
    0.1500000000E+03    0.1575033345E+00    0.1841274647E-01    0.1053458678E-01    0.2674899663E-01    0.4218574672E+00
    0.1700000000E+03    0.1630328100E+00    0.1899234000E-01    0.1093556102E-01    0.2912206114E-01    0.4354241593E+00
    0.1900000000E+03    0.1676508510E+00    0.1948452564E-01    0.1127595333E-01    0.3135309848E-01    0.4469813909E+00
    0.2100000000E+03    0.1715463317E+00    0.1990884373E-01    0.1156802364E-01    0.3346199252E-01    0.4569755886E+00
    0.2300000000E+03    0.1748591349E+00    0.2027927714E-01    0.1182088293E-01    0.3546479655E-01    0.4657266111E+00
    0.2500000000E+03    0.1776953160E+00    0.2060611840E-01    0.1204146343E-01    0.3737463914E-01    0.4734701905E+00
    0.2700000000E+03    0.1801368685E+00    0.2089712678E-01    0.1223514420E-01    0.3920238111E-01    0.4803842554E+00
    0.2900000000E+03    0.1822482415E+00    0.2115827273E-01    0.1240616914E-01    0.4095710038E-01    0.4866058791E+00
    0.3100000000E+03    0.1840808210E+00    0.2139423248E-01    0.1255793481E-01    0.4264645568E-01    0.4922425479E+00
    0.3300000000E+03    0.1856760889E+00    0.2160872580E-01    0.1269319375E-01    0.4427696320E-01    0.4973798631E+00
    0.3500000000E+03    0.1870679008E+00    0.2180475238E-01    0.1281420124E-01    0.4585420983E-01    0.5020869341E+00
    0.3700000000E+03    0.1882841572E+00    0.2198476077E-01    0.1292282327E-01    0.4738301955E-01    0.5064202367E+00
    0.3900000000E+03    0.1893480520E+00    0.2215077145E-01    0.1302061731E-01    0.4886758460E-01    0.5104264255E+00
    0.4100000000E+03    0.1902790185E+00    0.2230446806E-01    0.1310889365E-01    0.5031156991E-01    0.5141444194E+00
    0.4300000000E+03    0.1910934556E+00    0.2244726595E-01    0.1318876253E-01    0.5171819714E-01    0.5176069716E+00
    0.4500000000E+03    0.1918052910E+00    0.2258036452E-01    0.1326117090E-01    0.5309031271E-01    0.5208418677E+00
    0.4700000000E+03    0.1924264250E+00    0.2270478765E-01    0.1332693126E-01    0.5443044343E-01    0.5238728521E+00
    0.4900000000E+03    0.1929670807E+00    0.2282141523E-01    0.1338674463E-01    0.5574084231E-01    0.5267203512E+00
    0.1000000000E+03    0.1376676081E+00    0.1635831361E-01    0.9136307938E-02    0.2001326107E-01    0.3740635741E+00
    0.3000000000E+03    0.1831965859E+00    0.2127914914E-01    0.1248427420E-01    0.4180951725E-01    0.4894915420E+00
    0.5000000000E+03    0.1932100358E+00    0.2287704752E-01    0.1341461440E-01    0.5638553099E-01    0.5280809132E+00
    0.7000000000E+03    0.1954581714E+00    0.2372050659E-01    0.1377192100E-01    0.6811287917E-01    0.5489206943E+00
    0.9000000000E+03    0.1950243318E+00    0.2425595145E-01    0.1391112710E-01    0.7828077951E-01    0.5624144956E+00
    0.1100000000E+04    0.1934729804E+00    0.2463148604E-01    0.1394746121E-01    0.8744498350E-01    0.5720490448E+00
    0.1300000000E+04    0.1914148224E+00    0.2491196104E-01    0.1392873972E-01    0.9589763866E-01    0.5793647027E+00
    0.1500000000E+04    0.1891240358E+00    0.2513073912E-01    0.1387801673E-01    0.1038124949E+00    0.5851603218E+00
    0.1700000000E+04    0.1867352398E+00    0.2530691780E-01    0.1380760819E-01    0.1113019751E+00    0.5898966053E+00
    0.1900000000E+04    0.1843184672E+00    0.2545229680E-01    0.1372460512E-01    0.1184434077E+00    0.5938602051E+00
    0.2100000000E+04    0.1819114145E+00    0.2557459875E-01    0.1363333038E-01    0.1252925032E+00    0.5972399743E+00
    0.2300000000E+04    0.1795346224E+00    0.2567911062E-01    0.1353654051E-01    0.1318908785E+00    0.6001660222E+00
    0.2500000000E+04    0.1771991326E+00    0.2576958534E-01    0.1343605819E-01    0.1382705397E+00    0.6027312673E+00
    0.2700000000E+04    0.1749105612E+00    0.2584876744E-01    0.1333312502E-01    0.1444566956E+00    0.6050040586E+00
    0.2900000000E+04    0.1726713631E+00    0.2591871471E-01    0.1322860800E-01    0.1504696007E+00    0.6070359316E+00
    0.3100000000E+04    0.1704821319E+00    0.2598100307E-01    0.1312312522E-01    0.1563258054E+00    0.6088665702E+00
    0.3300000000E+04    0.1683423683E+00    0.2603686166E-01    0.1301712521E-01    0.1620390303E+00    0.6105270901E+00
    0.3500000000E+04    0.1662509422E+00    0.2608726446E-01    0.1291093831E-01    0.1676207944E+00    0.6120422758E+00
    0.3700000000E+04    0.1642063756E+00    0.2613299414E-01    0.1280481096E-01    0.1730808750E+00    0.6134321436E+00
    0.3900000000E+04    0.1622070169E+00    0.2617468741E-01    0.1269892896E-01    0.1784276530E+00    0.6147130578E+00
    0.4100000000E+04    0.1602511487E+00    0.2621286800E-01    0.1259343370E-01    0.1836683748E+00    0.6158985437E+00
    0.4300000000E+04    0.1583370537E+00    0.2624797097E-01    0.1248843353E-01    0.1888093553E+00    0.6169998899E+00
    0.4500000000E+04    0.1564630546E+00    0.2628036097E-01    0.1238401196E-01    0.1938561373E+00    0.6180266019E+00
    0.4700000000E+04    0.1546275372E+00    0.2631034609E-01    0.1228023368E-01    0.1988136168E+00    0.6189867481E+00
    0.4900000000E+04    0.1528289631E+00    0.2633818859E-01    0.1217714888E-01    0.2036861453E+00    0.6198872268E+00
    0.1000000000E+04    0.1943384408E+00    0.2445858703E-01    0.1393831365E-01    0.8296628048E-01    0.5675928303E+00
    0.3000000000E+04    0.1715705137E+00    0.2595073255E-01    0.1317595603E-01    0.1534163751E+00    0.6079742899E+00
    0.5000000000E+04    0.1519430710E+00    0.2635137786E-01    0.1212587908E-01    0.2060917841E+00    0.6203169792E+00
    0.7000000000E+04    0.1358542790E+00    0.2654344115E-01    0.1114267080E-01    0.2505064621E+00    0.6268652265E+00
    0.9000000000E+04    0.1222567366E+00    0.2665644131E-01    0.1024318726E-01    0.2891852428E+00    0.6310797947E+00
    0.1100000000E+05    0.1105575506E+00    0.2673050369E-01    0.9424955545E-02    0.3233012917E+00    0.6340807689E+00
    0.1300000000E+05    0.1003863825E+00    0.2678239800E-01    0.8682774414E-02    0.3535732044E+00    0.6363548395E+00
    0.1500000000E+05    0.9148496052E-01    0.2682043868E-01    0.8010840021E-02    0.3805221541E+00    0.6381523200E+00
    0.1700000000E+05    0.8365818238E-01    0.2684923787E-01    0.7403224699E-02    0.4045652374E+00    0.6396170715E+00
    0.1900000000E+05    0.7675079289E-01    0.2687156693E-01    0.6854091499E-02    0.4260541904E+00    0.6408385799E+00
    0.2100000000E+05    0.7063523496E-01    0.2688919416E-01    0.6357835934E-02    0.4452932501E+00    0.6418759049E+00
    0.2300000000E+05    0.6520469870E-01    0.2690330194E-01    0.5909182722E-02    0.4625484745E+00    0.6427698572E+00
    0.2500000000E+05    0.6036874277E-01    0.2691471111E-01    0.5503244693E-02    0.4780534284E+00    0.6435496875E+00
    0.2700000000E+05    0.5605027508E-01    0.2692400939E-01    0.5135550596E-02    0.4920132665E+00    0.6442369934E+00
    0.2900000000E+05    0.5218330987E-01    0.2693162858E-01    0.4802049295E-02    0.5046080576E+00    0.6448481183E+00
    0.3100000000E+05    0.4871120868E-01    0.2693789289E-01    0.4499097436E-02    0.5159956875E+00    0.6453956874E+00
    0.3300000000E+05    0.4558525111E-01    0.2694305043E-01    0.4223436530E-02    0.5263144691E+00    0.6458896266E+00
    0.3500000000E+05    0.4276344894E-01    0.2694729412E-01    0.3972164021E-02    0.5356855027E+00    0.6463378583E+00
    0.3700000000E+05    0.4020955033E-01    0.2695077619E-01    0.3742701678E-02    0.5442148037E+00    0.6467467899E+00
    0.3900000000E+05    0.3789219854E-01    0.2695361825E-01    0.3532763551E-02    0.5519952053E+00    0.6471216638E+00
    0.4100000000E+05    0.3578421908E-01    0.2695591855E-01    0.3340324974E-02    0.5591080470E+00    0.6474668139E+00
    0.4300000000E+05    0.3386201486E-01    0.2695775727E-01    0.3163593459E-02    0.5656246637E+00    0.6477858560E+00
    0.4500000000E+05    0.3210505255E-01    0.2695920046E-01    0.3000981967E-02    0.5716076899E+00    0.6480818321E+00
    0.4700000000E+05    0.3049542634E-01    0.2696030293E-01    0.2851084697E-02    0.5771121969E+00    0.6483573209E+00
    0.4900000000E+05    0.2901748729E-01    0.2696111055E-01    0.2712655416E-02    0.5821866815E+00    0.6486145234E+00
    0.1000000000E+05    0.1161964799E+00    0.2669700125E-01    0.9824216184E-02    0.3067623207E+00    0.6326935266E+00
    0.3000000000E+05    0.5040111694E-01    0.2693491309E-01    0.4646967042E-02    0.5104436933E+00    0.6451291731E+00
    0.5000000000E+05    0.2832354868E-01    0.2696141610E-01    0.2647390674E-02    0.5845762362E+00    0.6487368686E+00
    0.7000000000E+05    0.1880654639E-01    0.2695883066E-01    0.1733934604E-02    0.6178477023E+00    0.6505677145E+00
    0.9000000000E+05    0.1387762616E-01    0.2694844823E-01    0.1246472008E-02    0.6355099446E+00    0.6517132517E+00
    0.1100000000E+06    0.1097637339E-01    0.2693567602E-01    0.9551071273E-03    0.6460687707E+00    0.6525150495E+00
    0.1300000000E+06    0.9105629963E-02    0.2692233610E-01    0.7660279342E-03    0.6529403407E+00    0.6531166358E+00
    0.1500000000E+06    0.7815425502E-02    0.2690912860E-01    0.6355675472E-03    0.6577015351E+00    0.6535897719E+00
    0.1700000000E+06    0.6878788729E-02    0.2689633343E-01    0.5412099993E-03    0.6611619466E+00    0.6539747389E+00
    0.1900000000E+06    0.6170962220E-02    0.2688405503E-01    0.4703787778E-03    0.6637729465E+00    0.6542960957E+00
    0.2100000000E+06    0.5618556662E-02    0.2687231997E-01    0.4155876224E-03    0.6658031491E+00    0.6545697731E+00
    0.2300000000E+06    0.5175969065E-02    0.2686111934E-01    0.3721442499E-03    0.6674210582E+00    0.6548066152E+00
    0.2500000000E+06    0.4813555760E-02    0.2685042852E-01    0.3369795986E-03    0.6687370612E+00    0.6550142940E+00
    0.2700000000E+06    0.4511306947E-02    0.2684021661E-01    0.3080133141E-03    0.6698261420E+00    0.6551984105E+00
    0.2900000000E+06    0.4255277062E-02    0.2683045112E-01    0.2837917896E-03    0.6707408251E+00    0.6553631632E+00
    0.3100000000E+06    0.4035476651E-02    0.2682110029E-01    0.2632725042E-03    0.6715188845E+00    0.6555117695E+00
    0.3300000000E+06    0.3844577874E-02    0.2681213406E-01    0.2456906356E-03    0.6721881137E+00    0.6556467425E+00
    0.3500000000E+06    0.3677092326E-02    0.2680352456E-01    0.2304738396E-03    0.6727693755E+00    0.6557700778E+00
    0.3700000000E+06    0.3528833183E-02    0.2679524623E-01    0.2171862347E-03    0.6732786080E+00    0.6558833831E+00
    0.3900000000E+06    0.3396554061E-02    0.2678727571E-01    0.2054906473E-03    0.6737281792E+00    0.6559879703E+00
    0.4100000000E+06    0.3277700853E-02    0.2677959174E-01    0.1951225917E-03    0.6741278218E+00    0.6560849219E+00
    0.4300000000E+06    0.3170237632E-02    0.2677217499E-01    0.1858719765E-03    0.6744852913E+00    0.6561751402E+00
    0.4500000000E+06    0.3072522233E-02    0.2676500786E-01    0.1775700081E-03    0.6748068383E+00    0.6562593845E+00
    0.4700000000E+06    0.2983215804E-02    0.2675807436E-01    0.1700796641E-03    0.6750975527E+00    0.6563382986E+00
    0.4900000000E+06    0.2901216070E-02    0.2675135988E-01    0.1632886576E-03    0.6753616183E+00    0.6564124328E+00
    0.1000000000E+06    0.1225506586E-01    0.2694220646E-01    0.1083876502E-02    0.6413998026E+00    0.6521456835E+00
    0.3000000000E+06    0.4141357174E-02    0.2682572580E-01    0.2731225006E-03    0.6711450038E+00    0.6554393136E+00
    0.5000000000E+06    0.2862663883E-02    0.2674808056E-01    0.1601257564E-03    0.6754847654E+00    0.6564478581E+00
    0.7000000000E+06    0.2317066296E-02    0.2669130492E-01    0.1177056305E-03    0.6771449873E+00    0.6569919944E+00
    0.9000000000E+06    0.2000958082E-02    0.2664651901E-01    0.9547063487E-04    0.6780182168E+00    0.6573479636E+00
    0.1100000000E+07    0.1788861429E-02    0.2660949592E-01    0.8166524965E-04    0.6785579975E+00    0.6576054353E+00
    0.1300000000E+07    0.1633879502E-02    0.2657791309E-01    0.7217535190E-04    0.6789259080E+00    0.6578035825E+00
    0.1500000000E+07    0.1514171266E-02    0.2655035845E-01    0.6519670332E-04    0.6791936217E+00    0.6579626487E+00
    0.1700000000E+07    0.1418043898E-02    0.2652590895E-01    0.5981390177E-04    0.6793977544E+00    0.6580943097E+00
    0.1900000000E+07    0.1338604327E-02    0.2650392771E-01    0.5551242604E-04    0.6795589610E+00    0.6582058452E+00
    0.2100000000E+07    0.1271491644E-02    0.2648395656E-01    0.5198024404E-04    0.6796897833E+00    0.6583020667E+00
    0.2300000000E+07    0.1213793915E-02    0.2646565469E-01    0.4901669396E-04    0.6797982819E+00    0.6583863021E+00
    0.2500000000E+07    0.1163482141E-02    0.2644876164E-01    0.4648657674E-04    0.6798898776E+00    0.6584609385E+00
    0.2700000000E+07    0.1119092994E-02    0.2643307379E-01    0.4429527957E-04    0.6799683532E+00    0.6585277397E+00
    0.2900000000E+07    0.1079540663E-02    0.2641842893E-01    0.4237447799E-04    0.6800364304E+00    0.6585880423E+00
    0.3100000000E+07    0.1043999994E-02    0.2640469567E-01    0.4067350859E-04    0.6800961191E+00    0.6586428801E+00
    0.3300000000E+07    0.1011831043E-02    0.2639176612E-01    0.3915394620E-04    0.6801489366E+00    0.6586930680E+00
    0.3500000000E+07    0.9825287327E-03    0.2637955054E-01    0.3778607453E-04    0.6801960508E+00    0.6587392581E+00
    0.3700000000E+07    0.9556883095E-03    0.2636797352E-01    0.3654651915E-04    0.6802383755E+00    0.6587819797E+00
    0.3900000000E+07    0.9309810392E-03    0.2635697103E-01    0.3541661793E-04    0.6802766367E+00    0.6588216675E+00
    0.4100000000E+07    0.9081367458E-03    0.2634648827E-01    0.3438127315E-04    0.6803114183E+00    0.6588586825E+00
    0.4300000000E+07    0.8869310191E-03    0.2633647796E-01    0.3342812618E-04    0.6803431961E+00    0.6588933274E+00
    0.4500000000E+07    0.8671756859E-03    0.2632689899E-01    0.3254695329E-04    0.6803723612E+00    0.6589258585E+00
    0.4700000000E+07    0.8487116017E-03    0.2631771546E-01    0.3172921611E-04    0.6803992388E+00    0.6589564940E+00
    0.4900000000E+07    0.8314031237E-03    0.2630889575E-01    0.3096772208E-04    0.6804241011E+00    0.6589854215E+00
    0.1000000000E+07    0.1885727738E-02    0.2662721102E-01    0.8785469574E-04    0.6783164626E+00    0.6574859210E+00
    0.3000000000E+07    0.1061312524E-02    0.2641145557E-01    0.4149915428E-04    0.6800672189E+00    0.6586160890E+00
    0.5000000000E+07    0.8231451987E-03    0.2630461347E-01    0.3060612136E-04    0.6804358499E+00    0.6589992962E+00
    0.7000000000E+07    0.6974478421E-03    0.2623271432E-01    0.2523408827E-04    0.6806057965E+00    0.6592170034E+00
    0.9000000000E+07    0.6165657210E-03    0.2617838313E-01    0.2190266584E-04    0.6807065617E+00    0.6593647741E+00
    0.1100000000E+08    0.5588881831E-03    0.2613467410E-01    0.1958402927E-04    0.6807744716E+00    0.6594748201E+00
    0.1300000000E+08    0.5150633378E-03    0.2609809429E-01    0.1785318904E-04    0.6808239508E+00    0.6595615939E+00
    0.1500000000E+08    0.4802929522E-03    0.2606663530E-01    0.1649870965E-04    0.6808619450E+00    0.6596327242E+00
    0.1700000000E+08    0.4518264458E-03    0.2603903475E-01    0.1540210648E-04    0.6808922429E+00    0.6596926907E+00
    0.1900000000E+08    0.4279582340E-03    0.2601444689E-01    0.1449119603E-04    0.6809171006E+00    0.6597443304E+00
    0.2100000000E+08    0.4075667272E-03    0.2599227713E-01    0.1371918406E-04    0.6809379527E+00    0.6597895444E+00
    0.2300000000E+08    0.3898798877E-03    0.2597209143E-01    0.1305424115E-04    0.6809557586E+00    0.6598296645E+00
    0.2500000000E+08    0.3743464802E-03    0.2595356316E-01    0.1247387007E-04    0.6809711864E+00    0.6598656568E+00
    0.2700000000E+08    0.3605609357E-03    0.2593644037E-01    0.1196166327E-04    0.6809847173E+00    0.6598982430E+00
