  Pressure (Pa) 2mC6-400 (mol/kg) 3mC6-400 (mol/kg) 33mC5-400 (mol/kg) 23mC5-400 (mol/kg) C7-400 (mol/kg)
    0.1000000000E+01    0.3967926003E-02    0.1578877218E-02    0.6461679678E-04    0.8376118195E-03    0.3416086414E-02
    0.3000000000E+01    0.1161084234E-01    0.4624257183E-02    0.1891013860E-03    0.2487346005E-02    0.1000618804E-01
    0.5000000000E+01    0.1888620760E-01    0.7528963729E-02    0.3076276009E-03    0.4104202248E-02    0.1629323166E-01
    0.7000000000E+01    0.2581938769E-01    0.1030305847E-01    0.4206069297E-03    0.5689447890E-02    0.2229886353E-01
    0.9000000000E+01    0.3243342614E-01    0.1295565401E-01    0.5284131426E-03    0.7244283411E-02    0.2804268973E-01
    0.1100000000E+02    0.3874930784E-01    0.1549502368E-01    0.6313865800E-03    0.8769846838E-02    0.3354251192E-01
    0.1300000000E+02    0.4478618735E-01    0.1792869643E-01    0.7298378635E-03    0.1026721781E-01    0.3881453125E-01
    0.1500000000E+02    0.5056158719E-01    0.2026353900E-01    0.8240511183E-03    0.1173742133E-01    0.4387352505E-01
    0.1700000000E+02    0.5609157058E-01    0.2250582755E-01    0.9142867810E-03    0.1318143122E-01    0.4873300062E-01
    0.1900000000E+02    0.6139089251E-01    0.2466131009E-01    0.1000784055E-02    0.1460017331E-01    0.5340532952E-01
    0.2100000000E+02    0.6647313224E-01    0.2673526114E-01    0.1083763061E-02    0.1599452845E-01    0.5790186506E-01
    0.2300000000E+02    0.7135080982E-01    0.2873252978E-01    0.1163426733E-02    0.1736533518E-01    0.6223304552E-01
    0.2500000000E+02    0.7603548890E-01    0.3065758190E-01    0.1239962487E-02    0.1871339233E-01    0.6640848501E-01
    0.2700000000E+02    0.8053786761E-01    0.3251453755E-01    0.1313543697E-02    0.2003946135E-01    0.7043705372E-01
    0.2900000000E+02    0.8486785925E-01    0.3430720391E-01    0.1384331003E-02    0.2134426852E-01    0.7432694891E-01
    0.3100000000E+02    0.8903466392E-01    0.3603910469E-01    0.1452473481E-02    0.2262850699E-01    0.7808575794E-01
    0.3300000000E+02    0.9304683244E-01    0.3771350612E-01    0.1518109672E-02    0.2389283867E-01    0.8172051432E-01
    0.3500000000E+02    0.9691232339E-01    0.3933344020E-01    0.1581368516E-02    0.2513789600E-01    0.8523774763E-01
    0.3700000000E+02    0.1006385542E+00    0.4090172552E-01    0.1642370177E-02    0.2636428359E-01    0.8864352820E-01
    0.3900000000E+02    0.1042324470E+00    0.4242098573E-01    0.1701226786E-02    0.2757257978E-01    0.9194350704E-01
    0.4100000000E+02    0.1077004698E+00    0.4389366633E-01    0.1758043114E-02    0.2876333807E-01    0.9514295170E-01
    0.4300000000E+02    0.1110486735E+00    0.4532204955E-01    0.1812917171E-02    0.2993708844E-01    0.9824677847E-01
    0.4500000000E+02    0.1142827255E+00    0.4670826790E-01    0.1865940747E-02    0.3109433864E-01    0.1012595814E+00
    0.4700000000E+02    0.1174079401E+00    0.4805431635E-01    0.1917199911E-02    0.3223557533E-01    0.1041856585E+00
    0.4900000000E+02    0.1204293055E+00    0.4936206326E-01    0.1966775447E-02    0.3336126523E-01    0.1070290354E+00
    0.1000000000E+02    0.3562739898E-01    0.1423900509E-01    0.5804838878E-03    0.8010655336E-02    0.3082205343E-01
    0.3000000000E+02    0.8697111101E-01    0.3518054011E-01    0.1418723951E-02    0.2198891677E-01    0.7622228723E-01
    0.5000000000E+02    0.1219025206E+00    0.5000212537E-01    0.1990955757E-02    0.3391842076E-01    0.1084209000E+00
    0.7000000000E+02    0.1469154105E+00    0.6116482698E-01    0.2402375239E-02    0.4434513326E-01    0.1327187352E+00
    0.9000000000E+02    0.1654726143E+00    0.6995154068E-01    0.2709052788E-02    0.5363005969E-01    0.1518809364E+00
    0.1100000000E+03    0.1795979349E+00    0.7709945116E-01    0.2943751666E-02    0.6202235567E-01    0.1674975001E+00
    0.1300000000E+03    0.1905557903E+00    0.8306385604E-01    0.3126941935E-02    0.6970011468E-01    0.1805510795E+00
    0.1500000000E+03    0.1991773963E+00    0.8814205883E-01    0.3272083058E-02    0.7679440813E-01    0.1916837454E+00
    0.1700000000E+03    0.2060315795E+00    0.9253699512E-01    0.3388388945E-02    0.8340411392E-01    0.2013340422E+00
    0.1900000000E+03    0.2115204883E+00    0.9639228530E-01    0.3482376739E-02    0.8960542030E-01    0.2098125247E+00
    0.2100000000E+03    0.2159362040E+00    0.9981267198E-01    0.3558782666E-02    0.9545811984E-01    0.2173458187E+00
    0.2300000000E+03    0.2194957411E+00    0.1028765072E+00    0.3621128188E-02    0.1010098971E+00    0.2241035507E+00
    0.2500000000E+03    0.2223635017E+00    0.1056436881E+00    0.3672083190E-02    0.1062993228E+00    0.2302154698E+00
    0.2700000000E+03    0.2246661412E+00    0.1081608717E+00    0.3713706411E-02    0.1113579907E+00    0.2357827034E+00
    0.2900000000E+03    0.2265026780E+00    0.1104650033E+00    0.3747608979E-02    0.1162120723E+00    0.2408853740E+00
    0.3100000000E+03    0.2279515323E+00    0.1125857637E+00    0.3775068273E-02    0.1208834681E+00    0.2455878864E+00
    0.3300000000E+03    0.2290755297E+00    0.1145473056E+00    0.3797108871E-02    0.1253906726E+00    0.2499426790E+00
    0.3500000000E+03    0.2299255218E+00    0.1163695098E+00    0.3814561151E-02    0.1297494345E+00    0.2539929388E+00
    0.3700000000E+03    0.2305430511E+00    0.1180689099E+00    0.3828104413E-02    0.1339732662E+00    0.2577746015E+00
    0.3900000000E+03    0.2309623395E+00    0.1196593846E+00    0.3838299087E-02    0.1380738422E+00    0.2613178483E+00
    0.4100000000E+03    0.2312117933E+00    0.1211526827E+00    0.3845611099E-02    0.1420613137E+00    0.2646482421E+00
    0.4300000000E+03    0.2313151550E+00    0.1225588266E+00    0.3850430537E-02    0.1459445590E+00    0.2677876010E+00
    0.4500000000E+03    0.2312923951E+00    0.1238864266E+00    0.3853086099E-02    0.1497313859E+00    0.2707546785E+00
    0.4700000000E+03    0.2311604091E+00    0.1251429276E+00    0.3853856402E-02    0.1534286951E+00    0.2735656982E+00
    0.4900000000E+03    0.2309335677E+00    0.1263348054E+00    0.3852978899E-02    0.1570426148E+00    0.2762347790E+00
    0.1000000000E+03    0.1729973110E+00    0.7369714661E-01    0.2833911028E-02    0.5792532986E-01    0.1600607836E+00
    0.3000000000E+03    0.2272713213E+00    0.1115466824E+00    0.3762074850E-02    0.1185693788E+00    0.2432831281E+00
    0.5000000000E+03    0.2307884862E+00    0.1269083086E+00    0.3851986950E-02    0.1588200348E+00    0.2775200141E+00
    0.7000000000E+03    0.2251099349E+00    0.1360490795E+00    0.3782280735E-02    0.1910523807E+00    0.2980947774E+00
    0.9000000000E+03    0.2171039495E+00    0.1423804090E+00    0.3667560204E-02    0.2187266579E+00    0.3124597368E+00
    0.1100000000E+04    0.2086367737E+00    0.1471406527E+00    0.3540118599E-02    0.2433009352E+00    0.3233331822E+00
    0.1300000000E+04    0.2003299513E+00    0.1509085877E+00    0.3411382319E-02    0.2655364458E+00    0.3319908831E+00
    0.1500000000E+04    0.1924041102E+00    0.1539983061E+00    0.3285870579E-02    0.2858889519E+00    0.3391277532E+00
    0.1700000000E+04    0.1849303404E+00    0.1565980783E+00    0.3165420968E-02    0.3046592738E+00    0.3451617369E+00
    0.1900000000E+04    0.1779191525E+00    0.1588290766E+00    0.3050717300E-02    0.3220611809E+00    0.3503626599E+00
    0.2100000000E+04    0.1713557519E+00    0.1607735736E+00    0.2941913371E-02    0.3382556069E+00    0.3549142528E+00
    0.2300000000E+04    0.1652151388E+00    0.1624898097E+00    0.2838910895E-02    0.3533693672E+00    0.3589469278E+00
    0.2500000000E+04    0.1594688923E+00    0.1640204163E+00    0.2741491617E-02    0.3675060645E+00    0.3625563868E+00
    0.2700000000E+04    0.1540882866E+00    0.1653974676E+00    0.2649383178E-02    0.3807527735E+00    0.3658148049E+00
    0.2900000000E+04    0.1490457065E+00    0.1666456548E+00    0.2562293061E-02    0.3931843168E+00    0.3687778699E+00
    0.3100000000E+04    0.1443152484E+00    0.1677843588E+00    0.2479926440E-02    0.4048661018E+00    0.3714893883E+00
    0.3300000000E+04    0.1398729236E+00    0.1688290487E+00    0.2401995574E-02    0.4158560670E+00    0.3739843972E+00
    0.3500000000E+04    0.1356966680E+00    0.1697922517E+00    0.2328224651E-02    0.4262060595E+00    0.3762913274E+00
    0.3700000000E+04    0.1317662601E+00    0.1706842427E+00    0.2258352110E-02    0.4359628399E+00    0.3784335425E+00
    0.3900000000E+04    0.1280631979E+00    0.1715135445E+00    0.2192131545E-02    0.4451688355E+00    0.3804304578E+00
    0.4100000000E+04    0.1245705638E+00    0.1722872976E+00    0.2129331817E-02    0.4538627214E+00    0.3822983692E+00
    0.4300000000E+04    0.1212728881E+00    0.1730115387E+00    0.2069736705E-02    0.4620798804E+00    0.3840510767E+00
    0.4500000000E+04    0.1181560194E+00    0.1736914125E+00    0.2013144318E-02    0.4698527755E+00    0.3857003609E+00
    0.4700000000E+04    0.1152070036E+00    0.1743313362E+00    0.1959366370E-02    0.4772112579E+00    0.3872563527E+00
    0.4900000000E+04    0.1124139734E+00    0.1749351272E+00    0.1908227404E-02    0.4841828282E+00    0.3887278215E+00
    0.1000000000E+04    0.2128747220E+00    0.1449119356E+00    0.3604469284E-02    0.2313438236E+00    0.3182338576E+00
    0.3000000000E+04    0.1466430071E+00    0.1672276467E+00    0.2520537536E-02    0.3991151512E+00    0.3701627061E+00
    0.5000000000E+04    0.1110725166E+00    0.1752245275E+00    0.1883596021E-02    0.4875315279E+00    0.3894342854E+00
    0.7000000000E+04    0.9022814131E-01    0.1797332327E+00    0.1495480877E-02    0.5394044580E+00    0.4005509620E+00
    0.9000000000E+04    0.7687261553E-01    0.1827318965E+00    0.1242572455E-02    0.5720628104E+00    0.4080813877E+00
    0.1100000000E+05    0.6768406426E-01    0.1849118797E+00    0.1067748588E-02    0.5938851290E+00    0.4136433658E+00
    0.1300000000E+05    0.6099776962E-01    0.1865883702E+00    0.9408414126E-03    0.6092040830E+00    0.4179819415E+00
    0.1500000000E+05    0.5591221665E-01    0.1879288410E+00    0.8449638004E-03    0.6204021173E+00    0.4214963619E+00
    0.1700000000E+05    0.5190557186E-01    0.1890317606E+00    0.7701260894E-03    0.6288651323E+00    0.4244231337E+00
    0.1900000000E+05    0.4865820914E-01    0.1899593761E+00    0.7101211353E-03    0.6354403719E+00    0.4269127830E+00
    0.2100000000E+05    0.4596475577E-01    0.1907532455E+00    0.6609235645E-03    0.6406685875E+00    0.4290664394E+00
    0.2300000000E+05    0.4368777435E-01    0.1914423256E+00    0.6198245522E-03    0.6449079996E+00    0.4309549844E+00
    0.2500000000E+05    0.4173203830E-01    0.1920474988E+00    0.5849419437E-03    0.6484036785E+00    0.4326298203E+00
    0.2700000000E+05    0.4002956564E-01    0.1925842573E+00    0.5549310934E-03    0.6513280440E+00    0.4341292840E+00
    0.2900000000E+05    0.3853055103E-01    0.1930643699E+00    0.5288077382E-03    0.6538054072E+00    0.4354826471E+00
    0.3100000000E+05    0.3719767225E-01    0.1934969595E+00    0.5058358659E-03    0.6559273432E+00    0.4367127106E+00
    0.3300000000E+05    0.3600240140E-01    0.1938892217E+00    0.4854546220E-03    0.6577626079E+00    0.4378375435E+00
    0.3500000000E+05    0.3492254738E-01    0.1942469184E+00    0.4672294010E-03    0.6593637058E+00    0.4388716806E+00
    0.3700000000E+05    0.3394057774E-01    0.1945747256E+00    0.4508183481E-03    0.6607713430E+00    0.4398269684E+00
    0.3900000000E+05    0.3304244694E-01    0.1948764824E+00    0.4359489260E-03    0.6620175114E+00    0.4407131757E+00
    0.4100000000E+05    0.3221676172E-01    0.1951553743E+00    0.4224012101E-03    0.6631276652E+00    0.4415384416E+00
    0.4300000000E+05    0.3145417594E-01    0.1954140698E+00    0.4099957726E-03    0.6641222838E+00    0.4423096112E+00
    0.4500000000E+05    0.3074694432E-01    0.1956548228E+00    0.3985847572E-03    0.6650180131E+00    0.4430324896E+00
    0.4700000000E+05    0.3008858874E-01    0.1958795524E+00    0.3880452084E-03    0.6658285088E+00    0.4437120379E+00
    0.4900000000E+05    0.2947364505E-01    0.1960899036E+00    0.3782740210E-03    0.6665650697E+00    0.4443525251E+00
    0.1000000000E+05    0.7188620285E-01    0.1838995759E+00    0.1147706705E-02    0.5839954022E+00    0.4110503172E+00
    0.3000000000E+05    0.3784530031E-01    0.1932861168E+00    0.5169663602E-03    0.6549060612E+00    0.4361118672E+00
    0.5000000000E+05    0.2918097360E-01    0.1961901386E+00    0.3736487992E-03    0.6669086318E+00    0.4446592957E+00
    0.7000000000E+05    0.2477390040E-01    0.1977005220E+00    0.3060300355E-03    0.6715312953E+00    0.4494271273E+00
    0.9000000000E+05    0.2197105774E-01    0.1986477962E+00    0.2650561014E-03    0.6739358620E+00    0.4525990592E+00
    0.1100000000E+06    0.1997919681E-01    0.1993043557E+00    0.2369029430E-03    0.6753994078E+00    0.4549162440E+00
    0.1300000000E+06    0.1846607405E-01    0.1997888727E+00    0.2160448766E-03    0.6763805879E+00    0.4567108991E+00
    0.1500000000E+06    0.1726420448E-01    0.2001621966E+00    0.1997968623E-03    0.6770828578E+00    0.4581577006E+00
    0.1700000000E+06    0.1627853414E-01    0.2004590652E+00    0.1866792550E-03    0.6776097908E+00    0.4593586690E+00
    0.1900000000E+06    0.1545046142E-01    0.2007008891E+00    0.1758015649E-03    0.6780195043E+00    0.4603780271E+00
    0.2100000000E+06    0.1474157613E-01    0.2009016481E+00    0.1665917457E-03    0.6783470675E+00    0.4612585463E+00
    0.2300000000E+06    0.1412548477E-01    0.2010708898E+00    0.1586633664E-03    0.6786148686E+00    0.4620299917E+00
    0.2500000000E+06    0.1358335644E-01    0.2012153760E+00    0.1517447413E-03    0.6788378590E+00    0.4627138209E+00
    0.2700000000E+06    0.1310133793E-01    0.2013400391E+00    0.1456385420E-03    0.6790263980E+00    0.4633259583E+00
    0.2900000000E+06    0.1266897488E-01    0.2014485685E+00    0.1401975245E-03    0.6791878865E+00    0.4638785113E+00
    0.3100000000E+06    0.1227820627E-01    0.2015437824E+00    0.1353092858E-03    0.6793277513E+00    0.4643808772E+00
    0.3300000000E+06    0.1192270085E-01    0.2016278731E+00    0.1308863333E-03    0.6794500606E+00    0.4648404796E+00
    0.3500000000E+06    0.1159740592E-01    0.2017025733E+00    0.1268594074E-03    0.6795579241E+00    0.4652632740E+00
    0.3700000000E+06    0.1129823239E-01    0.2017692715E+00    0.1231728699E-03    0.6796537586E+00    0.4656541034E+00
    0.3900000000E+06    0.1102183002E-01    0.2018290942E+00    0.1197814420E-03    0.6797394709E+00    0.4660169526E+00
    0.4100000000E+06    0.1076542362E-01    0.2018829655E+00    0.1166478491E-03    0.6798165854E+00    0.4663551363E+00
    0.4300000000E+06    0.1052669171E-01    0.2019316507E+00    0.1137410889E-03    0.6798863353E+00    0.4666714372E+00
    0.4500000000E+06    0.1030367514E-01    0.2019757893E+00    0.1110351364E-03    0.6799497287E+00    0.4669682125E+00
    0.4700000000E+06    0.1009470726E-01    0.2020159202E+00    0.1085079614E-03    0.6800075981E+00    0.4672474738E+00
    0.4900000000E+06    0.9898359888E-02    0.2020525006E+00    0.1061407733E-03    0.6800606365E+00    0.4675109504E+00
    0.1000000000E+06    0.2090018025E-01    0.1990030356E+00    0.2498211720E-03    0.6747474552E+00    0.4538384257E+00
    0.3000000000E+06    0.1246882141E-01    0.2014976904E+00    0.1376902693E-03    0.6792602412E+00    0.4641354642E+00
    0.5000000000E+06    0.9804527212E-02    0.2020695838E+00    0.1050120408E-03    0.6800855296E+00    0.4676372450E+00
    0.7000000000E+06    0.8364297712E-02    0.2022952876E+00    0.8789516338E-04    0.6804318287E+00    0.4696105304E+00
    0.9000000000E+06    0.7426197954E-02    0.2023979196E+00    0.7696220061E-04    0.6806226835E+00    0.4709380708E+00
    0.1100000000E+07    0.6752075641E-02    0.2024440795E+00    0.6921645444E-04    0.6807437587E+00    0.4719183760E+00
    0.1300000000E+07    0.6237080564E-02    0.2024605168E+00    0.6336458155E-04    0.6808275134E+00    0.4726853304E+00
    0.1500000000E+07    0.5826813654E-02    0.2024599415E+00    0.5874519397E-04    0.6808889618E+00    0.4733094864E+00
    0.1700000000E+07    0.5489841404E-02    0.2024490906E+00    0.5498042913E-04    0.6809360081E+00    0.4738321738E+00
    0.1900000000E+07    0.5206554107E-02    0.2024318197E+00    0.5183674429E-04    0.6809732113E+00    0.4742794977E+00
    0.2100000000E+07    0.4963994333E-02    0.2024104635E+00    0.4916103691E-04    0.6810033867E+00    0.4746689047E+00
    0.2300000000E+07    0.4753207781E-02    0.2023864976E+00    0.4684822776E-04    0.6810283673E+00    0.4750125801E+00
    0.2500000000E+07    0.4567779932E-02    0.2023608857E+00    0.4482349670E-04    0.6810493983E+00    0.4753193396E+00
    0.2700000000E+07    0.4402978008E-02    0.2023342739E+00    0.4303193819E-04    0.6810673553E+00    0.4755957491E+00
    0.2900000000E+07    0.4255222805E-02    0.2023071034E+00    0.4143223279E-04    0.6810828724E+00    0.4758468182E+00
    0.3100000000E+07    0.4121750230E-02    0.2022796803E+00    0.3999261365E-04    0.6810964199E+00    0.4760764487E+00
    0.3300000000E+07    0.4000386893E-02    0.2022522191E+00    0.3868820547E-04    0.6811083542E+00    0.4762877331E+00
    0.3500000000E+07    0.3889396922E-02    0.2022248705E+00    0.3749921629E-04    0.6811189502E+00    0.4764831610E+00
    0.3700000000E+07    0.3787374728E-02    0.2021977411E+00    0.3640967685E-04    0.6811284235E+00    0.4766647630E+00
    0.3900000000E+07    0.3693168270E-02    0.2021709056E+00    0.3540654195E-04    0.6811369458E+00    0.4768342155E+00
    0.4100000000E+07    0.3605823050E-02    0.2021444157E+00    0.3447903707E-04    0.6811446551E+00    0.4769929172E+00
    0.4300000000E+07    0.3524540540E-02    0.2021183065E+00    0.3361817479E-04    0.6811516640E+00    0.4771420460E+00
    0.4500000000E+07    0.3448646832E-02    0.2020926009E+00    0.3281639141E-04    0.6811580649E+00    0.4772826023E+00
    0.4700000000E+07    0.3377568665E-02    0.2020673129E+00    0.3206726988E-04    0.6811639349E+00    0.4774154428E+00
    0.4900000000E+07    0.3310814867E-02    0.2020424497E+00    0.3136532585E-04    0.6811693381E+00    0.4775413056E+00
    0.1000000000E+07    0.7064400674E-02    0.2024258999E+00    0.7279327624E-04    0.6806892990E+00    0.4714611270E+00
    0.3000000000E+07    0.4186848803E-02    0.2022934083E+00    0.4069410422E-04    0.6810898679E+00    0.4759641038E+00
    0.5000000000E+07    0.3278924917E-02    0.2020301783E+00    0.3103054468E-04    0.6811718821E+00    0.4776018240E+00
    0.7000000000E+07    0.2790422932E-02    0.2018061807E+00    0.2594941769E-04    0.6812078722E+00    0.4785646654E+00
    0.9000000000E+07    0.2473314685E-02    0.2016169844E+00    0.2270232459E-04    0.6812282950E+00    0.4792333131E+00
    0.1100000000E+08    0.2246016342E-02    0.2014541087E+00    0.2040250837E-04    0.6812415439E+00    0.4797398193E+00
    0.1300000000E+08    0.2072714147E-02    0.2013112985E+00    0.1866591508E-04    0.6812508803E+00    0.4801446366E+00
    0.1500000000E+08    0.1934873360E-02    0.2011841713E+00    0.1729586108E-04    0.6812578411E+00    0.4804801799E+00
    0.1700000000E+08    0.1821806604E-02    0.2010696050E+00    0.1617991174E-04    0.6812632473E+00    0.4807657289E+00
    0.1900000000E+08    0.1726858565E-02    0.2009653151E+00    0.1524856432E-04    0.6812675784E+00    0.4810136268E+00
    0.2100000000E+08    0.1645638450E-02    0.2008695856E+00    0.1445625818E-04    0.6812711339E+00    0.4812322247E+00
    0.2300000000E+08    0.1575116076E-02    0.2007810966E+00    0.1377172939E-04    0.6812741106E+00    0.4814274204E+00
    0.2500000000E+08    0.1513123325E-02    0.2006988124E+00    0.1317272256E-04    0.6812766431E+00    0.4816035250E+00
    0.2700000000E+08    0.1458062200E-02    0.2006219053E+00    0.1264291064E-04    0.6812788272E+00    0.4817637802E+00
