  Pressure (Pa) 2mC6-400 (mol/kg) 3mC6-400 (mol/kg) 33mC5-400 (mol/kg) 23mC5-400 (mol/kg) C7-400 (mol/kg)
    0.1000000000E+01    0.3972164137E-02    0.5268238750E-03    0.5174821497E-03    0.3723593681E-03    0.3419517776E-02
    0.3000000000E+01    0.1164737442E-01    0.1545987987E-02    0.1517532107E-02    0.1106256124E-02    0.1003568833E-01
    0.5000000000E+01    0.1898350874E-01    0.2521791698E-02    0.2473593109E-02    0.1826177771E-02    0.1637160186E-01
    0.7000000000E+01    0.2600244380E-01    0.3457127981E-02    0.3388504755E-02    0.2532644550E-02    0.2244593198E-01
    0.9000000000E+01    0.3272417938E-01    0.4354634309E-02    0.4264862797E-02    0.3226150023E-02    0.2827570425E-01
    0.1100000000E+02    0.3916703839E-01    0.5216720390E-02    0.5105045149E-02    0.3907162797E-02    0.3387647500E-01
    0.1300000000E+02    0.4534784155E-01    0.6045592357E-02    0.5911234602E-02    0.4576128105E-02    0.3926248729E-01
    0.1500000000E+02    0.5128206055E-01    0.6843273934E-02    0.6685438724E-02    0.5233469269E-02    0.4444680741E-01
    0.1700000000E+02    0.5698395254E-01    0.7611625005E-02    0.7429507360E-02    0.5879589062E-02    0.4944144459E-01
    0.1900000000E+02    0.6246667881E-01    0.8352357962E-02    0.8145148041E-02    0.6514870959E-02    0.5425745644E-01
    0.2100000000E+02    0.6774240959E-01    0.9067052124E-02    0.8833939615E-02    0.7139680298E-02    0.5890504193E-01
    0.2300000000E+02    0.7282241694E-01    0.9757166494E-02    0.9497344317E-02    0.7754365364E-02    0.6339362364E-01
    0.2500000000E+02    0.7771715733E-01    0.1042405107E-01    0.1013671849E-01    0.8359258389E-02    0.6773192080E-01
    0.2700000000E+02    0.8243634511E-01    0.1106895691E-01    0.1075332216E-01    0.8954676484E-02    0.7192801406E-01
    0.2900000000E+02    0.8698901812E-01    0.1169304508E-01    0.1134832751E-01    0.9540922508E-02    0.7598940336E-01
    0.3100000000E+02    0.9138359642E-01    0.1229739467E-01    0.1192282656E-01    0.1011828587E-01    0.7992305951E-01
    0.3300000000E+02    0.9562793487E-01    0.1288300995E-01    0.1247783796E-01    0.1068704329E-01    0.8373547039E-01
    0.3500000000E+02    0.9972937043E-01    0.1345082679E-01    0.1301431317E-01    0.1124745950E-01    0.8743268238E-01
    0.3700000000E+02    0.1036947648E+00    0.1400171840E-01    0.1353314196E-01    0.1179978789E-01    0.9102033752E-01
    0.3900000000E+02    0.1075305425E+00    0.1453650058E-01    0.1403515738E-01    0.1234427113E-01    0.9450370708E-01
    0.4100000000E+02    0.1112427262E+00    0.1505593636E-01    0.1452114033E-01    0.1288114174E-01    0.9788772174E-01
    0.4300000000E+02    0.1148369672E+00    0.1556074025E-01    0.1499182357E-01    0.1341062262E-01    0.1011769989E+00
    0.4500000000E+02    0.1183185749E+00    0.1605158205E-01    0.1544789543E-01    0.1393292758E-01    0.1043758672E+00
    0.4700000000E+02    0.1216925417E+00    0.1652909033E-01    0.1589000320E-01    0.1444826176E-01    0.1074883894E+00
    0.4900000000E+02    0.1249635675E+00    0.1699385560E-01    0.1631875614E-01    0.1495682212E-01    0.1105183821E+00
    0.1000000000E+02    0.3597938384E-01    0.4789962488E-02    0.4689335183E-02    0.3568189641E-02    0.3110379553E-01
    0.3000000000E+02    0.8920556552E-01    0.1199762276E-01    0.1163807501E-01    0.9830696939E-02    0.7797178177E-01
    0.5000000000E+02    0.1265618712E+00    0.1722163443E-01    0.1652830525E-01    0.1520862153E-01    0.1120035600E+00
    0.7000000000E+02    0.1540740391E+00    0.2122691815E-01    0.2014137415E-01    0.1993125273E-01    0.1381417934E+00
    0.9000000000E+02    0.1750484585E+00    0.2442484658E-01    0.2290587528E-01    0.2415189351E-01    0.1590463098E+00
    0.1100000000E+03    0.1914587653E+00    0.2705728704E-01    0.2507760627E-01    0.2797737013E-01    0.1762819057E+00
    0.1300000000E+03    0.2045587909E+00    0.2927628171E-01    0.2681907278E-01    0.3148468739E-01    0.1908328161E+00
    0.1500000000E+03    0.2151843054E+00    0.3118251995E-01    0.2823860902E-01    0.3473094483E-01    0.2033512179E+00
    0.1700000000E+03    0.2239141493E+00    0.3284552870E-01    0.2941126106E-01    0.3775950817E-01    0.2142876956E+00
    0.1900000000E+03    0.2311619432E+00    0.3431499121E-01    0.3039066992E-01    0.4060399613E-01    0.2239644074E+00
    0.2100000000E+03    0.2372310408E+00    0.3562744180E-01    0.3121619058E-01    0.4329093975E-01    0.2326183769E+00
    0.2300000000E+03    0.2423488804E+00    0.3681040595E-01    0.3191734186E-01    0.4584160580E-01    0.2404282748E+00
    0.2500000000E+03    0.2466892384E+00    0.3788505852E-01    0.3251668871E-01    0.4827327763E-01    0.2475316197E+00
    0.2700000000E+03    0.2503870869E+00    0.3886798627E-01    0.3303176680E-01    0.5060017427E-01    0.2540361880E+00
    0.2900000000E+03    0.2535487785E+00    0.3977238952E-01    0.3347640164E-01    0.5283412254E-01    0.2600277943E+00
    0.3100000000E+03    0.2562591870E+00    0.4060892150E-01    0.3386163368E-01    0.5498505691E-01    0.2655757292E+00
    0.3300000000E+03    0.2585868175E+00    0.4138628751E-01    0.3419638024E-01    0.5706139699E-01    0.2707366404E+00
    0.3500000000E+03    0.2605875274E+00    0.4211168073E-01    0.3448791766E-01    0.5907033651E-01    0.2755573586E+00
    0.3700000000E+03    0.2623072806E+00    0.4279110471E-01    0.3474223820E-01    0.6101806740E-01    0.2800769876E+00
    0.3900000000E+03    0.2637842154E+00    0.4342961581E-01    0.3496431802E-01    0.6290995547E-01    0.2843284771E+00
    0.4100000000E+03    0.2650502163E+00    0.4403150777E-01    0.3515832101E-01    0.6475067961E-01    0.2883398200E+00
    0.4300000000E+03    0.2661321249E+00    0.4460045433E-01    0.3532775572E-01    0.6654434322E-01    0.2921349779E+00
    0.4500000000E+03    0.2670526811E+00    0.4513962042E-01    0.3547559743E-01    0.6829456412E-01    0.2957346028E+00
    0.4700000000E+03    0.2678312625E+00    0.4565174995E-01    0.3560438412E-01    0.7000454771E-01    0.2991566074E+00
    0.4900000000E+03    0.2684844712E+00    0.4613923575E-01    0.3571629257E-01    0.7167714701E-01    0.3024166193E+00
    0.1000000000E+03    0.1837333720E+00    0.2580071937E-01    0.2405407492E-01    0.2610865530E-01    0.1680513115E+00
    0.3000000000E+03    0.2549557771E+00    0.4019855544E-01    0.3367584229E-01    0.5391940849E-01    0.2628534212E+00
    0.5000000000E+03    0.2687686074E+00    0.4637440308E-01    0.3576651414E-01    0.7250023515E-01    0.3039902281E+00
    0.7000000000E+03    0.2704694121E+00    0.5017958534E-01    0.3622693055E-01    0.8749674803E-01    0.3295448344E+00
    0.9000000000E+03    0.2682235804E+00    0.5288583402E-01    0.3613315287E-01    0.1005329140E+00    0.3478370176E+00
    0.1100000000E+04    0.2644661329E+00    0.5496452858E-01    0.3581158590E-01    0.1123024398E+00    0.3619632507E+00
    0.1300000000E+04    0.2601151342E+00    0.5663967744E-01    0.3538827133E-01    0.1231684041E+00    0.3734002052E+00
    0.1500000000E+04    0.2555656409E+00    0.5803462282E-01    0.3491929018E-01    0.1333461997E+00    0.3829634716E+00
    0.1700000000E+04    0.2510010574E+00    0.5922427142E-01    0.3443194401E-01    0.1429749585E+00    0.3911497372E+00
    0.1900000000E+04    0.2465095368E+00    0.6025741517E-01    0.3394030693E-01    0.1521502596E+00    0.3982833433E+00
    0.2100000000E+04    0.2421331236E+00    0.6116755156E-01    0.3345187334E-01    0.1609408930E+00    0.4045874759E+00
    0.2300000000E+04    0.2378904119E+00    0.6197863882E-01    0.3297067004E-01    0.1693982078E+00    0.4102221048E+00
    0.2500000000E+04    0.2337877033E+00    0.6270838354E-01    0.3249881765E-01    0.1775616760E+00    0.4153056921E+00
    0.2700000000E+04    0.2298247806E+00    0.6337022798E-01    0.3203735722E-01    0.1854623822E+00    0.4199283385E+00
    0.2900000000E+04    0.2259980078E+00    0.6397460811E-01    0.3158670698E-01    0.1931253085E+00    0.4241601170E+00
    0.3100000000E+04    0.2223020382E+00    0.6452978104E-01    0.3114692318E-01    0.2005708835E+00    0.4280565628E+00
    0.3300000000E+04    0.2187307698E+00    0.6504238702E-01    0.3071785299E-01    0.2078160658E+00    0.4316624071E+00
    0.3500000000E+04    0.2152778832E+00    0.6551784199E-01    0.3029922588E-01    0.2148751206E+00    0.4350141889E+00
    0.3700000000E+04    0.2119371398E+00    0.6596061815E-01    0.2989070891E-01    0.2217601892E+00    0.4381421239E+00
    0.3900000000E+04    0.2087025429E+00    0.6637444903E-01    0.2949194044E-01    0.2284817150E+00    0.4410714716E+00
    0.4100000000E+04    0.2055684183E+00    0.6676248181E-01    0.2910255057E-01    0.2350487673E+00    0.4438235533E+00
    0.4300000000E+04    0.2025294473E+00    0.6712739265E-01    0.2872217348E-01    0.2414692913E+00    0.4464165226E+00
    0.4500000000E+04    0.1995806730E+00    0.6747147505E-01    0.2835045458E-01    0.2477503036E+00    0.4488659563E+00
    0.4700000000E+04    0.1967174904E+00    0.6779670859E-01    0.2798705449E-01    0.2538980469E+00    0.4511853158E+00
    0.4900000000E+04    0.1939356289E+00    0.6810481292E-01    0.2763165103E-01    0.2599181143E+00    0.4533863082E+00
    0.1000000000E+04    0.2664580464E+00    0.5398629079E-01    0.3599051846E-01    0.1065485627E+00    0.3553067113E+00
    0.3000000000E+04    0.2241340440E+00    0.6425789782E-01    0.3136546272E-01    0.1968741340E+00    0.4261472425E+00
    0.5000000000E+04    0.1925739451E+00    0.6825291873E-01    0.2745685221E-01    0.2628818646E+00    0.4544456681E+00
    0.7000000000E+04    0.1687906631E+00    0.7059775197E-01    0.2431593554E-01    0.3164651283E+00    0.4713445932E+00
    0.9000000000E+04    0.1500344777E+00    0.7219859150E-01    0.2172255473E-01    0.3610751873E+00    0.4830394429E+00
    0.1100000000E+05    0.1348438959E+00    0.7338478478E-01    0.1954795384E-01    0.3985814713E+00    0.4918048116E+00
    0.1300000000E+05    0.1223261402E+00    0.7431065220E-01    0.1770694311E-01    0.4302936083E+00    0.4987153062E+00
    0.1500000000E+05    0.1118778274E+00    0.7505992693E-01    0.1613717078E-01    0.4572300319E+00    0.5043581869E+00
    0.1700000000E+05    0.1030648761E+00    0.7568267698E-01    0.1479039966E-01    0.4802130619E+00    0.5090868538E+00
    0.1900000000E+05    0.9556292448E-01    0.7621099808E-01    0.1362827067E-01    0.4999144339E+00    0.5131291612E+00
    0.2100000000E+05    0.8912372924E-01    0.7666657436E-01    0.1261986290E-01    0.5168843474E+00    0.5166398582E+00
    0.2300000000E+05    0.8355419405E-01    0.7706467100E-01    0.1174006807E-01    0.5315735946E+00    0.5197284072E+00
    0.2500000000E+05    0.7870229825E-01    0.7741639655E-01    0.1096839989E-01    0.5443516374E+00    0.5224748148E+00
    0.2700000000E+05    0.7444718555E-01    0.7773005849E-01    0.1028807699E-01    0.5555216034E+00    0.5249391561E+00
    0.2900000000E+05    0.7069195878E-01    0.7801201344E-01    0.9685300238E-02    0.5653326756E+00    0.5271675718E+00
    0.3100000000E+05    0.6735833070E-01    0.7826722105E-01    0.9148677721E-02    0.5739902440E+00    0.5291961884E+00
    0.3300000000E+05    0.6438259425E-01    0.7849961654E-01    0.8668765722E-02    0.5816641587E+00    0.5310537650E+00
    0.3500000000E+05    0.6171255332E-01    0.7871236831E-01    0.8237701686E-02    0.5884954030E+00    0.5327635288E+00
    0.3700000000E+05    0.5930516408E-01    0.7890806046E-01    0.7848910409E-02    0.5946014697E+00    0.5343444792E+00
    0.3900000000E+05    0.5712470852E-01    0.7908882461E-01    0.7496868514E-02    0.6000806867E+00    0.5358123334E+00
    0.4100000000E+05    0.5514137009E-01    0.7925643721E-01    0.7176915269E-02    0.6050156967E+00    0.5371802249E+00
    0.4300000000E+05    0.5333011561E-01    0.7941239224E-01    0.6885100259E-02    0.6094762594E+00    0.5384592278E+00
    0.4500000000E+05    0.5166981220E-01    0.7955795657E-01    0.6618060371E-02    0.6135215132E+00    0.5396587565E+00
    0.4700000000E+05    0.5014252547E-01    0.7969421256E-01    0.6372920117E-02    0.6172018049E+00    0.5407868737E+00
    0.4900000000E+05    0.4873295859E-01    0.7982209125E-01    0.6147210588E-02    0.6205601745E+00    0.5418505317E+00
    0.1000000000E+05    0.1420581663E+00    0.7283152883E-01    0.2058892121E-01    0.3806258709E+00    0.4877049965E+00
    0.3000000000E+05    0.6897672836E-01    0.7814269417E-01    0.9409350894E-02    0.5697942843E+00    0.5282049095E+00
    0.5000000000E+05    0.4806814820E-01    0.7988314526E-01    0.6040965450E-02    0.6221303931E+00    0.5423601049E+00
    0.7000000000E+05    0.3858736775E-01    0.8081313891E-01    0.4549002025E-02    0.6432984775E+00    0.5502852199E+00
    0.9000000000E+05    0.3312142310E-01    0.8140740927E-01    0.3721784982E-02    0.6540762239E+00    0.5555549159E+00
    0.1100000000E+06    0.2950510506E-01    0.8182547262E-01    0.3196126603E-02    0.6604062374E+00    0.5593966712E+00
    0.1300000000E+06    0.2689687206E-01    0.8213794657E-01    0.2830938089E-02    0.6644961057E+00    0.5623639693E+00
    0.1500000000E+06    0.2490322437E-01    0.8238147880E-01    0.2561012053E-02    0.6673236207E+00    0.5647488223E+00
    0.1700000000E+06    0.2331510724E-01    0.8257719438E-01    0.2352285322E-02    0.6693792167E+00    0.5667221292E+00
    0.1900000000E+06    0.2201065839E-01    0.8273822027E-01    0.2185279612E-02    0.6709326257E+00    0.5683915990E+00
    0.2100000000E+06    0.2091368190E-01    0.8287318807E-01    0.2048057411E-02    0.6721430932E+00    0.5698290067E+00
    0.2300000000E+06    0.1997385889E-01    0.8298803011E-01    0.1932891512E-02    0.6731100657E+00    0.5710843109E+00
    0.2500000000E+06    0.1915647604E-01    0.8308697122E-01    0.1834554217E-02    0.6738985415E+00    0.5721935237E+00
    0.2700000000E+06    0.1843671734E-01    0.8317310949E-01    0.1749377871E-02    0.6745526346E+00    0.5731833619E+00
    0.2900000000E+06    0.1779631016E-01    0.8324877314E-01    0.1674709832E-02    0.6751032493E+00    0.5740741293E+00
    0.3100000000E+06    0.1722146088E-01    0.8331574868E-01    0.1608581434E-02    0.6755726276E+00    0.5748815749E+00
    0.3300000000E+06    0.1670153376E-01    0.8337543170E-01    0.1549498920E-02    0.6759771540E+00    0.5756181317E+00
    0.3500000000E+06    0.1622817656E-01    0.8342892959E-01    0.1496306928E-02    0.6763291455E+00    0.5762937663E+00
    0.3700000000E+06    0.1579472511E-01    0.8347713316E-01    0.1448096708E-02    0.6766380273E+00    0.5769165761E+00
    0.3900000000E+06    0.1539578725E-01    0.8352076774E-01    0.1404142833E-02    0.6769111263E+00    0.5774932187E+00
    0.4100000000E+06    0.1502694581E-01    0.8356043035E-01    0.1363858575E-02    0.6771542187E+00    0.5780292261E+00
    0.4300000000E+06    0.1468454229E-01    0.8359661718E-01    0.1326763782E-02    0.6773719161E+00    0.5785292390E+00
    0.4500000000E+06    0.1436551648E-01    0.8362974426E-01    0.1292461368E-02    0.6775679419E+00    0.5789971837E+00
    0.4700000000E+06    0.1406728583E-01    0.8366016318E-01    0.1260619801E-02    0.6777453339E+00    0.5794364084E+00
    0.4900000000E+06    0.1378765326E-01    0.8368817322E-01    0.1230959889E-02    0.6779065934E+00    0.5798497882E+00
    0.1000000000E+06    0.3115039637E-01    0.8163290556E-01    0.3432743835E-02    0.6576155148E+00    0.5576109040E+00
    0.3000000000E+06    0.1750141761E-01    0.8328325193E-01    0.1640680798E-02    0.6753469564E+00    0.5744874240E+00
    0.5000000000E+06    0.1365421219E-01    0.8370135651E-01    0.1216872578E-02    0.6779818369E+00    0.5800475762E+00
    0.7000000000E+06    0.1161958650E-01    0.8388505031E-01    0.1007274408E-02    0.6789979864E+00    0.5831041510E+00
    0.9000000000E+06    0.1030518226E-01    0.8398186984E-01    0.8768765917E-03    0.6795321826E+00    0.5851189324E+00
    0.1100000000E+07    0.9364393162E-02    0.8403716354E-01    0.7858537530E-03    0.6798609092E+00    0.5865809050E+00
    0.1300000000E+07    0.8647258350E-02    0.8406962902E-01    0.7177304364E-03    0.6800835221E+00    0.5877072173E+00
    0.1500000000E+07    0.8076716358E-02    0.8408838062E-01    0.6642999537E-03    0.6802443059E+00    0.5886112643E+00
    0.1700000000E+07    0.7608500133E-02    0.8409837661E-01    0.6209565741E-03    0.6803659368E+00    0.5893589189E+00
    0.1900000000E+07    0.7215100974E-02    0.8410253269E-01    0.5848900108E-03    0.6804612152E+00    0.5899914657E+00
    0.2100000000E+07    0.6878391086E-02    0.8410266607E-01    0.5542756476E-03    0.6805379097E+00    0.5905362965E+00
    0.2300000000E+07    0.6585867520E-02    0.8409996145E-01    0.5278705484E-03    0.6806010069E+00    0.5910124114E+00
    0.2500000000E+07    0.6328586582E-02    0.8409521932E-01    0.5047949695E-03    0.6806538540E+00    0.5914334688E+00
    0.2700000000E+07    0.6099956639E-02    0.8408899648E-01    0.4844064543E-03    0.6806987814E+00    0.5918095786E+00
    0.2900000000E+07    0.5894996950E-02    0.8408168960E-01    0.4662234571E-03    0.6807374613E+00    0.5921484100E+00
    0.3100000000E+07    0.5709863630E-02    0.8407358689E-01    0.4498770070E-03    0.6807711252E+00    0.5924559028E+00
    0.3300000000E+07    0.5541535856E-02    0.8406490131E-01    0.4350790050E-03    0.6808007001E+00    0.5927367402E+00
    0.3500000000E+07    0.5387601949E-02    0.8405579240E-01    0.4216007890E-03    0.6808268970E+00    0.5929946727E+00
    0.3700000000E+07    0.5246109777E-02    0.8404638109E-01    0.4092582552E-03    0.6808502706E+00    0.5932327446E+00
    0.3900000000E+07    0.5115459795E-02    0.8403675998E-01    0.3979012905E-03    0.6808712600E+00    0.5934534576E+00
    0.4100000000E+07    0.4994327045E-02    0.8402700049E-01    0.3874061137E-03    0.6808902174E+00    0.5936588888E+00
    0.4300000000E+07    0.4881603289E-02    0.8401715811E-01    0.3776696254E-03    0.6809074287E+00    0.5938507804E+00
    0.4500000000E+07    0.4776353391E-02    0.8400727616E-01    0.3686051705E-03    0.6809231280E+00    0.5940306055E+00
    0.4700000000E+07    0.4677781986E-02    0.8399738855E-01    0.3601393164E-03    0.6809375096E+00    0.5941996202E+00
    0.4900000000E+07    0.4585207674E-02    0.8398752193E-01    0.3522093695E-03    0.6809507353E+00    0.5943589028E+00
    0.1000000000E+07    0.9799938905E-02    0.8401320875E-01    0.8277580207E-03    0.6797140479E+00    0.5859019442E+00
    0.3000000000E+07    0.5800157197E-02    0.8407772295E-01    0.4578402750E-03    0.6807548564E+00    0.5923057560E+00
    0.5000000000E+07    0.4540982591E-02    0.8398260321E-01    0.3484282205E-03    0.6809569581E+00    0.5944351908E+00
    0.7000000000E+07    0.3863513911E-02    0.8388848996E-01    0.2911064505E-03    0.6810447592E+00    0.5956216606E+00
    0.9000000000E+07    0.3423719019E-02    0.8380459925E-01    0.2545325068E-03    0.6810944513E+00    0.5964136373E+00
    0.1100000000E+08    0.3108472380E-02    0.8373028939E-01    0.2286514539E-03    0.6811266829E+00    0.5969949341E+00
    0.1300000000E+08    0.2868113394E-02    0.8366395399E-01    0.2091201451E-03    0.6811494156E+00    0.5974474740E+00
    0.1500000000E+08    0.2676939270E-02    0.8360416288E-01    0.1937178197E-03    0.6811663858E+00    0.5978142148E+00
    0.1700000000E+08    0.2520128295E-02    0.8354978037E-01    0.1811762780E-03    0.6811795855E+00    0.5981202183E+00
    0.1900000000E+08    0.2388449963E-02    0.8349992141E-01    0.1707121386E-03    0.6811901767E+00    0.5983812589E+00
    0.2100000000E+08    0.2275814169E-02    0.8345389303E-01    0.1618121572E-03    0.6811988845E+00    0.5986078465E+00
    0.2300000000E+08    0.2178017806E-02    0.8341114635E-01    0.1541242925E-03    0.6812061852E+00    0.5988073016E+00
    0.2500000000E+08    0.2092053406E-02    0.8337124084E-01    0.1473980278E-03    0.6812124057E+00    0.5989849071E+00
    0.2700000000E+08    0.2015704280E-02    0.8333381833E-01    0.1414496304E-03    0.6812177774E+00    0.5991445888E+00
