  Pressure (Pa) 2mC6-400 (mol/kg) 3mC6-400 (mol/kg) 33mC5-400 (mol/kg) 23mC5-400 (mol/kg) C7-400 (mol/kg)
    0.1000000000E+01    0.4732909352E-02    0.2611486793E-02    0.1927007618E-03    0.1861462103E-03    0.6780555859E-02
    0.3000000000E+01    0.1369319469E-01    0.7538587891E-02    0.5576698329E-03    0.5528350026E-03    0.1957690744E-01
    0.5000000000E+01    0.2204141369E-01    0.1210855598E-01    0.8979058656E-03    0.9122966672E-03    0.3145002068E-01
    0.7000000000E+01    0.2984238430E-01    0.1636044531E-01    0.1216033284E-02    0.1264810555E-02    0.4250071171E-01
    0.9000000000E+01    0.3715176460E-01    0.2032776178E-01    0.1514304834E-02    0.1610641103E-02    0.5281548434E-01
    0.1100000000E+02    0.4401763601E-01    0.2403941736E-01    0.1794665923E-02    0.1950038837E-02    0.6246899098E-01
    0.1300000000E+02    0.5048176798E-01    0.2752049388E-01    0.2058806005E-02    0.2283241290E-02    0.7152600208E-01
    0.1500000000E+02    0.5658063648E-01    0.3079285912E-01    0.2308199945E-02    0.2610473851E-02    0.8004299491E-01
    0.1700000000E+02    0.6234625045E-01    0.3387566757E-01    0.2544141583E-02    0.2931950547E-02    0.8806944503E-01
    0.1900000000E+02    0.6780682729E-01    0.3678577022E-01    0.2767771153E-02    0.3247874765E-02    0.9564888324E-01
    0.2100000000E+02    0.7298734855E-01    0.3953805220E-01    0.2980097840E-02    0.3558439914E-02    0.1028197664E+00
    0.2300000000E+02    0.7791002005E-01    0.4214571256E-01    0.3182018444E-02    0.3863830049E-02    0.1096161994E+00
    0.2500000000E+02    0.8259465502E-01    0.4462049760E-01    0.3374332926E-02    0.4164220434E-02    0.1160685366E+00
    0.2700000000E+02    0.8705899493E-01    0.4697289632E-01    0.3557757416E-02    0.4459778078E-02    0.1222038866E+00
    0.2900000000E+02    0.9131897964E-01    0.4921230514E-01    0.3732935167E-02    0.4750662221E-02    0.1280465371E+00
    0.3100000000E+02    0.9538897583E-01    0.5134716733E-01    0.3900445814E-02    0.5037024794E-02    0.1336183144E+00
    0.3300000000E+02    0.9928197130E-01    0.5338509153E-01    0.4060813243E-02    0.5319010838E-02    0.1389388896E+00
    0.3500000000E+02    0.1030097407E+00    0.5533295305E-01    0.4214512311E-02    0.5596758904E-02    0.1440260400E+00
    0.3700000000E+02    0.1065829877E+00    0.5719698064E-01    0.4361974600E-02    0.5870401416E-02    0.1488958726E+00
    0.3900000000E+02    0.1100114674E+00    0.5898283124E-01    0.4503593374E-02    0.6140065015E-02    0.1535630178E+00
    0.4100000000E+02    0.1133040922E+00    0.6069565457E-01    0.4639727857E-02    0.6405870879E-02    0.1580407955E+00
    0.4300000000E+02    0.1164690230E+00    0.6234014911E-01    0.4770706945E-02    0.6667935019E-02    0.1623413598E+00
    0.4500000000E+02    0.1195137498E+00    0.6392061084E-01    0.4896832438E-02    0.6926368561E-02    0.1664758248E+00
    0.4700000000E+02    0.1224451606E+00    0.6544097571E-01    0.5018381853E-02    0.7181278004E-02    0.1704543744E+00
    0.4900000000E+02    0.1252696031E+00    0.6690485693E-01    0.5135610898E-02    0.7432765465E-02    0.1742863586E+00
    0.1000000000E+02    0.4063739338E-01    0.2221389765E-01    0.1656613124E-02    0.1781128932E-02    0.5772063640E-01
    0.3000000000E+02    0.9337688431E-01    0.5029231072E-01    0.3817614913E-02    0.4894399482E-02    0.1308650082E+00
    0.5000000000E+02    0.1266435603E+00    0.6761666515E-01    0.5192679765E-02    0.7557256721E-02    0.1761501033E+00
    0.7000000000E+02    0.1497167044E+00    0.7956775378E-01    0.6155960828E-02    0.9889260998E-02    0.2074913581E+00
    0.9000000000E+02    0.1666720882E+00    0.8841832830E-01    0.6871590120E-02    0.1196938269E-01    0.2307732729E+00
    0.1100000000E+03    0.1796257753E+00    0.9530151124E-01    0.7424763817E-02    0.1385213820E-01    0.2489329735E+00
    0.1300000000E+03    0.1898029043E+00    0.1008491044E+00    0.7864835340E-02    0.1557653860E-01    0.2636099225E+00
    0.1500000000E+03    0.1979690078E+00    0.1054430821E+00    0.8222677406E-02    0.1717134350E-01    0.2757963662E+00
    0.1700000000E+03    0.2046300902E+00    0.1093290038E+00    0.8518727019E-02    0.1865829392E-01    0.2861308580E+00
    0.1900000000E+03    0.2101353523E+00    0.1126725324E+00    0.8767113449E-02    0.2005418132E-01    0.2950446323E+00
    0.2100000000E+03    0.2147341592E+00    0.1155898628E+00    0.8977946934E-02    0.2137221699E-01    0.3028404604E+00
    0.2300000000E+03    0.2186095991E+00    0.1181651465E+00    0.9158667048E-02    0.2262296480E-01    0.3097378353E+00
    0.2500000000E+03    0.2218992347E+00    0.1204609858E+00    0.9314876776E-02    0.2381499283E-01    0.3159002030E+00
    0.2700000000E+03    0.2247084579E+00    0.1225250263E+00    0.9450879543E-02    0.2495533865E-01    0.3214520793E+00
    0.2900000000E+03    0.2271193736E+00    0.1243942485E+00    0.9570036742E-02    0.2604984823E-01    0.3264901991E+00
    0.3100000000E+03    0.2291968801E+00    0.1260978481E+00    0.9675012610E-02    0.2710342709E-01    0.3310910052E+00
    0.3300000000E+03    0.2309929315E+00    0.1276592220E+00    0.9767946081E-02    0.2812022933E-01    0.3353158130E+00
    0.3500000000E+03    0.2325495906E+00    0.1290973690E+00    0.9850573987E-02    0.2910380199E-01    0.3392144569E+00
    0.3700000000E+03    0.2339012562E+00    0.1304278987E+00    0.9924321026E-02    0.3005719675E-01    0.3428279181E+00
    0.3900000000E+03    0.2350763138E+00    0.1316637719E+00    0.9990366566E-02    0.3098305724E-01    0.3461902528E+00
    0.4100000000E+03    0.2360983794E+00    0.1328158524E+00    0.1004969497E-01    0.3188368819E-01    0.3493300316E+00
    0.4300000000E+03    0.2369872461E+00    0.1338933244E+00    0.1010313403E-01    0.3276111063E-01    0.3522714286E+00
    0.4500000000E+03    0.2377596160E+00    0.1349040132E+00    0.1015138465E-01    0.3361710638E-01    0.3550350579E+00
    0.4700000000E+03    0.2384296702E+00    0.1358546334E+00    0.1019504405E-01    0.3445325423E-01    0.3576386228E+00
    0.4900000000E+03    0.2390095182E+00    0.1367509847E+00    0.1023462404E-01    0.3527095960E-01    0.3600974259E+00
    0.1000000000E+03    0.1735583988E+00    0.9205854680E-01    0.7164829348E-02    0.1293270394E-01    0.2403707088E+00
    0.3000000000E+03    0.2281962931E+00    0.1252651716E+00    0.9624152984E-02    0.2658147864E-01    0.3288411283E+00
    0.5000000000E+03    0.2392689221E+00    0.1371804104E+00    0.1025302451E-01    0.3567329423E-01    0.3612767689E+00
    0.7000000000E+03    0.2416028116E+00    0.1438556350E+00    0.1048728416E-01    0.4299697664E-01    0.3797385428E+00
    0.9000000000E+03    0.2411051837E+00    0.1482834965E+00    0.1058052820E-01    0.4935381702E-01    0.3921466819E+00
    0.1100000000E+04    0.2395026830E+00    0.1514998617E+00    0.1061064739E-01    0.5508772537E-01    0.4012637488E+00
    0.1300000000E+04    0.2374400587E+00    0.1539735429E+00    0.1060857316E-01    0.6037978279E-01    0.4083482231E+00
    0.1500000000E+04    0.2351940627E+00    0.1559524572E+00    0.1058864690E-01    0.6533809142E-01    0.4140694867E+00
    0.1700000000E+04    0.2328938516E+00    0.1575819257E+00    0.1055825119E-01    0.7003291903E-01    0.4188219828E+00
    0.1900000000E+04    0.2306025179E+00    0.1589536312E+00    0.1052148379E-01    0.7451283396E-01    0.4228557770E+00
    0.2100000000E+04    0.2283512382E+00    0.1601287065E+00    0.1048075152E-01    0.7881299859E-01    0.4263383658E+00
    0.2300000000E+04    0.2261549249E+00    0.1611497133E+00    0.1043753099E-01    0.8295980696E-01    0.4293868607E+00
    0.2500000000E+04    0.2240199043E+00    0.1620473308E+00    0.1039275951E-01    0.8697365344E-01    0.4320860180E+00
    0.2700000000E+04    0.2219478825E+00    0.1628443132E+00    0.1034704825E-01    0.9087067420E-01    0.4344989404E+00
    0.2900000000E+04    0.2199380764E+00    0.1635579441E+00    0.1030080410E-01    0.9466389052E-01    0.4366737363E+00
    0.3100000000E+04    0.2179883921E+00    0.1642016214E+00    0.1025430234E-01    0.9836398655E-01    0.4386478282E+00
    0.3300000000E+04    0.2160960897E+00    0.1647859134E+00    0.1020773129E-01    0.1019798545E+00    0.4404508355E+00
    0.3500000000E+04    0.2142581616E+00    0.1653192841E+00    0.1016122072E-01    0.1055189871E+00    0.4421065570E+00
    0.3700000000E+04    0.2124715485E+00    0.1658086030E+00    0.1011486025E-01    0.1089877658E+00    0.4436343694E+00
    0.3900000000E+04    0.2107332598E+00    0.1662595120E+00    0.1006871161E-01    0.1123916775E+00    0.4450502346E+00
    0.4100000000E+04    0.2090404387E+00    0.1666766931E+00    0.1002281690E-01    0.1157354796E+00    0.4463674394E+00
    0.4300000000E+04    0.2073903939E+00    0.1670640695E+00    0.9977204268E-02    0.1190233280E+00    0.4475971479E+00
    0.4500000000E+04    0.2057806122E+00    0.1674249559E+00    0.9931891937E-02    0.1222588777E+00    0.4487488198E+00
    0.4700000000E+04    0.2042087587E+00    0.1677621749E+00    0.9886890959E-02    0.1254453626E+00    0.4498305329E+00
    0.4900000000E+04    0.2026726721E+00    0.1680781471E+00    0.9842207242E-02    0.1285856601E+00    0.4508492324E+00
    0.1000000000E+04    0.2403887645E+00    0.1500063982E+00    0.1060096812E-01    0.5228497540E-01    0.3970181994E+00
    0.3000000000E+04    0.2189558806E+00    0.1638878099E+00    0.1027757201E-01    0.9652498601E-01    0.4376838628E+00
    0.5000000000E+04    0.2019174110E+00    0.1682288299E+00    0.9819985158E-02    0.1301393033E+00    0.4513368624E+00
    0.7000000000E+04    0.1882809964E+00    0.1705106972E+00    0.9391724112E-02    0.1592907716E+00    0.4588902379E+00
    0.9000000000E+04    0.1766992998E+00    0.1719567483E+00    0.8990691360E-02    0.1856339226E+00    0.4638870832E+00
    0.1100000000E+05    0.1665147532E+00    0.1729694021E+00    0.8612202740E-02    0.2098953312E+00    0.4675217320E+00
    0.1300000000E+05    0.1573683904E+00    0.1737244680E+00    0.8253170211E-02    0.2324684659E+00    0.4703267060E+00
    0.1500000000E+05    0.1490434068E+00    0.1743123351E+00    0.7911625775E-02    0.2535957174E+00    0.4725807920E+00
    0.1700000000E+05    0.1413979988E+00    0.1747847419E+00    0.7586248774E-02    0.2734412032E+00    0.4744462419E+00
    0.1900000000E+05    0.1343332482E+00    0.1751736617E+00    0.7276084286E-02    0.2921248281E+00    0.4760249026E+00
    0.2100000000E+05    0.1277763565E+00    0.1755000262E+00    0.6980383462E-02    0.3097399271E+00    0.4773844498E+00
    0.2300000000E+05    0.1216712702E+00    0.1757781694E+00    0.6698512851E-02    0.3263630612E+00    0.4785719002E+00
    0.2500000000E+05    0.1159731502E+00    0.1760182694E+00    0.6429902758E-02    0.3420597233E+00    0.4796211090E+00
    0.2700000000E+05    0.1106449651E+00    0.1762277711E+00    0.6174018123E-02    0.3568877749E+00    0.4805571832E+00
    0.2900000000E+05    0.1056553186E+00    0.1764122580E+00    0.5930342610E-02    0.3708995649E+00    0.4813992078E+00
    0.3100000000E+05    0.1009770207E+00    0.1765760070E+00    0.5698370533E-02    0.3841432575E+00    0.4821619969E+00
    0.3300000000E+05    0.9658612457E-01    0.1767223540E+00    0.5477603396E-02    0.3966636743E+00    0.4828572592E+00
    0.3500000000E+05    0.9246126009E-01    0.1768539431E+00    0.5267549103E-02    0.4085028357E+00    0.4834943945E+00
    0.3700000000E+05    0.8858316244E-01    0.1769728989E+00    0.5067722628E-02    0.4197003131E+00    0.4840810533E+00
    0.3900000000E+05    0.8493432999E-01    0.1770809499E+00    0.4877647413E-02    0.4302934654E+00    0.4846235384E+00
    0.4100000000E+05    0.8149877007E-01    0.1771795177E+00    0.4696857024E-02    0.4403176013E+00    0.4851270979E+00
    0.4300000000E+05    0.7826180507E-01    0.1772697834E+00    0.4524896811E-02    0.4498061007E+00    0.4855961440E+00
    0.4500000000E+05    0.7520992053E-01    0.1773527367E+00    0.4361325404E-02    0.4587905079E+00    0.4860344183E+00
    0.4700000000E+05    0.7233064308E-01    0.1774292138E+00    0.4205715969E-02    0.4673006127E+00    0.4864451182E+00
    0.4900000000E+05    0.6961243971E-01    0.1774999261E+00    0.4057657206E-02    0.4753645231E+00    0.4868309956E+00
    0.1000000000E+05    0.1714593318E+00    0.1725033645E+00    0.8798855333E-02    0.1979954109E+00    0.4658328408E+00
    0.3000000000E+05    0.1032788148E+00    0.1764964975E+00    0.5812924947E-02    0.3776145512E+00    0.4817897130E+00
    0.5000000000E+05    0.6831037272E-01    0.1775333145E+00    0.3986335224E-02    0.4792374963E+00    0.4870153833E+00
    0.7000000000E+05    0.4851995019E-01    0.1780089679E+00    0.2869541397E-02    0.5389083401E+00    0.4898403827E+00
    0.9000000000E+05    0.3656618204E-01    0.1782744405E+00    0.2163329863E-02    0.5756768287E+00    0.4916717381E+00
    0.1100000000E+06    0.2889171730E-01    0.1784379520E+00    0.1696055750E-02    0.5995651828E+00    0.4929837984E+00
    0.1300000000E+06    0.2369420878E-01    0.1785444182E+00    0.1372998835E-02    0.6158573520E+00    0.4939858134E+00
    0.1500000000E+06    0.2001169951E-01    0.1786159205E+00    0.1140833193E-02    0.6274426810E+00    0.4947855983E+00
    0.1700000000E+06    0.1730225246E-01    0.1786645895E+00    0.9683718305E-03    0.6359763503E+00    0.4954448519E+00
    0.1900000000E+06    0.1524475925E-01    0.1786976371E+00    0.8366104729E-03    0.6424512715E+00    0.4960016954E+00
    0.2100000000E+06    0.1364019817E-01    0.1787196120E+00    0.7335093412E-03    0.6474887287E+00    0.4964811038E+00
    0.2300000000E+06    0.1236025025E-01    0.1787335180E+00    0.6511679096E-03    0.6514923101E+00    0.4969002142E+00
    0.2500000000E+06    0.1131928188E-01    0.1787414136E+00    0.5842372802E-03    0.6547329676E+00    0.4972712336E+00
    0.2700000000E+06    0.1045839873E-01    0.1787447521E+00    0.5289946578E-03    0.6573979431E+00    0.4976031287E+00
    0.2900000000E+06    0.9736012546E-02    0.1787445857E+00    0.4827849498E-03    0.6596199639E+00    0.4979026585E+00
    0.3100000000E+06    0.9122064176E-02    0.1787416925E+00    0.4436731117E-03    0.6614952512E+00    0.4981750302E+00
    0.3300000000E+06    0.8594374831E-02    0.1787366582E+00    0.4102214476E-03    0.6630949650E+00    0.4984243316E+00
    0.3500000000E+06    0.8136276798E-02    0.1787299307E+00    0.3813432361E-03    0.6644726745E+00    0.4986538247E+00
    0.3700000000E+06    0.7735036354E-02    0.1787218572E+00    0.3562042602E-03    0.6656693533E+00    0.4988661497E+00
    0.3900000000E+06    0.7380780276E-02    0.1787127098E+00    0.3341551542E-03    0.6667167931E+00    0.4990634706E+00
    0.4100000000E+06    0.7065750231E-02    0.1787027042E+00    0.3146840284E-03    0.6676399830E+00    0.4992475812E+00
    0.4300000000E+06    0.6783775344E-02    0.1786920128E+00    0.2973827117E-03    0.6684587967E+00    0.4994199831E+00
    0.4500000000E+06    0.6529892812E-02    0.1786807744E+00    0.2819223137E-03    0.6691892104E+00    0.4995819450E+00
    0.4700000000E+06    0.6300070846E-02    0.1786691020E+00    0.2680352746E-03    0.6698441934E+00    0.4997345475E+00
    0.4900000000E+06    0.6091003474E-02    0.1786570874E+00    0.2555020043E-03    0.6704343692E+00    0.4998787175E+00
    0.1000000000E+06    0.3233370103E-01    0.1783653488E+00    0.1907034259E-02    0.5888249013E+00    0.4923761716E+00
    0.3000000000E+06    0.9417021955E-02    0.1787434396E+00    0.4624413066E-03    0.6605960168E+00    0.4980419613E+00
    0.5000000000E+06    0.5993379422E-02    0.1786509761E+00    0.2496849973E-03    0.6707079575E+00    0.4999478949E+00
    0.7000000000E+06    0.4662478433E-02    0.1785234061E+00    0.1733345360E-03    0.6742745664E+00    0.5010361934E+00
    0.9000000000E+06    0.3939260343E-02    0.1783994151E+00    0.1351007456E-03    0.6760348459E+00    0.5017786455E+00
    0.1100000000E+07    0.3474897848E-02    0.1782849696E+00    0.1122871696E-03    0.6770700411E+00    0.5023339553E+00
    0.1300000000E+07    0.3146006892E-02    0.1781802710E+00    0.9712594921E-04    0.6777479067E+00    0.5027734339E+00
    0.1500000000E+07    0.2897717765E-02    0.1780843351E+00    0.8629180395E-04    0.6782251471E+00    0.5031348110E+00
    0.1700000000E+07    0.2701753391E-02    0.1779960304E+00    0.7813692797E-04    0.6785790864E+00    0.5034402945E+00
    0.1900000000E+07    0.2541960616E-02    0.1779143309E+00    0.7175554259E-04    0.6788520452E+00    0.5037039820E+00
    0.2100000000E+07    0.2408384269E-02    0.1778383622E+00    0.6660963081E-04    0.6790690466E+00    0.5039353428E+00
    0.2300000000E+07    0.2294521343E-02    0.1777673938E+00    0.6235980515E-04    0.6792457993E+00    0.5041410228E+00
    0.2500000000E+07    0.2195924059E-02    0.1777008164E+00    0.5878143695E-04    0.6793926472E+00    0.5043258533E+00
    0.2700000000E+07    0.2109435085E-02    0.1776381208E+00    0.5571989945E-04    0.6795166729E+00    0.5044934493E+00
    0.2900000000E+07    0.2032743348E-02    0.1775788787E+00    0.5306521868E-04    0.6796228857E+00    0.5046465810E+00
    0.3100000000E+07    0.1964113165E-02    0.1775227273E+00    0.5073699083E-04    0.6797149272E+00    0.5047874155E+00
    0.3300000000E+07    0.1902212212E-02    0.1774693576E+00    0.4867502751E-04    0.6797955077E+00    0.5049176774E+00
    0.3500000000E+07    0.1845998400E-02    0.1774185038E+00    0.4683334419E-04    0.6798666857E+00    0.5050387604E+00
    0.3700000000E+07    0.1794643248E-02    0.1773699365E+00    0.4517617678E-04    0.6799300525E+00    0.5051518059E+00
    0.3900000000E+07    0.1747478616E-02    0.1773234561E+00    0.4367527046E-04    0.6799868579E+00    0.5052577595E+00
    0.4100000000E+07    0.1703958827E-02    0.1772788880E+00    0.4230799058E-04    0.6800380969E+00    0.5053574130E+00
    0.4300000000E+07    0.1663633182E-02    0.1772360785E+00    0.4105597840E-04    0.6800845720E+00    0.5054514355E+00
    0.4500000000E+07    0.1626125674E-02    0.1771948920E+00    0.3990417668E-04    0.6801269372E+00    0.5055403973E+00
    0.4700000000E+07    0.1591119750E-02    0.1771552077E+00    0.3884011126E-04    0.6801657312E+00    0.5056247879E+00
    0.4900000000E+07    0.1558346720E-02    0.1771169181E+00    0.3785335345E-04    0.6802014015E+00    0.5057050310E+00
    0.1000000000E+07    0.3684899186E-02    0.1783409355E+00    0.1224131218E-03    0.6766124255E+00    0.5020741056E+00
    0.3000000000E+07    0.1997511740E-02    0.1775504371E+00    0.5186445094E-04    0.6796704905E+00    0.5047184188E+00
    0.5000000000E+07    0.1542724419E-02    0.1770982658E+00    0.3738616276E-04    0.6802181850E+00    0.5057437142E+00
    0.7000000000E+07    0.1305893446E-02    0.1767795630E+00    0.3054567302E-04    0.6804555499E+00    0.5063683404E+00
    0.9000000000E+07    0.1154264848E-02    0.1765325825E+00    0.2639090230E-04    0.6805912395E+00    0.5068129842E+00
    0.1100000000E+08    0.1046394522E-02    0.1763305860E+00    0.2353391778E-04    0.6806804019E+00    0.5071562167E+00
    0.1300000000E+08    0.9645350895E-03    0.1761595180E+00    0.2141771536E-04    0.6807441389E+00    0.5074347229E+00
    0.1500000000E+08    0.8996339891E-03    0.1760110560E+00    0.1977051596E-04    0.6807923458E+00    0.5076684904E+00
    0.1700000000E+08    0.8465206858E-03    0.1758798562E+00    0.1844208278E-04    0.6808303109E+00    0.5078695686E+00
    0.1900000000E+08    0.8019967518E-03    0.1757622794E+00    0.1734180476E-04    0.6808611322E+00    0.5080457623E+00
    0.2100000000E+08    0.7639624280E-03    0.1756557333E+00    0.1641139253E-04    0.6808867524E+00    0.5082024061E+00
    0.2300000000E+08    0.7309741013E-03    0.1755583049E+00    0.1561143740E-04    0.6809084557E+00    0.5083433023E+00
    0.2500000000E+08    0.7020019432E-03    0.1754685416E+00    0.1491422081E-04    0.6809271276E+00    0.5084712533E+00
    0.2700000000E+08    0.6762887650E-03    0.1753853141E+00    0.1429960798E-04    0.6809433995E+00    0.5085883821E+00
