  Pressure (Pa) 2mC6-400 (mol/kg) 3mC6-400 (mol/kg) 33mC5-400 (mol/kg) 23mC5-400 (mol/kg) C7-400 (mol/kg)
    0.1000000000E+01    0.4746229949E-02    0.3669194973E-02    0.6441191389E-04    0.3722389611E-03    0.3402378707E-02
    0.3000000000E+01    0.1380394321E-01    0.1066383370E-01    0.1873716284E-03    0.1105201239E-02    0.9889793856E-02
    0.5000000000E+01    0.2232638742E-01    0.1723655189E-01    0.3031121643E-03    0.1823324210E-02    0.1598765688E-01
    0.7000000000E+01    0.3036111738E-01    0.2342628372E-01    0.4122757367E-03    0.2527195801E-02    0.2173186477E-01
    0.9000000000E+01    0.3795004256E-01    0.2926726226E-01    0.5154281941E-03    0.3217371867E-02    0.2715398324E-01
    0.1100000000E+02    0.4513025392E-01    0.3478971076E-01    0.6130702171E-03    0.3894378384E-02    0.3228188336E-01
    0.1300000000E+02    0.5193470849E-01    0.4002041527E-01    0.7056465896E-03    0.4558713470E-02    0.3714026889E-01
    0.1500000000E+02    0.5839279962E-01    0.4498320174E-01    0.7935539201E-03    0.5210849234E-02    0.4175111577E-01
    0.1700000000E+02    0.6453083464E-01    0.4969933565E-01    0.8771471072E-03    0.5851233484E-02    0.4613404015E-01
    0.1900000000E+02    0.7037243694E-01    0.5418785851E-01    0.9567447823E-03    0.6480291301E-02    0.5030660839E-01
    0.2100000000E+02    0.7593888633E-01    0.5846587255E-01    0.1032633915E-02    0.7098426486E-02    0.5428459928E-01
    0.2300000000E+02    0.8124940827E-01    0.6254878265E-01    0.1105073726E-02    0.7706022906E-02    0.5808222701E-01
    0.2500000000E+02    0.8632142095E-01    0.6645050296E-01    0.1174299030E-02    0.8303445727E-02    0.6171233144E-01
    0.2700000000E+02    0.9117074712E-01    0.7018363387E-01    0.1240523101E-02    0.8891042565E-02    0.6518654122E-01
    0.2900000000E+02    0.9581179650E-01    0.7375961441E-01    0.1303940136E-02    0.9469144545E-02    0.6851541417E-01
    0.3100000000E+02    0.1002577234E+00    0.7718885376E-01    0.1364727390E-02    0.1003806729E-01    0.7170855851E-01
    0.3300000000E+02    0.1045205636E+00    0.8048084534E-01    0.1423047021E-02    0.1059811184E-01    0.7477473797E-01
    0.3500000000E+02    0.1086113530E+00    0.8364426596E-01    0.1479047702E-02    0.1114956549E-01    0.7772196319E-01
    0.3700000000E+02    0.1125402321E+00    0.8668706237E-01    0.1532866022E-02    0.1169270259E-01    0.8055757146E-01
    0.3900000000E+02    0.1163165366E+00    0.8961652694E-01    0.1584627719E-02    0.1222778528E-01    0.8328829651E-01
    0.4100000000E+02    0.1199488780E+00    0.9243936415E-01    0.1634448761E-02    0.1275506417E-01    0.8592032978E-01
    0.4300000000E+02    0.1234452133E+00    0.9516174910E-01    0.1682436297E-02    0.1327477901E-01    0.8845937435E-01
    0.4500000000E+02    0.1268129081E+00    0.9778937909E-01    0.1728689498E-02    0.1378715924E-01    0.9091069252E-01
    0.4700000000E+02    0.1300587916E+00    0.1003275194E+00    0.1773300306E-02    0.1429242456E-01    0.9327914794E-01
    0.4900000000E+02    0.1331892054E+00    0.1027810436E+00    0.1816354094E-02    0.1479078550E-01    0.9556924298E-01
    0.1000000000E+02    0.4158908795E-01    0.3206655409E-01    0.5649089981E-03    0.3557489556E-02    0.2975309791E-01
    0.3000000000E+02    0.9805837329E-01    0.7549196316E-01    0.1334652017E-02    0.9754734177E-02    0.7012838602E-01
    0.5000000000E+02    0.1347129705E+00    0.1039774996E+00    0.1837322134E-02    0.1503744021E-01    0.9668622180E-01
    0.7000000000E+02    0.1603603395E+00    0.1244034076E+00    0.2191551387E-02    0.1965295253E-01    0.1157797034E+00
    0.9000000000E+02    0.1792003889E+00    0.1399445971E+00    0.2453864856E-02    0.2376336701E-01    0.1303432408E+00
    0.1100000000E+03    0.1935181681E+00    0.1522783833E+00    0.2655009375E-02    0.2747985985E-01    0.1419284921E+00
    0.1300000000E+03    0.2046739229E+00    0.1623790951E+00    0.2813291832E-02    0.3088155127E-01    0.1514375832E+00
    0.1500000000E+03    0.2135319848E+00    0.1708540314E+00    0.2940351149E-02    0.3402649562E-01    0.1594332898E+00
    0.1700000000E+03    0.2206694612E+00    0.1781029238E+00    0.3043964768E-02    0.3695839977E-01    0.1662863477E+00
    0.1900000000E+03    0.2264869817E+00    0.1844005612E+00    0.3129537250E-02    0.3971089868E-01    0.1722518224E+00
    0.2100000000E+03    0.2312715505E+00    0.1899426582E+00    0.3200944926E-02    0.4231037111E-01    0.1775115272E+00
    0.2300000000E+03    0.2352341842E+00    0.1948727789E+00    0.3261041629E-02    0.4477784927E-01    0.1821989347E+00
    0.2500000000E+03    0.2385334565E+00    0.1992988871E+00    0.3311975104E-02    0.4713034763E-01    0.1864144978E+00
    0.2700000000E+03    0.2412907745E+00    0.2033039215E+00    0.3355392334E-02    0.4938180853E-01    0.1902354446E+00
    0.2900000000E+03    0.2436005999E+00    0.2069527809E+00    0.3392576965E-02    0.5154378867E-01    0.1937222505E+00
    0.3100000000E+03    0.2455374718E+00    0.2102970715E+00    0.3424543764E-02    0.5362596640E-01    0.1969230403E+00
    0.3300000000E+03    0.2471609432E+00    0.2133784147E+00    0.3452105046E-02    0.5563652262E-01    0.1998766560E+00
    0.3500000000E+03    0.2485191215E+00    0.2162308037E+00    0.3475918348E-02    0.5758243092E-01    0.2026148435E+00
    0.3700000000E+03    0.2496512541E+00    0.2188823151E+00    0.3496521255E-02    0.5946968146E-01    0.2051638415E+00
    0.3900000000E+03    0.2505896458E+00    0.2213563728E+00    0.3514357255E-02    0.6130345582E-01    0.2075455564E+00
    0.4100000000E+03    0.2513611018E+00    0.2236726986E+00    0.3529795196E-02    0.6308826509E-01    0.2097784445E+00
    0.4300000000E+03    0.2519880270E+00    0.2258480339E+00    0.3543144139E-02    0.6482805985E-01    0.2118781838E+00
    0.4500000000E+03    0.2524892743E+00    0.2278966982E+00    0.3554664808E-02    0.6652631884E-01    0.2138581931E+00
    0.4700000000E+03    0.2528808046E+00    0.2298310234E+00    0.3564578523E-02    0.6818612081E-01    0.2157300363E+00
    0.4900000000E+03    0.2531762074E+00    0.2316616973E+00    0.3573074243E-02    0.6981020333E-01    0.2175037417E+00
    0.1000000000E+03    0.1868244391E+00    0.1464402249E+00    0.2560735897E-02    0.2566531313E-01    0.1364413288E+00
    0.3000000000E+03    0.2446116288E+00    0.2086601933E+00    0.3409157712E-02    0.5259431021E-01    0.1953557814E+00
    0.5000000000E+03    0.2532915624E+00    0.2325411237E+00    0.3576841954E-02    0.7060962411E-01    0.2183565706E+00
    0.7000000000E+03    0.2526449005E+00    0.2464279095E+00    0.3607108542E-02    0.8519900990E-01    0.2318965395E+00
    0.9000000000E+03    0.2492215311E+00    0.2558960086E+00    0.3592173428E-02    0.9791689528E-01    0.2412201025E+00
    0.1100000000E+04    0.2448631346E+00    0.2629266674E+00    0.3559090989E-02    0.1094248634E+00    0.2482022859E+00
    0.1300000000E+04    0.2402243228E+00    0.2684343737E+00    0.3518064944E-02    0.1200689902E+00    0.2537130531E+00
    0.1500000000E+04    0.2355676876E+00    0.2729107633E+00    0.3473549655E-02    0.1300546765E+00    0.2582222483E+00
    0.1700000000E+04    0.2310040636E+00    0.2766482018E+00    0.3427678282E-02    0.1395147003E+00    0.2620104316E+00
    0.1900000000E+04    0.2265793169E+00    0.2798335341E+00    0.3381534394E-02    0.1485403449E+00    0.2652575804E+00
    0.2100000000E+04    0.2223097026E+00    0.2825928066E+00    0.3335687161E-02    0.1571973513E+00    0.2680855317E+00
    0.2300000000E+04    0.2181975460E+00    0.2850147157E+00    0.3290438423E-02    0.1655348162E+00    0.2705802990E+00
    0.2500000000E+04    0.2142386275E+00    0.2871638247E+00    0.3245945045E-02    0.1735904912E+00    0.2728046840E+00
    0.2700000000E+04    0.2104258076E+00    0.2890884550E+00    0.3202282893E-02    0.1813941093E+00    0.2748058257E+00
    0.2900000000E+04    0.2067508484E+00    0.2908256225E+00    0.3159481755E-02    0.1889695643E+00    0.2766199329E+00
    0.3100000000E+04    0.2032053334E+00    0.2924042473E+00    0.3117545043E-02    0.1963363898E+00    0.2782753695E+00
    0.3300000000E+04    0.1997811228E+00    0.2938473113E+00    0.3076461203E-02    0.2035107943E+00    0.2797947316E+00
    0.3500000000E+04    0.1964705648E+00    0.2951733484E+00    0.3036210442E-02    0.2105064042E+00    0.2811962859E+00
    0.3700000000E+04    0.1932665770E+00    0.2963975001E+00    0.2996768743E-02    0.2173348085E+00    0.2824949902E+00
    0.3900000000E+04    0.1901626601E+00    0.2975322790E+00    0.2958110269E-02    0.2240059674E+00    0.2837032330E+00
    0.4100000000E+04    0.1871528768E+00    0.2985881312E+00    0.2920208799E-02    0.2305285217E+00    0.2848313787E+00
    0.4300000000E+04    0.1842318141E+00    0.2995738575E+00    0.2883038570E-02    0.2369100337E+00    0.2858881783E+00
    0.4500000000E+04    0.1813945390E+00    0.3004969344E+00    0.2846574749E-02    0.2431571740E+00    0.2868810806E+00
    0.4700000000E+04    0.1786365535E+00    0.3013637606E+00    0.2810793679E-02    0.2492758708E+00    0.2878164736E+00
    0.4900000000E+04    0.1759537508E+00    0.3021798504E+00    0.2775672990E-02    0.2552714288E+00    0.2886998726E+00
    0.1000000000E+04    0.2471043200E+00    0.2596447427E+00    0.3577060425E-02    0.1037959618E+00    0.2449361525E+00
    0.3000000000E+04    0.2049624289E+00    0.2916331972E+00    0.3138405813E-02    0.1926779746E+00    0.2774659569E+00
    0.5000000000E+04    0.1746393565E+00    0.3025703885E+00    0.2758353656E-02    0.2582245421E+00    0.2891235967E+00
    0.7000000000E+04    0.1515366076E+00    0.3086026999E+00    0.2442168205E-02    0.3117777316E+00    0.2957585332E+00
    0.9000000000E+04    0.1331090624E+00    0.3125601859E+00    0.2174566948E-02    0.3565950826E+00    0.3002210038E+00
    0.1100000000E+05    0.1180604638E+00    0.3154098234E+00    0.1946288390E-02    0.3944338457E+00    0.3035020968E+00
    0.1300000000E+05    0.1055953686E+00    0.3175856601E+00    0.1750719216E-02    0.4265333765E+00    0.3060532742E+00
    0.1500000000E+05    0.9516469968E-01    0.3193156571E+00    0.1582613749E-02    0.4538689026E+00    0.3081147704E+00
    0.1700000000E+05    0.8636345793E-01    0.3207326255E+00    0.1437631382E-02    0.4772375942E+00    0.3098282236E+00
    0.1900000000E+05    0.7888186409E-01    0.3219198966E+00    0.1312136724E-02    0.4972978179E+00    0.3112834753E+00
    0.2100000000E+05    0.7247806389E-01    0.3229327585E+00    0.1203082552E-02    0.5145938113E+00    0.3125407278E+00
    0.2300000000E+05    0.6696084356E-01    0.3238095301E+00    0.1107920477E-02    0.5295748572E+00    0.3136420851E+00
    0.2500000000E+05    0.6217769733E-01    0.3245777187E+00    0.1024524098E-02    0.5426114367E+00    0.3146180227E+00
    0.2700000000E+05    0.5800614224E-01    0.3252576487E+00    0.9511213378E-03    0.5540090121E+00    0.3154912288E+00
    0.2900000000E+05    0.5434720160E-01    0.3258647049E+00    0.8862354874E-03    0.5640196781E+00    0.3162789972E+00
    0.3100000000E+05    0.5112043022E-01    0.3264107752E+00    0.8286347279E-03    0.5728518810E+00    0.3169947765E+00
    0.3300000000E+05    0.4826007685E-01    0.3269052092E+00    0.7772895903E-03    0.5806784318E+00    0.3176492070E+00
    0.3500000000E+05    0.4571210314E-01    0.3273554741E+00    0.7313375306E-03    0.5876430569E+00    0.3182508339E+00
    0.3700000000E+05    0.4343185531E-01    0.3277676154E+00    0.6900536788E-03    0.5938657225E+00    0.3188066115E+00
    0.3900000000E+05    0.4138223689E-01    0.3281465860E+00    0.6528268179E-03    0.5994469486E+00    0.3193222657E+00
    0.4100000000E+05    0.3953226822E-01    0.3284964873E+00    0.6191397190E-03    0.6044712987E+00    0.3198025602E+00
    0.4300000000E+05    0.3785594554E-01    0.3288207487E+00    0.5885530640E-03    0.6090102035E+00    0.3202514958E+00
    0.4500000000E+05    0.3633133320E-01    0.3291222619E+00    0.5606923009E-03    0.6131242483E+00    0.3206724612E+00
    0.4700000000E+05    0.3493983810E-01    0.3294034849E+00    0.5352368864E-03    0.6168650293E+00    0.3210683484E+00
    0.4900000000E+05    0.3366562692E-01    0.3296665219E+00    0.5119114663E-03    0.6202766640E+00    0.3214416434E+00
    0.1000000000E+05    0.1252197129E+00    0.3140894222E+00    0.2055966485E-02    0.3763015146E+00    0.3019739263E+00
    0.3000000000E+05    0.5268421004E-01    0.3261447283E+00    0.8565931080E-03    0.5685715349E+00    0.3166451643E+00
    0.5000000000E+05    0.3306819186E-01    0.3297917972E+00    0.5009720015E-03    0.6218711013E+00    0.3216205023E+00
    0.7000000000E+05    0.2484522932E-01    0.3316745624E+00    0.3508663786E-03    0.6433107464E+00    0.3244081819E+00
    0.9000000000E+05    0.2042442626E-01    0.3328509559E+00    0.2716593571E-03    0.6541721043E+00    0.3262755375E+00
    0.1100000000E+06    0.1766407214E-01    0.3336645600E+00    0.2235784645E-03    0.6605259507E+00    0.3276497216E+00
    0.1300000000E+06    0.1576500466E-01    0.3342641925E+00    0.1915215547E-03    0.6646184892E+00    0.3287217173E+00
    0.1500000000E+06    0.1436832729E-01    0.3347258599E+00    0.1686794479E-03    0.6674409185E+00    0.3295919130E+00
    0.1700000000E+06    0.1329049064E-01    0.3350928279E+00    0.1515823874E-03    0.6694887937E+00    0.3303189958E+00
    0.1900000000E+06    0.1242819572E-01    0.3353917055E+00    0.1382937274E-03    0.6710339100E+00    0.3309399692E+00
    0.2100000000E+06    0.1171889620E-01    0.3356398364E+00    0.1276538929E-03    0.6722363499E+00    0.3314795262E+00
    0.2300000000E+06    0.1112247727E-01    0.3358490499E+00    0.1189287966E-03    0.6731958783E+00    0.3319548890E+00
    0.2500000000E+06    0.1061198988E-01    0.3360277135E+00    0.1116322019E-03    0.6739775850E+00    0.3323785023E+00
    0.2700000000E+06    0.1016862706E-01    0.3361819259E+00    0.1054297531E-03    0.6746255778E+00    0.3327596240E+00
    0.2900000000E+06    0.9778840342E-02    0.3363162449E+00    0.1000841831E-03    0.6751707139E+00    0.3331053100E+00
    0.3100000000E+06    0.9432603648E-02    0.3364341499E+00    0.9542254632E-04    0.6756351748E+00    0.3334210502E+00
    0.3300000000E+06    0.9122325001E-02    0.3365383461E+00    0.9131583601E-04    0.6760352831E+00    0.3337111920E+00
    0.3500000000E+06    0.8842140191E-02    0.3366309705E+00    0.8766586817E-04    0.6763832972E+00    0.3339792317E+00
    0.3700000000E+06    0.8587440390E-02    0.3367137351E+00    0.8439658792E-04    0.6766885894E+00    0.3342280186E+00
    0.3900000000E+06    0.8354547801E-02    0.3367880281E+00    0.8144815631E-04    0.6769584400E+00    0.3344599033E+00
    0.4100000000E+06    0.8140487734E-02    0.3368549882E+00    0.7877283506E-04    0.6771985845E+00    0.3346768449E+00
    0.4300000000E+06    0.7942825102E-02    0.3369155579E+00    0.7633206331E-04    0.6774135990E+00    0.3348804923E+00
    0.4500000000E+06    0.7759544959E-02    0.3369705251E+00    0.7409434291E-04    0.6776071762E+00    0.3350722451E+00
    0.4700000000E+06    0.7588963764E-02    0.3370205533E+00    0.7203368309E-04    0.6777823275E+00    0.3352533003E+00
    0.4900000000E+06    0.7429662468E-02    0.3370662054E+00    0.7012843930E-04    0.6779415310E+00    0.3354246892E+00
    0.1000000000E+06    0.1890227846E-01    0.3332913298E+00    0.2449650673E-03    0.6577274220E+00    0.3270092855E+00
    0.3000000000E+06    0.9600800096E-02    0.3363770647E+00    0.9767678526E-04    0.6754118961E+00    0.3332666287E+00
    0.5000000000E+06    0.7353857817E-02    0.3370875435E+00    0.6922830218E-04    0.6780158093E+00    0.3355070430E+00
    0.7000000000E+06    0.6213798602E-02    0.3373712724E+00    0.5618964721E-04    0.6790186828E+00    0.3368122547E+00
    0.9000000000E+06    0.5491063206E-02    0.3375029526E+00    0.4839489968E-04    0.6795458934E+00    0.3377127066E+00
    0.1100000000E+07    0.4979241327E-02    0.3375646104E+00    0.4308483080E-04    0.6798704309E+00    0.3383912944E+00
    0.1300000000E+07    0.4591731080E-02    0.3375892388E+00    0.3917506383E-04    0.6800903013E+00    0.3389313556E+00
    0.1500000000E+07    0.4284868554E-02    0.3375925468E+00    0.3614409941E-04    0.6802491734E+00    0.3393774028E+00
    0.1700000000E+07    0.4033893508E-02    0.3375828820E+00    0.3370666043E-04    0.6803694074E+00    0.3397558224E+00
    0.1900000000E+07    0.3823562093E-02    0.3375650357E+00    0.3169203554E-04    0.6804636271E+00    0.3400834580E+00
    0.2100000000E+07    0.3643899241E-02    0.3375419189E+00    0.2999107009E-04    0.6805394953E+00    0.3403716752E+00
    0.2300000000E+07    0.3488062649E-02    0.3375153788E+00    0.2853031733E-04    0.6806019318E+00    0.3406284820E+00
    0.2500000000E+07    0.3351179253E-02    0.3374866272E+00    0.2725831513E-04    0.6806542399E+00    0.3408597193E+00
    0.2700000000E+07    0.3229670388E-02    0.3374564805E+00    0.2613779796E-04    0.6806987200E+00    0.3410697700E+00
    0.2900000000E+07    0.3120840010E-02    0.3374254997E+00    0.2514103298E-04    0.6807370233E+00    0.3412620019E+00
    0.3100000000E+07    0.3022612670E-02    0.3373940768E+00    0.2424690049E-04    0.6807703661E+00    0.3414390554E+00
    0.3300000000E+07    0.2933360824E-02    0.3373624886E+00    0.2343899717E-04    0.6807996639E+00    0.3416030363E+00
    0.3500000000E+07    0.2851787528E-02    0.3373309321E+00    0.2270436401E-04    0.6808256195E+00    0.3417556497E+00
    0.3700000000E+07    0.2776844666E-02    0.3372995479E+00    0.2203260977E-04    0.6808487811E+00    0.3418982944E+00
    0.3900000000E+07    0.2707674648E-02    0.3372684365E+00    0.2141529234E-04    0.6808695827E+00    0.3420321312E+00
    0.4100000000E+07    0.2643567998E-02    0.3372376688E+00    0.2084547292E-04    0.6808883726E+00    0.3421581333E+00
    0.4300000000E+07    0.2583931949E-02    0.3372072946E+00    0.2031738876E-04    0.6809054335E+00    0.3422771247E+00
    0.4500000000E+07    0.2528266823E-02    0.3371773480E+00    0.1982620893E-04    0.6809209970E+00    0.3423898082E+00
    0.4700000000E+07    0.2476148013E-02    0.3371478510E+00    0.1936784931E-04    0.6809352552E+00    0.3424967881E+00
    0.4900000000E+07    0.2427212046E-02    0.3371188174E+00    0.1893883056E-04    0.6809483684E+00    0.3425985879E+00
    0.1000000000E+07    0.5215674812E-02    0.3375398731E+00    0.4551673696E-04    0.6797254248E+00    0.3380732231E+00
    0.3000000000E+07    0.3070511593E-02    0.3374098240E+00    0.2468225615E-04    0.6807542517E+00    0.3413522836E+00
    0.5000000000E+07    0.2403838034E-02    0.3371044766E+00    0.1873437441E-04    0.6809545386E+00    0.3426476900E+00
    0.7000000000E+07    0.2046055528E-02    0.3368417171E+00    0.1564262087E-04    0.6810416108E+00    0.3434429241E+00
    0.9000000000E+07    0.1814007333E-02    0.3366187321E+00    0.1367645459E-04    0.6810908916E+00    0.3440116492E+00
    0.1100000000E+08    0.1647738545E-02    0.3364262335E+00    0.1228751818E-04    0.6811228470E+00    0.3444520908E+00
    0.1300000000E+08    0.1520986151E-02    0.3362571270E+00    0.1124039038E-04    0.6811453741E+00    0.3448103516E+00
    0.1500000000E+08    0.1420173995E-02    0.3361063761E+00    0.1041513010E-04    0.6811621811E+00    0.3451116472E+00
    0.1700000000E+08    0.1337479388E-02    0.3359703668E+00    0.9743406428E-05    0.6811752451E+00    0.3453712245E+00
    0.1900000000E+08    0.1268033143E-02    0.3358464425E+00    0.9183081167E-05    0.6811857200E+00    0.3455989832E+00
    0.2100000000E+08    0.1208623821E-02    0.3357326010E+00    0.8706580544E-05    0.6811943255E+00    0.3458017042E+00
    0.2300000000E+08    0.1157035598E-02    0.3356272989E+00    0.8295008789E-05    0.6812015350E+00    0.3459842288E+00
    0.2500000000E+08    0.1111683258E-02    0.3355293225E+00    0.7934929015E-05    0.6812076728E+00    0.3461501307E+00
    0.2700000000E+08    0.1071398547E-02    0.3354377004E+00    0.7616491922E-05    0.6812129689E+00    0.3463021208E+00
