  Pressure (Pa) 2mC6-400 (mol/kg) 3mC6-400 (mol/kg) 33mC5-400 (mol/kg) 23mC5-400 (mol/kg) C7-400 (mol/kg)
    0.1000000000E+01    0.4728831938E-02    0.1565534038E-02    0.1283573431E-03    0.3722145351E-03    0.8468385288E-02
    0.3000000000E+01    0.1365913888E-01    0.4511864735E-02    0.3708627682E-03    0.1104987356E-02    0.2441037090E-01
    0.5000000000E+01    0.2195333109E-01    0.7236080148E-02    0.5962323995E-03    0.1822745923E-02    0.3915611429E-01
    0.7000000000E+01    0.2968114575E-01    0.9763343900E-02    0.8063486528E-03    0.2526092108E-02    0.5284094317E-01
    0.9000000000E+01    0.3690213339E-01    0.1211512265E-01    0.1002818368E-02    0.3215594562E-02    0.6558031787E-01
    0.1100000000E+02    0.4366747589E-01    0.1430984288E-01    0.1187022068E-02    0.3891791022E-02    0.7747335921E-01
    0.1300000000E+02    0.5002142709E-01    0.1636341230E-01    0.1360152976E-02    0.4555190419E-02    0.8860564962E-01
    0.1500000000E+02    0.5600246448E-01    0.1828963742E-01    0.1523248211E-02    0.5206274815E-02    0.9905147635E-01
    0.1700000000E+02    0.6164421741E-01    0.2010056059E-01    0.1677213910E-02    0.5845501188E-02    0.1088756425E+00
    0.1900000000E+02    0.6697622082E-01    0.2180673411E-01    0.1822845633E-02    0.6473303068E-02    0.1181349396E+00
    0.2100000000E+02    0.7202453179E-01    0.2341744471E-01    0.1960845041E-02    0.7090092055E-02    0.1268793544E+00
    0.2300000000E+02    0.7681223704E-01    0.2494089855E-01    0.2091833626E-02    0.7696259214E-02    0.1351530624E+00
    0.2500000000E+02    0.8135987342E-01    0.2638437464E-01    0.2216364083E-02    0.8292176358E-02    0.1429952530E+00
    0.2700000000E+02    0.8568577835E-01    0.2775435281E-01    0.2334929780E-02    0.8878197253E-02    0.1504408171E+00
    0.2900000000E+02    0.8980638340E-01    0.2905662100E-01    0.2447972698E-02    0.9454658709E-02    0.1575209239E+00
    0.3100000000E+02    0.9373646165E-01    0.3029636568E-01    0.2555890109E-02    0.1002188161E-01    0.1642635066E+00
    0.3300000000E+02    0.9748933702E-01    0.3147824845E-01    0.2659040234E-02    0.1058017187E-01    0.1706936750E+00
    0.3500000000E+02    0.1010770624E+00    0.3260647114E-01    0.2757747051E-02    0.1112982131E-01    0.1768340648E+00
    0.3700000000E+02    0.1045105716E+00    0.3368483149E-01    0.2852304402E-02    0.1167110845E-01    0.1827051372E+00
    0.3900000000E+02    0.1077998100E+00    0.3471677091E-01    0.2942979510E-02    0.1220429932E-01    0.1883254359E+00
    0.4100000000E+02    0.1109538469E+00    0.3570541551E-01    0.3030016021E-02    0.1272964815E-01    0.1937118076E+00
    0.4300000000E+02    0.1139809728E+00    0.3665361172E-01    0.3113636616E-02    0.1324739800E-01    0.1988795937E+00
    0.4500000000E+02    0.1168887833E+00    0.3756395706E-01    0.3194045288E-02    0.1375778144E-01    0.2038427954E+00
    0.4700000000E+02    0.1196842532E+00    0.3843882695E-01    0.3271429326E-02    0.1426102106E-01    0.2086142185E+00
    0.4900000000E+02    0.1223738000E+00    0.3928039817E-01    0.3345961036E-02    0.1475733006E-01    0.2132055993E+00
    0.1000000000E+02    0.4033884676E-01    0.1323106715E-01    0.1096374903E-02    0.3555323581E-02    0.7162699267E-01
    0.3000000000E+02    0.9179437389E-01    0.2968400594E-01    0.2502548848E-02    0.9739405520E-02    0.1609327746E+00
    0.5000000000E+02    0.1236807194E+00    0.3968932778E-01    0.3382207396E-02    0.1500294975E-01    0.2154371763E+00
    0.7000000000E+02    0.1454763017E+00    0.4652758771E-01    0.3990084513E-02    0.1959690291E-01    0.2528162196E+00
    0.9000000000E+02    0.1612764969E+00    0.5155803383E-01    0.4436101613E-02    0.2368509039E-01    0.2804026968E+00
    0.1100000000E+03    0.1731859560E+00    0.5545001937E-01    0.4776740310E-02    0.2737953511E-01    0.3018118689E+00
    0.1300000000E+03    0.1824142547E+00    0.5857352969E-01    0.5044483751E-02    0.3075976606E-01    0.3190443762E+00
    0.1500000000E+03    0.1897127167E+00    0.6115080298E-01    0.5259534511E-02    0.3388402149E-01    0.3333032933E+00
    0.1700000000E+03    0.1955753961E+00    0.6332398715E-01    0.5435200041E-02    0.3679607440E-01    0.3453589810E+00
    0.1900000000E+03    0.2003416507E+00    0.6518858838E-01    0.5580639586E-02    0.3952956405E-01    0.3557295910E+00
    0.2100000000E+03    0.2042527567E+00    0.6681136670E-01    0.5702380062E-02    0.4211084167E-01    0.3647777041E+00
    0.2300000000E+03    0.2074851263E+00    0.6824053190E-01    0.5805205615E-02    0.4456089655E-01    0.3727654275E+00
    0.2500000000E+03    0.2101707763E+00    0.6951185867E-01    0.5892706003E-02    0.4689669386E-01    0.3798874619E+00
    0.2700000000E+03    0.2124104575E+00    0.7065251446E-01    0.5967628570E-02    0.4913212521E-01    0.3862918138E+00
    0.2900000000E+03    0.2142823625E+00    0.7168354384E-01    0.6032111884E-02    0.5127869787E-01    0.3920932471E+00
    0.3100000000E+03    0.2158480685E+00    0.7262153169E-01    0.6087845323E-02    0.5334604337E-01    0.3973822941E+00
    0.3300000000E+03    0.2171566914E+00    0.7347974700E-01    0.6136180771E-02    0.5534229905E-01    0.4022314564E+00
    0.3500000000E+03    0.2182478538E+00    0.7426894825E-01    0.6178212490E-02    0.5727439837E-01    0.4066995743E+00
    0.3700000000E+03    0.2191538435E+00    0.7499796236E-01    0.6214835303E-02    0.5914829477E-01    0.4108349690E+00
    0.3900000000E+03    0.2199012107E+00    0.7567410870E-01    0.6246787687E-02    0.6096913637E-01    0.4146777458E+00
    0.4100000000E+03    0.2205119669E+00    0.7630351471E-01    0.6274684171E-02    0.6274140375E-01    0.4182615097E+00
    0.4300000000E+03    0.2210044963E+00    0.7689135453E-01    0.6299040012E-02    0.6446901982E-01    0.4216146625E+00
    0.4500000000E+03    0.2213942583E+00    0.7744203164E-01    0.6320290215E-02    0.6615543812E-01    0.4247613972E+00
    0.4700000000E+03    0.2216943329E+00    0.7795932061E-01    0.6338804364E-02    0.6780371447E-01    0.4277224694E+00
    0.4900000000E+03    0.2219158506E+00    0.7844647821E-01    0.6354898294E-02    0.6941656559E-01    0.4305158027E+00
    0.1000000000E+03    0.1676278018E+00    0.5361857687E-01    0.4617183352E-02    0.2557595749E-01    0.2917294034E+00
    0.3000000000E+03    0.2151001681E+00    0.7216327169E-01    0.6060980997E-02    0.5232173419E-01    0.3947969233E+00
    0.5000000000E+03    0.2220001810E+00    0.7867965593E-01    0.6362124000E-02    0.7021047498E-01    0.4318545141E+00
    0.7000000000E+03    0.2212746310E+00    0.8228538943E-01    0.6428801569E-02    0.8470126022E-01    0.4527136437E+00
    0.9000000000E+03    0.2182816330E+00    0.8465522023E-01    0.6415879377E-02    0.9733599933E-01    0.4666205923E+00
    0.1100000000E+04    0.2145231366E+00    0.8636391338E-01    0.6369506643E-02    0.1087705425E+00    0.4767745628E+00
    0.1300000000E+04    0.2105324927E+00    0.8766987545E-01    0.6307453333E-02    0.1193479604E+00    0.4846239377E+00
    0.1500000000E+04    0.2065238752E+00    0.8870899687E-01    0.6237686347E-02    0.1292719099E+00    0.4909351388E+00
    0.1700000000E+04    0.2025880433E+00    0.8956054683E-01    0.6164154262E-02    0.1386740772E+00    0.4961577847E+00
    0.1900000000E+04    0.1987629281E+00    0.9027432154E-01    0.6088954824E-02    0.1476450220E+00    0.5005758066E+00
    0.2100000000E+04    0.1950623546E+00    0.9088339613E-01    0.6013258148E-02    0.1562499841E+00    0.5043787209E+00
    0.2300000000E+04    0.1914887729E+00    0.9141071739E-01    0.5937738914E-02    0.1645376995E+00    0.5076986191E+00
    0.2500000000E+04    0.1880392552E+00    0.9187277255E-01    0.5862793931E-02    0.1725456534E+00    0.5106308258E+00
    0.2700000000E+04    0.1847084416E+00    0.9228175347E-01    0.5788658124E-02    0.1803033764E+00    0.5132461267E+00
    0.2900000000E+04    0.1814900248E+00    0.9264689555E-01    0.5715469277E-02    0.1878346054E+00    0.5155983575E+00
    0.3100000000E+04    0.1783775024E+00    0.9297533935E-01    0.5643305571E-02    0.1951587501E+00    0.5177293035E+00
    0.3300000000E+04    0.1753645526E+00    0.9327270386E-01    0.5572208012E-02    0.2022919194E+00    0.5196719682E+00
    0.3500000000E+04    0.1724452112E+00    0.9354347900E-01    0.5502194199E-02    0.2092476582E+00    0.5214528190E+00
    0.3700000000E+04    0.1696139423E+00    0.9379130113E-01    0.5433266925E-02    0.2160374880E+00    0.5230933664E+00
    0.3900000000E+04    0.1668656546E+00    0.9401915060E-01    0.5365419659E-02    0.2226713119E+00    0.5246113002E+00
    0.4100000000E+04    0.1641956869E+00    0.9422949616E-01    0.5298640079E-02    0.2291577224E+00    0.5260213221E+00
    0.4300000000E+04    0.1615997819E+00    0.9442440239E-01    0.5232912362E-02    0.2355042395E+00    0.5273357667E+00
    0.4500000000E+04    0.1590740523E+00    0.9460561075E-01    0.5168218687E-02    0.2417174970E+00    0.5285650711E+00
    0.4700000000E+04    0.1566149472E+00    0.9477460169E-01    0.5104540211E-02    0.2478033903E+00    0.5297181351E+00
    0.4900000000E+04    0.1542192180E+00    0.9493264272E-01    0.5041857712E-02    0.2537671945E+00    0.5308026019E+00
    0.1000000000E+04    0.2164533510E+00    0.8557193699E-01    0.6395420090E-02    0.1031773664E+00    0.4720532779E+00
    0.3000000000E+04    0.1799209289E+00    0.9281532318E-01    0.5679256040E-02    0.1915214889E+00    0.5166892528E+00
    0.5000000000E+04    0.1530441795E+00    0.9500790435E-01    0.5010883945E-02    0.2567048159E+00    0.5313212111E+00
    0.7000000000E+04    0.1322641292E+00    0.9613832140E-01    0.4439257881E-02    0.3099976056E+00    0.5393084880E+00
    0.9000000000E+04    0.1155444268E+00    0.9684391269E-01    0.3948436165E-02    0.3546361576E+00    0.5445355272E+00
    0.1100000000E+05    0.1018199048E+00    0.9733163287E-01    0.3526170943E-02    0.3923615117E+00    0.5483004216E+00
    0.1300000000E+05    0.9041825986E-01    0.9769103436E-01    0.3162489361E-02    0.4243984754E+00    0.5511791123E+00
    0.1500000000E+05    0.8086392752E-01    0.9796780096E-01    0.2848819980E-02    0.4517096343E+00    0.5534722341E+00
    0.1700000000E+05    0.7279937407E-01    0.9818790725E-01    0.2577718546E-02    0.4750817297E+00    0.5553544147E+00
    0.1900000000E+05    0.6594720058E-01    0.9836731002E-01    0.2342760679E-02    0.4951648916E+00    0.5569350886E+00
    0.2100000000E+05    0.6008853985E-01    0.9851639934E-01    0.2138455982E-02    0.5124970653E+00    0.5582868404E+00
    0.2300000000E+05    0.5504899504E-01    0.9864225519E-01    0.1960152105E-02    0.5275228486E+00    0.5594599812E+00
    0.2500000000E+05    0.5068865914E-01    0.9874988150E-01    0.1803930898E-02    0.5406093060E+00    0.5604906332E+00
    0.2700000000E+05    0.4689467425E-01    0.9884292267E-01    0.1666504896E-02    0.5520594520E+00    0.5614054894E+00
    0.2900000000E+05    0.4357554070E-01    0.9892410050E-01    0.1545120644E-02    0.5621236592E+00    0.5622247548E+00
    0.3100000000E+05    0.4065670711E-01    0.9899549159E-01    0.1437472375E-02    0.5710091848E+00    0.5629640383E+00
    0.3300000000E+05    0.3807712907E-01    0.9905870964E-01    0.1341627288E-02    0.5788880391E+00    0.5636356122E+00
    0.3500000000E+05    0.3578657172E-01    0.9911502883E-01    0.1255962173E-02    0.5859034272E+00    0.5642492734E+00
    0.3700000000E+05    0.3374348800E-01    0.9916546944E-01    0.1179110394E-02    0.5921749933E+00    0.5648129486E+00
    0.3900000000E+05    0.3191334426E-01    0.9921085868E-01    0.1109917931E-02    0.5978030763E+00    0.5653331281E+00
    0.4100000000E+05    0.3026729423E-01    0.9925187462E-01    0.1047407133E-02    0.6028721570E+00    0.5658151833E+00
    0.4300000000E+05    0.2878112504E-01    0.9928907866E-01    0.9907469058E-03    0.6074536514E+00    0.5662636016E+00
    0.4500000000E+05    0.2743441621E-01    0.9932293978E-01    0.9392282328E-03    0.6116081760E+00    0.5666821651E+00
    0.4700000000E+05    0.2620986580E-01    0.9935385292E-01    0.8922440640E-03    0.6153873882E+00    0.5670740864E+00
    0.4900000000E+05    0.2509274808E-01    0.9938215315E-01    0.8492727786E-03    0.6188354857E+00    0.5674421141E+00
    0.1000000000E+05    0.1083558045E+00    0.9710791768E-01    0.3729395815E-02    0.3742786596E+00    0.5465554457E+00
    0.3000000000E+05    0.4207018347E-01    0.9896090936E-01    0.1489708256E-02    0.5667022623E+00    0.5626035607E+00
    0.5000000000E+05    0.2457046953E-01    0.9939541452E-01    0.8291489170E-03    0.6204474447E+00    0.5676179205E+00
    0.7000000000E+05    0.1750905554E-01    0.9957506385E-01    0.5556246183E-03    0.6421572019E+00    0.5703128129E+00
    0.9000000000E+05    0.1385490348E-01    0.9966337399E-01    0.4143785819E-03    0.6531872016E+00    0.5720689875E+00
    0.1100000000E+06    0.1165162042E-01    0.9970923228E-01    0.3304737955E-03    0.6596548016E+00    0.5733351260E+00
    0.1300000000E+06    0.1018205475E-01    0.9973236739E-01    0.2756863270E-03    0.6638292116E+00    0.5743068070E+00
    0.1500000000E+06    0.9130167979E-02    0.9974221738E-01    0.2374109584E-03    0.6667135932E+00    0.5750848829E+00
    0.1700000000E+06    0.8337364964E-02    0.9974382736E-01    0.2092886854E-03    0.6688101964E+00    0.5757274174E+00
    0.1900000000E+06    0.7716028412E-02    0.9974011395E-01    0.1878064334E-03    0.6703948178E+00    0.5762705589E+00
    0.2100000000E+06    0.7214043933E-02    0.9973286413E-01    0.1708822198E-03    0.6716300686E+00    0.5767381699E+00
    0.2300000000E+06    0.6798550186E-02    0.9972322275E-01    0.1572113511E-03    0.6726173868E+00    0.5771467367E+00
    0.2500000000E+06    0.6447823202E-02    0.9971194942E-01    0.1459382453E-03    0.6734230131E+00    0.5775080726E+00
    0.2700000000E+06    0.6146930758E-02    0.9969956245E-01    0.1364803111E-03    0.6740918737E+00    0.5778308998E+00
    0.2900000000E+06    0.5885268202E-02    0.9968642356E-01    0.1284280654E-03    0.6746554234E+00    0.5781218203E+00
    0.3100000000E+06    0.5655092462E-02    0.9967278983E-01    0.1214858040E-03    0.6751362912E+00    0.5783859386E+00
    0.3300000000E+06    0.5450613603E-02    0.9965884660E-01    0.1154349414E-03    0.6755511416E+00    0.5786272737E+00
    0.3500000000E+06    0.5267411816E-02    0.9964472907E-01    0.1101105761E-03    0.6759124990E+00    0.5788490398E+00
    0.3700000000E+06    0.5102051696E-02    0.9963053665E-01    0.1053860599E-03    0.6762299464E+00    0.5790538437E+00
    0.3900000000E+06    0.4951820136E-02    0.9961634291E-01    0.1011625700E-03    0.6765109327E+00    0.5792438252E+00
    0.4100000000E+06    0.4814543987E-02    0.9960220242E-01    0.9736189840E-04    0.6767613304E+00    0.5794207602E+00
    0.4300000000E+06    0.4688460501E-02    0.9958815568E-01    0.9392136166E-04    0.6769858283E+00    0.5795861368E+00
    0.4500000000E+06    0.4572123556E-02    0.9957423266E-01    0.9079014177E-04    0.6771882127E+00    0.5797412129E+00
    0.4700000000E+06    0.4464334605E-02    0.9956045532E-01    0.8792661103E-04    0.6773715729E+00    0.5798870605E+00
    0.4900000000E+06    0.4364091060E-02    0.9954683958E-01    0.8529634693E-04    0.6775384534E+00    0.5800245998E+00
    0.1000000000E+06    0.1263103924E-01    0.9969002009E-01    0.3675756149E-03    0.6568044571E+00    0.5727478705E+00
    0.3000000000E+06    0.5766644096E-02    0.9967965558E-01    0.1248333323E-03    0.6749050364E+00    0.5782569569E+00
    0.5000000000E+06    0.4316529260E-02    0.9954009598E-01    0.8405952772E-04    0.6776163887E+00    0.5800905064E+00
    0.7000000000E+06    0.3611539749E-02    0.9941496702E-01    0.6658034057E-04    0.6786745911E+00    0.5811187911E+00
    0.9000000000E+06    0.3173758127E-02    0.9930727451E-01    0.5653320257E-04    0.6792372719E+00    0.5818095640E+00
    0.1100000000E+07    0.2867471106E-02    0.9921365478E-01    0.4986255999E-04    0.6795871744E+00    0.5823195345E+00
    0.1300000000E+07    0.2637418226E-02    0.9913107439E-01    0.4503918087E-04    0.6798264170E+00    0.5827186438E+00
    0.1500000000E+07    0.2456271750E-02    0.9905726284E-01    0.4134981820E-04    0.6800007508E+00    0.5830436381E+00
    0.1700000000E+07    0.2308743317E-02    0.9899054811E-01    0.3841342320E-04    0.6801337215E+00    0.5833160016E+00
    0.1900000000E+07    0.2185513966E-02    0.9892968194E-01    0.3600622397E-04    0.6802386856E+00    0.5835492862E+00
    0.2100000000E+07    0.2080532205E-02    0.9887371405E-01    0.3398731283E-04    0.6803237872E+00    0.5837525413E+00
    0.2300000000E+07    0.1989672159E-02    0.9882190656E-01    0.3226307398E-04    0.6803942779E+00    0.5839320828E+00
    0.2500000000E+07    0.1910009818E-02    0.9877367608E-01    0.3076861140E-04    0.6804536978E+00    0.5840924787E+00
    0.2700000000E+07    0.1839406587E-02    0.9872855381E-01    0.2945735871E-04    0.6805045219E+00    0.5842371303E+00
    0.2900000000E+07    0.1776256837E-02    0.9868615758E-01    0.2829493348E-04    0.6805485336E+00    0.5843686322E+00
    0.3100000000E+07    0.1719328156E-02    0.9864617179E-01    0.2725533136E-04    0.6805870510E+00    0.5844890052E+00
    0.3300000000E+07    0.1667656543E-02    0.9860833286E-01    0.2631847681E-04    0.6806210701E+00    0.5845998512E+00
    0.3500000000E+07    0.1620475516E-02    0.9857241839E-01    0.2546859438E-04    0.6806513577E+00    0.5847024595E+00
    0.3700000000E+07    0.1577166856E-02    0.9853823901E-01    0.2469309469E-04    0.6806785139E+00    0.5847978822E+00
    0.3900000000E+07    0.1537225604E-02    0.9850563213E-01    0.2398179351E-04    0.6807030156E+00    0.5848869879E+00
    0.4100000000E+07    0.1500234662E-02    0.9847445715E-01    0.2332635248E-04    0.6807252463E+00    0.5849705014E+00
    0.4300000000E+07    0.1465846033E-02    0.9844459160E-01    0.2271987075E-04    0.6807455184E+00    0.5850490332E+00
    0.4500000000E+07    0.1433766746E-02    0.9841592819E-01    0.2215658179E-04    0.6807640888E+00    0.5851231020E+00
    0.4700000000E+07    0.1403748134E-02    0.9838837239E-01    0.2163162472E-04    0.6807811706E+00    0.5851931520E+00
    0.4900000000E+07    0.1375577559E-02    0.9836184046E-01    0.2114086959E-04    0.6807969427E+00    0.5852595661E+00
    0.1000000000E+07    0.3008598742E-02    0.9925891399E-01    0.5290025471E-04    0.6794304223E+00    0.5820816585E+00
    0.3000000000E+07    0.1747080444E-02    0.9866588093E-01    0.2776115103E-04    0.6805684106E+00    0.5844301013E+00
    0.5000000000E+07    0.1362127072E-02    0.9834893483E-01    0.2090719307E-04    0.6808043856E+00    0.5852915153E+00
    0.7000000000E+07    0.1156643733E-02    0.9813013843E-01    0.1738879775E-04    0.6809111735E+00    0.5858012858E+00
    0.9000000000E+07    0.1023771225E-02    0.9796245831E-01    0.1516537736E-04    0.6809735099E+00    0.5861571001E+00
    0.1100000000E+08    0.9287579738E-03    0.9782630403E-01    0.1360088862E-04    0.6810149739E+00    0.5864277428E+00
    0.1300000000E+08    0.8564365893E-03    0.9771159036E-01    0.1242466368E-04    0.6810448483E+00    0.5866447943E+00
    0.1500000000E+08    0.7989858452E-03    0.9761242625E-01    0.1149958494E-04    0.6810675664E+00    0.5868252330E+00
    0.1700000000E+08    0.7519073261E-03    0.9752506581E-01    0.1074785014E-04    0.6810855283E+00    0.5869791810E+00
    0.1900000000E+08    0.7124050563E-03    0.9744697679E-01    0.1012162609E-04    0.6811001534E+00    0.5871131331E+00
    0.2100000000E+08    0.6786371550E-03    0.9737636609E-01    0.9589687509E-05    0.6811123381E+00    0.5872314920E+00
    0.2300000000E+08    0.6493340353E-03    0.9731191684E-01    0.9130678138E-05    0.6811226784E+00    0.5873373730E+00
    0.2500000000E+08    0.6235882120E-03    0.9725263315E-01    0.8729436228E-05    0.6811315872E+00    0.5874330570E+00
    0.2700000000E+08    0.6007314044E-03    0.9719774333E-01    0.8374863606E-05    0.6811393600E+00    0.5875202619E+00
