  Pressure (Pa) 2mC6-400 (mol/kg) 3mC6-400 (mol/kg) 33mC5-400 (mol/kg) 23mC5-400 (mol/kg) C7-400 (mol/kg)
    0.1000000000E+01    0.4751337353E-02    0.2624494204E-02    0.1934405903E-03    0.3721915086E-03    0.3407081364E-02
    0.3000000000E+01    0.1384687190E-01    0.7647817146E-02    0.5638356191E-03    0.1104785802E-02    0.9929572576E-02
    0.5000000000E+01    0.2243798895E-01    0.1239237292E-01    0.9138071361E-03    0.1822201172E-02    0.1609172005E-01
    0.7000000000E+01    0.3056624092E-01    0.1688201902E-01    0.1245039228E-02    0.2525052785E-02    0.2192432037E-01
    0.9000000000E+01    0.3826861420E-01    0.2113793237E-01    0.1559030666E-02    0.3213921488E-02    0.2745471233E-01
    0.1100000000E+02    0.4557814977E-01    0.2517897705E-01    0.1857120122E-02    0.3889356209E-02    0.3270725107E-01
    0.1300000000E+02    0.5252446438E-01    0.2902201291E-01    0.2140507344E-02    0.4551876159E-02    0.3770370609E-01
    0.1500000000E+02    0.5913419056E-01    0.3268215613E-01    0.2410271023E-02    0.5201972854E-02    0.4246359713E-01
    0.1700000000E+02    0.6543134978E-01    0.3617299996E-01    0.2667383957E-02    0.5840111968E-02    0.4700447892E-01
    0.1900000000E+02    0.7143767054E-01    0.3950680274E-01    0.2912725960E-02    0.6466735042E-02    0.5134218362E-01
    0.2100000000E+02    0.7717286050E-01    0.4269464869E-01    0.3147094911E-02    0.7082261059E-02    0.5549102823E-01
    0.2300000000E+02    0.8265484039E-01    0.4574658595E-01    0.3371216256E-02    0.7687087890E-02    0.5946399257E-01
    0.2500000000E+02    0.8789994586E-01    0.4867174552E-01    0.3585751189E-02    0.8281593635E-02    0.6327287278E-01
    0.2700000000E+02    0.9292310215E-01    0.5147844420E-01    0.3791303753E-02    0.8866137859E-02    0.6692841407E-01
    0.2900000000E+02    0.9773797602E-01    0.5417427387E-01    0.3988426993E-02    0.9441062737E-02    0.7044042591E-01
    0.3100000000E+02    0.1023571081E+00    0.5676617932E-01    0.4177628337E-02    0.1000669412E-01    0.7381788241E-01
    0.3300000000E+02    0.1067920290E+00    0.5926052619E-01    0.4359374286E-02    0.1056334249E-01    0.7706900997E-01
    0.3500000000E+02    0.1110533604E+00    0.6166316047E-01    0.4534094545E-02    0.1111130392E-01    0.8020136413E-01
    0.3700000000E+02    0.1151509052E+00    0.6397946089E-01    0.4702185646E-02    0.1165086088E-01    0.8322189708E-01
    0.3900000000E+02    0.1190937259E+00    0.6621438500E-01    0.4864014154E-02    0.1218228304E-01    0.8613701713E-01
    0.4100000000E+02    0.1228902151E+00    0.6837250987E-01    0.5019919494E-02    0.1270582799E-01    0.8895264132E-01
    0.4300000000E+02    0.1265481568E+00    0.7045806823E-01    0.5170216471E-02    0.1322174196E-01    0.9167424196E-01
    0.4500000000E+02    0.1300747822E+00    0.7247498050E-01    0.5315197502E-02    0.1373026039E-01    0.9430688799E-01
    0.4700000000E+02    0.1334768184E+00    0.7442688327E-01    0.5455134610E-02    0.1423160860E-01    0.9685528179E-01
    0.4900000000E+02    0.1367605326E+00    0.7631715476E-01    0.5590281204E-02    0.1472600227E-01    0.9932379200E-01
    0.1000000000E+02    0.4197056091E-01    0.2318421585E-01    0.1709985126E-02    0.3553284974E-02    0.3011429637E-01
    0.3000000000E+02    0.1000712667E+00    0.5548280643E-01    0.4083987838E-02    0.9725020359E-02    0.7214544285E-01
    0.5000000000E+02    0.1383598615E+00    0.7724016947E-01    0.5656132556E-02    0.1497065607E-01    0.1005293720E+00
    0.7000000000E+02    0.1653651780E+00    0.9312243166E-01    0.6771409998E-02    0.1954451945E-01    0.1212977057E+00
    0.9000000000E+02    0.1852942845E+00    0.1053652384E+00    0.7599895599E-02    0.2361204404E-01    0.1373427797E+00
    0.1100000000E+03    0.2004831865E+00    0.1151803295E+00    0.8236008943E-02    0.2728603201E-01    0.1502335409E+00
    0.1300000000E+03    0.2123404414E+00    0.1232848304E+00    0.8736690965E-02    0.3064638360E-01    0.1608992470E+00
    0.1500000000E+03    0.2217686266E+00    0.1301321185E+00    0.9138442355E-02    0.3375150044E-01    0.1699278391E+00
    0.1700000000E+03    0.2293737957E+00    0.1360239730E+00    0.9465786322E-02    0.3664521099E-01    0.1777109589E+00
    0.1900000000E+03    0.2355783052E+00    0.1411697384E+00    0.9735825548E-02    0.3936115390E-01    0.1845204880E+00
    0.2100000000E+03    0.2406855445E+00    0.1457196426E+00    0.9960856050E-02    0.4192565134E-01    0.1905516724E+00
    0.2300000000E+03    0.2449190066E+00    0.1497845855E+00    0.1014994471E-01    0.4435965011E-01    0.1959487467E+00
    0.2500000000E+03    0.2484468730E+00    0.1534484223E+00    0.1030992204E-01    0.4668006761E-01    0.2008208475E+00
    0.2700000000E+03    0.2513980368E+00    0.1567758773E+00    0.1044602918E-01    0.4890074694E-01    0.2052522703E+00
    0.2900000000E+03    0.2538728590E+00    0.1598178090E+00    0.1056235242E-01    0.5103314837E-01    0.2093092966E+00
    0.3100000000E+03    0.2559505777E+00    0.1626148097E+00    0.1066212252E-01    0.5308685917E-01    0.2130448635E+00
    0.3300000000E+03    0.2576945269E+00    0.1651997282E+00    0.1074792563E-01    0.5506997566E-01    0.2165018375E+00
    0.3500000000E+03    0.2591558852E+00    0.1675994747E+00    0.1082185485E-01    0.5698939365E-01    0.2197153582E+00
    0.3700000000E+03    0.2603764161E+00    0.1698363377E+00    0.1088562108E-01    0.5885103220E-01    0.2227145479E+00
    0.3900000000E+03    0.2613905030E+00    0.1719289604E+00    0.1094063534E-01    0.6066000814E-01    0.2255237816E+00
    0.4100000000E+03    0.2622266804E+00    0.1738930766E+00    0.1098807081E-01    0.6242077368E-01    0.2281636430E+00
    0.4300000000E+03    0.2629088024E+00    0.1757420730E+00    0.1102891013E-01    0.6413722593E-01    0.2306516553E+00
    0.4500000000E+03    0.2634569439E+00    0.1774874233E+00    0.1106398192E-01    0.6581279501E-01    0.2330028470E+00
    0.4700000000E+03    0.2638881026E+00    0.1791390285E+00    0.1109398929E-01    0.6745051550E-01    0.2352301939E+00
    0.4900000000E+03    0.2642167521E+00    0.1807054857E+00    0.1111953224E-01    0.6905308475E-01    0.2373449696E+00
    0.1000000000E+03    0.1933778983E+00    0.1105233701E+00    0.7937820734E-02    0.2549262725E-01    0.1441139454E+00
    0.3000000000E+03    0.2549570750E+00    0.1612447151E+00    0.1061413189E-01    0.5206930291E-01    0.2112143784E+00
    0.5000000000E+03    0.2643465788E+00    0.1814591676E+00    0.1113079334E-01    0.6984195040E-01    0.2383632707E+00
    0.7000000000E+03    0.2637912290E+00    0.1934690834E+00    0.1121472510E-01    0.8424271769E-01    0.2546667451E+00
    0.9000000000E+03    0.2602699972E+00    0.2017872970E+00    0.1115817815E-01    0.9680196047E-01    0.2660556235E+00
    0.1100000000E+04    0.2557479278E+00    0.2080414292E+00    0.1104635579E-01    0.1081702739E+00    0.2746805656E+00
    0.1300000000E+04    0.2509245773E+00    0.2129913373E+00    0.1091113427E-01    0.1186879852E+00    0.2815502295E+00
    0.1500000000E+04    0.2460810287E+00    0.2170494854E+00    0.1076627973E-01    0.1285571622E+00    0.2872143428E+00
    0.1700000000E+04    0.2413361154E+00    0.2204632497E+00    0.1061828771E-01    0.1379084976E+00    0.2920037987E+00
    0.1900000000E+04    0.2367390920E+00    0.2233919330E+00    0.1047038914E-01    0.1468318918E+00    0.2961323842E+00
    0.2100000000E+04    0.2323074439E+00    0.2259437473E+00    0.1032422912E-01    0.1553921261E+00    0.2997457619E+00
    0.2300000000E+04    0.2280436817E+00    0.2281953224E+00    0.1018063807E-01    0.1636376057E+00    0.3029473723E+00
    0.2500000000E+04    0.2239432645E+00    0.2302027637E+00    0.1004001116E-01    0.1716055688E+00    0.3058131501E+00
    0.2700000000E+04    0.2199984961E+00    0.2320082885E+00    0.9902505305E-02    0.1793253567E+00    0.3084003756E+00
    0.2900000000E+04    0.2162004867E+00    0.2336443986E+00    0.9768145618E-02    0.1868205572E+00    0.3107532505E+00
    0.3100000000E+04    0.2125401461E+00    0.2351366059E+00    0.9636884834E-02    0.1941104604E+00    0.3129065478E+00
    0.3300000000E+04    0.2090086771E+00    0.2365052719E+00    0.9508637171E-02    0.2012110765E+00    0.3148880798E+00
    0.3500000000E+04    0.2055978051E+00    0.2377668846E+00    0.9383297935E-02    0.2081358678E+00    0.3167204137E+00
    0.3700000000E+04    0.2022998681E+00    0.2389349658E+00    0.9260754925E-02    0.2148962855E+00    0.3184220933E+00
    0.3900000000E+04    0.1991078327E+00    0.2400207299E+00    0.9140895028E-02    0.2215021712E+00    0.3200085272E+00
    0.4100000000E+04    0.1960152725E+00    0.2410335714E+00    0.9023607950E-02    0.2279620634E+00    0.3214926466E+00
    0.4300000000E+04    0.1930163282E+00    0.2419814307E+00    0.8908788239E-02    0.2342834335E+00    0.3228854011E+00
    0.4500000000E+04    0.1901056604E+00    0.2428710741E+00    0.8796336269E-02    0.2404728711E+00    0.3241961366E+00
    0.4700000000E+04    0.1872784010E+00    0.2437083094E+00    0.8686158596E-02    0.2465362307E+00    0.3254328890E+00
    0.4900000000E+04    0.1845301068E+00    0.2444981557E+00    0.8578167953E-02    0.2524787496E+00    0.3266026136E+00
    0.1000000000E+04    0.2580754311E+00    0.2051133191E+00    0.1110654528E-01    0.1026092629E+00    0.2706352895E+00
    0.3000000000E+04    0.2143536681E+00    0.2344071139E+00    0.9702132603E-02    0.1904901032E+00    0.3118529680E+00
    0.5000000000E+04    0.1831842884E+00    0.2448766940E+00    0.8524967135E-02    0.2554061853E+00    0.3271642640E+00
    0.7000000000E+04    0.1595906124E+00    0.2507710774E+00    0.7558818157E-02    0.3085528417E+00    0.3360079831E+00
    0.9000000000E+04    0.1408305378E+00    0.2546887909E+00    0.6746420131E-02    0.3531359409E+00    0.3420061380E+00
    0.1100000000E+05    0.1255250847E+00    0.2575362832E+00    0.6055425411E-02    0.3908720468E+00    0.3464405929E+00
    0.1300000000E+05    0.1128419320E+00    0.2597261848E+00    0.5464002195E-02    0.4229654186E+00    0.3499019203E+00
    0.1500000000E+05    0.1022151220E+00    0.2614774966E+00    0.4955529972E-02    0.4503622677E+00    0.3527069091E+00
    0.1700000000E+05    0.9323190149E-01    0.2629188739E+00    0.4516611092E-02    0.4738369952E+00    0.3550434591E+00
    0.1900000000E+05    0.8557894987E-01    0.2641315928E+00    0.4136198645E-02    0.4940308733E+00    0.3570313183E+00
    0.2100000000E+05    0.7901278778E-01    0.2651698882E+00    0.3805116030E-02    0.5114757643E+00    0.3587510361E+00
    0.2300000000E+05    0.7334141228E-01    0.2660715350E+00    0.3515726985E-02    0.5266122733E+00    0.3602591282E+00
    0.2500000000E+05    0.6841186394E-01    0.2668637670E+00    0.3261675883E-02    0.5398049824E+00    0.3615966130E+00
    0.2700000000E+05    0.6410131884E-01    0.2675667835E+00    0.3037671660E-02    0.5513554814E+00    0.3627941016E+00
    0.2900000000E+05    0.6031048071E-01    0.2681959266E+00    0.2839305695E-02    0.5615134368E+00    0.3638749767E+00
    0.3100000000E+05    0.5695857513E-01    0.2687630879E+00    0.2662898833E-02    0.5704858751E+00    0.3648574567E+00
    0.3300000000E+05    0.5397950708E-01    0.2692776456E+00    0.2505373832E-02    0.5784448798E+00    0.3657559806E+00
    0.3500000000E+05    0.5131888478E-01    0.2697471093E+00    0.2364149815E-02    0.5855339150E+00    0.3665821629E+00
    0.3700000000E+05    0.4893169898E-01    0.2701775729E+00    0.2237055390E-02    0.5918729899E+00    0.3673454694E+00
    0.3900000000E+05    0.4678050276E-01    0.2705740399E+00    0.2122257424E-02    0.5975628613E+00    0.3680537037E+00
    0.4100000000E+05    0.4483397658E-01    0.2709406619E+00    0.2018202761E-02    0.6026884464E+00    0.3687133668E+00
    0.4300000000E+05    0.4306579136E-01    0.2712809168E+00    0.1923570570E-02    0.6073215945E+00    0.3693299242E+00
    0.4500000000E+05    0.4145370320E-01    0.2715977425E+00    0.1837233361E-02    0.6115233383E+00    0.3699080100E+00
    0.4700000000E+05    0.3997882913E-01    0.2718936403E+00    0.1758225057E-02    0.6153457276E+00    0.3704515831E+00
    0.4900000000E+05    0.3862506475E-01    0.2721707547E+00    0.1685714791E-02    0.6188333246E+00    0.3709640493E+00
    0.1000000000E+05    0.1328062692E+00    0.2562140362E+00    0.6387271029E-02    0.3727769232E+00    0.3443727724E+00
    0.3000000000E+05    0.5858409782E-01    0.2684866186E+00    0.2748562475E-02    0.5661363517E+00    0.3643775379E+00
    0.5000000000E+05    0.3798920820E-01    0.2723028566E+00    0.1651668363E-02    0.6204637601E+00    0.3712095545E+00
    0.7000000000E+05    0.2914672711E-01    0.2742985128E+00    0.1181293276E-02    0.6424163902E+00    0.3750310580E+00
    0.9000000000E+05    0.2429646596E-01    0.2755567487E+00    0.9296467336E-03    0.6535546939E+00    0.3775823319E+00
    0.1100000000E+06    0.2121705996E-01    0.2764333099E+00    0.7750067044E-03    0.6600730959E+00    0.3794527996E+00
    0.1300000000E+06    0.1906903041E-01    0.2770834302E+00    0.6707641223E-03    0.6642711605E+00    0.3809064926E+00
    0.1500000000E+06    0.1747101654E-01    0.2775868372E+00    0.5957478729E-03    0.6671653560E+00    0.3820822663E+00
    0.1700000000E+06    0.1622591620E-01    0.2779891210E+00    0.5390960636E-03    0.6692643267E+00    0.3830612771E+00
    0.1900000000E+06    0.1522172560E-01    0.2783184273E+00    0.4947073150E-03    0.6708471727E+00    0.3838946633E+00
    0.2100000000E+06    0.1439002312E-01    0.2785931628E+00    0.4589062911E-03    0.6720783098E+00    0.3846165201E+00
    0.2300000000E+06    0.1368656687E-01    0.2788259189E+00    0.4293528909E-03    0.6730602054E+00    0.3852506026E+00
    0.2500000000E+06    0.1308141232E-01    0.2790256265E+00    0.4044886279E-03    0.6738597069E+00    0.3858140570E+00
    0.2700000000E+06    0.1255351828E-01    0.2791988110E+00    0.3832362410E-03    0.6745221059E+00    0.3863196232E+00
    0.2900000000E+06    0.1208763113E-01    0.2793503603E+00    0.3648274812E-03    0.6750790811E+00    0.3867769997E+00
    0.3100000000E+06    0.1167239753E-01    0.2794840139E+00    0.3486997130E-03    0.6755533991E+00    0.3871937230E+00
    0.3300000000E+06    0.1129917467E-01    0.2796026853E+00    0.3344313485E-03    0.6759618085E+00    0.3875757539E+00
    0.3500000000E+06    0.1096125390E-01    0.2797086805E+00    0.3217001418E-03    0.6763168843E+00    0.3879278801E+00
    0.3700000000E+06    0.1065333890E-01    0.2798038500E+00    0.3102554483E-03    0.6766282381E+00    0.3882539989E+00
    0.3900000000E+06    0.1037118562E-01    0.2798896976E+00    0.2998992879E-03    0.6769033339E+00    0.3885573214E+00
    0.4100000000E+06    0.1011134811E-01    0.2799674583E+00    0.2904731224E-03    0.6771480501E+00    0.3888405207E+00
    0.4300000000E+06    0.9870995429E-02    0.2800381566E+00    0.2818484315E-03    0.6773670755E+00    0.3891058442E+00
    0.4500000000E+06    0.9647777293E-02    0.2801026500E+00    0.2739198734E-03    0.6775641929E+00    0.3893551970E+00
    0.4700000000E+06    0.9439723923E-02    0.2801616618E+00    0.2666002393E-03    0.6777424856E+00    0.3895902069E+00
    0.4900000000E+06    0.9245170233E-02    0.2802158066E+00    0.2598166748E-03    0.6779044908E+00    0.3898122745E+00
    0.1000000000E+06    0.2260409025E-01    0.2760304748E+00    0.8440108146E-03    0.6572020442E+00    0.3785819476E+00
    0.3000000000E+06    0.1187427570E-01    0.2794192256E+00    0.3565075548E-03    0.6753254099E+00    0.3869900390E+00
    0.5000000000E+06    0.9152504155E-02    0.2802412214E+00    0.2566063566E-03    0.6779800581E+00    0.3899188405E+00
    0.7000000000E+06    0.7752510694E-02    0.2805890844E+00    0.2097023557E-03    0.6789990156E+00    0.3915949314E+00
    0.9000000000E+06    0.6859403356E-02    0.2807643126E+00    0.1812933788E-03    0.6795334735E+00    0.3927358413E+00
    0.1100000000E+07    0.6224678948E-02    0.2808582946E+00    0.1617819205E-03    0.6798619388E+00    0.3935864154E+00
    0.1300000000E+07    0.5743028290E-02    0.2809082947E+00    0.1473361722E-03    0.6800841972E+00    0.3942572733E+00
    0.1500000000E+07    0.5361023008E-02    0.2809322966E+00    0.1360927852E-03    0.6802446400E+00    0.3948070703E+00
    0.1700000000E+07    0.5048236541E-02    0.2809399895E+00    0.1270240225E-03    0.6803659683E+00    0.3952703547E+00
    0.1900000000E+07    0.4785878749E-02    0.2809370166E+00    0.1195109659E-03    0.6804609846E+00    0.3956690547E+00
    0.2100000000E+07    0.4561625378E-02    0.2809268606E+00    0.1131558751E-03    0.6805374529E+00    0.3960178903E+00
    0.2300000000E+07    0.4367007372E-02    0.2809117687E+00    0.1076900274E-03    0.6806003545E+00    0.3963271842E+00
    0.2500000000E+07    0.4195984345E-02    0.2808932429E+00    0.1029244987E-03    0.6806530316E+00    0.3966044327E+00
    0.2700000000E+07    0.4044115116E-02    0.2808723161E+00    0.9872209382E-04    0.6806978100E+00    0.3968552384E+00
    0.2900000000E+07    0.3908050543E-02    0.2808497150E+00    0.9498046609E-04    0.6807363587E+00    0.3970838900E+00
    0.3100000000E+07    0.3785210276E-02    0.2808259603E+00    0.9162151228E-04    0.6807699062E+00    0.3972937379E+00
    0.3300000000E+07    0.3673569391E-02    0.2808014312E+00    0.8858446131E-04    0.6807993771E+00    0.3974874456E+00
    0.3500000000E+07    0.3571513290E-02    0.2807764071E+00    0.8582122680E-04    0.6808254805E+00    0.3976671629E+00
    0.3700000000E+07    0.3477736456E-02    0.2807510961E+00    0.8329319654E-04    0.6808487695E+00    0.3978346481E+00
    0.3900000000E+07    0.3391170183E-02    0.2807256540E+00    0.8096896207E-04    0.6808696822E+00    0.3979913563E+00
    0.4100000000E+07    0.3310929971E-02    0.2807001983E+00    0.7882267927E-04    0.6808885695E+00    0.3981385043E+00
    0.4300000000E+07    0.3236276549E-02    0.2806748179E+00    0.7683286296E-04    0.6809057164E+00    0.3982771194E+00
    0.4500000000E+07    0.3166586536E-02    0.2806495798E+00    0.7498148579E-04    0.6809213565E+00    0.3984080760E+00
    0.4700000000E+07    0.3101330045E-02    0.2806245349E+00    0.7325329478E-04    0.6809356832E+00    0.3985321242E+00
    0.4900000000E+07    0.3040053364E-02    0.2805997211E+00    0.7163528590E-04    0.6809488580E+00    0.3986499119E+00
    0.1000000000E+07    0.6518101126E-02    0.2808184644E+00    0.1707334806E-03    0.6797152336E+00    0.3931887601E+00
    0.3000000000E+07    0.3845114986E-02    0.2808379554E+00    0.9325729631E-04    0.6807536940E+00    0.3971909841E+00
    0.5000000000E+07    0.3010783101E-02    0.2805874101E+00    0.7086404848E-04    0.6809550568E+00    0.3987066369E+00
    0.7000000000E+07    0.2562619746E-02    0.2803570053E+00    0.5919077326E-04    0.6810425027E+00    0.3996172753E+00
    0.9000000000E+07    0.2271846641E-02    0.2801565767E+00    0.5175807644E-04    0.6810919742E+00    0.4002592336E+00
    0.1100000000E+08    0.2063462072E-02    0.2799812283E+00    0.4650393896E-04    0.6811240485E+00    0.4007511067E+00
    0.1300000000E+08    0.1904587869E-02    0.2798258776E+00    0.4254118123E-04    0.6811466593E+00    0.4011478489E+00
    0.1500000000E+08    0.1778220984E-02    0.2796865670E+00    0.3941721905E-04    0.6811635298E+00    0.4014792152E+00
    0.1700000000E+08    0.1674561379E-02    0.2795603249E+00    0.3687398928E-04    0.6811766450E+00    0.4017630478E+00
    0.1900000000E+08    0.1587507882E-02    0.2794449058E+00    0.3475225148E-04    0.6811871627E+00    0.4020108506E+00
    0.2100000000E+08    0.1513035945E-02    0.2793385862E+00    0.3294775638E-04    0.6811958050E+00    0.4022304544E+00
    0.2300000000E+08    0.1448368417E-02    0.2792400195E+00    0.3138903876E-04    0.6812030468E+00    0.4024274205E+00
    0.2500000000E+08    0.1391518352E-02    0.2791481359E+00    0.3002526518E-04    0.6812092135E+00    0.4026058339E+00
    0.2700000000E+08    0.1341021338E-02    0.2790620723E+00    0.2881916617E-04    0.6812145358E+00    0.4027687803E+00
