  Pressure (Pa) 2mC6-400 (mol/kg) 3mC6-400 (mol/kg) 33mC5-400 (mol/kg) 23mC5-400 (mol/kg) C7-400 (mol/kg)
    0.1000000000E+01    0.4715653946E-02    0.5200666486E-03    0.1280041591E-03    0.3722140699E-03    0.1181554244E-01
    0.3000000000E+01    0.1355123028E-01    0.1489303242E-02    0.3679727265E-03    0.1104983280E-02    0.3384324048E-01
    0.5000000000E+01    0.2167949885E-01    0.2374615188E-02    0.5889036064E-03    0.1822734897E-02    0.5397257402E-01
    0.7000000000E+01    0.2918900366E-01    0.3186800399E-02    0.7931860508E-03    0.2526071051E-02    0.7244743148E-01
    0.9000000000E+01    0.3615358825E-01    0.3934866255E-02    0.9828116353E-03    0.3215560633E-02    0.8947128922E-01
    0.1100000000E+02    0.4263535472E-01    0.4626386851E-02    0.1159454444E-02    0.3891741601E-02    0.1052152707E+00
    0.1300000000E+02    0.4868693473E-01    0.5267777919E-02    0.1324532585E-02    0.4555123086E-02    0.1198243494E+00
    0.1500000000E+02    0.5435325178E-01    0.5864510752E-02    0.1479255915E-02    0.5206187338E-02    0.1334221754E+00
    0.1700000000E+02    0.5967290304E-01    0.6421280360E-02    0.1624663441E-02    0.5845391506E-02    0.1461148705E+00
    0.1900000000E+02    0.6467925304E-01    0.6942138894E-02    0.1761652923E-02    0.6473169279E-02    0.1579940388E+00
    0.2100000000E+02    0.6940130715E-01    0.7430602427E-02    0.1891004496E-02    0.7089932405E-02    0.1691391773E+00
    0.2300000000E+02    0.7386441468E-01    0.7889737110E-02    0.2013399692E-02    0.7696072082E-02    0.1796196200E+00
    0.2500000000E+02    0.7809083947E-01    0.8322229202E-02    0.2129436853E-02    0.8291960251E-02    0.1894961194E+00
    0.2700000000E+02    0.8210022599E-01    0.8730442394E-02    0.2239643738E-02    0.8877950791E-02    0.1988221401E+00
    0.2900000000E+02    0.8590998281E-01    0.9116465038E-02    0.2344487873E-02    0.9454380623E-02    0.2076449256E+00
    0.3100000000E+02    0.8953560002E-01    0.9482149302E-02    0.2444385126E-02    0.1002157073E-01    0.2160063823E+00
    0.3300000000E+02    0.9299091352E-01    0.9829143809E-02    0.2539706841E-02    0.1057982712E-01    0.2239438163E+00
    0.3500000000E+02    0.9628832636E-01    0.1015892100E-01    0.2630785809E-02    0.1112944168E-01    0.2314905517E+00
    0.3700000000E+02    0.9943899499E-01    0.1047280019E-01    0.2717921293E-02    0.1167069304E-01    0.2386764514E+00
    0.3900000000E+02    0.1024529869E+00    0.1077196708E-01    0.2801383280E-02    0.1220384729E-01    0.2455283576E+00
    0.4100000000E+02    0.1053394146E+00    0.1105749038E-01    0.2881416088E-02    0.1272915873E-01    0.2520704669E+00
    0.4300000000E+02    0.1081065498E+00    0.1133033595E-01    0.2958241451E-02    0.1324687048E-01    0.2583246509E+00
    0.4500000000E+02    0.1107619218E+00    0.1159137897E-01    0.3032061157E-02    0.1375721518E-01    0.2643107306E+00
    0.4700000000E+02    0.1133124018E+00    0.1184141444E-01    0.3103059324E-02    0.1426041546E-01    0.2700467130E+00
    0.4900000000E+02    0.1157642754E+00    0.1208116618E-01    0.3171404364E-02    0.1475668458E-01    0.2755489958E+00
    0.1000000000E+02    0.3945133509E-01    0.4287269340E-02    0.1072661872E-02    0.3555282221E-02    0.9749365309E-01
    0.3000000000E+02    0.8774490813E-01    0.9301742002E-02    0.2395030683E-02    0.9739111176E-02    0.2118808884E+00
    0.5000000000E+02    0.1169550550E+00    0.1219739435E-01    0.3204630719E-02    0.1500228415E-01    0.2782172280E+00
    0.7000000000E+02    0.1367689245E+00    0.1411531649E-01    0.3761341610E-02    0.1959581641E-01    0.3223326339E+00
    0.9000000000E+02    0.1511121057E+00    0.1549601698E-01    0.4170303689E-02    0.2368356691E-01    0.3542131170E+00
    0.1100000000E+03    0.1619368397E+00    0.1654707867E-01    0.4483808934E-02    0.2737757534E-01    0.3785710527E+00
    0.1300000000E+03    0.1703457096E+00    0.1737982245E-01    0.4731428349E-02    0.3075737906E-01    0.3979370248E+00
    0.1500000000E+03    0.1770172537E+00    0.1805964733E-01    0.4931397806E-02    0.3388122028E-01    0.4137997044E+00
    0.1700000000E+03    0.1823955484E+00    0.1862767639E-01    0.5095683041E-02    0.3679287362E-01    0.4270964069E+00
    0.1900000000E+03    0.1867849663E+00    0.1911116648E-01    0.5232509834E-02    0.3952597867E-01    0.4384492018E+00
    0.2100000000E+03    0.1904017738E+00    0.1952895943E-01    0.5347741827E-02    0.4210688634E-01    0.4482886542E+00
    0.2300000000E+03    0.1934041417E+00    0.1989453489E-01    0.5445682313E-02    0.4455658523E-01    0.4569231809E+00
    0.2500000000E+03    0.1959105342E+00    0.2021781573E-01    0.5529565975E-02    0.4689203966E-01    0.4645800987E+00
    0.2700000000E+03    0.1980114646E+00    0.2050628496E-01    0.5601873590E-02    0.4912714036E-01    0.4714310384E+00
    0.2900000000E+03    0.1997772758E+00    0.2076570335E-01    0.5664540619E-02    0.5127339367E-01    0.4776082869E+00
    0.3100000000E+03    0.2012634451E+00    0.2100058579E-01    0.5719099628E-02    0.5334043028E-01    0.4832156429E+00
    0.3300000000E+03    0.2025142917E+00    0.2121452639E-01    0.5766779989E-02    0.5533638670E-01    0.4883358313E+00
    0.3500000000E+03    0.2035656247E+00    0.2141042590E-01    0.5808579229E-02    0.5726819562E-01    0.4930356936E+00
    0.3700000000E+03    0.2044466710E+00    0.2159065419E-01    0.5845315061E-02    0.5914180978E-01    0.4973698996E+00
    0.3900000000E+03    0.2051815025E+00    0.2175716865E-01    0.5877663969E-02    0.6096237664E-01    0.5013836531E+00
    0.4100000000E+03    0.2057901076E+00    0.2191160191E-01    0.5906190254E-02    0.6273437619E-01    0.5051146984E+00
    0.4300000000E+03    0.2062892074E+00    0.2205532779E-01    0.5931368192E-02    0.6446173081E-01    0.5085948307E+00
    0.4500000000E+03    0.2066928851E+00    0.2218951167E-01    0.5953599149E-02    0.6614789351E-01    0.5118510497E+00
    0.4700000000E+03    0.2070130752E+00    0.2231514939E-01    0.5973224930E-02    0.6779591966E-01    0.5149064505E+00
    0.4900000000E+03    0.2072599495E+00    0.2243309761E-01    0.5990538319E-02    0.6940852557E-01    0.5177809211E+00
    0.1000000000E+03    0.1568821574E+00    0.1605433909E-01    0.4336787131E-02    0.2557421511E-01    0.3671412192E+00
    0.3000000000E+03    0.2005523194E+00    0.2088596839E-01    0.5692750633E-02    0.5231627429E-01    0.4804776067E+00
    0.5000000000E+03    0.2073586664E+00    0.2248942382E-01    0.5998408054E-02    0.7020231411E-01    0.5191557835E+00
    0.7000000000E+03    0.2070555732E+00    0.2334903416E-01    0.6080339603E-02    0.8469086550E-01    0.5403388408E+00
    0.9000000000E+03    0.2045679641E+00    0.2390114625E-01    0.6083350370E-02    0.9732357888E-01    0.5541948309E+00
    0.1100000000E+04    0.2013016181E+00    0.2429200976E-01    0.6051687910E-02    0.1087561799E+00    0.5641653502E+00
    0.1300000000E+04    0.1977665400E+00    0.2458622126E-01    0.6002834737E-02    0.1193316720E+00    0.5717834385E+00
    0.1500000000E+04    0.1941734698E+00    0.2481725973E-01    0.5944852733E-02    0.1292536718E+00    0.5778497128E+00
    0.1700000000E+04    0.1906155905E+00    0.2500441280E-01    0.5881866636E-02    0.1386538404E+00    0.5828286593E+00
    0.1900000000E+04    0.1871347756E+00    0.2515966524E-01    0.5816149785E-02    0.1476227211E+00    0.5870107888E+00
    0.2100000000E+04    0.1837488869E+00    0.2529090046E-01    0.5749026389E-02    0.1562255425E+00    0.5905883744E+00
    0.2300000000E+04    0.1804640513E+00    0.2540354007E-01    0.5681300903E-02    0.1645110335E+00    0.5936944220E+00
    0.2500000000E+04    0.1772805495E+00    0.2550144853E-01    0.5613477985E-02    0.1725166744E+00    0.5964242668E+00
    0.2700000000E+04    0.1741957746E+00    0.2558746265E-01    0.5545882004E-02    0.1802719928E+00    0.5988482683E+00
    0.2900000000E+04    0.1712057673E+00    0.2566371685E-01    0.5478725136E-02    0.1878007241E+00    0.6010196385E+00
    0.3100000000E+04    0.1683060277E+00    0.2573185104E-01    0.5412147754E-02    0.1951222775E+00    0.6029794660E+00
    0.3300000000E+04    0.1654919458E+00    0.2579314816E-01    0.5346243171E-02    0.2022527621E+00    0.6047600504E+00
    0.3500000000E+04    0.1627590255E+00    0.2584862771E-01    0.5281073258E-02    0.2092057238E+00    0.6063871804E+00
    0.3700000000E+04    0.1601029965E+00    0.2589911110E-01    0.5216678521E-02    0.2159926855E+00    0.6078817292E+00
    0.3900000000E+04    0.1575198627E+00    0.2594526827E-01    0.5153084750E-02    0.2226235523E+00    0.6092607968E+00
    0.4100000000E+04    0.1550059158E+00    0.2598765158E-01    0.5090307484E-02    0.2291069188E+00    0.6105385442E+00
    0.4300000000E+04    0.1525577307E+00    0.2602672094E-01    0.5028355053E-02    0.2354503077E+00    0.6117268121E+00
    0.4500000000E+04    0.1501721508E+00    0.2606286262E-01    0.4967230683E-02    0.2416603555E+00    0.6128355881E+00
    0.4700000000E+04    0.1478462691E+00    0.2609640371E-01    0.4906933963E-02    0.2477429605E+00    0.6138733634E+00
    0.4900000000E+04    0.1455774071E+00    0.2612762314E-01    0.4847461881E-02    0.2537034008E+00    0.6148474094E+00
    0.1000000000E+04    0.2029896332E+00    0.2411164463E-01    0.6070432541E-02    0.1031639696E+00    0.5595452518E+00
    0.3000000000E+04    0.1697449029E+00    0.2569871166E-01    0.5445357291E-02    0.1914863237E+00    0.6020238011E+00
    0.5000000000E+04    0.1444635789E+00    0.2614243842E-01    0.4818033616E-02    0.2566393131E+00    0.6153125269E+00
    0.7000000000E+04    0.1246714895E+00    0.2636044165E-01    0.4271054233E-02    0.3098947804E+00    0.6224181002E+00
    0.9000000000E+04    0.1086466061E+00    0.2649131570E-01    0.3797255554E-02    0.3544923464E+00    0.6270054762E+00
    0.1100000000E+05    0.9544828250E-01    0.2657868737E-01    0.3387735567E-02    0.3921760258E+00    0.6302750110E+00
    0.1300000000E+05    0.8446465955E-01    0.2664100557E-01    0.3034102774E-02    0.4241728034E+00    0.6327526305E+00
    0.1500000000E+05    0.7525360938E-01    0.2668750607E-01    0.2728641963E-02    0.4514466363E+00    0.6347105014E+00
    0.1700000000E+05    0.6747788030E-01    0.2672335513E-01    0.2464419257E-02    0.4747849867E+00    0.6363057186E+00
    0.1900000000E+05    0.6087325137E-01    0.2675168051E-01    0.2235337371E-02    0.4948382414E+00    0.6376362446E+00
    0.2100000000E+05    0.5522988291E-01    0.2677449175E-01    0.2036127730E-02    0.5121443022E+00    0.6387667879E+00
    0.2300000000E+05    0.5037982472E-01    0.2679314127E-01    0.1862295287E-02    0.5271475479E+00    0.6397420369E+00
    0.2500000000E+05    0.4618792840E-01    0.2680857372E-01    0.1710037497E-02    0.5402147336E+00    0.6405939669E+00
    0.2700000000E+05    0.4254494409E-01    0.2682146947E-01    0.1576154334E-02    0.5516485306E+00    0.6413461283E+00
    0.2900000000E+05    0.3936216862E-01    0.2683233118E-01    0.1457960035E-02    0.5616989676E+00    0.6420162892E+00
    0.3100000000E+05    0.3656725826E-01    0.2684153843E-01    0.1353202259E-02    0.5705729765E+00    0.6426181312E+00
    0.3300000000E+05    0.3410093875E-01    0.2684938320E-01    0.1259991051E-02    0.5784422703E+00    0.6431623763E+00
    0.3500000000E+05    0.3191441364E-01    0.2685609379E-01    0.1176738034E-02    0.5854497882E+00    0.6436575556E+00
    0.3700000000E+05    0.2996731847E-01    0.2686185124E-01    0.1102105224E-02    0.5917149406E+00    0.6441105496E+00
    0.3900000000E+05    0.2822610189E-01    0.2686680097E-01    0.1034962412E-02    0.5973378618E+00    0.6445269735E+00
    0.4100000000E+05    0.2666274107E-01    0.2687106106E-01    0.9743519123E-03    0.6024028560E+00    0.6449114597E+00
    0.4300000000E+05    0.2525371916E-01    0.2687472837E-01    0.9194595085E-03    0.6069811865E+00    0.6452678661E+00
    0.4500000000E+05    0.2397920840E-01    0.2687788309E-01    0.8695905563E-03    0.6111333385E+00    0.6455994339E+00
    0.4700000000E+05    0.2282241500E-01    0.2688059213E-01    0.8241503251E-03    0.6149108569E+00    0.6459089082E+00
    0.4900000000E+05    0.2176905170E-01    0.2688291176E-01    0.7826278188E-03    0.6183578426E+00    0.6461986301E+00
    0.1000000000E+05    0.1017374947E+00    0.2653897092E-01    0.3584999672E-02    0.3741139411E+00    0.6287634984E+00
    0.3000000000E+05    0.3792020789E-01    0.2683712164E-01    0.1404027435E-02    0.5662715499E+00    0.6423250209E+00
    0.5000000000E+05    0.2127727028E-01    0.2688394072E-01    0.7631955901E-03    0.6199694373E+00    0.6463367235E+00
    0.7000000000E+05    0.1468609701E-01    0.2689252264E-01    0.5002107524E-03    0.6416877012E+00    0.6484276167E+00
    0.9000000000E+05    0.1134022084E-01    0.2688947330E-01    0.3657328349E-03    0.6527375419E+00    0.6497622985E+00
    0.1100000000E+06    0.9359435555E-02    0.2688199618E-01    0.2866362677E-03    0.6592259619E+00    0.6507097002E+00
    0.1300000000E+06    0.8060434217E-02    0.2687271442E-01    0.2354888146E-03    0.6634196635E+00    0.6514277126E+00
    0.1500000000E+06    0.7144817668E-02    0.2686274718E-01    0.2000918761E-03    0.6663213392E+00    0.6519966223E+00
    0.1700000000E+06    0.6464215780E-02    0.2685261787E-01    0.1743192079E-03    0.6684333285E+00    0.6524621379E+00
    0.1900000000E+06    0.5937406858E-02    0.2684258352E-01    0.1548017669E-03    0.6700316552E+00    0.6528524530E+00
    0.2100000000E+06    0.5516512314E-02    0.2683277182E-01    0.1395520828E-03    0.6712791683E+00    0.6531860316E+00
    0.2300000000E+06    0.5171604158E-02    0.2682324398E-01    0.1273303860E-03    0.6722775182E+00    0.6534755419E+00
    0.2500000000E+06    0.4883063821E-02    0.2681402566E-01    0.1173273633E-03    0.6730931258E+00    0.6537300059E+00
    0.2700000000E+06    0.4637515272E-02    0.2680512316E-01    0.1089944056E-03    0.6737710667E+00    0.6539560474E+00
    0.2900000000E+06    0.4425532692E-02    0.2679653218E-01    0.1019476254E-03    0.6743429199E+00    0.6541586554E+00
    0.3100000000E+06    0.4240284778E-02    0.2678824271E-01    0.9591101312E-04    0.6748314170E+00    0.6543416689E+00
    0.3300000000E+06    0.4076699541E-02    0.2678024185E-01    0.9068141799E-04    0.6752533079E+00    0.6545080976E+00
    0.3500000000E+06    0.3930931360E-02    0.2677251545E-01    0.8610622891E-04    0.6756211885E+00    0.6546603390E+00
    0.3700000000E+06    0.3800010343E-02    0.2676504904E-01    0.8206872195E-04    0.6759447020E+00    0.6548003298E+00
    0.3900000000E+06    0.3681605379E-02    0.2675782838E-01    0.7847818763E-04    0.6762313484E+00    0.6549296545E+00
    0.4100000000E+06    0.3573860153E-02    0.2675083977E-01    0.7526312377E-04    0.6764870438E+00    0.6550496233E+00
    0.4300000000E+06    0.3475277259E-02    0.2674407020E-01    0.7236644457E-04    0.6767165141E+00    0.6551613310E+00
    0.4500000000E+06    0.3384634726E-02    0.2673750742E-01    0.6974204604E-04    0.6769235780E+00    0.6552656999E+00
    0.4700000000E+06    0.3300924856E-02    0.2673113997E-01    0.6735230249E-04    0.6771113527E+00    0.6553635138E+00
    0.4900000000E+06    0.3223308721E-02    0.2672495714E-01    0.6516621390E-04    0.6772824071E+00    0.6554554436E+00
    0.1000000000E+06    0.1023566513E-01    0.2688607087E-01    0.3215164147E-03    0.6563653213E+00    0.6502718916E+00
    0.3000000000E+06    0.4329917779E-02    0.2679235052E-01    0.9881714455E-04    0.6745964262E+00    0.6542524069E+00
    0.5000000000E+06    0.3186561163E-02    0.2672193182E-01    0.6414131509E-04    0.6773623459E+00    0.6554993857E+00
    0.7000000000E+06    0.2647602685E-02    0.2666904758E-01    0.4988494137E-04    0.6784520029E+00    0.6561752198E+00
    0.9000000000E+06    0.2317983433E-02    0.2662678753E-01    0.4190394927E-04    0.6790358733E+00    0.6566179100E+00
    0.1100000000E+07    0.2089416543E-02    0.2659157426E-01    0.3669999955E-04    0.6794013489E+00    0.6569381445E+00
    0.1300000000E+07    0.1918730102E-02    0.2656137065E-01    0.3298601252E-04    0.6796526907E+00    0.6571844922E+00
    0.1500000000E+07    0.1784870915E-02    0.2653491243E-01    0.3017306914E-04    0.6798367940E+00    0.6573821181E+00
    0.1700000000E+07    0.1676176794E-02    0.2651136181E-01    0.2795133529E-04    0.6799778795E+00    0.6575455605E+00
    0.1900000000E+07    0.1585591000E-02    0.2649013500E-01    0.2614113308E-04    0.6800897318E+00    0.6576838941E+00
    0.2100000000E+07    0.1508556779E-02    0.2647080885E-01    0.2463049896E-04    0.6801807816E+00    0.6578031213E+00
    0.2300000000E+07    0.1441981130E-02    0.2645306674E-01    0.2334570192E-04    0.6802564804E+00    0.6579073959E+00
    0.2500000000E+07    0.1383679887E-02    0.2643666548E-01    0.2223601537E-04    0.6803205133E+00    0.6579996980E+00
    0.2700000000E+07    0.1332060282E-02    0.2642141423E-01    0.2126527721E-04    0.6803754628E+00    0.6580822305E+00
    0.2900000000E+07    0.1285929431E-02    0.2640716038E-01    0.2040693859E-04    0.6804231943E+00    0.6581566622E+00
    0.3100000000E+07    0.1244373643E-02    0.2639377999E-01    0.1964102013E-04    0.6804650899E+00    0.6582242847E+00
    0.3300000000E+07    0.1206679504E-02    0.2638117099E-01    0.1895216577E-04    0.6805021958E+00    0.6582861154E+00
    0.3500000000E+07    0.1172280655E-02    0.2636924830E-01    0.1832835612E-04    0.6805353194E+00    0.6583429686E+00
    0.3700000000E+07    0.1140720912E-02    0.2635794028E-01    0.1776003314E-04    0.6805650939E+00    0.6583955052E+00
    0.3900000000E+07    0.1111628110E-02    0.2634718598E-01    0.1723948938E-04    0.6805920231E+00    0.6584442678E+00
    0.4100000000E+07    0.1084695168E-02    0.2633693316E-01    0.1676043253E-04    0.6806165134E+00    0.6584897071E+00
    0.4300000000E+07    0.1059666122E-02    0.2632713666E-01    0.1631766865E-04    0.6806388960E+00    0.6585322007E+00
    0.4500000000E+07    0.1036325668E-02    0.2631775720E-01    0.1590686793E-04    0.6806594438E+00    0.6585720684E+00
    0.4700000000E+07    0.1014491198E-02    0.2630876038E-01    0.1552438857E-04    0.6806783839E+00    0.6586095822E+00
    0.4900000000E+07    0.9940066750E-03    0.2630011592E-01    0.1516714259E-04    0.6806959067E+00    0.6586449763E+00
    0.1000000000E+07    0.2194537104E-02    0.2660845145E-01    0.3906014136E-04    0.6792373451E+00    0.6567895054E+00
    0.3000000000E+07    0.1264628215E-02    0.2640036783E-01    0.2001347740E-04    0.6804447996E+00    0.6581912556E+00
    0.5000000000E+07    0.9842279492E-03    0.2629591732E-01    0.1499714257E-04    0.6807041879E+00    0.6586619426E+00
    0.7000000000E+07    0.8349860757E-03    0.2622529652E-01    0.1244530101E-04    0.6808239869E+00    0.6589272069E+00
    0.9000000000E+07    0.7386195991E-03    0.2617179119E-01    0.1083965590E-04    0.6808949596E+00    0.6591060731E+00
    0.1100000000E+08    0.6697728731E-03    0.2612867182E-01    0.9712766228E-05    0.6809427211E+00    0.6592385338E+00
    0.1300000000E+08    0.6174022250E-03    0.2609254011E-01    0.8867001619E-05    0.6809774646E+00    0.6593424767E+00
    0.1500000000E+08    0.5758202840E-03    0.2606143648E-01    0.8202653287E-05    0.6810041019E+00    0.6594273170E+00
    0.1700000000E+08    0.5417589308E-03    0.2603412666E-01    0.7663305496E-05    0.6810253119E+00    0.6594985683E+00
    0.1900000000E+08    0.5131882809E-03    0.2600978234E-01    0.7214346160E-05    0.6810426896E+00    0.6595597133E+00
    0.2100000000E+08    0.4887718555E-03    0.2598782044E-01    0.6833217139E-05    0.6810572484E+00    0.6596130807E+00
    0.2300000000E+08    0.4675888472E-03    0.2596781484E-01    0.6504509851E-05    0.6810696655E+00    0.6596602981E+00
    0.2500000000E+08    0.4489813212E-03    0.2594944458E-01    0.6217296578E-05    0.6810804125E+00    0.6597025436E+00
    0.2700000000E+08    0.4324649239E-03    0.2593246186E-01    0.5963585431E-05    0.6810898283E+00    0.6597406957E+00
