  Pressure (Pa) 2mC6-400 (mol/kg) 3mC6-400 (mol/kg) 33mC5-400 (mol/kg) 23mC5-400 (mol/kg) C7-400 (mol/kg)
    0.1000000000E+01    0.4743107937E-02    0.5239453182E-03    0.1287389069E-03    0.6511098658E-03    0.6801845053E-02
    0.3000000000E+01    0.1377724269E-01    0.1521505723E-02    0.3740168551E-03    0.1931403248E-02    0.1975504668E-01
    0.5000000000E+01    0.2225577806E-01    0.2457414749E-02    0.6043030185E-03    0.3183522303E-02    0.3191134397E-01
    0.7000000000E+01    0.3022913790E-01    0.3337489625E-02    0.8209596043E-03    0.4408673554E-02    0.4334582466E-01
    0.9000000000E+01    0.3774165428E-01    0.4166830030E-02    0.1025183987E-02    0.5607992689E-02    0.5412432116E-01
    0.1100000000E+02    0.4483247521E-01    0.4949925799E-02    0.1218033298E-02    0.6782549760E-02    0.6430479922E-01
    0.1300000000E+02    0.5153631340E-01    0.5690745776E-02    0.1400444711E-02    0.7933353938E-02    0.7393850345E-01
    0.1500000000E+02    0.5788406788E-01    0.6392811546E-02    0.1573252274E-02    0.9061357848E-02    0.8307090814E-01
    0.1700000000E+02    0.6390334298E-01    0.7059258973E-02    0.1737200962E-02    0.1016746154E-01    0.9174251078E-01
    0.1900000000E+02    0.6961888398E-01    0.7692889833E-02    0.1892958471E-02    0.1125251612E-01    0.9998949789E-01
    0.2100000000E+02    0.7505294479E-01    0.8296215356E-02    0.2041125172E-02    0.1231732709E-01    0.1078443066E+00
    0.2300000000E+02    0.8022559968E-01    0.8871493116E-02    0.2182242541E-02    0.1336265745E-01    0.1153361006E+00
    0.2500000000E+02    0.8515500887E-01    0.9420758435E-02    0.2316800354E-02    0.1438923044E-01    0.1224911748E+00
    0.2700000000E+02    0.8985764578E-01    0.9945851214E-02    0.2445242825E-02    0.1539773220E-01    0.1293333019E+00
    0.2900000000E+02    0.9434849225E-01    0.1044843897E-01    0.2567973892E-02    0.1638881415E-01    0.1358840293E+00
    0.3100000000E+02    0.9864120696E-01    0.1093003669E-01    0.2685361768E-02    0.1736309520E-01    0.1421629353E+00
    0.3300000000E+02    0.1027482713E+00    0.1139202396E-01    0.2797742887E-02    0.1832116376E-01    0.1481878501E+00
    0.3500000000E+02    0.1066811158E+00    0.1183565987E-01    0.2905425327E-02    0.1926357967E-01    0.1539750482E+00
    0.3700000000E+02    0.1104502313E+00    0.1226209598E-01    0.3008691793E-02    0.2019087592E-01    0.1595394155E+00
    0.3900000000E+02    0.1140652646E+00    0.1267238762E-01    0.3107802236E-02    0.2110356031E-01    0.1648945955E+00
    0.4100000000E+02    0.1175351041E+00    0.1306750382E-01    0.3202996135E-02    0.2200211688E-01    0.1700531168E+00
    0.4300000000E+02    0.1208679540E+00    0.1344833600E-01    0.3294494520E-02    0.2288700738E-01    0.1750265060E+00
    0.4500000000E+02    0.1240714003E+00    0.1381570567E-01    0.3382501748E-02    0.2375867254E-01    0.1798253864E+00
    0.4700000000E+02    0.1271524692E+00    0.1417037118E-01    0.3467207078E-02    0.2461753325E-01    0.1844595657E+00
    0.4900000000E+02    0.1301176784E+00    0.1451303372E-01    0.3548786066E-02    0.2546399173E-01    0.1889381133E+00
    0.1000000000E+02    0.4133751102E-01    0.4563899160E-02    0.1122969354E-02    0.6198302035E-02    0.5928596417E-01
    0.3000000000E+02    0.9651880997E-01    0.1069177237E-01    0.2627313999E-02    0.1687801732E-01    0.1390563070E+00
    0.5000000000E+02    0.1315587449E+00    0.1468006870E-01    0.3588454606E-02    0.2588269098E-01    0.1911216746E+00
    0.7000000000E+02    0.1555620071E+00    0.1752532362E-01    0.4251747262E-02    0.3369066204E-01    0.2283650932E+00
    0.9000000000E+02    0.1728229294E+00    0.1968221735E-01    0.4732833765E-02    0.4060736861E-01    0.2566702669E+00
    0.1100000000E+03    0.1856559174E+00    0.2138914709E-01    0.5094029482E-02    0.4683799015E-01    0.2791249935E+00
    0.1300000000E+03    0.1954265556E+00    0.2278384547E-01    0.5372113098E-02    0.5252608236E-01    0.2975148374E+00
    0.1500000000E+03    0.2029952427E+00    0.2395181258E-01    0.5590271471E-02    0.5777549654E-01    0.3129491948E+00
    0.1700000000E+03    0.2089317808E+00    0.2494914802E-01    0.5763873597E-02    0.6266348696E-01    0.3261566052E+00
    0.1900000000E+03    0.2136286133E+00    0.2581431940E-01    0.5903516234E-02    0.6724889863E-01    0.3376370509E+00
    0.2100000000E+03    0.2173647384E+00    0.2657466838E-01    0.6016742590E-02    0.7157747408E-01    0.3477461996E+00
    0.2300000000E+03    0.2203437723E+00    0.2725021688E-01    0.6109065808E-02    0.7568540326E-01    0.3567447132E+00
    0.2500000000E+03    0.2227176313E+00    0.2785600013E-01    0.6184605863E-02    0.7960176404E-01    0.3648284896E+00
    0.2700000000E+03    0.2246018150E+00    0.2840355401E-01    0.6246500646E-02    0.8335024055E-01    0.3721479515E+00
    0.2900000000E+03    0.2260855778E+00    0.2890189556E-01    0.6297179673E-02    0.8695035894E-01    0.3788207677E+00
    0.3100000000E+03    0.2272388815E+00    0.2935818815E-01    0.6338551229E-02    0.9041839293E-01    0.3849404888E+00
    0.3300000000E+03    0.2281172571E+00    0.2977820437E-01    0.6372133320E-02    0.9376803853E-01    0.3905825592E+00
    0.3500000000E+03    0.2287652754E+00    0.3016665530E-01    0.6399147192E-02    0.9701092452E-01    0.3958085948E+00
    0.3700000000E+03    0.2292190676E+00    0.3052742932E-01    0.6420585311E-02    0.1001570040E+00    0.4006694893E+00
    0.3900000000E+03    0.2295081872E+00    0.3086376852E-01    0.6437261594E-02    0.1032148581E+00    0.4052077073E+00
    0.4100000000E+03    0.2296570036E+00    0.3117840094E-01    0.6449849048E-02    0.1061919354E+00    0.4094590058E+00
    0.4300000000E+03    0.2296857593E+00    0.3147364121E-01    0.6458908347E-02    0.1090947406E+00    0.4134537441E+00
    0.4500000000E+03    0.2296113821E+00    0.3175146806E-01    0.6464909796E-02    0.1119289869E+00    0.4172178936E+00
    0.4700000000E+03    0.2294481145E+00    0.3201358480E-01    0.6468250376E-02    0.1146997186E+00    0.4207738259E+00
    0.4900000000E+03    0.2292080072E+00    0.3226146699E-01    0.6469267119E-02    0.1174114109E+00    0.4241409342E+00
    0.1000000000E+03    0.1796921331E+00    0.2058170861E-01    0.4925704052E-02    0.4379833666E-01    0.2684964913E+00
    0.3000000000E+03    0.2266997743E+00    0.2913490897E-01    0.6318926107E-02    0.8869997672E-01    0.3819446825E+00
    0.5000000000E+03    0.2290624029E+00    0.3238047847E-01    0.6468995632E-02    0.1187463809E+00    0.4257590490E+00
    0.7000000000E+03    0.2239388301E+00    0.3425333777E-01    0.6393097974E-02    0.1431203976E+00    0.4513675723E+00
    0.9000000000E+03    0.2170026380E+00    0.3552213091E-01    0.6252403773E-02    0.1643447677E+00    0.4688979721E+00
    0.1100000000E+04    0.2097281562E+00    0.3645903138E-01    0.6091306576E-02    0.1834786088E+00    0.4819591027E+00
    0.1300000000E+04    0.2025865725E+00    0.3718930551E-01    0.5925394876E-02    0.2010716559E+00    0.4922208648E+00
    0.1500000000E+04    0.1957370388E+00    0.3778012120E-01    0.5760884184E-02    0.2174489211E+00    0.5005829250E+00
    0.1700000000E+04    0.1892265757E+00    0.3827132352E-01    0.5600397394E-02    0.2328204936E+00    0.5075812772E+00
    0.1900000000E+04    0.1830588284E+00    0.3868831703E-01    0.5445027429E-02    0.2473314265E+00    0.5135590132E+00
    0.2100000000E+04    0.1772204813E+00    0.3904820149E-01    0.5295169532E-02    0.2610871491E+00    0.5187479147E+00
    0.2300000000E+04    0.1716921331E+00    0.3936298386E-01    0.5150887686E-02    0.2741675523E+00    0.5233112922E+00
    0.2500000000E+04    0.1664529333E+00    0.3964138624E-01    0.5012086420E-02    0.2866353177E+00    0.5273681632E+00
    0.2700000000E+04    0.1614825517E+00    0.3988992367E-01    0.4878595042E-02    0.2985411017E+00    0.5310077029E+00
    0.2900000000E+04    0.1567619613E+00    0.4011357736E-01    0.4750210176E-02    0.3099268971E+00    0.5342982931E+00
    0.3100000000E+04    0.1522736844E+00    0.4031623199E-01    0.4626717565E-02    0.3208282870E+00    0.5372934133E+00
    0.3300000000E+04    0.1480017968E+00    0.4050096909E-01    0.4507903222E-02    0.3312760002E+00    0.5400356016E+00
    0.3500000000E+04    0.1439318303E+00    0.4067026956E-01    0.4393558991E-02    0.3412970095E+00    0.5425591947E+00
    0.3700000000E+04    0.1400506379E+00    0.4082615684E-01    0.4283485133E-02    0.3509153228E+00    0.5448922694E+00
    0.3900000000E+04    0.1363462537E+00    0.4097030035E-01    0.4177491328E-02    0.3601525646E+00    0.5470580474E+00
    0.4100000000E+04    0.1328077592E+00    0.4110409165E-01    0.4075396845E-02    0.3690284086E+00    0.5490759315E+00
    0.4300000000E+04    0.1294251639E+00    0.4122870135E-01    0.3977030294E-02    0.3775609052E+00    0.5509622824E+00
    0.4500000000E+04    0.1261892986E+00    0.4134512243E-01    0.3882229171E-02    0.3857667326E+00    0.5527310095E+00
    0.4700000000E+04    0.1230917236E+00    0.4145420354E-01    0.3790839338E-02    0.3936613917E+00    0.5543940273E+00
    0.4900000000E+04    0.1201246487E+00    0.4155667499E-01    0.3702714486E-02    0.4012593593E+00    0.5559616108E+00
    0.1000000000E+04    0.2133668655E+00    0.3602229708E-01    0.6173095746E-02    0.1741313875E+00    0.4758571264E+00
    0.3000000000E+04    0.1544898145E+00    0.4021732086E-01    0.4687865803E-02    0.3154361230E+00    0.5358299087E+00
    0.5000000000E+04    0.1186877748E+00    0.4160563306E-01    0.3659832718E-02    0.4049513583E+00    0.5567124478E+00
    0.7000000000E+04    0.9530205132E-01    0.4235457798E-01    0.2943242210E-02    0.4661265933E+00    0.5683720071E+00
    0.9000000000E+04    0.7923115259E-01    0.4283714801E-01    0.2430704183E-02    0.5091983314E+00    0.5760971951E+00
    0.1100000000E+05    0.6774196907E-01    0.4317922177E-01    0.2054628376E-02    0.5403435494E+00    0.5817081138E+00
    0.1300000000E+05    0.5924473753E-01    0.4343674189E-01    0.1771687197E-02    0.5634517979E+00    0.5860264174E+00
    0.1500000000E+05    0.5277132504E-01    0.4363883863E-01    0.1553753355E-02    0.5810142516E+00    0.5894855951E+00
    0.1700000000E+05    0.4771061260E-01    0.4380235443E-01    0.1382256010E-02    0.5946568217E+00    0.5923391342E+00
    0.1900000000E+05    0.4366428861E-01    0.4393778395E-01    0.1244683013E-02    0.6054638167E+00    0.5947465822E+00
    0.2100000000E+05    0.4036501949E-01    0.4405204565E-01    0.1132421085E-02    0.6141747882E+00    0.5968140889E+00
    0.2300000000E+05    0.3762850369E-01    0.4414990599E-01    0.1039413222E-02    0.6213053997E+00    0.5986154118E+00
    0.2500000000E+05    0.3532454415E-01    0.4423476734E-01    0.9613125173E-03    0.6272228126E+00    0.6002036250E+00
    0.2700000000E+05    0.3335910729E-01    0.4430913025E-01    0.8949394327E-03    0.6321936013E+00    0.6016180349E+00
    0.2900000000E+05    0.3166290393E-01    0.4437487795E-01    0.8379270315E-03    0.6364148212E+00    0.6028884623E+00
    0.3100000000E+05    0.3018394323E-01    0.4443345850E-01    0.7884845724E-03    0.6400345610E+00    0.6040380007E+00
    0.3300000000E+05    0.2888256727E-01    0.4448600546E-01    0.7452370029E-03    0.6431658036E+00    0.6050848529E+00
    0.3500000000E+05    0.2772807023E-01    0.4453342010E-01    0.7071140205E-03    0.6458959465E+00    0.6060435887E+00
    0.3700000000E+05    0.2669635226E-01    0.4457642886E-01    0.6732720879E-03    0.6482934571E+00    0.6069260288E+00
    0.3900000000E+05    0.2576826212E-01    0.4461562441E-01    0.6430387428E-03    0.6504125978E+00    0.6077418791E+00
    0.4100000000E+05    0.2492840740E-01    0.4465149551E-01    0.6158722370E-03    0.6522968342E+00    0.6084991939E+00
    0.4300000000E+05    0.2416428730E-01    0.4468444914E-01    0.5913318800E-03    0.6539813265E+00    0.6092047215E+00
    0.4500000000E+05    0.2346565181E-01    0.4471482719E-01    0.5690559680E-03    0.6554947748E+00    0.6098641651E+00
    0.4700000000E+05    0.2282402198E-01    0.4474291915E-01    0.5487451614E-03    0.6568608032E+00    0.6104823821E+00
    0.4900000000E+05    0.2223232648E-01    0.4476897187E-01    0.5301498244E-03    0.6580990083E+00    0.6110635395E+00
    0.1000000000E+05    0.7303211125E-01    0.4302134565E-01    0.2228758178E-02    0.5259777097E+00    0.5791025439E+00
    0.3000000000E+05    0.3089899018E-01    0.4440498701E-01    0.8123537490E-03    0.6382921204E+00    0.6034771073E+00
    0.5000000000E+05    0.2195330933E-01    0.4478130095E-01    0.5214285924E-03    0.6586754018E+00    0.6113413646E+00
    0.7000000000E+05    0.1795130026E-01    0.4495937879E-01    0.4003382081E-03    0.6663345009E+00    0.6156136707E+00
    0.9000000000E+05    0.1559131872E-01    0.4506175165E-01    0.3332684965E-03    0.6702170346E+00    0.6184053979E+00
    0.1100000000E+06    0.1399264781E-01    0.4512683312E-01    0.2900778093E-03    0.6725301971E+00    0.6204168722E+00
    0.1300000000E+06    0.1281707854E-01    0.4517076402E-01    0.2595881529E-03    0.6740543881E+00    0.6219571992E+00
    0.1500000000E+06    0.1190482514E-01    0.4520156224E-01    0.2367033680E-03    0.6751300530E+00    0.6231870055E+00
    0.1700000000E+06    0.1116957382E-01    0.4522367389E-01    0.2187615420E-03    0.6759278328E+00    0.6241992174E+00
    0.1900000000E+06    0.1056012049E-01    0.4523976536E-01    0.2042314083E-03    0.6765421539E+00    0.6250518642E+00
    0.2100000000E+06    0.1004391586E-01    0.4525153260E-01    0.1921663432E-03    0.6770292925E+00    0.6257833239E+00
    0.2300000000E+06    0.9599142237E-02    0.4526010485E-01    0.1819475988E-03    0.6774247824E+00    0.6264201395E+00
    0.2500000000E+06    0.9210548700E-02    0.4526626217E-01    0.1731523765E-03    0.6777521214E+00    0.6269813400E+00
    0.2700000000E+06    0.8867105938E-02    0.4527055985E-01    0.1654811306E-03    0.6780274481E+00    0.6274809758E+00
    0.2900000000E+06    0.8560610320E-02    0.4527340324E-01    0.1587151712E-03    0.6782622018E+00    0.6279296802E+00
    0.3100000000E+06    0.8284814173E-02    0.4527509458E-01    0.1526907492E-03    0.6784647103E+00    0.6283356709E+00
    0.3300000000E+06    0.8034862746E-02    0.4527586338E-01    0.1472825775E-03    0.6786411772E+00    0.6287054134E+00
    0.3500000000E+06    0.7806917676E-02    0.4527588667E-01    0.1423929931E-03    0.6787963158E+00    0.6290440755E+00
    0.3700000000E+06    0.7597898017E-02    0.4527530290E-01    0.1379446192E-03    0.6789337702E+00    0.6293558443E+00
    0.3900000000E+06    0.7405297748E-02    0.4527422168E-01    0.1338752699E-03    0.6790564014E+00    0.6296441537E+00
    0.4100000000E+06    0.7227054386E-02    0.4527273068E-01    0.1301343307E-03    0.6791664862E+00    0.6299118508E+00
    0.4300000000E+06    0.7061452608E-02    0.4527090072E-01    0.1266801384E-03    0.6792658587E+00    0.6301613189E+00
    0.4500000000E+06    0.6907052328E-02    0.4526878951E-01    0.1234780489E-03    0.6793560129E+00    0.6303945704E+00
    0.4700000000E+06    0.6762634235E-02    0.4526644438E-01    0.1204989902E-03    0.6794381776E+00    0.6306133186E+00
    0.4900000000E+06    0.6627157964E-02    0.4526390448E-01    0.1177183637E-03    0.6795133729E+00    0.6308190320E+00
    0.1000000000E+06    0.1472424055E-01    0.4509766658E-01    0.3096030621E-03    0.6715051825E+00    0.6194843246E+00
    0.3000000000E+06    0.8419205765E-02    0.4527437715E-01    0.1556188518E-03    0.6783670579E+00    0.6281375757E+00
    0.5000000000E+06    0.6562488678E-02    0.4526257188E-01    0.1163957864E-03    0.6795486292E+00    0.6309174036E+00
    0.7000000000E+06    0.5575445590E-02    0.4523126512E-01    0.9658416493E-04    0.6800368839E+00    0.6324333274E+00
    0.9000000000E+06    0.4937598101E-02    0.4519772793E-01    0.8414860960E-04    0.6803045322E+00    0.6334285953E+00
    0.1100000000E+07    0.4481415417E-02    0.4516548376E-01    0.7542900755E-04    0.6804740615E+00    0.6341491357E+00
    0.1300000000E+07    0.4134045500E-02    0.4513530445E-01    0.6888674031E-04    0.6805913663E+00    0.6347034672E+00
    0.1500000000E+07    0.3857978214E-02    0.4510724011E-01    0.6374796558E-04    0.6806775359E+00    0.6351480162E+00
    0.1700000000E+07    0.3631652705E-02    0.4508113850E-01    0.5957564769E-04    0.6807436269E+00    0.6355154606E+00
    0.1900000000E+07    0.3441670418E-02    0.4505680141E-01    0.5610196285E-04    0.6807960002E+00    0.6358262326E+00
    0.2100000000E+07    0.3279204631E-02    0.4503403469E-01    0.5315248436E-04    0.6808385773E+00    0.6360938639E+00
    0.2300000000E+07    0.3138170292E-02    0.4501266336E-01    0.5060812194E-04    0.6808739093E+00    0.6363277271E+00
    0.2500000000E+07    0.3014216974E-02    0.4499253450E-01    0.4838444049E-04    0.6809037281E+00    0.6365345516E+00
    0.2700000000E+07    0.2904140204E-02    0.4497351600E-01    0.4641969887E-04    0.6809292517E+00    0.6367193137E+00
    0.2900000000E+07    0.2805520057E-02    0.4495549403E-01    0.4466757348E-04    0.6809513620E+00    0.6368857851E+00
    0.3100000000E+07    0.2716490043E-02    0.4493837043E-01    0.4309254247E-04    0.6809707136E+00    0.6370368851E+00
    0.3300000000E+07    0.2635584166E-02    0.4492206025E-01    0.4166685286E-04    0.6809878025E+00    0.6371749140E+00
    0.3500000000E+07    0.2561632690E-02    0.4490648966E-01    0.4036846679E-04    0.6810030119E+00    0.6373017131E+00
    0.3700000000E+07    0.2493689276E-02    0.4489159426E-01    0.3917963415E-04    0.6810166424E+00    0.6374187764E+00
    0.3900000000E+07    0.2430978907E-02    0.4487731751E-01    0.3808587772E-04    0.6810289334E+00    0.6375273311E+00
    0.4100000000E+07    0.2372859920E-02    0.4486360963E-01    0.3707525711E-04    0.6810400776E+00    0.6376283959E+00
    0.4300000000E+07    0.2318795863E-02    0.4485042656E-01    0.3613782517E-04    0.6810502324E+00    0.6377228249E+00
    0.4500000000E+07    0.2268334277E-02    0.4483772911E-01    0.3526522025E-04    0.6810595273E+00    0.6378113401E+00
    0.4700000000E+07    0.2221090493E-02    0.4482548233E-01    0.3445035586E-04    0.6810680698E+00    0.6378945573E+00
    0.4900000000E+07    0.2176735101E-02    0.4481365488E-01    0.3368718147E-04    0.6810759503E+00    0.6379730048E+00
    0.1000000000E+07    0.4692552678E-02    0.4518136805E-01    0.7944671641E-04    0.6803978150E+00    0.6338146615E+00
    0.3000000000E+07    0.2759905887E-02    0.4494682553E-01    0.4385981002E-04    0.6809613486E+00    0.6369631004E+00
    0.5000000000E+07    0.2155550259E-02    0.4480788949E-01    0.3332332371E-04    0.6810796666E+00    0.6380105850E+00
    0.7000000000E+07    0.1831428457E-02    0.4470904456E-01    0.2781077573E-04    0.6811327418E+00    0.6385958598E+00
    0.9000000000E+07    0.1621434116E-02    0.4463209036E-01    0.2429759345E-04    0.6811634170E+00    0.6389876240E+00
    0.1100000000E+08    0.1471119422E-02    0.4456897636E-01    0.2181384248E-04    0.6811836322E+00    0.6392759095E+00
    0.1300000000E+08    0.1356633387E-02    0.4451542519E-01    0.1994087723E-04    0.6811980751E+00    0.6395008644E+00
    0.1500000000E+08    0.1265651008E-02    0.4446888735E-01    0.1846479043E-04    0.6812089755E+00    0.6396835581E+00
    0.1700000000E+08    0.1191073810E-02    0.4442771833E-01    0.1726350853E-04    0.6812175352E+00    0.6398362939E+00
    0.1900000000E+08    0.1128485564E-02    0.4439079439E-01    0.1626167042E-04    0.6812244617E+00    0.6399668230E+00
    0.2100000000E+08    0.1074975003E-02    0.4435731295E-01    0.1540992841E-04    0.6812302000E+00    0.6400803146E+00
    0.2300000000E+08    0.1028534367E-02    0.4432668054E-01    0.1467445051E-04    0.6812350447E+00    0.6401803727E+00
    0.2500000000E+08    0.9877279386E-03    0.4429844574E-01    0.1403117186E-04    0.6812391989E+00    0.6402696003E+00
    0.2700000000E+08    0.9514980954E-03    0.4427225704E-01    0.1346244987E-04    0.6812428076E+00    0.6403499338E+00
