  Pressure (Pa) 2mC6-400 (mol/kg) 3mC6-400 (mol/kg) 33mC5-400 (mol/kg) 23mC5-400 (mol/kg) C7-400 (mol/kg)
    0.1000000000E+01    0.4749802549E-02    0.1049772496E-02    0.6445908012E-04    0.7440721456E-03    0.5110500527E-02
    0.3000000000E+01    0.1383344988E-01    0.3058905686E-02    0.1877605139E-03    0.2206850365E-02    0.1489329149E-01
    0.5000000000E+01    0.2240174474E-01    0.4956349655E-02    0.3041035751E-03    0.3637047069E-02    0.2413468626E-01
    0.7000000000E+01    0.3049715122E-01    0.6751660843E-02    0.4140621103E-03    0.5036071780E-02    0.3288094412E-01
    0.9000000000E+01    0.3815748941E-01    0.8453322610E-02    0.5181471275E-03    0.6405250517E-02    0.4117313365E-01
    0.1100000000E+02    0.4541656338E-01    0.1006889232E-01    0.6168153008E-03    0.7745831976E-02    0.4904784394E-01
    0.1300000000E+02    0.5230468889E-01    0.1160512486E-01    0.7104761190E-03    0.9058993173E-02    0.5653778174E-01
    0.1500000000E+02    0.5884913930E-01    0.1306807683E-01    0.7994979238E-03    0.1034584459E-01    0.6367227542E-01
    0.1700000000E+02    0.6507452411E-01    0.1446319492E-01    0.8842130346E-03    0.1160743490E-01    0.7047770226E-01
    0.1900000000E+02    0.7100311175E-01    0.1579539117E-01    0.9649221194E-03    0.1284475523E-01    0.7697785237E-01
    0.2100000000E+02    0.7665510613E-01    0.1706910731E-01    0.1041897937E-02    0.1405874320E-01    0.8319423996E-01
    0.2300000000E+02    0.8204888435E-01    0.1828837004E-01    0.1115388554E-02    0.1525028645E-01    0.8914637063E-01
    0.2500000000E+02    0.8720120208E-01    0.1945683862E-01    0.1185620127E-02    0.1642022606E-01    0.9485197172E-01
    0.2700000000E+02    0.9212737146E-01    0.2057784613E-01    0.1252799303E-02    0.1756935957E-01    0.1003271917E+00
    0.2900000000E+02    0.9684141579E-01    0.2165443520E-01    0.1317115320E-02    0.1869844383E-01    0.1055867730E+00
    0.3100000000E+02    0.1013562046E+00    0.2268938917E-01    0.1378741828E-02    0.1980819758E-01    0.1106442032E+00
    0.3300000000E+02    0.1056835718E+00    0.2368525933E-01    0.1437838488E-02    0.2089930392E-01    0.1155118460E+00
    0.3500000000E+02    0.1098344195E+00    0.2464438872E-01    0.1494552380E-02    0.2197241247E-01    0.1202010573E+00
    0.3700000000E+02    0.1138188094E+00    0.2556893314E-01    0.1549019232E-02    0.2302814144E-01    0.1247222860E+00
    0.3900000000E+02    0.1176460434E+00    0.2646087958E-01    0.1601364515E-02    0.2406707961E-01    0.1290851639E+00
    0.4100000000E+02    0.1213247353E+00    0.2732206257E-01    0.1651704410E-02    0.2508978799E-01    0.1332985845E+00
    0.4300000000E+02    0.1248628742E+00    0.2815417863E-01    0.1700146664E-02    0.2609680155E-01    0.1373707728E+00
    0.4500000000E+02    0.1282678806E+00    0.2895879910E-01    0.1746791351E-02    0.2708863070E-01    0.1413093475E+00
    0.4700000000E+02    0.1315466575E+00    0.2973738155E-01    0.1791731560E-02    0.2806576275E-01    0.1451213764E+00
    0.4900000000E+02    0.1347056349E+00    0.3049128002E-01    0.1835053996E-02    0.2902866317E-01    0.1488134258E+00
    0.1000000000E+02    0.4183521352E-01    0.9271429292E-02    0.5681316963E-03    0.7079040725E-02    0.4516054485E-01
    0.3000000000E+02    0.9912295453E-01    0.2217695197E-01    0.1348254473E-02    0.1925569352E-01    0.1081399594E+00
    0.5000000000E+02    0.1362420888E+00    0.3085936984E-01    0.1856134035E-02    0.2950491633E-01    0.1506163839E+00
    0.7000000000E+02    0.1619434835E+00    0.3718882931E-01    0.2209814279E-02    0.3838120357E-01    0.1816551145E+00
    0.9000000000E+02    0.1805374860E+00    0.4206135641E-01    0.2467408700E-02    0.4623737274E-01    0.2056032296E+00
    0.1100000000E+03    0.1944091384E+00    0.4596253320E-01    0.2661069020E-02    0.5330974349E-01    0.2248184631E+00
    0.1300000000E+03    0.2049898406E+00    0.4917966848E-01    0.2810094603E-02    0.5976325635E-01    0.2406969433E+00
    0.1500000000E+03    0.2131918845E+00    0.5189435252E-01    0.2926790746E-02    0.6571698437E-01    0.2541217590E+00
    0.1700000000E+03    0.2196243259E+00    0.5422741885E-01    0.3019377559E-02    0.7125934518E-01    0.2656809777E+00
    0.1900000000E+03    0.2247090928E+00    0.5626266196E-01    0.3093553977E-02    0.7645758012E-01    0.2757827084E+00
    0.2100000000E+03    0.2287474429E+00    0.5806019291E-01    0.3153392815E-02    0.8136388497E-01    0.2847199264E+00
    0.2300000000E+03    0.2319599587E+00    0.5966437051E-01    0.3201879379E-02    0.8601950324E-01    0.2927089863E+00
    0.2500000000E+03    0.2345116328E+00    0.6110872369E-01    0.3241249303E-02    0.9045753552E-01    0.2999135361E+00
    0.2700000000E+03    0.2365281571E+00    0.6241912255E-01    0.3273207948E-02    0.9470491463E-01    0.3064599297E+00
    0.2900000000E+03    0.2381068181E+00    0.6361588737E-01    0.3299077182E-02    0.9878382409E-01    0.3124474822E+00
    0.3100000000E+03    0.2393239728E+00    0.6471523061E-01    0.3319896117E-02    0.1027127363E+00    0.3179554851E+00
    0.3300000000E+03    0.2402402934E+00    0.6573026701E-01    0.3336491811E-02    0.1065071852E+00    0.3230481215E+00
    0.3500000000E+03    0.2409045204E+00    0.6667173629E-01    0.3349529878E-02    0.1101803502E+00    0.3277779856E+00
    0.3700000000E+03    0.2413561956E+00    0.6754853025E-01    0.3359551350E-02    0.1137435038E+00    0.3321886496E+00
    0.3900000000E+03    0.2416276827E+00    0.6836808365E-01    0.3366999959E-02    0.1172063587E+00    0.3363165690E+00
    0.4100000000E+03    0.2417456833E+00    0.6913666869E-01    0.3372242601E-02    0.1205773399E+00    0.3401925179E+00
    0.4300000000E+03    0.2417323879E+00    0.6985961979E-01    0.3375584898E-02    0.1238638011E+00    0.3438426850E+00
    0.4500000000E+03    0.2416063609E+00    0.7054150741E-01    0.3377283155E-02    0.1270721977E+00    0.3472895222E+00
    0.4700000000E+03    0.2413832279E+00    0.7118627408E-01    0.3377553659E-02    0.1302082262E+00    0.3505524082E+00
    0.4900000000E+03    0.2410762138E+00    0.7179734180E-01    0.3376579975E-02    0.1332769384E+00    0.3536481730E+00
    0.1000000000E+03    0.1879584000E+00    0.4411217674E-01    0.2570812281E-02    0.4985991606E-01    0.2156995272E+00
    0.3000000000E+03    0.2387564741E+00    0.6417685402E-01    0.3310061948E-02    0.1007659977E+00    0.3152571086E+00
    0.5000000000E+03    0.2408948346E+00    0.7209118708E-01    0.3375676423E-02    0.1347874765E+00    0.3551380522E+00
    0.7000000000E+03    0.2348650769E+00    0.7675816083E-01    0.3320315230E-02    0.1623369365E+00    0.3789168828E+00
    0.9000000000E+03    0.2268968854E+00    0.7997140346E-01    0.3231564482E-02    0.1862575522E+00    0.3954347539E+00
    0.1100000000E+04    0.2186102705E+00    0.8237538248E-01    0.3133343224E-02    0.2077399143E+00    0.4078860123E+00
    0.1300000000E+04    0.2105214077E+00    0.8426995956E-01    0.3033926582E-02    0.2274020143E+00    0.4177639663E+00
    0.1500000000E+04    0.2028026305E+00    0.8581741093E-01    0.2936530826E-02    0.2456102849E+00    0.4258801170E+00
    0.1700000000E+04    0.1955026051E+00    0.8711479243E-01    0.2842449649E-02    0.2626030657E+00    0.4327216369E+00
    0.1900000000E+04    0.1886221553E+00    0.8822444583E-01    0.2752167404E-02    0.2785465211E+00    0.4386025248E+00
    0.2100000000E+04    0.1821434302E+00    0.8918861923E-01    0.2665805325E-02    0.2935630148E+00    0.4437362495E+00
    0.2300000000E+04    0.1760419312E+00    0.9003716478E-01    0.2583316384E-02    0.3077467630E+00    0.4482740931E+00
    0.2500000000E+04    0.1702916514E+00    0.9079189430E-01    0.2504575749E-02    0.3211730380E+00    0.4523269006E+00
    0.2700000000E+04    0.1648672665E+00    0.9146918900E-01    0.2429424603E-02    0.3339038570E+00    0.4559781393E+00
    0.2900000000E+04    0.1597450124E+00    0.9208163736E-01    0.2357691939E-02    0.3459916431E+00    0.4592921126E+00
    0.3100000000E+04    0.1549029668E+00    0.9263910366E-01    0.2289205505E-02    0.3574816611E+00    0.4623193299E+00
    0.3300000000E+04    0.1503210610E+00    0.9314944804E-01    0.2223797248E-02    0.3684136844E+00    0.4651001311E+00
    0.3500000000E+04    0.1459809764E+00    0.9361902550E-01    0.2161305897E-02    0.3788231634E+00    0.4676672041E+00
    0.3700000000E+04    0.1418659986E+00    0.9405304017E-01    0.2101578047E-02    0.3887420638E+00    0.4700473744E+00
    0.3900000000E+04    0.1379608621E+00    0.9445580207E-01    0.2044468474E-02    0.3981994783E+00    0.4722629048E+00
    0.4100000000E+04    0.1342516018E+00    0.9483091689E-01    0.1989840027E-02    0.4072220842E+00    0.4743324573E+00
    0.4300000000E+04    0.1307254179E+00    0.9518142837E-01    0.1937563340E-02    0.4158344895E+00    0.4762718160E+00
    0.4500000000E+04    0.1273705549E+00    0.9550992691E-01    0.1887516439E-02    0.4240595021E+00    0.4780944396E+00
    0.4700000000E+04    0.1241761943E+00    0.9581863341E-01    0.1839584334E-02    0.4319183408E+00    0.4798118883E+00
    0.4900000000E+04    0.1211323613E+00    0.9610946482E-01    0.1793658598E-02    0.4394308052E+00    0.4814341578E+00
    0.1000000000E+04    0.2227485970E+00    0.8125122576E-01    0.3182938939E-02    0.1972567524E+00    0.4020526927E+00
    0.3000000000E+04    0.1572902604E+00    0.9236671174E-01    0.2323053585E-02    0.3518087742E+00    0.4608388399E+00
    0.5000000000E+04    0.1196639858E+00    0.9624870628E-01    0.1771415932E-02    0.4430629812E+00    0.4822123626E+00
    0.7000000000E+04    0.9629779392E-01    0.9840411058E-01    0.1409974388E-02    0.5014471277E+00    0.4943988089E+00
    0.9000000000E+04    0.8081406603E-01    0.9982159447E-01    0.1163161409E-02    0.5404520773E+00    0.5025860250E+00
    0.1100000000E+05    0.6999648563E-01    0.1008428005E+00    0.9878311259E-03    0.5675636261E+00    0.5085945526E+00
    0.1300000000E+05    0.6209663072E-01    0.1016221450E+00    0.8587340780E-03    0.5870988204E+00    0.5132571521E+00
    0.1500000000E+05    0.5610961601E-01    0.1022411052E+00    0.7606421889E-03    0.6016277869E+00    0.5170176104E+00
    0.1700000000E+05    0.5142929232E-01    0.1027473062E+00    0.6840574819E-03    0.6127339732E+00    0.5201375763E+00
    0.1900000000E+05    0.4767396320E-01    0.1031707012E+00    0.6228531073E-03    0.6214268450E+00    0.5227828908E+00
    0.2100000000E+05    0.4459392951E-01    0.1035311981E+00    0.5729492432E-03    0.6283710047E+00    0.5250645654E+00
    0.2300000000E+05    0.4202024807E-01    0.1038426124E+00    0.5315489482E-03    0.6340170881E+00    0.5270601541E+00
    0.2500000000E+05    0.3983516814E-01    0.1041148707E+00    0.4966837142E-03    0.6386788805E+00    0.5288257332E+00
    0.2700000000E+05    0.3795443828E-01    0.1043553125E+00    0.4669350284E-03    0.6425801469E+00    0.5304030140E+00
    0.2900000000E+05    0.3631635962E-01    0.1045694959E+00    0.4412588744E-03    0.6458839010E+00    0.5318237676E+00
    0.3100000000E+05    0.3487480701E-01    0.1047617169E+00    0.4188721616E-03    0.6487111939E+00    0.5331126868E+00
    0.3300000000E+05    0.3359465749E-01    0.1049353548E+00    0.3991774216E-03    0.6511534754E+00    0.5342893000E+00
    0.3500000000E+05    0.3244872146E-01    0.1050931084E+00    0.3817117571E-03    0.6532809118E+00    0.5353692858E+00
    0.3700000000E+05    0.3141563655E-01    0.1052371626E+00    0.3661115179E-03    0.6551480989E+00    0.5363654007E+00
    0.3900000000E+05    0.3047839275E-01    0.1053693072E+00    0.3520874018E-03    0.6567980608E+00    0.5372881464E+00
    0.4100000000E+05    0.2962328055E-01    0.1054910238E+00    0.3394066013E-03    0.6582650976E+00    0.5381462592E+00
    0.4300000000E+05    0.2883912812E-01    0.1056035510E+00    0.3278798001E-03    0.6595768446E+00    0.5389470757E+00
    0.4500000000E+05    0.2811673968E-01    0.1057079330E+00    0.3173515654E-03    0.6607557842E+00    0.5396968094E+00
    0.4700000000E+05    0.2744847602E-01    0.1058050567E+00    0.3076931551E-03    0.6618203702E+00    0.5404007634E+00
    0.4900000000E+05    0.2682793722E-01    0.1058956813E+00    0.2987970654E-03    0.6627858748E+00    0.5410634957E+00
    0.1000000000E+05    0.7495456095E-01    0.1003696318E+00    0.1068443247E-02    0.5551714003E+00    0.5057975596E+00
    0.3000000000E+05    0.3557342891E-01    0.1046681222E+00    0.4296953386E-03    0.6473508087E+00    0.5324833826E+00
    0.5000000000E+05    0.2653384259E-01    0.1059387643E+00    0.2946060543E-03    0.6632355359E+00    0.5413806568E+00
    0.7000000000E+05    0.2220012813E-01    0.1065788349E+00    0.2348992345E-03    0.6692321887E+00    0.5462867535E+00
    0.9000000000E+05    0.1953131011E-01    0.1069691825E+00    0.2002381386E-03    0.6722986400E+00    0.5495242703E+00
    0.1100000000E+06    0.1767149401E-01    0.1072327031E+00    0.1771112366E-03    0.6741403968E+00    0.5518742695E+00
    0.1300000000E+06    0.1627689450E-01    0.1074222519E+00    0.1603346110E-03    0.6753623358E+00    0.5536846277E+00
    0.1500000000E+06    0.1517925815E-01    0.1075646292E+00    0.1474706978E-03    0.6762296807E+00    0.5551373467E+00
    0.1700000000E+06    0.1428514152E-01    0.1076749807E+00    0.1372113162E-03    0.6768760859E+00    0.5563382895E+00
    0.1900000000E+06    0.1353787355E-01    0.1077625544E+00    0.1287860009E-03    0.6773758920E+00    0.5573538630E+00
    0.2100000000E+06    0.1290078106E-01    0.1078333350E+00    0.1217085882E-03    0.6777736158E+00    0.5582281561E+00
    0.2300000000E+06    0.1234891957E-01    0.1078913757E+00    0.1156555588E-03    0.6780974881E+00    0.5589917655E+00
    0.2500000000E+06    0.1186463896E-01    0.1079395231E+00    0.1104023403E-03    0.6783662516E+00    0.5596666928E+00
    0.2700000000E+06    0.1143504329E-01    0.1079798378E+00    0.1057875996E-03    0.6785928249E+00    0.5602692280E+00
    0.2900000000E+06    0.1105045650E-01    0.1080138487E+00    0.1016920884E-03    0.6787863950E+00    0.5608117303E+00
    0.3100000000E+06    0.1070345406E-01    0.1080427150E+00    0.9802552708E-04    0.6789536703E+00    0.5613037726E+00
    0.3300000000E+06    0.1038822910E-01    0.1080673319E+00    0.9471815447E-04    0.6790996611E+00    0.5617529036E+00
    0.3500000000E+06    0.1010016427E-01    0.1080884014E+00    0.9171510397E-04    0.6792281841E+00    0.5621651682E+00
    0.3700000000E+06    0.9835534725E-02    0.1081064821E+00    0.8897255353E-04    0.6793421967E+00    0.5625454737E+00
    0.3900000000E+06    0.9591297227E-02    0.1081220239E+00    0.8645502488E-04    0.6794440257E+00    0.5628978516E+00
    0.4100000000E+06    0.9364937206E-02    0.1081353933E+00    0.8413344783E-04    0.6795355263E+00    0.5632256501E+00
    0.4300000000E+06    0.9154355899E-02    0.1081468913E+00    0.8198374611E-04    0.6796181960E+00    0.5635316764E+00
    0.4500000000E+06    0.8957785657E-02    0.1081567681E+00    0.7998578663E-04    0.6796932563E+00    0.5638183044E+00
    0.4700000000E+06    0.8773725471E-02    0.1081652328E+00    0.7812258675E-04    0.6797617136E+00    0.5640875579E+00
    0.4900000000E+06    0.8600891241E-02    0.1081724614E+00    0.7637970788E-04    0.6798244045E+00    0.5643411742E+00
    0.1000000000E+06    0.1852786706E-01    0.1071126053E+00    0.1876536176E-03    0.6733225915E+00    0.5507828706E+00
    0.3000000000E+06    0.1087265228E-01    0.1080288637E+00    0.9980995345E-04    0.6788729735E+00    0.5610635467E+00
    0.5000000000E+06    0.8518332158E-02    0.1081756598E+00    0.7554945464E-04    0.6798538111E+00    0.5644625956E+00
    0.7000000000E+06    0.7253955067E-02    0.1082013235E+00    0.6301822206E-04    0.6802618533E+00    0.5663464782E+00
    0.9000000000E+06    0.6433010486E-02    0.1081896133E+00    0.5506762493E-04    0.6804860336E+00    0.5675982648E+00
    0.1100000000E+07    0.5844230414E-02    0.1081635589E+00    0.4945729072E-04    0.6806281017E+00    0.5685133874E+00
    0.1300000000E+07    0.5395045542E-02    0.1081316316E+00    0.4523010028E-04    0.6807263732E+00    0.5692232736E+00
    0.1500000000E+07    0.5037572064E-02    0.1080974732E+00    0.4189972456E-04    0.6807985065E+00    0.5697967157E+00
    0.1700000000E+07    0.4744198912E-02    0.1080627975E+00    0.3918954455E-04    0.6808537765E+00    0.5702737786E+00
    0.1900000000E+07    0.4497727836E-02    0.1080284507E+00    0.3692915141E-04    0.6808975248E+00    0.5706796385E+00
    0.2100000000E+07    0.4286808688E-02    0.1079948555E+00    0.3500711323E-04    0.6809330469E+00    0.5710310436E+00
    0.2300000000E+07    0.4103605645E-02    0.1079622156E+00    0.3334710502E-04    0.6809624872E+00    0.5713396414E+00
    0.2500000000E+07    0.3942510054E-02    0.1079306173E+00    0.3189487052E-04    0.6809873018E+00    0.5716138262E+00
    0.2700000000E+07    0.3799386615E-02    0.1079000826E+00    0.3061064977E-04    0.6810085148E+00    0.5718598271E+00
    0.2900000000E+07    0.3671109869E-02    0.1078705979E+00    0.2946455641E-04    0.6810268674E+00    0.5720823806E+00
    0.3100000000E+07    0.3555267416E-02    0.1078421305E+00    0.2843363684E-04    0.6810429098E+00    0.5722851641E+00
    0.3300000000E+07    0.3449963291E-02    0.1078146379E+00    0.2749993299E-04    0.6810570586E+00    0.5724710838E+00
    0.3500000000E+07    0.3353683838E-02    0.1077880731E+00    0.2664916774E-04    0.6810696358E+00    0.5726424719E+00
    0.3700000000E+07    0.3265203872E-02    0.1077623881E+00    0.2586982956E-04    0.6810808937E+00    0.5728012263E+00
    0.3900000000E+07    0.3183519557E-02    0.1077375354E+00    0.2515252065E-04    0.6810910330E+00    0.5729489092E+00
    0.4100000000E+07    0.3107799455E-02    0.1077134694E+00    0.2448948334E-04    0.6811002155E+00    0.5730868211E+00
    0.4300000000E+07    0.3037348189E-02    0.1076901465E+00    0.2387425004E-04    0.6811085731E+00    0.5732160544E+00
    0.4500000000E+07    0.2971579064E-02    0.1076675257E+00    0.2330138027E-04    0.6811162144E+00    0.5733375350E+00
    0.4700000000E+07    0.2909993134E-02    0.1076455685E+00    0.2276626029E-04    0.6811232293E+00    0.5734520538E+00
    0.4900000000E+07    0.2852162997E-02    0.1076242391E+00    0.2226494851E-04    0.6811296935E+00    0.5735602911E+00
    0.1000000000E+07    0.6116900332E-02    0.1081776787E+00    0.5204582192E-04    0.6805642065E+00    0.5680875805E+00
    0.3000000000E+07    0.3611763147E-02    0.1078562395E+00    0.2893592159E-04    0.6810351487E+00    0.5721860466E+00
    0.5000000000E+07    0.2824539172E-02    0.1076137992E+00    0.2202589250E-04    0.6811327394E+00    0.5736122413E+00
    0.7000000000E+07    0.2401641214E-02    0.1074309850E+00    0.1840055205E-04    0.6811760348E+00    0.5744303121E+00
    0.9000000000E+07    0.2127385294E-02    0.1072844958E+00    0.1608668491E-04    0.6812008303E+00    0.5749885652E+00
    0.1100000000E+08    0.1930939928E-02    0.1071621882E+00    0.1444925555E-04    0.6812170445E+00    0.5754057341E+00
    0.1300000000E+08    0.1781242656E-02    0.1070571174E+00    0.1321363396E-04    0.6812285510E+00    0.5757354674E+00
    0.1500000000E+08    0.1662229424E-02    0.1069649599E+00    0.1223931747E-04    0.6812371836E+00    0.5760062272E+00
    0.1700000000E+08    0.1564642787E-02    0.1068828440E+00    0.1144604859E-04    0.6812439263E+00    0.5762347900E+00
    0.1900000000E+08    0.1482720596E-02    0.1068087647E+00    0.1078424532E-04    0.6812493562E+00    0.5764318124E+00
    0.2100000000E+08    0.1412662824E-02    0.1067412663E+00    0.1022142177E-04    0.6812538348E+00    0.5766044545E+00
    0.2300000000E+08    0.1351847893E-02    0.1066792580E+00    0.9735295467E-05    0.6812576007E+00    0.5767577411E+00
    0.2500000000E+08    0.1298400608E-02    0.1066219013E+00    0.9310010313E-05    0.6812608178E+00    0.5768953249E+00
    0.2700000000E+08    0.1250939247E-02    0.1065685371E+00    0.8933937702E-05    0.6812636028E+00    0.5770199376E+00
