  Pressure (Pa) 2mC6-400 (mol/kg) 3mC6-400 (mol/kg) 33mC5-400 (mol/kg) 23mC5-400 (mol/kg) C7-400 (mol/kg)
    0.1000000000E+01    0.4753933354E-02    0.2101537670E-02    0.6451462118E-04    0.6511521598E-03    0.3410218133E-02
    0.3000000000E+01    0.1386851619E-01    0.6134734467E-02    0.1882318788E-03    0.1931772828E-02    0.9956190459E-02
    0.5000000000E+01    0.2249378366E-01    0.9957136657E-02    0.3053404583E-03    0.3184519558E-02    0.1616155882E-01
    0.7000000000E+01    0.3066789199E-01    0.1358579257E-01    0.4163560757E-03    0.4410573178E-02    0.2205383238E-01
    0.9000000000E+01    0.3842504866E-01    0.1703593693E-01    0.5217410137E-03    0.5611045932E-02    0.2765759595E-01
    0.1100000000E+02    0.4579601824E-01    0.2032122673E-01    0.6219109728E-03    0.6786986456E-02    0.3299489016E-01
    0.1300000000E+02    0.5280855161E-01    0.2345394125E-01    0.7172408848E-03    0.7939384342E-02    0.3808553385E-01
    0.1500000000E+02    0.5948775193E-01    0.2644515230E-01    0.8080698685E-03    0.9069174293E-02    0.4294739848E-01
    0.1700000000E+02    0.6585638803E-01    0.2930486979E-01    0.8947054729E-03    0.1017723994E-01    0.4759664276E-01
    0.1900000000E+02    0.7193516384E-01    0.3204216666E-01    0.9774273252E-03    0.1126441736E-01    0.5204791413E-01
    0.2100000000E+02    0.7774295097E-01    0.3466528663E-01    0.1056490278E-02    0.1233149824E-01    0.5631452237E-01
    0.2300000000E+02    0.8329699020E-01    0.3718173730E-01    0.1132127139E-02    0.1337923289E-01    0.6040858978E-01
    0.2500000000E+02    0.8861306672E-01    0.3959837097E-01    0.1204551038E-02    0.1440833291E-01    0.6434118146E-01
    0.2700000000E+02    0.9370566289E-01    0.4192145507E-01    0.1273957498E-02    0.1541947374E-01    0.6812241885E-01
    0.2900000000E+02    0.9858809209E-01    0.4415673358E-01    0.1340526244E-02    0.1641329694E-01    0.7176157886E-01
    0.3100000000E+02    0.1032726161E+00    0.4630948097E-01    0.1404422792E-02    0.1739041233E-01    0.7526718071E-01
    0.3300000000E+02    0.1077705484E+00    0.4838454946E-01    0.1465799847E-02    0.1835139996E-01    0.7864706228E-01
    0.3500000000E+02    0.1120923457E+00    0.5038641076E-01    0.1524798535E-02    0.1929681199E-01    0.8190844739E-01
    0.3700000000E+02    0.1162476885E+00    0.5231919292E-01    0.1581549503E-02    0.2022717428E-01    0.8505800516E-01
    0.3900000000E+02    0.1202455531E+00    0.5418671291E-01    0.1636173881E-02    0.2114298806E-01    0.8810190270E-01
    0.4100000000E+02    0.1240942751E+00    0.5599250565E-01    0.1688784151E-02    0.2204473134E-01    0.9104585181E-01
    0.4300000000E+02    0.1278016067E+00    0.5773984977E-01    0.1739484913E-02    0.2293286027E-01    0.9389515056E-01
    0.4500000000E+02    0.1313747672E+00    0.5943179058E-01    0.1788373574E-02    0.2380781040E-01    0.9665472043E-01
    0.4700000000E+02    0.1348204890E+00    0.6107116066E-01    0.1835540965E-02    0.2466999785E-01    0.9932913941E-01
    0.4900000000E+02    0.1381450582E+00    0.6266059823E-01    0.1881071896E-02    0.2551982041E-01    0.1019226717E+00
    0.1000000000E+02    0.4215700634E-01    0.1869839103E-01    0.5724535387E-03    0.6202019540E-02    0.3035826440E-01
    0.3000000000E+02    0.1009543640E+00    0.4524311102E-01    0.1372798714E-02    0.1690390618E-01    0.7353056954E-01
    0.5000000000E+02    0.1397637623E+00    0.6343736774E-01    0.1903248667E-02    0.2594021442E-01    0.1031903588E+00
    0.7000000000E+02    0.1670193144E+00    0.7686871575E-01    0.2277623729E-02    0.3378320145E-01    0.1251340608E+00
    0.9000000000E+02    0.1869800951E+00    0.8730362867E-01    0.2553375071E-02    0.4073553529E-01    0.1422180388E+00
    0.1100000000E+03    0.2020425860E+00    0.9571766301E-01    0.2762824893E-02    0.4700111763E-01    0.1560209536E+00
    0.1300000000E+03    0.2136626439E+00    0.1026960877E+00    0.2925611095E-02    0.5272293527E-01    0.1674905934E+00
    0.1500000000E+03    0.2227768626E+00    0.1086127546E+00    0.3054371201E-02    0.5800461877E-01    0.1772328103E+00
    0.1700000000E+03    0.2300152473E+00    0.1137185199E+00    0.3157609910E-02    0.6292337493E-01    0.1856544175E+00
    0.1900000000E+03    0.2358169925E+00    0.1181885247E+00    0.3241259703E-02    0.6753808655E-01    0.1930396361E+00
    0.2100000000E+03    0.2404973883E+00    0.1221491117E+00    0.3309582530E-02    0.7189457388E-01    0.1995936344E+00
    0.2300000000E+03    0.2442883992E+00    0.1256939529E+00    0.3365716641E-02    0.7602912073E-01    0.2054686271E+00
    0.2500000000E+03    0.2473642822E+00    0.1288941343E+00    0.3412021808E-02    0.7997090250E-01    0.2107802021E+00
    0.2700000000E+03    0.2498583138E+00    0.1318046933E+00    0.3450304757E-02    0.8374369823E-01    0.2156179091E+00
    0.2900000000E+03    0.2518740325E+00    0.1344689908E+00    0.3481970702E-02    0.8736712332E-01    0.2200523431E+00
    0.3100000000E+03    0.2534929853E+00    0.1369217140E+00    0.3508127779E-02    0.9085753373E-01    0.2241400131E+00
    0.3300000000E+03    0.2547801842E+00    0.1391909888E+00    0.3529660620E-02    0.9422870047E-01    0.2279267670E+00
    0.3500000000E+03    0.2557880229E+00    0.1412998968E+00    0.3547283194E-02    0.9749232026E-01    0.2314502522E+00
    0.3700000000E+03    0.2565591388E+00    0.1432675850E+00    0.3561577414E-02    0.1006584074E+00    0.2347417170E+00
    0.3900000000E+03    0.2571285350E+00    0.1451100910E+00    0.3573021788E-02    0.1037355985E+00    0.2378273506E+00
    0.4100000000E+03    0.2575251767E+00    0.1468409665E+00    0.3582012969E-02    0.1067313917E+00    0.2407292953E+00
    0.4300000000E+03    0.2577732064E+00    0.1484717544E+00    0.3588882181E-02    0.1096523364E+00    0.2434664216E+00
    0.4500000000E+03    0.2578928805E+00    0.1500123582E+00    0.3593907875E-02    0.1125041865E+00    0.2460549294E+00
    0.4700000000E+03    0.2579012982E+00    0.1514713319E+00    0.3597325580E-02    0.1152920225E+00    0.2485088185E+00
    0.4900000000E+03    0.2578129743E+00    0.1528561093E+00    0.3599335660E-02    0.1180203529E+00    0.2508402617E+00
    0.1000000000E+03    0.1950169641E+00    0.9172025229E-01    0.2664949013E-02    0.4394411372E-01    0.1494600047E+00
    0.3000000000E+03    0.2527287059E+00    0.1357199077E+00    0.3495678022E-02    0.8912804074E-01    0.2221364409E+00
    0.5000000000E+03    0.2577364770E+00    0.1535227370E+00    0.3599867378E-02    0.1193634764E+00    0.2519634454E+00
    0.7000000000E+03    0.2533429418E+00    0.1641787327E+00    0.3567397853E-02    0.1438820142E+00    0.2699975103E+00
    0.9000000000E+03    0.2464598241E+00    0.1715995472E+00    0.3494657037E-02    0.1652257328E+00    0.2826574146E+00
    0.1100000000E+04    0.2389530966E+00    0.1772036721E+00    0.3408659943E-02    0.1844622596E+00    0.2922827189E+00
    0.1300000000E+04    0.2314498868E+00    0.1816557176E+00    0.3319042823E-02    0.2021456909E+00    0.2999743464E+00
    0.1500000000E+04    0.2241804504E+00    0.1853175081E+00    0.3229714219E-02    0.2186035474E+00    0.3063339448E+00
    0.1700000000E+04    0.2172271103E+00    0.1884066155E+00    0.3142360247E-02    0.2340474987E+00    0.3117245358E+00
    0.1900000000E+04    0.2106119853E+00    0.1910634856E+00    0.3057708483E-02    0.2486236717E+00    0.3163811851E+00
    0.2100000000E+04    0.2043316928E+00    0.1933837340E+00    0.2976043211E-02    0.2624382750E+00    0.3204643862E+00
    0.2300000000E+04    0.1983721805E+00    0.1954352119E+00    0.2897434700E-02    0.2755717976E+00    0.3240883332E+00
    0.2500000000E+04    0.1927153847E+00    0.1972676952E+00    0.2821847951E-02    0.2880874043E+00    0.3273370087E+00
    0.2700000000E+04    0.1873422885E+00    0.1989187081E+00    0.2749196716E-02    0.3000361576E+00    0.3302738740E+00
    0.2900000000E+04    0.1822343162E+00    0.2004171898E+00    0.2679371187E-02    0.3114604036E+00    0.3329479809E+00
    0.3100000000E+04    0.1773739340E+00    0.2017858936E+00    0.2612252472E-02    0.3223960408E+00    0.3353979782E+00
    0.3300000000E+04    0.1727448655E+00    0.2030430081E+00    0.2547720169E-02    0.3328740850E+00    0.3376548242E+00
    0.3500000000E+04    0.1683321224E+00    0.2042032836E+00    0.2485656293E-02    0.3429217740E+00    0.3397436740E+00
    0.3700000000E+04    0.1641219487E+00    0.2052788340E+00    0.2425947204E-02    0.3525633627E+00    0.3416852261E+00
    0.3900000000E+04    0.1601017291E+00    0.2062797201E+00    0.2368484463E-02    0.3618207076E+00    0.3434967013E+00
    0.4100000000E+04    0.1562598863E+00    0.2072143804E+00    0.2313165092E-02    0.3707137009E+00    0.3451925698E+00
    0.4300000000E+04    0.1525857791E+00    0.2080899565E+00    0.2259891535E-02    0.3792605995E+00    0.3467850983E+00
    0.4500000000E+04    0.1490696082E+00    0.2089125408E+00    0.2208571449E-02    0.3874782771E+00    0.3482847690E+00
    0.4700000000E+04    0.1457023299E+00    0.2096873691E+00    0.2159117433E-02    0.3953824193E+00    0.3497006045E+00
    0.4900000000E+04    0.1424755797E+00    0.2104189706E+00    0.2111446723E-02    0.4029876777E+00    0.3510404220E+00
    0.1000000000E+04    0.2427309077E+00    0.1745770894E+00    0.3452509052E-02    0.1750654457E+00    0.2877640021E+00
    0.3000000000E+04    0.1797742240E+00    0.2011165353E+00    0.2645481026E-02    0.3169872601E+00    0.3341989034E+00
    0.5000000000E+04    0.1409124578E+00    0.2107698133E+00    0.2088255440E-02    0.4066825520E+00    0.3516839880E+00
    0.7000000000E+04    0.1154128605E+00    0.2162517326E+00    0.1701022367E-02    0.4678354640E+00    0.3618375114E+00
    0.9000000000E+04    0.9778690034E-01    0.2199156675E+00    0.1423930097E-02    0.5108010515E+00    0.3687440879E+00
    0.1100000000E+05    0.8509350681E-01    0.2225894654E+00    0.1220065993E-02    0.5418153032E+00    0.3738602089E+00
    0.1300000000E+05    0.7562671905E-01    0.2246521975E+00    0.1066057887E-02    0.5647937809E+00    0.3778599134E+00
    0.1500000000E+05    0.6834919830E-01    0.2263059564E+00    0.9468373401E-03    0.5822375868E+00    0.3811057052E+00
    0.1700000000E+05    0.6260614693E-01    0.2276698911E+00    0.8524921962E-03    0.5957753474E+00    0.3838129119E+00
    0.1900000000E+05    0.5797027714E-01    0.2288194959E+00    0.7763555484E-03    0.6064910907E+00    0.3861188712E+00
    0.2100000000E+05    0.5415420446E-01    0.2298052743E+00    0.7138398424E-03    0.6151229969E+00    0.3881160092E+00
    0.2300000000E+05    0.5095925072E-01    0.2306624790E+00    0.6617174764E-03    0.6221850893E+00    0.3898691975E+00
    0.2500000000E+05    0.4824459715E-01    0.2314165735E+00    0.6176695038E-03    0.6280429549E+00    0.3914255362E+00
    0.2700000000E+05    0.4590816095E-01    0.2320864758E+00    0.5799970242E-03    0.6329617755E+00    0.3928201895E+00
    0.2900000000E+05    0.4387441963E-01    0.2326865771E+00    0.5474328551E-03    0.6371374214E+00    0.3940800314E+00
    0.3100000000E+05    0.4208646466E-01    0.2332280464E+00    0.5190161535E-03    0.6407169895E+00    0.3952260125E+00
    0.3300000000E+05    0.4050069530E-01    0.2337197036E+00    0.4940073191E-03    0.6438126399E+00    0.3962747477E+00
    0.3500000000E+05    0.3908319976E-01    0.2341686190E+00    0.4718291678E-03    0.6465110891E+00    0.3972396117E+00
    0.3700000000E+05    0.3780723885E-01    0.2345805359E+00    0.4520255604E-03    0.6488802402E+00    0.3981315126E+00
    0.3900000000E+05    0.3665146458E-01    0.2349601746E+00    0.4342318359E-03    0.6509738871E+00    0.3989594506E+00
    0.4100000000E+05    0.3559863814E-01    0.2353114555E+00    0.4181533611E-03    0.6528351051E+00    0.3997309292E+00
    0.4300000000E+05    0.3463469317E-01    0.2356376650E+00    0.4035497523E-03    0.6544987273E+00    0.4004522621E+00
    0.4500000000E+05    0.3374804168E-01    0.2359415820E+00    0.3902231161E-03    0.6559931792E+00    0.4011288065E+00
    0.4700000000E+05    0.3292905297E-01    0.2362255736E+00    0.3780091808E-03    0.6573418524E+00    0.4017651432E+00
    0.4900000000E+05    0.3216965781E-01    0.2364916713E+00    0.3667705312E-03    0.6585641470E+00    0.4023652159E+00
    0.1000000000E+05    0.9095062633E-01    0.2213467210E+00    0.1314548210E-02    0.5275158957E+00    0.3714734379E+00
    0.3000000000E+05    0.4295270687E-01    0.2329640425E+00    0.5327566893E-03    0.6389940145E+00    0.3946661292E+00
    0.5000000000E+05    0.3181013683E-01    0.2366185675E+00    0.3614800317E-03    0.6591330733E+00    0.4026527390E+00
    0.7000000000E+05    0.2654269208E-01    0.2385393992E+00    0.2864795059E-03    0.6666886278E+00    0.4071311920E+00
    0.9000000000E+05    0.2332775961E-01    0.2397545027E+00    0.2433538202E-03    0.6705144854E+00    0.4101218849E+00
    0.1100000000E+06    0.2109938991E-01    0.2406031613E+00    0.2147887847E-03    0.6727916669E+00    0.4123132065E+00
    0.1300000000E+06    0.1943397567E-01    0.2412338995E+00    0.1941798872E-03    0.6742907582E+00    0.4140146078E+00
    0.1500000000E+06    0.1812596898E-01    0.2417231793E+00    0.1784421486E-03    0.6753477523E+00    0.4153891694E+00
    0.1700000000E+06    0.1706196090E-01    0.2421148053E+00    0.1659301044E-03    0.6761309876E+00    0.4165323246E+00
    0.1900000000E+06    0.1617351514E-01    0.2424358625E+00    0.1556798689E-03    0.6767335806E+00    0.4175042506E+00
    0.2100000000E+06    0.1541651513E-01    0.2427040873E+00    0.1470860611E-03    0.6772110071E+00    0.4183450839E+00
    0.2300000000E+06    0.1476104322E-01    0.2429316268E+00    0.1397474401E-03    0.6775982828E+00    0.4190827931E+00
    0.2500000000E+06    0.1418598009E-01    0.2431271054E+00    0.1333864429E-03    0.6779185550E+00    0.4197375657E+00
    0.2700000000E+06    0.1367592394E-01    0.2432968303E+00    0.1278042607E-03    0.6781877161E+00    0.4203243996E+00
    0.2900000000E+06    0.1321933574E-01    0.2434455300E+00    0.1228543248E-03    0.6784170269E+00    0.4208547099E+00
    0.3100000000E+06    0.1280737223E-01    0.2435768250E+00    0.1184259218E-03    0.6786146825E+00    0.4213373649E+00
    0.3300000000E+06    0.1243312368E-01    0.2436935378E+00    0.1144336694E-03    0.6787867853E+00    0.4217793765E+00
    0.3500000000E+06    0.1209110019E-01    0.2437979041E+00    0.1108105317E-03    0.6789379706E+00    0.4221863750E+00
    0.3700000000E+06    0.1177687596E-01    0.2438917192E+00    0.1075030487E-03    0.6790718205E+00    0.4225629421E+00
    0.3900000000E+06    0.1148683697E-01    0.2439764427E+00    0.1044679983E-03    0.6791911465E+00    0.4229128510E+00
    0.4100000000E+06    0.1121799839E-01    0.2440532740E+00    0.1016700080E-03    0.6792981853E+00    0.4232392421E+00
    0.4300000000E+06    0.1096786982E-01    0.2441232090E+00    0.9907981344E-04    0.6793947381E+00    0.4235447541E+00
    0.4500000000E+06    0.1073435443E-01    0.2441870810E+00    0.9667296692E-04    0.6794822715E+00    0.4238316232E+00
    0.4700000000E+06    0.1051567208E-01    0.2442455940E+00    0.9442886434E-04    0.6795619914E+00    0.4241017593E+00
    0.4900000000E+06    0.1031030021E-01    0.2442993460E+00    0.9233000192E-04    0.6796348985E+00    0.4243568050E+00
    0.1000000000E+06    0.2212433631E-01    0.2402129121E+00    0.2277881515E-03    0.6717828593E+00    0.4112932010E+00
    0.3000000000E+06    0.1300824612E-01    0.2435131608E+00    0.1205807666E-03    0.6785193897E+00    0.4211015189E+00
    0.5000000000E+06    0.1021218874E-01    0.2443245996E+00    0.9133026941E-04    0.6796690644E+00    0.4244791210E+00
    0.7000000000E+06    0.8708664531E-02    0.2446723788E+00    0.7624636972E-04    0.6801407695E+00    0.4263958858E+00
    0.9000000000E+06    0.7731233732E-02    0.2448503766E+00    0.6667768778E-04    0.6803977596E+00    0.4276920178E+00
    0.1100000000E+07    0.7029489675E-02    0.2449480541E+00    0.5992396896E-04    0.6805596456E+00    0.4286530310E+00
    0.1300000000E+07    0.6493653865E-02    0.2450020209E+00    0.5483348380E-04    0.6806711020E+00    0.4294074471E+00
    0.1500000000E+07    0.6066902270E-02    0.2450300035E+00    0.5082143117E-04    0.6807525978E+00    0.4300231929E+00
    0.1700000000E+07    0.5716446822E-02    0.2450415843E+00    0.4755527938E-04    0.6808148351E+00    0.4305401603E+00
    0.1900000000E+07    0.5421851921E-02    0.2450423626E+00    0.4483019153E-04    0.6808639552E+00    0.4309836014E+00
    0.2100000000E+07    0.5169623171E-02    0.2450358059E+00    0.4251221805E-04    0.6809037350E+00    0.4313704262E+00
    0.2300000000E+07    0.4950439525E-02    0.2450241598E+00    0.4050960109E-04    0.6809366259E+00    0.4317124659E+00
    0.2500000000E+07    0.4757626029E-02    0.2450089310E+00    0.3875710461E-04    0.6809642886E+00    0.4320182941E+00
    0.2700000000E+07    0.4586259012E-02    0.2449911597E+00    0.3720691465E-04    0.6809878883E+00    0.4322943059E+00
    0.2900000000E+07    0.4432615636E-02    0.2449715813E+00    0.3582308459E-04    0.6810082670E+00    0.4325453874E+00
    0.3100000000E+07    0.4293821318E-02    0.2449507252E+00    0.3457800135E-04    0.6810260486E+00    0.4327753490E+00
    0.3300000000E+07    0.4167616053E-02    0.2449289792E+00    0.3345005748E-04    0.6810417048E+00    0.4329872148E+00
    0.3500000000E+07    0.4052194955E-02    0.2449066306E+00    0.3242207138E-04    0.6810555995E+00    0.4331834218E+00
    0.3700000000E+07    0.3946096660E-02    0.2448838948E+00    0.3148018716E-04    0.6810680176E+00    0.4333659600E+00
    0.3900000000E+07    0.3848123473E-02    0.2448609346E+00    0.3061309107E-04    0.6810791853E+00    0.4335364741E+00
    0.4100000000E+07    0.3757283118E-02    0.2448378737E+00    0.2981144230E-04    0.6810892849E+00    0.4336963375E+00
    0.4300000000E+07    0.3672745487E-02    0.2448148067E+00    0.2906745206E-04    0.6810984647E+00    0.4338467078E+00
    0.4500000000E+07    0.3593810038E-02    0.2447918060E+00    0.2837456737E-04    0.6811068466E+00    0.4339885696E+00
    0.4700000000E+07    0.3519880864E-02    0.2447689270E+00    0.2772723019E-04    0.6811145317E+00    0.4341227660E+00
    0.4900000000E+07    0.3450447397E-02    0.2447462123E+00    0.2712069146E-04    0.6811216047E+00    0.4342500246E+00
    0.1000000000E+07    0.7354556924E-02    0.2449063157E+00    0.6304031034E-04    0.6804869406E+00    0.4282043429E+00
    0.3000000000E+07    0.4361515847E-02    0.2449612860E+00    0.3518466948E-04    0.6810174500E+00    0.4326628034E+00
    0.5000000000E+07    0.3417276547E-02    0.2447349269E+00    0.2683142225E-04    0.6811249345E+00    0.4343112530E+00
    0.7000000000E+07    0.2909082835E-02    0.2445223301E+00    0.2244165160E-04    0.6811720210E+00    0.4352889173E+00
    0.9000000000E+07    0.2579107048E-02    0.2443360130E+00    0.1963669493E-04    0.6811987296E+00    0.4359719730E+00
    0.1100000000E+08    0.2342535366E-02    0.2441723715E+00    0.1765002329E-04    0.6812160555E+00    0.4364917794E+00
    0.1300000000E+08    0.2162130727E-02    0.2440270366E+00    0.1614981680E-04    0.6812282656E+00    0.4369087661E+00
    0.1500000000E+08    0.2018618972E-02    0.2438964866E+00    0.1496618252E-04    0.6812373696E+00    0.4372554627E+00
    0.1700000000E+08    0.1900884862E-02    0.2437780350E+00    0.1400201242E-04    0.6812444408E+00    0.4375512802E+00
    0.1900000000E+08    0.1802005790E-02    0.2436696339E+00    0.1319728170E-04    0.6812501060E+00    0.4378086809E+00
    0.2100000000E+08    0.1717414105E-02    0.2435697021E+00    0.1251264365E-04    0.6812547565E+00    0.4380361172E+00
    0.2300000000E+08    0.1643957247E-02    0.2434769989E+00    0.1192109851E-04    0.6812586497E+00    0.4382395716E+00
    0.2500000000E+08    0.1579379326E-02    0.2433905357E+00    0.1140342614E-04    0.6812619618E+00    0.4384234260E+00
    0.2700000000E+08    0.1522017509E-02    0.2433095130E+00    0.1094552599E-04    0.6812648178E+00    0.4385909810E+00
