  Pressure (Pa) 2mC6-400 (mol/kg) 3mC6-400 (mol/kg) 33mC5-400 (mol/kg) 23mC5-400 (mol/kg) C7-400 (mol/kg)
    0.1000000000E+01    0.4740542867E-02    0.1047004767E-02    0.1930060519E-03    0.4651754695E-03    0.6796122724E-02
    0.3000000000E+01    0.1375606928E-01    0.3035569759E-02    0.5601817896E-03    0.1380422655E-02    0.1970697237E-01
    0.5000000000E+01    0.2220170696E-01    0.4895488242E-02    0.9043031257E-03    0.2276238658E-02    0.3178638598E-01
    0.7000000000E+01    0.3013149167E-01    0.6639429054E-02    0.1227559118E-02    0.3153429092E-02    0.4311612612E-01
    0.9000000000E+01    0.3759262490E-01    0.8278432779E-02    0.1531861471E-02    0.4012753657E-02    0.5376745445E-01
    0.1100000000E+02    0.4462653797E-01    0.9822166067E-02    0.1818887774E-02    0.4854929422E-02    0.6380277117E-01
    0.1300000000E+02    0.5126976195E-01    0.1127912967E-01    0.2090116852E-02    0.5680633824E-02    0.7327695613E-01
    0.1500000000E+02    0.5755464372E-01    0.1265682975E-01    0.2346857846E-02    0.6490507419E-02    0.8223847328E-01
    0.1700000000E+02    0.6350993905E-01    0.1396191978E-01    0.2590274302E-02    0.7285156397E-02    0.9073028561E-01
    0.1900000000E+02    0.6916130672E-01    0.1520031879E-01    0.2821404234E-02    0.8065154902E-02    0.9879061769E-01
    0.2100000000E+02    0.7453172256E-01    0.1637731047E-01    0.3041176929E-02    0.8831047156E-02    0.1064535945E+00
    0.2300000000E+02    0.7964182808E-01    0.1749762657E-01    0.3250427100E-02    0.9583349425E-02    0.1137497795E+00
    0.2500000000E+02    0.8451022563E-01    0.1856551750E-01    0.3449906862E-02    0.1032255182E-01    0.1207066299E+00
    0.2700000000E+02    0.8915372938E-01    0.1958481233E-01    0.3640295910E-02    0.1104911996E-01    0.1273488835E+00
    0.2900000000E+02    0.9358757972E-01    0.2055897004E-01    0.3822210221E-02    0.1176349652E-01    0.1336988895E+00
    0.3100000000E+02    0.9782562714E-01    0.2149112340E-01    0.3996209508E-02    0.1246610266E-01    0.1397768913E+00
    0.3300000000E+02    0.1018804907E+00    0.2238411681E-01    0.4162803644E-02    0.1315733933E-01    0.1456012709E+00
    0.3500000000E+02    0.1057636948E+00    0.2324053891E-01    0.4322458210E-02    0.1383758847E-01    0.1511887590E+00
    0.3700000000E+02    0.1094857882E+00    0.2406275086E-01    0.4475599313E-02    0.1450721422E-01    0.1565546177E+00
    0.3900000000E+02    0.1130564475E+00    0.2485291100E-01    0.4622617780E-02    0.1516656388E-01    0.1617127994E+00
    0.4100000000E+02    0.1164845673E+00    0.2561299630E-01    0.4763872819E-02    0.1581596894E-01    0.1666760853E+00
    0.4300000000E+02    0.1197783396E+00    0.2634482114E-01    0.4899695223E-02    0.1645574598E-01    0.1714562067E+00
    0.4500000000E+02    0.1229453234E+00    0.2705005383E-01    0.5030390199E-02    0.1708619752E-01    0.1760639515E+00
    0.4700000000E+02    0.1259925062E+00    0.2773023111E-01    0.5156239847E-02    0.1770761280E-01    0.1805092577E+00
    0.4900000000E+02    0.1289263581E+00    0.2838677102E-01    0.5277505359E-02    0.1832026851E-01    0.1848012966E+00
    0.1000000000E+02    0.4116059498E-01    0.9061651772E-02    0.1677437411E-02    0.4435941904E-02    0.5885852198E-01
    0.3000000000E+02    0.9573026294E-01    0.2103011313E-01    0.3910166277E-02    0.1211624538E-01    0.1367707010E+00
    0.5000000000E+02    0.1303526774E+00    0.2870659043E-01    0.5336495454E-02    0.1862339475E-01    0.1868925153E+00
    0.7000000000E+02    0.1541783093E+00    0.3413286541E-01    0.6326045996E-02    0.2428478702E-01    0.2224226305E+00
    0.9000000000E+02    0.1714394578E+00    0.3822034828E-01    0.7049629492E-02    0.2931178515E-01    0.2492586692E+00
    0.1100000000E+03    0.1843936852E+00    0.4144004841E-01    0.7598343547E-02    0.3384763756E-01    0.2704514592E+00
    0.1300000000E+03    0.1943660591E+00    0.4406131193E-01    0.8025675479E-02    0.3799330617E-01    0.2877472709E+00
    0.1500000000E+03    0.2021895265E+00    0.4625006808E-01    0.8365271862E-02    0.4182228057E-01    0.3022228834E+00
    0.1700000000E+03    0.2084154220E+00    0.4811454879E-01    0.8639426157E-02    0.4538951760E-01    0.3145812935E+00
    0.1900000000E+03    0.2134236946E+00    0.4972862240E-01    0.8863520985E-02    0.4873706916E-01    0.3253027245E+00
    0.2100000000E+03    0.2174848127E+00    0.5114459330E-01    0.9048522445E-02    0.5189775414E-01    0.3347275087E+00
    0.2300000000E+03    0.2207965173E+00    0.5240064305E-01    0.9202460964E-02    0.5489762910E-01    0.3431042980E+00
    0.2500000000E+03    0.2235066486E+00    0.5352536797E-01    0.9331351194E-02    0.5775769537E-01    0.3506194794E+00
    0.2700000000E+03    0.2257278647E+00    0.5454065941E-01    0.9439785335E-02    0.6049510667E-01    0.3574158563E+00
    0.2900000000E+03    0.2275474370E+00    0.5546359543E-01    0.9531328136E-02    0.6312404101E-01    0.3636049250E+00
    0.3100000000E+03    0.2290339466E+00    0.5630772028E-01    0.9608787103E-02    0.6565634188E-01    0.3692751818E+00
    0.3300000000E+03    0.2302419715E+00    0.5708393216E-01    0.9674401724E-02    0.6810199770E-01    0.3744978908E+00
    0.3500000000E+03    0.2312154349E+00    0.5780111329E-01    0.9729978738E-02    0.7046950558E-01    0.3793311784E+00
    0.3700000000E+03    0.2319900404E+00    0.5846658603E-01    0.9776990601E-02    0.7276615105E-01    0.3838230000E+00
    0.3900000000E+03    0.2325950730E+00    0.5908644898E-01    0.9816648336E-02    0.7499822583E-01    0.3880133266E+00
    0.4100000000E+03    0.2330547483E+00    0.5966582871E-01    0.9849956209E-02    0.7717119930E-01    0.3919357833E+00
    0.4300000000E+03    0.2333892392E+00    0.6020907086E-01    0.9877753313E-02    0.7928985481E-01    0.3956188941E+00
    0.4500000000E+03    0.2336154641E+00    0.6071988734E-01    0.9900745562E-02    0.8135839915E-01    0.3990870408E+00
    0.4700000000E+03    0.2337476993E+00    0.6120147088E-01    0.9919530587E-02    0.8338055120E-01    0.4023612099E+00
    0.4900000000E+03    0.2337980609E+00    0.6165658526E-01    0.9934617287E-02    0.8535961429E-01    0.4054595809E+00
    0.1000000000E+03    0.1783570460E+00    0.3991863509E-01    0.7341894458E-02    0.3163401435E-01    0.2604306057E+00
    0.3000000000E+03    0.2283286299E+00    0.5589477450E-01    0.9571666617E-02    0.6440160761E-01    0.3665001016E+00
    0.5000000000E+03    0.2337958298E+00    0.6187498085E-01    0.9940912416E-02    0.8633392102E-01    0.4069478728E+00
    0.7000000000E+03    0.2313017794E+00    0.6530184531E-01    0.9951150925E-02    0.1041310822E+00    0.4304408505E+00
    0.9000000000E+03    0.2266187501E+00    0.6761182091E-01    0.9848547382E-02    0.1196627810E+00    0.4464527486E+00
    0.1100000000E+04    0.2213103419E+00    0.6931084335E-01    0.9703458990E-02    0.1337201587E+00    0.4583425084E+00
    0.1300000000E+04    0.2159075486E+00    0.7063087475E-01    0.9541730327E-02    0.1467157206E+00    0.4676588566E+00
    0.1500000000E+04    0.2106098518E+00    0.7169589990E-01    0.9374309430E-02    0.1588937579E+00    0.4752337363E+00
    0.1700000000E+04    0.2054925861E+00    0.7257926615E-01    0.9206248070E-02    0.1704119417E+00    0.4815615369E+00
    0.1900000000E+04    0.2005801457E+00    0.7332762401E-01    0.9039988875E-02    0.1813785595E+00    0.4869580063E+00
    0.2100000000E+04    0.1958750363E+00    0.7397230428E-01    0.8876726896E-02    0.1918715694E+00    0.4916360202E+00
    0.2300000000E+04    0.1913703562E+00    0.7453526226E-01    0.8717027469E-02    0.2019492141E+00    0.4957452914E+00
    0.2500000000E+04    0.1870554427E+00    0.7503241718E-01    0.8561126424E-02    0.2116563362E+00    0.4993947426E+00
    0.2700000000E+04    0.1829184963E+00    0.7547563975E-01    0.8409083707E-02    0.2210283377E+00    0.5026658579E+00
    0.2900000000E+04    0.1789478010E+00    0.7587399165E-01    0.8260865140E-02    0.2300937703E+00    0.5056210315E+00
    0.3100000000E+04    0.1751322671E+00    0.7623452939E-01    0.8116387193E-02    0.2388760907E+00    0.5083089938E+00
    0.3300000000E+04    0.1714616437E+00    0.7656284285E-01    0.7975541969E-02    0.2473948874E+00    0.5107684572E+00
    0.3500000000E+04    0.1679265685E+00    0.7686342662E-01    0.7838211277E-02    0.2556667576E+00    0.5130306333E+00
    0.3700000000E+04    0.1645185393E+00    0.7713994209E-01    0.7704274528E-02    0.2637059504E+00    0.5151210153E+00
    0.3900000000E+04    0.1612298515E+00    0.7739540663E-01    0.7573613097E-02    0.2715248451E+00    0.5170606661E+00
    0.4100000000E+04    0.1580535236E+00    0.7763233267E-01    0.7446112619E-02    0.2791343149E+00    0.5188671675E+00
    0.4300000000E+04    0.1549832203E+00    0.7785283161E-01    0.7321664073E-02    0.2865440055E+00    0.5205553308E+00
    0.4500000000E+04    0.1520131807E+00    0.7805869274E-01    0.7200164184E-02    0.2937625531E+00    0.5221377374E+00
    0.4700000000E+04    0.1491381523E+00    0.7825144387E-01    0.7081515414E-02    0.3007977549E+00    0.5236251549E+00
    0.4900000000E+04    0.1463533325E+00    0.7843239860E-01    0.6965625737E-02    0.3076567058E+00    0.5250268622E+00
    0.1000000000E+04    0.2239975926E+00    0.6851959140E-01    0.9779170518E-02    0.1268445588E+00    0.4527921588E+00
    0.3000000000E+04    0.1770213003E+00    0.7605860854E-01    0.8188164965E-02    0.2345190162E+00    0.5069957936E+00
    0.5000000000E+04    0.1449933599E+00    0.7851881356E-01    0.6908688226E-02    0.3110221395E+00    0.5256981312E+00
    0.7000000000E+04    0.1216268226E+00    0.7983740491E-01    0.5896007402E-02    0.3704279455E+00    0.5361135982E+00
    0.9000000000E+04    0.1038549288E+00    0.8068349747E-01    0.5083310874E-02    0.4174958896E+00    0.5430070615E+00
    0.1100000000E+05    0.9001809869E-01    0.8128145126E-01    0.4425668229E-02    0.4551599076E+00    0.5480102283E+00
    0.1300000000E+05    0.7906090601E-01    0.8173054276E-01    0.3889531351E-02    0.4855537971E+00    0.5518581124E+00
    0.1500000000E+05    0.7025866504E-01    0.8208229931E-01    0.3449025428E-02    0.5102931197E+00    0.5549382541E+00
    0.1700000000E+05    0.6309499131E-01    0.8236643659E-01    0.3084096982E-02    0.5306104208E+00    0.5574772934E+00
    0.1900000000E+05    0.5719409908E-01    0.8260143174E-01    0.2779215380E-02    0.5474473521E+00    0.5596179249E+00
    0.2100000000E+05    0.5227842667E-01    0.8279944399E-01    0.2522350415E-02    0.5615247514E+00    0.5614551097E+00
    0.2300000000E+05    0.4814038894E-01    0.8296883761E-01    0.2304161350E-02    0.5733965411E+00    0.5630548374E+00
    0.2500000000E+05    0.4462294059E-01    0.8311557516E-01    0.2117364496E-02    0.5834907233E+00    0.5644645877E+00
    0.2700000000E+05    0.4160595954E-01    0.8324403358E-01    0.1956247834E-02    0.5921402156E+00    0.5657195143E+00
    0.2900000000E+05    0.3899658770E-01    0.8335750576E-01    0.1816302337E-02    0.5996058938E+00    0.5668462764E+00
    0.3100000000E+05    0.3672230709E-01    0.8345852123E-01    0.1693943327E-02    0.6060937710E+00    0.5678655086E+00
    0.3300000000E+05    0.3472592763E-01    0.8354905839E-01    0.1586300103E-02    0.6117678188E+00    0.5687934658E+00
    0.3500000000E+05    0.3296192400E-01    0.8363068896E-01    0.1491056827E-02    0.6167595688E+00    0.5696431505E+00
    0.3700000000E+05    0.3139373289E-01    0.8370467883E-01    0.1406331735E-02    0.6211753379E+00    0.5704251048E+00
    0.3900000000E+05    0.2999174007E-01    0.8377206002E-01    0.1330584974E-02    0.6251016990E+00    0.5711479790E+00
    0.4100000000E+05    0.2873176744E-01    0.8383368310E-01    0.1262547884E-02    0.6286096492E+00    0.5718189467E+00
    0.4300000000E+05    0.2759392564E-01    0.8389025590E-01    0.1201168396E-02    0.6317578088E+00    0.5724440145E+00
    0.4500000000E+05    0.2656173620E-01    0.8394237266E-01    0.1145568583E-02    0.6345948931E+00    0.5730282552E+00
    0.4700000000E+05    0.2562145442E-01    0.8399053626E-01    0.1095011464E-02    0.6371616364E+00    0.5735759873E+00
    0.4900000000E+05    0.2476154273E-01    0.8403517537E-01    0.1048874852E-02    0.6394922988E+00    0.5740909128E+00
    0.1000000000E+05    0.9652040219E-01    0.8100567343E-01    0.4737412807E-02    0.4373557874E+00    0.5456873109E+00
    0.3000000000E+05    0.3782144620E-01    0.8340943597E-01    0.1753118595E-02    0.6029609498E+00    0.5673682304E+00
    0.5000000000E+05    0.2435862022E-01    0.8405629025E-01    0.1027296004E-02    0.6405783338E+00    0.5743370889E+00
    0.7000000000E+05    0.1880212331E-01    0.8436040813E-01    0.7340297561E-03    0.6550185408E+00    0.5781250833E+00
    0.9000000000E+05    0.1576676712E-01    0.8453422055E-01    0.5799716597E-03    0.6622674595E+00    0.5806050627E+00
    0.1100000000E+06    0.1383021225E-01    0.8464406105E-01    0.4857441501E-03    0.6665183568E+00    0.5823960288E+00
    0.1300000000E+06    0.1247013365E-01    0.8471772303E-01    0.4221931906E-03    0.6692741392E+00    0.5837707706E+00
    0.1500000000E+06    0.1145154093E-01    0.8476898080E-01    0.3763398422E-03    0.6711896278E+00    0.5848709681E+00
    0.1700000000E+06    0.1065317908E-01    0.8480545708E-01    0.3415924529E-03    0.6725908207E+00    0.5857785872E+00
    0.1900000000E+06    0.1000600170E-01    0.8483171489E-01    0.3142666505E-03    0.6736565111E+00    0.5865448294E+00
    0.2100000000E+06    0.9467670126E-02    0.8485065149E-01    0.2921475712E-03    0.6744922362E+00    0.5872035741E+00
    0.2300000000E+06    0.9010685310E-02    0.8486419278E-01    0.2738254448E-03    0.6751639923E+00    0.5877782672E+00
    0.2500000000E+06    0.8616347881E-02    0.8487366698E-01    0.2583606862E-03    0.6757150131E+00    0.5882857290E+00
    0.2700000000E+06    0.8271457841E-02    0.8488001808E-01    0.2451029357E-03    0.6761747250E+00    0.5887383883E+00
    0.2900000000E+06    0.7966403844E-02    0.8488393408E-01    0.2335875656E-03    0.6765638081E+00    0.5891456582E+00
    0.3100000000E+06    0.7694002580E-02    0.8488592714E-01    0.2234736169E-03    0.6768971968E+00    0.5895148188E+00
    0.3300000000E+06    0.7448764701E-02    0.8488638554E-01    0.2145050602E-03    0.6771859307E+00    0.5898516028E+00
    0.3500000000E+06    0.7226414210E-02    0.8488560830E-01    0.2064857669E-03    0.6774383380E+00    0.5901605955E+00
    0.3700000000E+06    0.7023564287E-02    0.8488382887E-01    0.1992628505E-03    0.6776608139E+00    0.5904455150E+00
    0.3900000000E+06    0.6837492873E-02    0.8488123175E-01    0.1927152850E-03    0.6778583471E+00    0.5907094132E+00
    0.4100000000E+06    0.6665983728E-02    0.8487796425E-01    0.1867459480E-03    0.6780348841E+00    0.5909548221E+00
    0.4300000000E+06    0.6507211557E-02    0.8487414517E-01    0.1812759419E-03    0.6781935861E+00    0.5911838630E+00
    0.4500000000E+06    0.6359657479E-02    0.8486987106E-01    0.1762404676E-03    0.6783370140E+00    0.5913983285E+00
    0.4700000000E+06    0.6222045816E-02    0.8486522105E-01    0.1715857755E-03    0.6784672637E+00    0.5915997457E+00
    0.4900000000E+06    0.6093296114E-02    0.8486026037E-01    0.1672668789E-03    0.6785860666E+00    0.5917894245E+00
    0.1000000000E+06    0.1470403127E-01    0.8459491928E-01    0.5277777917E-03    0.6646433062E+00    0.5815651854E+00
    0.3000000000E+06    0.7826497830E-02    0.8488514428E-01    0.2283730619E-03    0.6767366993E+00    0.5893346130E+00
    0.5000000000E+06    0.6031950985E-02    0.8485768082E-01    0.1652212550E-03    0.6786416357E+00    0.5918802217E+00
    0.7000000000E+06    0.5103816483E-02    0.8479900791E-01    0.1352114102E-03    0.6794020174E+00    0.5932880191E+00
    0.9000000000E+06    0.4510942263E-02    0.8473768248E-01    0.1169310175E-03    0.6798111231E+00    0.5942227834E+00
    0.1100000000E+07    0.4089541978E-02    0.8467929671E-01    0.1043375023E-03    0.6800672508E+00    0.5949060355E+00
    0.1300000000E+07    0.3769867736E-02    0.8462494189E-01    0.9499717476E-04    0.6802430849E+00    0.5954361097E+00
    0.1500000000E+07    0.3516447266E-02    0.8457456841E-01    0.8771976110E-04    0.6803715236E+00    0.5958644070E+00
    0.1700000000E+07    0.3309054327E-02    0.8452782918E-01    0.8184615117E-04    0.6804696244E+00    0.5962208364E+00
    0.1900000000E+07    0.3135190112E-02    0.8448432628E-01    0.7697828580E-04    0.6805471172E+00    0.5965241808E+00
    0.2100000000E+07    0.2986654462E-02    0.8444368581E-01    0.7285981738E-04    0.6806099601E+00    0.5967869294E+00
    0.2300000000E+07    0.2857811932E-02    0.8440557766E-01    0.6931727537E-04    0.6806620079E+00    0.5970177654E+00
    0.2500000000E+07    0.2744643384E-02    0.8436971692E-01    0.6622855316E-04    0.6807058662E+00    0.5972229454E+00
    0.2700000000E+07    0.2644194162E-02    0.8433585949E-01    0.6350489351E-04    0.6807433602E+00    0.5974071113E+00
    0.2900000000E+07    0.2554236558E-02    0.8430379633E-01    0.6108003460E-04    0.6807758074E+00    0.5975737927E+00
    0.3100000000E+07    0.2473054610E-02    0.8427334797E-01    0.5890338065E-04    0.6808041827E+00    0.5977257297E+00
    0.3300000000E+07    0.2399302048E-02    0.8424435967E-01    0.5693554532E-04    0.6808292236E+00    0.5978650876E+00
    0.3500000000E+07    0.2331905683E-02    0.8421669734E-01    0.5514535168E-04    0.6808514984E+00    0.5979936043E+00
    0.3700000000E+07    0.2269997986E-02    0.8419024422E-01    0.5350775808E-04    0.6808714521E+00    0.5981126940E+00
    0.3900000000E+07    0.2212868980E-02    0.8416489811E-01    0.5200238996E-04    0.6808894385E+00    0.5982235208E+00
    0.4100000000E+07    0.2159931212E-02    0.8414056910E-01    0.5061247928E-04    0.6809057423E+00    0.5983270538E+00
    0.4300000000E+07    0.2110693815E-02    0.8411717776E-01    0.4932408415E-04    0.6809205953E+00    0.5984241074E+00
    0.4500000000E+07    0.2064742975E-02    0.8409465354E-01    0.4812550521E-04    0.6809341882E+00    0.5985153715E+00
    0.4700000000E+07    0.2021727027E-02    0.8407293356E-01    0.4700684280E-04    0.6809466794E+00    0.5986014358E+00
    0.4900000000E+07    0.1981344936E-02    0.8405196152E-01    0.4595965643E-04    0.6809582015E+00    0.5986828074E+00
    0.1000000000E+07    0.4284338786E-02    0.8470800915E-01    0.1101186885E-03    0.6799523493E+00    0.5945881172E+00
    0.3000000000E+07    0.2512640127E-02    0.8428838050E-01    0.5996336569E-04    0.6807904533E+00    0.5976514575E+00
    0.5000000000E+07    0.1962059098E-02    0.8404173998E-01    0.4546056167E-04    0.6809636349E+00    0.5987218730E+00
    0.7000000000E+07    0.1667080014E-02    0.8386662358E-01    0.3791148677E-04    0.6810412422E+00    0.5993379923E+00
    0.9000000000E+07    0.1476033969E-02    0.8373042222E-01    0.3311090063E-04    0.6810861422E+00    0.5997596125E+00
    0.1100000000E+08    0.1339302444E-02    0.8361878127E-01    0.2972098446E-04    0.6811157763E+00    0.6000754182E+00
    0.1300000000E+08    0.1235168308E-02    0.8352409209E-01    0.2716653842E-04    0.6811369821E+00    0.6003255357E+00
    0.1500000000E+08    0.1152414339E-02    0.8344182619E-01    0.2515433770E-04    0.6811530111E+00    0.6005312807E+00
    0.1700000000E+08    0.1084581847E-02    0.8336906551E-01    0.2351729645E-04    0.6811656164E+00    0.6007052324E+00
    0.1900000000E+08    0.1027653338E-02    0.8330381746E-01    0.2215237548E-04    0.6811758302E+00    0.6008553902E+00
    0.2100000000E+08    0.9789807105E-03    0.8324465980E-01    0.2099215621E-04    0.6811843025E+00    0.6009871343E+00
    0.2300000000E+08    0.9367378400E-03    0.8319054128E-01    0.1999044534E-04    0.6811914635E+00    0.6011042442E+00
    0.2500000000E+08    0.8996189680E-03    0.8314066256E-01    0.1911440088E-04    0.6811976104E+00    0.6012094696E+00
    0.2700000000E+08    0.8666622402E-03    0.8309440140E-01    0.1833995466E-04    0.6812029553E+00    0.6013048690E+00
