  Pressure (Pa) 2mC6-400 (mol/kg) 3mC6-400 (mol/kg) 33mC5-400 (mol/kg) 23mC5-400 (mol/kg) C7-400 (mol/kg)
    0.1000000000E+01    0.4701626147E-02    0.1553990550E-02    0.1276293010E-03    0.9309148695E-04    0.1344999902E-01
    0.3000000000E+01    0.1343896972E-01    0.4417443194E-02    0.3649764427E-03    0.2765787049E-03    0.3824328735E-01
    0.5000000000E+01    0.2140078670E-01    0.6996591238E-02    0.5814737037E-03    0.4565848286E-03    0.6058666453E-01
    0.7000000000E+01    0.2869847791E-01    0.9332921580E-02    0.7801257438E-03    0.6332395363E-03    0.8083709859E-01
    0.9000000000E+01    0.3542239544E-01    0.1146016972E-01    0.9633678703E-03    0.8066658214E-03    0.9928491157E-01
    0.1100000000E+02    0.4164661505E-01    0.1340605298E-01    0.1133195362E-02    0.9769804254E-03    0.1161686750E+00
    0.1300000000E+02    0.4743246778E-01    0.1519355833E-01    0.1291259131E-02    0.1144294239E-02    0.1316862780E+00
    0.1500000000E+02    0.5283119083E-01    0.1684191273E-01    0.1438937502E-02    0.1308712669E-02    0.1460032692E+00
    0.1700000000E+02    0.5788594323E-01    0.1836732389E-01    0.1577390765E-02    0.1470335986E-02    0.1592592239E+00
    0.1900000000E+02    0.6263335678E-01    0.1978355234E-01    0.1707603138E-02    0.1629259632E-02    0.1715726631E+00
    0.2100000000E+02    0.6710474244E-01    0.2110235803E-01    0.1830415384E-02    0.1785574520E-02    0.1830448934E+00
    0.2300000000E+02    0.7132703816E-01    0.2233385243E-01    0.1946550436E-02    0.1939367301E-02    0.1937630351E+00
    0.2500000000E+02    0.7532356051E-01    0.2348677872E-01    0.2056633702E-02    0.2090720620E-02    0.2038024317E+00
    0.2700000000E+02    0.7911460584E-01    0.2456873658E-01    0.2161209300E-02    0.2239713348E-02    0.2132285838E+00
    0.2900000000E+02    0.8271793500E-01    0.2558636406E-01    0.2260753140E-02    0.2386420796E-02    0.2220987130E+00
    0.3100000000E+02    0.8614916708E-01    0.2654548570E-01    0.2355683552E-02    0.2530914926E-02    0.2304630367E+00
    0.3300000000E+02    0.8942210151E-01    0.2745123405E-01    0.2446369966E-02    0.2673264533E-02    0.2383658132E+00
    0.3500000000E+02    0.9254898328E-01    0.2830814997E-01    0.2533140067E-02    0.2813535422E-02    0.2458462055E+00
    0.3700000000E+02    0.9554072266E-01    0.2912026601E-01    0.2616285709E-02    0.2951790576E-02    0.2529389978E+00
    0.3900000000E+02    0.9840707830E-01    0.2989117596E-01    0.2696067849E-02    0.3088090304E-02    0.2596751952E+00
    0.4100000000E+02    0.1011568107E+00    0.3062409332E-01    0.2772720678E-02    0.3222492390E-02    0.2660825259E+00
    0.4300000000E+02    0.1037978114E+00    0.3132190058E-01    0.2846455095E-02    0.3355052222E-02    0.2721858664E+00
    0.4500000000E+02    0.1063372124E+00    0.3198719106E-01    0.2917461652E-02    0.3485822922E-02    0.2780076010E+00
    0.4700000000E+02    0.1087814792E+00    0.3262230453E-01    0.2985913049E-02    0.3614855459E-02    0.2835679287E+00
    0.4900000000E+02    0.1111364902E+00    0.3322935764E-01    0.3051966275E-02    0.3742198766E-02    0.2888851257E+00
    0.1000000000E+02    0.3859287026E-01    0.1245424708E-01    0.1049848131E-02    0.8922050202E-03    0.1079090868E+00
    0.3000000000E+02    0.8445416142E-01    0.2607290238E-01    0.2308770879E-02    0.2458940154E-02    0.2263412057E+00
    0.5000000000E+02    0.1122822182E+00    0.3352296853E-01    0.3084138792E-02    0.3805251716E-02    0.2914577917E+00
    0.7000000000E+02    0.1315926782E+00    0.3830497076E-01    0.3630564243E-02    0.4988125542E-02    0.3334549313E+00
    0.9000000000E+02    0.1459804044E+00    0.4167557577E-01    0.4044018549E-02    0.6045641208E-02    0.3631916330E+00
    0.1100000000E+03    0.1571808944E+00    0.4420179001E-01    0.4370852936E-02    0.7004334235E-02    0.3855756589E+00
    0.1300000000E+03    0.1661651531E+00    0.4617892407E-01    0.4637057012E-02    0.7883340181E-02    0.4031672629E+00
    0.1500000000E+03    0.1735314859E+00    0.4777683272E-01    0.4858696345E-02    0.8696857532E-02    0.4174413926E+00
    0.1700000000E+03    0.1796741501E+00    0.4910060864E-01    0.5046397751E-02    0.9455678696E-02    0.4293120650E+00
    0.1900000000E+03    0.1848660187E+00    0.5021902013E-01    0.5207546600E-02    0.1016817837E-01    0.4393782994E+00
    0.2100000000E+03    0.1893031544E+00    0.5117910708E-01    0.5347472149E-02    0.1084097252E-01    0.4480504685E+00
    0.2300000000E+03    0.1931306505E+00    0.5201422608E-01    0.5470135488E-02    0.1147937022E-01    0.4556200077E+00
    0.2500000000E+03    0.1964584823E+00    0.5274874643E-01    0.5578552230E-02    0.1208769099E-01    0.4623001434E+00
    0.2700000000E+03    0.1993716802E+00    0.5340092388E-01    0.5675064299E-02    0.1266949263E-01    0.4682508404E+00
    0.2900000000E+03    0.2019371017E+00    0.5398473013E-01    0.5761521267E-02    0.1322773784E-01    0.4735946985E+00
    0.3100000000E+03    0.2042080806E+00    0.5451105747E-01    0.5839405121E-02    0.1376491820E-01    0.4784274297E+00
    0.3300000000E+03    0.2062277006E+00    0.5498853524E-01    0.5909918353E-02    0.1428314785E-01    0.4828249654E+00
    0.3500000000E+03    0.2080311532E+00    0.5542409748E-01    0.5974047536E-02    0.1478423523E-01    0.4868484018E+00
    0.3700000000E+03    0.2096474674E+00    0.5582338620E-01    0.6032610112E-02    0.1526973876E-01    0.4905475178E+00
    0.3900000000E+03    0.2111008014E+00    0.5619104382E-01    0.6086289392E-02    0.1574101047E-01    0.4939633262E+00
    0.4100000000E+03    0.2124114202E+00    0.5653092881E-01    0.6135661136E-02    0.1619923069E-01    0.4971299581E+00
    0.4300000000E+03    0.2135964462E+00    0.5684627719E-01    0.6181214007E-02    0.1664543575E-01    0.5000760754E+00
    0.4500000000E+03    0.2146704424E+00    0.5713982542E-01    0.6223365498E-02    0.1708054033E-01    0.5028259452E+00
    0.4700000000E+03    0.2156458701E+00    0.5741390481E-01    0.6262474469E-02    0.1750535577E-01    0.5054002678E+00
    0.4900000000E+03    0.2165334516E+00    0.5767051522E-01    0.6298851108E-02    0.1792060502E-01    0.5078168216E+00
    0.1000000000E+03    0.1519066873E+00    0.4302175566E-01    0.4216327961E-02    0.6536005857E-02    0.3751079613E+00
    0.3000000000E+03    0.2031064948E+00    0.5425449391E-01    0.5801453969E-02    0.1349882108E-01    0.4760698120E+00
    0.5000000000E+03    0.2169472479E+00    0.5779281839E-01    0.6316100429E-02    0.1812484715E-01    0.5089708196E+00
    0.7000000000E+03    0.2223131335E+00    0.5963872129E-01    0.6567539252E-02    0.2183391201E-01    0.5265953471E+00
    0.9000000000E+03    0.2245784910E+00    0.6080182138E-01    0.6714148757E-02    0.2503948216E-01    0.5379586800E+00
    0.1100000000E+04    0.2254407225E+00    0.6161307041E-01    0.6808638112E-02    0.2792002497E-01    0.5460511371E+00
    0.1300000000E+04    0.2255855296E+00    0.6221630564E-01    0.6873511312E-02    0.3056982043E-01    0.5521857818E+00
    0.1500000000E+04    0.2253343832E+00    0.6268511964E-01    0.6919963964E-02    0.3304528407E-01    0.5570407081E+00
    0.1700000000E+04    0.2248539114E+00    0.6306145503E-01    0.6954182953E-02    0.3538315730E-01    0.5610057253E+00
    0.1900000000E+04    0.2242369226E+00    0.6337113304E-01    0.6979861634E-02    0.3760887968E-01    0.5643227600E+00
    0.2100000000E+04    0.2235379430E+00    0.6363100079E-01    0.6999339575E-02    0.3974089980E-01    0.5671508706E+00
    0.2300000000E+04    0.2227903268E+00    0.6385256076E-01    0.7014170294E-02    0.4179308897E-01    0.5695994517E+00
    0.2500000000E+04    0.2220151104E+00    0.6404395845E-01    0.7025425726E-02    0.4377618366E-01    0.5717465154E+00
    0.2700000000E+04    0.2212258659E+00    0.6421113794E-01    0.7033869488E-02    0.4569869351E-01    0.5736493755E+00
    0.2900000000E+04    0.2204314902E+00    0.6435854726E-01    0.7040060418E-02    0.4756749792E-01    0.5753512015E+00
    0.3100000000E+04    0.2196378713E+00    0.6448958685E-01    0.7044417038E-02    0.4938825207E-01    0.5768852049E+00
    0.3300000000E+04    0.2188489167E+00    0.6460690455E-01    0.7047259110E-02    0.5116567180E-01    0.5782774061E+00
    0.3500000000E+04    0.2180672066E+00    0.6471259539E-01    0.7048835250E-02    0.5290373859E-01    0.5795485165E+00
    0.3700000000E+04    0.2172944182E+00    0.6480834048E-01    0.7049341757E-02    0.5460585047E-01    0.5807152531E+00
    0.3900000000E+04    0.2165316077E+00    0.6489550568E-01    0.7048935766E-02    0.5627493528E-01    0.5817912754E+00
    0.4100000000E+04    0.2157794002E+00    0.6497521305E-01    0.7047744605E-02    0.5791353708E-01    0.5827878681E+00
    0.4300000000E+04    0.2150381201E+00    0.6504839363E-01    0.7045872600E-02    0.5952388325E-01    0.5837144458E+00
    0.4500000000E+04    0.2143078820E+00    0.6511582690E-01    0.7043406081E-02    0.6110793712E-01    0.5845789332E+00
    0.4700000000E+04    0.2135886539E+00    0.6517817079E-01    0.7040417138E-02    0.6266743991E-01    0.5853880544E+00
    0.4900000000E+04    0.2128803023E+00    0.6523598477E-01    0.7036966473E-02    0.6420394443E-01    0.5861475573E+00
    0.1000000000E+04    0.2251295382E+00    0.6124005127E-01    0.6766116060E-02    0.2651327416E-01    0.5423101919E+00
    0.3000000000E+04    0.2200343046E+00    0.6442593285E-01    0.7042446093E-02    0.4848356724E-01    0.5761374116E+00
    0.5000000000E+04    0.2125301440E+00    0.6526334547E-01    0.7035084398E-02    0.6496401294E-01    0.5865102747E+00
    0.7000000000E+04    0.2060330208E+00    0.6565948301E-01    0.6982399783E-02    0.7923166739E-01    0.5920637090E+00
    0.9000000000E+04    0.2003080594E+00    0.6588984589E-01    0.6913628497E-02    0.9218977709E-01    0.5956794256E+00
    0.1100000000E+05    0.1951379505E+00    0.6603912341E-01    0.6837306068E-02    0.1042450511E+00    0.5982887040E+00
    0.1300000000E+05    0.1903820567E+00    0.6614251005E-01    0.6756937208E-02    0.1156218698E+00    0.6002957356E+00
    0.1500000000E+05    0.1859484058E+00    0.6621737378E-01    0.6674265897E-02    0.1264592684E+00    0.6019080606E+00
    0.1700000000E+05    0.1817743871E+00    0.6627330916E-01    0.6590276177E-02    0.1368502083E+00    0.6032446770E+00
    0.1900000000E+05    0.1778156759E+00    0.6631605960E-01    0.6505575412E-02    0.1468602943E+00    0.6043793877E+00
    0.2100000000E+05    0.1740398119E+00    0.6634927670E-01    0.6420564804E-02    0.1565377391E+00    0.6053607422E+00
    0.2300000000E+05    0.1704223317E+00    0.6637539370E-01    0.6335523909E-02    0.1659191145E+00    0.6062221783E+00
    0.2500000000E+05    0.1669443445E+00    0.6639609427E-01    0.6250656099E-02    0.1750328829E+00    0.6069875905E+00
    0.2700000000E+05    0.1635909546E+00    0.6641257994E-01    0.6166114647E-02    0.1839016728E+00    0.6076745775E+00
    0.2900000000E+05    0.1603502020E+00    0.6642573059E-01    0.6082018482E-02    0.1925438059E+00    0.6082964340E+00
    0.3100000000E+05    0.1572123297E+00    0.6643620480E-01    0.5998462127E-02    0.2009743546E+00    0.6088634205E+00
    0.3300000000E+05    0.1541692638E+00    0.6644450488E-01    0.5915522204E-02    0.2092058957E+00    0.6093836044E+00
    0.3500000000E+05    0.1512142378E+00    0.6645102020E-01    0.5833261815E-02    0.2172490595E+00    0.6098634312E+00
    0.3700000000E+05    0.1483415140E+00    0.6645605696E-01    0.5751733587E-02    0.2251129384E+00    0.6103081240E+00
    0.3900000000E+05    0.1455461747E+00    0.6645985898E-01    0.5670981834E-02    0.2328053961E+00    0.6107219688E+00
    0.4100000000E+05    0.1428239634E+00    0.6646262261E-01    0.5591044128E-02    0.2403333047E+00    0.6111085222E+00
    0.4300000000E+05    0.1401711611E+00    0.6646450755E-01    0.5511952467E-02    0.2477027298E+00    0.6114707652E+00
    0.4500000000E+05    0.1375844899E+00    0.6646564484E-01    0.5433734154E-02    0.2549190756E+00    0.6118112195E+00
    0.4700000000E+05    0.1350610374E+00    0.6646614294E-01    0.5356412483E-02    0.2619872007E+00    0.6121320358E+00
    0.4900000000E+05    0.1325981953E+00    0.6646609222E-01    0.5280007268E-02    0.2689115106E+00    0.6124350625E+00
    0.1000000000E+05    0.1976638806E+00    0.6597180754E-01    0.6876131225E-02    0.9831354708E-01    0.5970779217E+00
    0.3000000000E+05    0.1587689449E+00    0.6643126778E-01    0.6040167679E-02    0.1967846910E+00    0.6085862381E+00
    0.5000000000E+05    0.1313887589E+00    0.6646588525E-01    0.5242153678E-02    0.2723210064E+00    0.6125804129E+00
    0.7000000000E+05    0.1099077089E+00    0.6644616105E-01    0.4535925967E-02    0.3337985208E+00    0.6148493104E+00
    0.9000000000E+05    0.9268455924E-01    0.6641350416E-01    0.3927490973E-02    0.3842261343E+00    0.6163444759E+00
    0.1100000000E+06    0.7877772451E-01    0.6637791692E-01    0.3410949893E-02    0.4256290402E+00    0.6174002170E+00
    0.1300000000E+06    0.6749644740E-01    0.6634253999E-01    0.2975669836E-02    0.4596681553E+00    0.6181762785E+00
    0.1500000000E+06    0.5829855870E-01    0.6630844874E-01    0.2609793906E-02    0.4877386462E+00    0.6187626908E+00
    0.1700000000E+06    0.5075447934E-01    0.6627598288E-01    0.2302019970E-02    0.5109941043E+00    0.6192152838E+00
    0.1900000000E+06    0.4452535694E-01    0.6624519588E-01    0.2042364829E-02    0.5303710633E+00    0.6195707738E+00
    0.2100000000E+06    0.3934527649E-01    0.6621602706E-01    0.1822370401E-02    0.5466199524E+00    0.6198542653E+00
    0.2300000000E+06    0.3500610515E-01    0.6618837284E-01    0.1635036955E-02    0.5603376099E+00    0.6200834111E+00
    0.2500000000E+06    0.3134490988E-01    0.6616211763E-01    0.1474645270E-02    0.5719973105E+00    0.6202708978E+00
    0.2700000000E+06    0.2823383351E-01    0.6613714730E-01    0.1336551122E-02    0.5819744509E+00    0.6204260095E+00
    0.2900000000E+06    0.2557213760E-01    0.6611335481E-01    0.1216990569E-02    0.5905675452E+00    0.6205556469E+00
    0.3100000000E+06    0.2328004167E-01    0.6609064226E-01    0.1112910723E-02    0.5980149263E+00    0.6206650117E+00
    0.3300000000E+06    0.2129399385E-01    0.6606892113E-01    0.1021829119E-02    0.6045078292E+00    0.6207580741E+00
    0.3500000000E+06    0.1956305393E-01    0.6604811191E-01    0.9417197004E-03    0.6102005524E+00    0.6208379002E+00
    0.3700000000E+06    0.1804612868E-01    0.6602814333E-01    0.8709216634E-03    0.6152183251E+00    0.6209068829E+00
    0.3900000000E+06    0.1670985473E-01    0.6600895150E-01    0.8080670751E-03    0.6196633950E+00    0.6209669089E+00
    0.4100000000E+06    0.1552697191E-01    0.6599047913E-01    0.7520235822E-03    0.6236197475E+00    0.6210194792E+00
    0.4300000000E+06    0.1447506804E-01    0.6597267472E-01    0.7018490680E-03    0.6271567771E+00    0.6210657986E+00
    0.4500000000E+06    0.1353560531E-01    0.6595549191E-01    0.6567557116E-03    0.6303321541E+00    0.6211068416E+00
    0.4700000000E+06    0.1269316113E-01    0.6593888885E-01    0.6160814232E-03    0.6331940745E+00    0.6211434031E+00
    0.4900000000E+06    0.1193483264E-01    0.6592282766E-01    0.5792670587E-03    0.6357830347E+00    0.6211761355E+00
    0.1000000000E+06    0.8536388638E-01    0.6639580490E-01    0.3658339152E-02    0.4059452291E+00    0.6169149866E+00
    0.3000000000E+06    0.2438419487E-01    0.6610186930E-01    0.1163182623E-02    0.5944215256E+00    0.6206125908E+00
    0.5000000000E+06    0.1158375094E-01    0.6591498940E-01    0.5621561978E-03    0.6369860568E+00    0.6211912380E+00
    0.7000000000E+06    0.7082617324E-02    0.6577981029E-01    0.3385687111E-03    0.6527318528E+00    0.6213839862E+00
    0.9000000000E+06    0.4976705208E-02    0.6567373511E-01    0.2308916482E-03    0.6604080698E+00    0.6214780173E+00
    0.1100000000E+07    0.3809062689E-02    0.6558632526E-01    0.1703108992E-03    0.6648148913E+00    0.6215356688E+00
    0.1300000000E+07    0.3085419195E-02    0.6551192200E-01    0.1325503376E-03    0.6676290301E+00    0.6215765478E+00
    0.1500000000E+07    0.2600422877E-02    0.6544711213E-01    0.1072494471E-03    0.6695648286E+00    0.6216084054E+00
    0.1700000000E+07    0.2255992742E-02    0.6538967651E-01    0.8936271488E-04    0.6709712023E+00    0.6216348264E+00
    0.1900000000E+07    0.2000264742E-02    0.6533808997E-01    0.7618358214E-04    0.6720364429E+00    0.6216576726E+00
    0.2100000000E+07    0.1803601376E-02    0.6529125851E-01    0.6614888732E-04    0.6728701747E+00    0.6216780016E+00
    0.2300000000E+07    0.1647998761E-02    0.6524837035E-01    0.5830166901E-04    0.6735401484E+00    0.6216964597E+00
    0.2500000000E+07    0.1521965913E-02    0.6520880626E-01    0.5202779560E-04    0.6740903030E+00    0.6217134653E+00
    0.2700000000E+07    0.1417863295E-02    0.6517208298E-01    0.4691749613E-04    0.6745502889E+00    0.6217293038E+00
    0.2900000000E+07    0.1330434951E-02    0.6513781599E-01    0.4268826471E-04    0.6749407909E+00    0.6217441776E+00
    0.3100000000E+07    0.1255957809E-02    0.6510569428E-01    0.3913983088E-04    0.6752766529E+00    0.6217582359E+00
    0.3300000000E+07    0.1191727512E-02    0.6507546264E-01    0.3612676886E-04    0.6755687894E+00    0.6217715920E+00
    0.3500000000E+07    0.1135736237E-02    0.6504690908E-01    0.3354124447E-04    0.6758253970E+00    0.6217843341E+00
    0.3700000000E+07    0.1086464375E-02    0.6501985552E-01    0.3130181324E-04    0.6760527462E+00    0.6217965327E+00
    0.3900000000E+07    0.1042742103E-02    0.6499415094E-01    0.2934595138E-04    0.6762557131E+00    0.6218082449E+00
    0.4100000000E+07    0.1003655113E-02    0.6496966612E-01    0.2762495729E-04    0.6764381450E+00    0.6218195182E+00
    0.4300000000E+07    0.9684790304E-03    0.6494628963E-01    0.2610039750E-04    0.6766031175E+00    0.6218303924E+00
    0.4500000000E+07    0.9366328818E-03    0.6492392473E-01    0.2474158237E-04    0.6767531181E+00    0.6218409011E+00
    0.4700000000E+07    0.9076455092E-03    0.6490248685E-01    0.2352374255E-04    0.6768901802E+00    0.6218510735E+00
    0.4900000000E+07    0.8811309337E-03    0.6488190164E-01    0.2242669127E-04    0.6770159821E+00    0.6218609349E+00
    0.1000000000E+07    0.4317010933E-02    0.6562812194E-01    0.1967328866E-03    0.6628805898E+00    0.6215097248E+00
    0.3000000000E+07    0.1291765904E-02    0.6512150407E-01    0.4083908341E-04    0.6751147944E+00    0.6217513009E+00
    0.5000000000E+07    0.8686990080E-03    0.6487190796E-01    0.2191815579E-04    0.6770751065E+00    0.6218657560E+00
    0.7000000000E+07    0.6951665362E-03    0.6470421610E-01    0.1527304473E-04    0.6779086918E+00    0.6219500622E+00
    0.9000000000E+07    0.5967388405E-03    0.6457760659E-01    0.1195582547E-04    0.6783863957E+00    0.6220181055E+00
    0.1100000000E+08    0.5315609594E-03    0.6447580482E-01    0.9973682927E-05    0.6787031814E+00    0.6220755675E+00
    0.1300000000E+08    0.4843537144E-03    0.6439063920E-01    0.8652783312E-05    0.6789321887E+00    0.6221254907E+00
    0.1500000000E+08    0.4481191044E-03    0.6431741596E-01    0.7705984477E-05    0.6791074194E+00    0.6221697311E+00
    0.1700000000E+08    0.4191573835E-03    0.6425318703E-01    0.6991192680E-05    0.6792469950E+00    0.6222095163E+00
    0.1900000000E+08    0.3953086730E-03    0.6419597842E-01    0.6430287702E-05    0.6793615373E+00    0.6222457055E+00
    0.2100000000E+08    0.3752171082E-03    0.6414440300E-01    0.5976822382E-05    0.6794577246E+00    0.6222789253E+00
    0.2300000000E+08    0.3579830352E-03    0.6409744852E-01    0.5601456323E-05    0.6795399883E+00    0.6223096482E+00
    0.2500000000E+08    0.3429828556E-03    0.6405435352E-01    0.5284738733E-05    0.6796113971E+00    0.6223382400E+00
    0.2700000000E+08    0.3297687901E-03    0.6401453071E-01    0.5013257358E-05    0.6796741513E+00    0.6223649897E+00
