  Pressure (Pa) 2mC6-400 (mol/kg) 3mC6-400 (mol/kg) 33mC5-400 (mol/kg) 23mC5-400 (mol/kg) C7-400 (mol/kg)
    0.1000000000E+01    0.4731350109E-02    0.1044331151E-02    0.2568497155E-03    0.2791633230E-03    0.8473566117E-02
    0.3000000000E+01    0.1368002666E-01    0.3013245598E-02    0.7428449104E-03    0.8287619044E-03    0.2445344813E-01
    0.5000000000E+01    0.2200698971E-01    0.4837790196E-02    0.1195338672E-02    0.1367117742E-02    0.3926702651E-01
    0.7000000000E+01    0.2977871555E-01    0.6533925145E-02    0.1617919987E-02    0.1894681212E-02    0.5304305227E-01
    0.9000000000E+01    0.3705220279E-01    0.8115319414E-02    0.2013665061E-02    0.2411877817E-02    0.6589180649E-01
    0.1100000000E+02    0.4387662540E-01    0.9593748864E-02    0.2385226895E-02    0.2919109912E-02    0.7790830821E-01
    0.1300000000E+02    0.5029465007E-01    0.1097941406E-01    0.2734906644E-02    0.3416758289E-02    0.8917487544E-01
    0.1500000000E+02    0.5634349482E-01    0.1228119608E-01    0.3064710954E-02    0.3905183622E-02    0.9976318646E-01
    0.1700000000E+02    0.6205578642E-01    0.1350686395E-01    0.3376398379E-02    0.4384727813E-02    0.1097359519E+00
    0.1900000000E+02    0.6746025981E-01    0.1466324410E-01    0.3671517247E-02    0.4855715214E-02    0.1191482803E+00
    0.2100000000E+02    0.7258233262E-01    0.1575635973E-01    0.3951436745E-02    0.5318453763E-02    0.1280488018E+00
    0.2300000000E+02    0.7744458006E-01    0.1679154605E-01    0.4217372611E-02    0.5773236030E-02    0.1364805968E+00
    0.2500000000E+02    0.8206712982E-01    0.1777354630E-01    0.4470408496E-02    0.6220340183E-02    0.1444819700E+00
    0.2700000000E+02    0.8646799236E-01    0.1870659199E-01    0.4711513818E-02    0.6660030882E-02    0.1520870979E+00
    0.2900000000E+02    0.9066333856E-01    0.1959447047E-01    0.4941558774E-02    0.7092560103E-02    0.1593265729E+00
    0.3100000000E+02    0.9466773437E-01    0.2044058204E-01    0.5161327021E-02    0.7518167909E-02    0.1662278644E+00
    0.3300000000E+02    0.9849434006E-01    0.2124798843E-01    0.5371526437E-02    0.7937083155E-02    0.1728157095E+00
    0.3500000000E+02    0.1021550801E+00    0.2201945417E-01    0.5572798301E-02    0.8349524155E-02    0.1791124464E+00
    0.3700000000E+02    0.1056607886E+00    0.2275748202E-01    0.5765725152E-02    0.8755699289E-02    0.1851383008E+00
    0.3900000000E+02    0.1090213347E+00    0.2346434343E-01    0.5950837545E-02    0.9155807579E-02    0.1909116310E+00
    0.4100000000E+02    0.1122457306E+00    0.2414210483E-01    0.6128619884E-02    0.9550039214E-02    0.1964491402E+00
    0.4300000000E+02    0.1153422251E+00    0.2479265044E-01    0.6299515478E-02    0.9938576053E-02    0.2017660604E+00
    0.4500000000E+02    0.1183183850E+00    0.2541770201E-01    0.6463930935E-02    0.1032159208E-01    0.2068763121E+00
    0.4700000000E+02    0.1211811665E+00    0.2601883615E-01    0.6622239992E-02    0.1069925384E-01    0.2117926435E+00
    0.4900000000E+02    0.1239369770E+00    0.2659749939E-01    0.6774786875E-02    0.1107172083E-01    0.2165267524E+00
    0.1000000000E+02    0.4051774150E-01    0.8866733547E-02    0.2202317546E-02    0.2666715141E-02    0.7199867265E-01
    0.3000000000E+02    0.9268855192E-01    0.2002254834E-01    0.5052681582E-02    0.7306214625E-02    0.1628178857E+00
    0.5000000000E+02    0.1252766342E+00    0.2687882419E-01    0.6848999732E-02    0.1125605430E-01    0.2188288682E+00
    0.7000000000E+02    0.1476735992E+00    0.3159755673E-01    0.8096254459E-02    0.1470398055E-01    0.2575045437E+00
    0.9000000000E+02    0.1639857643E+00    0.3508663560E-01    0.9014975065E-02    0.1777257950E-01    0.2861910280E+00
    0.1100000000E+03    0.1763372874E+00    0.3779704642E-01    0.9719221882E-02    0.2054569841E-01    0.3085415919E+00
    0.1300000000E+03    0.1859537531E+00    0.3997961519E-01    0.1027484451E-01    0.2308288435E-01    0.3265903376E+00
    0.1500000000E+03    0.1935983502E+00    0.4178570982E-01    0.1072289542E-01    0.2542776029E-01    0.3415661305E+00
    0.1700000000E+03    0.1997738106E+00    0.4331250649E-01    0.1109045857E-01    0.2761312791E-01    0.3542587239E+00
    0.1900000000E+03    0.2048259015E+00    0.4462549394E-01    0.1139619602E-01    0.2966420603E-01    0.3652009011E+00
    0.2100000000E+03    0.2090007126E+00    0.4577056672E-01    0.1165341755E-01    0.3160075849E-01    0.3747664196E+00
    0.2300000000E+03    0.2124783363E+00    0.4678094012E-01    0.1187188565E-01    0.3343853458E-01    0.3832260512E+00
    0.2500000000E+03    0.2153936524E+00    0.4768130985E-01    0.1205892976E-01    0.3519026968E-01    0.3907813151E+00
    0.2700000000E+03    0.2178496752E+00    0.4849046249E-01    0.1222016223E-01    0.3686639652E-01    0.3975856607E+00
    0.2900000000E+03    0.2199264133E+00    0.4922297352E-01    0.1235995394E-01    0.3847556090E-01    0.4037582547E+00
    0.3100000000E+03    0.2216869197E+00    0.4989034619E-01    0.1248175930E-01    0.4002500240E-01    0.4093932342E+00
    0.3300000000E+03    0.2231815250E+00    0.5050179614E-01    0.1258834393E-01    0.4152084007E-01    0.4145660856E+00
    0.3500000000E+03    0.2244508616E+00    0.5106480471E-01    0.1268194745E-01    0.4296828983E-01    0.4193381449E+00
    0.3700000000E+03    0.2255280655E+00    0.5158551721E-01    0.1276440213E-01    0.4437183217E-01    0.4237598401E+00
    0.3900000000E+03    0.2264404054E+00    0.5206903504E-01    0.1283722084E-01    0.4573534307E-01    0.4278730696E+00
    0.4100000000E+03    0.2272105062E+00    0.5251963333E-01    0.1290166312E-01    0.4706219727E-01    0.4317129761E+00
    0.4300000000E+03    0.2278572802E+00    0.5294092570E-01    0.1295878556E-01    0.4835535060E-01    0.4353092899E+00
    0.4500000000E+03    0.2283966436E+00    0.5333599050E-01    0.1300948062E-01    0.4961740624E-01    0.4386873587E+00
    0.4700000000E+03    0.2288420748E+00    0.5370746883E-01    0.1305450695E-01    0.5085066846E-01    0.4418689480E+00
    0.4900000000E+03    0.2292050533E+00    0.5405764150E-01    0.1309451317E-01    0.5205718657E-01    0.4448728693E+00
    0.1000000000E+03    0.1705657333E+00    0.3652038599E-01    0.9389026578E-02    0.1919190164E-01    0.2980059821E+00
    0.3000000000E+03    0.2208427918E+00    0.4956417995E-01    0.1242291808E-01    0.3925734114E-01    0.4066378513E+00
    0.5000000000E+03    0.2293587507E+00    0.5422536771E-01    0.1311281111E-01    0.5265099634E-01    0.4463134001E+00
    0.7000000000E+03    0.2298744324E+00    0.5682924326E-01    0.1331646634E-01    0.6347987867E-01    0.4688377622E+00
    0.9000000000E+03    0.2279363617E+00    0.5855218984E-01    0.1335261123E-01    0.7290898301E-01    0.4839430292E+00
    0.1100000000E+04    0.2251186413E+00    0.5980092055E-01    0.1331685045E-01    0.8143561694E-01    0.4950200678E+00
    0.1300000000E+04    0.2219895855E+00    0.6075932562E-01    0.1324627660E-01    0.8932077606E-01    0.5036121967E+00
    0.1500000000E+04    0.2187828798E+00    0.6152456067E-01    0.1315766734E-01    0.9671988464E-01    0.5105396156E+00
    0.1700000000E+04    0.2156012661E+00    0.6215352492E-01    0.1305942563E-01    0.1037337505E+00    0.5162852503E+00
    0.1900000000E+04    0.2124905657E+00    0.6268208532E-01    0.1295607233E-01    0.1104319053E+00    0.5211550242E+00
    0.2100000000E+04    0.2094700846E+00    0.6313413755E-01    0.1285016833E-01    0.1168645831E+00    0.5253536938E+00
    0.2300000000E+04    0.2065462447E+00    0.6352630487E-01    0.1274321907E-01    0.1230694105E+00    0.5290243183E+00
    0.2500000000E+04    0.2037190987E+00    0.6387056018E-01    0.1263613232E-01    0.1290753976E+00    0.5322703605E+00
    0.2700000000E+04    0.2009855893E+00    0.6417577675E-01    0.1252946383E-01    0.1349054458E+00    0.5351687978E+00
    0.2900000000E+04    0.1983412332E+00    0.6444868969E-01    0.1242355537E-01    0.1405779939E+00    0.5377782779E+00
    0.3100000000E+04    0.1957810057E+00    0.6469451607E-01    0.1231861551E-01    0.1461081365E+00    0.5401443929E+00
    0.3300000000E+04    0.1932998050E+00    0.6491736828E-01    0.1221476820E-01    0.1515084080E+00    0.5423032056E+00
    0.3500000000E+04    0.1908926928E+00    0.6512053760E-01    0.1211208302E-01    0.1567893462E+00    0.5442836751E+00
    0.3700000000E+04    0.1885550099E+00    0.6530669357E-01    0.1201059422E-01    0.1619599067E+00    0.5461093656E+00
    0.3900000000E+04    0.1862824249E+00    0.6547802713E-01    0.1191031311E-01    0.1670277736E+00    0.5477996778E+00
    0.4100000000E+04    0.1840709451E+00    0.6563635548E-01    0.1181123609E-01    0.1719995963E+00    0.5493707520E+00
    0.4300000000E+04    0.1819169081E+00    0.6578320019E-01    0.1171335005E-01    0.1768811729E+00    0.5508361428E+00
    0.4500000000E+04    0.1798169629E+00    0.6591984614E-01    0.1161663590E-01    0.1816775945E+00    0.5522073298E+00
    0.4700000000E+04    0.1777680466E+00    0.6604738683E-01    0.1152107101E-01    0.1863933594E+00    0.5534941101E+00
    0.4900000000E+04    0.1757673599E+00    0.6616675943E-01    0.1142663085E-01    0.1910324652E+00    0.5547049036E+00
    0.1000000000E+04    0.2265900425E+00    0.5922142593E-01    0.1334068998E-01    0.7726540150E-01    0.4898643771E+00
    0.3000000000E+04    0.1970509240E+00    0.6457470961E-01    0.1237095506E-01    0.1433600300E+00    0.5389893114E+00
    0.5000000000E+04    0.1747842939E+00    0.6622363973E-01    0.1137982461E-01    0.1933244019E+00    0.5552841201E+00
    0.7000000000E+04    0.1571380782E+00    0.6708072625E-01    0.1049678476E-01    0.2358373623E+00    0.5642217794E+00
    0.9000000000E+04    0.1424076028E+00    0.6761864054E-01    0.9701671949E-02    0.2732071396E+00    0.5700904400E+00
    0.1100000000E+05    0.1297738804E+00    0.6799202822E-01    0.8981065210E-02    0.3064857592E+00    0.5743296228E+00
    0.1300000000E+05    0.1187728227E+00    0.6826814389E-01    0.8326193531E-02    0.3362997170E+00    0.5775792678E+00
    0.1500000000E+05    0.1091042740E+00    0.6848142574E-01    0.7730480969E-02    0.3630927341E+00    0.5801736895E+00
    0.1700000000E+05    0.1005542077E+00    0.6865151335E-01    0.7188427092E-02    0.3872155959E+00    0.5823071735E+00
    0.1900000000E+05    0.9295913373E-01    0.6879050194E-01    0.6695134765E-02    0.4089638400E+00    0.5841015530E+00
    0.2100000000E+05    0.8618821769E-01    0.6890628408E-01    0.6246120609E-02    0.4285949351E+00    0.5856377249E+00
    0.2300000000E+05    0.8013352656E-01    0.6900424804E-01    0.5837244557E-02    0.4463367708E+00    0.5869718530E+00
    0.2500000000E+05    0.7470427094E-01    0.6908820851E-01    0.5464685867E-02    0.4623923407E+00    0.5881443472E+00
    0.2700000000E+05    0.6982313131E-01    0.6916094799E-01    0.5124933837E-02    0.4769427469E+00    0.5891851444E+00
    0.2900000000E+05    0.6542373452E-01    0.6922454745E-01    0.4814780173E-02    0.4901494589E+00    0.5901169686E+00
    0.3100000000E+05    0.6144880446E-01    0.6928059665E-01    0.4531308438E-02    0.5021562322E+00    0.5909574264E+00
    0.3300000000E+05    0.5784873498E-01    0.6933033244E-01    0.4271879801E-02    0.5130908489E+00    0.5917204020E+00
    0.3500000000E+05    0.5458044579E-01    0.6937473257E-01    0.4034115733E-02    0.5230667357E+00    0.5924170110E+00
    0.3700000000E+05    0.5160644126E-01    0.6941458077E-01    0.3815878774E-02    0.5321844726E+00    0.5930562725E+00
    0.3900000000E+05    0.4889402282E-01    0.6945051311E-01    0.3615252412E-02    0.5405331909E+00    0.5936455898E+00
    0.4100000000E+05    0.4641462300E-01    0.6948305152E-01    0.3430520964E-02    0.5481918558E+00    0.5941911044E+00
    0.4300000000E+05    0.4414323859E-01    0.6951262849E-01    0.3260150080E-02    0.5552304329E+00    0.5946979580E+00
    0.4500000000E+05    0.4205794642E-01    0.6953960564E-01    0.3102768299E-02    0.5617109379E+00    0.5951704921E+00
    0.4700000000E+05    0.4013948868E-01    0.6956428779E-01    0.2957149906E-02    0.5676883767E+00    0.5956124004E+00
    0.4900000000E+05    0.3837091725E-01    0.6958693373E-01    0.2822199213E-02    0.5732115811E+00    0.5960268473E+00
    0.1000000000E+05    0.1358628920E+00    0.6782058234E-01    0.9332675098E-02    0.2903127338E+00    0.5723634011E+00
    0.3000000000E+05    0.6338647675E-01    0.6925343153E-01    0.4669880307E-02    0.4962944966E+00    0.5905476762E+00
    0.5000000000E+05    0.3753809809E-01    0.6959756354E-01    0.2758413864E-02    0.5758166007E+00    0.5962246402E+00
    0.7000000000E+05    0.2593735708E-01    0.6974320337E-01    0.1854024578E-02    0.6123415149E+00    0.5992386888E+00
    0.9000000000E+05    0.1976210997E-01    0.6981698407E-01    0.1361225172E-02    0.6318782798E+00    0.6011814230E+00
    0.1100000000E+06    0.1604788784E-01    0.6985705024E-01    0.1062347701E-02    0.6435718419E+00    0.6025699264E+00
    0.1300000000E+06    0.1360809267E-01    0.6987889363E-01    0.8661457833E-03    0.6511697661E+00    0.6036281013E+00
    0.1500000000E+06    0.1189717859E-01    0.6988997006E-01    0.7294279923E-03    0.6564190392E+00    0.6044705612E+00
    0.1700000000E+06    0.1063602734E-01    0.6989428891E-01    0.6296629364E-03    0.6602208750E+00    0.6051628555E+00
    0.1900000000E+06    0.9669407053E-02    0.6989418223E-01    0.5541544615E-03    0.6630787451E+00    0.6057455598E+00
    0.2100000000E+06    0.8905060106E-02    0.6989108805E-01    0.4952913345E-03    0.6652924044E+00    0.6062453277E+00
    0.2300000000E+06    0.8285122977E-02    0.6988593390E-01    0.4482741490E-03    0.6670497979E+00    0.6066804952E+00
    0.2500000000E+06    0.7771655320E-02    0.6987933973E-01    0.4099470726E-03    0.6684739150E+00    0.6070641528E+00
    0.2700000000E+06    0.7338836841E-02    0.6987173192E-01    0.3781606062E-03    0.6696481784E+00    0.6074059336E+00
    0.2900000000E+06    0.6968531589E-02    0.6986341064E-01    0.3514061095E-03    0.6706309245E+00    0.6077131080E+00
    0.3100000000E+06    0.6647650827E-02    0.6985459130E-01    0.3285970355E-03    0.6714640297E+00    0.6079912825E+00
    0.3300000000E+06    0.6366523643E-02    0.6984543090E-01    0.3089330666E-03    0.6721782465E+00    0.6082448603E+00
    0.3500000000E+06    0.6117855975E-02    0.6983604535E-01    0.2918129893E-03    0.6727966126E+00    0.6084773555E+00
    0.3700000000E+06    0.5896045800E-02    0.6982652112E-01    0.2767772312E-03    0.6733366927E+00    0.6086916122E+00
    0.3900000000E+06    0.5696720847E-02    0.6981692321E-01    0.2634690073E-03    0.6738120892E+00    0.6088899604E+00
    0.4100000000E+06    0.5516419263E-02    0.6980730080E-01    0.2516074619E-03    0.6742334847E+00    0.6090743304E+00
    0.4300000000E+06    0.5352364458E-02    0.6979769121E-01    0.2409687309E-03    0.6746093748E+00    0.6092463372E+00
    0.4500000000E+06    0.5202303388E-02    0.6978812281E-01    0.2313723489E-03    0.6749465931E+00    0.6094073437E+00
    0.4700000000E+06    0.5064388444E-02    0.6977861718E-01    0.2226713327E-03    0.6752506932E+00    0.6095585095E+00
    0.4900000000E+06    0.4937089878E-02    0.6976919063E-01    0.2147448412E-03    0.6755262316E+00    0.6097008286E+00
    0.1000000000E+06    0.1769385527E-01    0.6983998531E-01    0.1194899470E-02    0.6384020642E+00    0.6019272404E+00
    0.3000000000E+06    0.6802583317E-02    0.6985905229E-01    0.3395639218E-03    0.6710640465E+00    0.6078555211E+00
    0.5000000000E+06    0.4877014058E-02    0.6976451098E-01    0.2110400432E-03    0.6756544945E+00    0.6097689433E+00
    0.7000000000E+06    0.4010128157E-02    0.6967672232E-01    0.1603711987E-03    0.6773664303E+00    0.6108242889E+00
    0.9000000000E+06    0.3492524733E-02    0.6960021279E-01    0.1328442840E-03    0.6782503824E+00    0.6115246137E+00
    0.1100000000E+07    0.3138643407E-02    0.6953325771E-01    0.1152821383E-03    0.6787889904E+00    0.6120365677E+00
    0.1300000000E+07    0.2876765183E-02    0.6947395030E-01    0.1029509158E-03    0.6791518219E+00    0.6124339170E+00
    0.1500000000E+07    0.2672660923E-02    0.6942078641E-01    0.9372789584E-04    0.6794132453E+00    0.6127551576E+00
    0.1700000000E+07    0.2507663186E-02    0.6937263082E-01    0.8651519225E-04    0.6796108913E+00    0.6130226669E+00
    0.1900000000E+07    0.2370607618E-02    0.6932862378E-01    0.8068528430E-04    0.6797658125E+00    0.6132504889E+00
    0.2100000000E+07    0.2254349667E-02    0.6928810446E-01    0.7585196428E-04    0.6798906995E+00    0.6134479583E+00
    0.2300000000E+07    0.2154074109E-02    0.6925055628E-01    0.7176361290E-04    0.6799936560E+00    0.6136215633E+00
    0.2500000000E+07    0.2066399958E-02    0.6921556868E-01    0.6824872176E-04    0.6800801000E+00    0.6137759783E+00
    0.2700000000E+07    0.1988873150E-02    0.6918281043E-01    0.6518601846E-04    0.6801537922E+00    0.6139146715E+00
    0.2900000000E+07    0.1919662839E-02    0.6915201062E-01    0.6248710716E-04    0.6802174253E+00    0.6140402797E+00
    0.3100000000E+07    0.1857371219E-02    0.6912294495E-01    0.6008588810E-04    0.6802729788E+00    0.6141548502E+00
    0.3300000000E+07    0.1800909878E-02    0.6909542565E-01    0.5793184524E-04    0.6803219410E+00    0.6142600011E+00
    0.3500000000E+07    0.1749416784E-02    0.6906929399E-01    0.5598564005E-04    0.6803654529E+00    0.6143570312E+00
    0.3700000000E+07    0.1702199010E-02    0.6904441459E-01    0.5421613297E-04    0.6804044040E+00    0.6144469972E+00
    0.3900000000E+07    0.1658692247E-02    0.6902067104E-01    0.5259831763E-04    0.6804394984E+00    0.6145307697E+00
    0.4100000000E+07    0.1618431591E-02    0.6899796255E-01    0.5111185568E-04    0.6804713011E+00    0.6146090732E+00
    0.4300000000E+07    0.1581030057E-02    0.6897620122E-01    0.4974001667E-04    0.6805002705E+00    0.6146825165E+00
    0.4500000000E+07    0.1546162521E-02    0.6895530998E-01    0.4846889730E-04    0.6805267826E+00    0.6147516158E+00
    0.4700000000E+07    0.1513553533E-02    0.6893522084E-01    0.4728683721E-04    0.6805511490E+00    0.6148168123E+00
    0.4900000000E+07    0.1482967946E-02    0.6891587354E-01    0.4618397547E-04    0.6805736302E+00    0.6148784854E+00
    0.1000000000E+07    0.3300918407E-02    0.6956566860E-01    0.1232070306E-03    0.6785488269E+00    0.6117983342E+00
    0.3000000000E+07    0.1887726343E-02    0.6913727351E-01    0.6125274836E-04    0.6802461094E+00    0.6140988350E+00
    0.5000000000E+07    0.1468369638E-02    0.6890646108E-01    0.4565956890E-04    0.6805842337E+00    0.6149081051E+00
    0.7000000000E+07    0.1245730903E-02    0.6874674714E-01    0.3781696722E-04    0.6807360414E+00    0.6153763002E+00
    0.9000000000E+07    0.1102087305E-02    0.6862419824E-01    0.3290725591E-04    0.6808244628E+00    0.6156979907E+00
    0.1100000000E+08    0.9994959948E-03    0.6852461551E-01    0.2947109325E-04    0.6808832595E+00    0.6159397512E+00
    0.1300000000E+08    0.9214650807E-03    0.6844067135E-01    0.2689662148E-04    0.6809256416E+00    0.6161317689E+00
    0.1500000000E+08    0.8595105251E-03    0.6836807871E-01    0.2487672067E-04    0.6809578975E+00    0.6162901114E+00
    0.1700000000E+08    0.8087601791E-03    0.6830410859E-01    0.2323821716E-04    0.6809834249E+00    0.6164242775E+00
    0.1900000000E+08    0.7661890116E-03    0.6824691460E-01    0.2187512626E-04    0.6810042312E+00    0.6165403177E+00
    0.2100000000E+08    0.7298058137E-03    0.6819518842E-01    0.2071849970E-04    0.6810215836E+00    0.6166423074E+00
    0.2300000000E+08    0.6982388920E-03    0.6814796873E-01    0.1972130799E-04    0.6810363245E+00    0.6167331137E+00
    0.2500000000E+08    0.6705082403E-03    0.6810452817E-01    0.1885023510E-04    0.6810490371E+00    0.6168148252E+00
    0.2700000000E+08    0.6458924479E-03    0.6806430293E-01    0.1808093758E-04    0.6810601395E+00    0.6168890073E+00
