  Pressure (Pa) 2mC6-400 (mol/kg) 3mC6-400 (mol/kg) 33mC5-400 (mol/kg) 23mC5-400 (mol/kg) C7-400 (mol/kg)
    0.1000000000E+01    0.4734477490E-02    0.4179751904E-02    0.6425476989E-04    0.1861700695E-03    0.5087080475E-02
    0.3000000000E+01    0.1370629569E-01    0.1207314589E-01    0.1860669126E-03    0.5530441724E-03    0.1469650089E-01
    0.5000000000E+01    0.2207530244E-01    0.1940302246E-01    0.2997597262E-03    0.9128628649E-03    0.2362306361E-01
    0.7000000000E+01    0.2990441864E-01    0.2623009903E-01    0.4061824057E-03    0.1265892394E-02    0.3194023927E-01
    0.9000000000E+01    0.3724779559E-01    0.3260658973E-01    0.5060655308E-03    0.1612385124E-02    0.3971121668E-01
    0.1100000000E+02    0.4415231042E-01    0.3857764811E-01    0.6000413247E-03    0.1952580453E-02    0.4699064646E-01
    0.1300000000E+02    0.5065876454E-01    0.4418252535E-01    0.6886598840E-03    0.2286705642E-02    0.5382604099E-01
    0.1500000000E+02    0.5680285181E-01    0.4945550751E-01    0.7724022878E-03    0.2614976598E-02    0.6025890733E-01
    0.1700000000E+02    0.6261594635E-01    0.5442667940E-01    0.8516912614E-03    0.2937598583E-02    0.6632567072E-01
    0.1900000000E+02    0.6812574819E-01    0.5912255152E-01    0.9268999129E-03    0.3254766876E-02    0.7205843246E-01
    0.2100000000E+02    0.7335681569E-01    0.6356657770E-01    0.9983589375E-03    0.3566667386E-02    0.7748559586E-01
    0.2300000000E+02    0.7833100742E-01    0.6777958531E-01    0.1066362593E-02    0.3873477219E-02    0.8263238634E-01
    0.2500000000E+02    0.8306785091E-01    0.7178013454E-01    0.1131173687E-02    0.4175365202E-02    0.8752128600E-01
    0.2700000000E+02    0.8758485210E-01    0.7558482026E-01    0.1193027760E-02    0.4472492372E-02    0.9217239855E-01
    0.2900000000E+02    0.9189775628E-01    0.7920852674E-01    0.1252136609E-02    0.4765012429E-02    0.9660375751E-01
    0.3100000000E+02    0.9602076930E-01    0.8266464373E-01    0.1308691283E-02    0.5053072161E-02    0.1008315874E+00
    0.3300000000E+02    0.9996674587E-01    0.8596525046E-01    0.1362864617E-02    0.5336811833E-02    0.1048705266E+00
    0.3500000000E+02    0.1037473506E+00    0.8912127311E-01    0.1414813416E-02    0.5616365554E-02    0.1087338173E+00
    0.3700000000E+02    0.1073731961E+00    0.9214262000E-01    0.1464680314E-02    0.5891861621E-02    0.1124334698E+00
    0.3900000000E+02    0.1108539624E+00    0.9503829818E-01    0.1512595388E-02    0.6163422833E-02    0.1159804029E+00
    0.4100000000E+02    0.1141985000E+00    0.9781651427E-01    0.1558677545E-02    0.6431166793E-02    0.1193845662E+00
    0.4300000000E+02    0.1174149192E+00    0.1004847621E+00    0.1603035733E-02    0.6695206186E-02    0.1226550462E+00
    0.4500000000E+02    0.1205106686E+00    0.1030498989E+00    0.1645769992E-02    0.6955649035E-02    0.1258001584E+00
    0.4700000000E+02    0.1234926027E+00    0.1055182120E+00    0.1686972376E-02    0.7212598951E-02    0.1288275280E+00
    0.4900000000E+02    0.1263670422E+00    0.1078954775E+00    0.1726727754E-02    0.7466155359E-02    0.1317441610E+00
    0.1000000000E+02    0.4075223062E-01    0.3564021836E-01    0.5537557053E-03    0.1783255485E-02    0.4340925262E-01
    0.3000000000E+02    0.9398216611E-01    0.8095675022E-01    0.1280722016E-02    0.4909590921E-02    0.9874216390E-01
    0.5000000000E+02    0.1277657937E+00    0.1090516453E+00    0.1746087550E-02    0.7591690974E-02    0.1331629866E+00
    0.7000000000E+02    0.1513041770E+00    0.1284847086E+00    0.2073515284E-02    0.9945551839E-02    0.1570480091E+00
    0.9000000000E+02    0.1686666148E+00    0.1428998749E+00    0.2317625121E-02    0.1204837956E-01    0.1748195258E+00
    0.1100000000E+03    0.1819752592E+00    0.1541228221E+00    0.2506893875E-02    0.1395379777E-01    0.1886956410E+00
    0.1300000000E+03    0.1924629149E+00    0.1631748884E+00    0.2657872576E-02    0.1570036816E-01    0.1999185653E+00
    0.1500000000E+03    0.2009020554E+00    0.1706750135E+00    0.2780942946E-02    0.1731663446E-01    0.2092418835E+00
    0.1700000000E+03    0.2078045193E+00    0.1770217874E+00    0.2882993851E-02    0.1882424747E-01    0.2171513972E+00
    0.1900000000E+03    0.2135243111E+00    0.1824844660E+00    0.2968798201E-02    0.2023997667E-01    0.2239756095E+00
    0.2100000000E+03    0.2183147365E+00    0.1872520948E+00    0.3041777984E-02    0.2157704801E-01    0.2299453935E+00
    0.2300000000E+03    0.2223621247E+00    0.1914616933E+00    0.3104455836E-02    0.2284605909E-01    0.2352282500E+00
    0.2500000000E+03    0.2258067187E+00    0.1952152573E+00    0.3158734856E-02    0.2405562071E-01    0.2399489848E+00
    0.2700000000E+03    0.2287561395E+00    0.1985904527E+00    0.3206079052E-02    0.2521281657E-01    0.2442027229E+00
    0.2900000000E+03    0.2312943588E+00    0.2016475841E+00    0.3247633657E-02    0.2632353893E-01    0.2480633947E+00
    0.3100000000E+03    0.2334878471E+00    0.2044342772E+00    0.3284307653E-02    0.2739273801E-01    0.2515894400E+00
    0.3300000000E+03    0.2353898915E+00    0.2069887077E+00    0.3316831765E-02    0.2842461013E-01    0.2548277458E+00
    0.3500000000E+03    0.2370436912E+00    0.2093418820E+00    0.3345800093E-02    0.2942274173E-01    0.2578164273E+00
    0.3700000000E+03    0.2384846189E+00    0.2115192798E+00    0.3371700549E-02    0.3039022085E-01    0.2605868334E+00
    0.3900000000E+03    0.2397418995E+00    0.2135420597E+00    0.3394937484E-02    0.3132972455E-01    0.2631650193E+00
    0.4100000000E+03    0.2408398757E+00    0.2154279593E+00    0.3415848759E-02    0.3224358823E-01    0.2655728457E+00
    0.4300000000E+03    0.2417989728E+00    0.2171919753E+00    0.3434718789E-02    0.3313386095E-01    0.2678288108E+00
    0.4500000000E+03    0.2426364451E+00    0.2188468861E+00    0.3451788632E-02    0.3400235016E-01    0.2699486898E+00
    0.4700000000E+03    0.2433669581E+00    0.2204036577E+00    0.3467263882E-02    0.3485065812E-01    0.2719460311E+00
    0.4900000000E+03    0.2440030479E+00    0.2218717619E+00    0.3481320900E-02    0.3568021165E-01    0.2738325465E+00
    0.1000000000E+03    0.1757364310E+00    0.1488339798E+00    0.2417890136E-02    0.1302307291E-01    0.1821516209E+00
    0.3000000000E+03    0.2324305960E+00    0.2030721584E+00    0.3266531436E-02    0.2686305081E-01    0.2498650816E+00
    0.5000000000E+03    0.2442891108E+00    0.2225751783E+00    0.3487865932E-02    0.3608835959E-01    0.2747374797E+00
    0.7000000000E+03    0.2470065297E+00    0.2335170015E+00    0.3572087262E-02    0.4351590034E-01    0.2889120655E+00
    0.9000000000E+03    0.2467191015E+00    0.2407855652E+00    0.3606835841E-02    0.4996002692E-01    0.2984507976E+00
    0.1100000000E+04    0.2452380114E+00    0.2460730754E+00    0.3619241442E-02    0.5577079366E-01    0.3054683130E+00
    0.1300000000E+04    0.2432459987E+00    0.2501454855E+00    0.3620147441E-02    0.6113256397E-01    0.3109279925E+00
    0.1500000000E+04    0.2410392377E+00    0.2534079243E+00    0.3614611592E-02    0.6615537664E-01    0.3153423266E+00
    0.1700000000E+04    0.2387577651E+00    0.2560979272E+00    0.3605253016E-02    0.7091073075E-01    0.3190133706E+00
    0.1900000000E+04    0.2364712003E+00    0.2583654025E+00    0.3593534455E-02    0.7544802360E-01    0.3221326702E+00
    0.2100000000E+04    0.2342148479E+00    0.2603103423E+00    0.3580320711E-02    0.7980300134E-01    0.3248285631E+00
    0.2300000000E+04    0.2320063447E+00    0.2620023902E+00    0.3566146164E-02    0.8400248418E-01    0.3271908121E+00
    0.2500000000E+04    0.2298538781E+00    0.2634917666E+00    0.3551352740E-02    0.8806718689E-01    0.3292844034E+00
    0.2700000000E+04    0.2277604631E+00    0.2648157344E+00    0.3536165394E-02    0.9201349250E-01    0.3311577381E+00
    0.2900000000E+04    0.2257262594E+00    0.2660026108E+00    0.3520735453E-02    0.9585461646E-01    0.3328477303E+00
    0.3100000000E+04    0.2237498670E+00    0.2670743555E+00    0.3505166521E-02    0.9960139828E-01    0.3343831060E+00
    0.3300000000E+04    0.2218290653E+00    0.2680482985E+00    0.3489530500E-02    0.1032628565E+00    0.3357866097E+00
    0.3500000000E+04    0.2199612422E+00    0.2689383250E+00    0.3473877785E-02    0.1068465876E+00    0.3370765237E+00
    0.3700000000E+04    0.2181436432E+00    0.2697557097E+00    0.3458243927E-02    0.1103590598E+00    0.3382677389E+00
    0.3900000000E+04    0.2163735158E+00    0.2705097161E+00    0.3442654068E-02    0.1138058325E+00    0.3393725265E+00
    0.4100000000E+04    0.2146481911E+00    0.2712080358E+00    0.3427125963E-02    0.1171917250E+00    0.3404011051E+00
    0.4300000000E+04    0.2129651277E+00    0.2718571158E+00    0.3411672070E-02    0.1205209460E+00    0.3413620641E+00
    0.4500000000E+04    0.2113219326E+00    0.2724624060E+00    0.3396301011E-02    0.1237971960E+00    0.3422626843E+00
    0.4700000000E+04    0.2097163687E+00    0.2730285493E+00    0.3381018613E-02    0.1270237484E+00    0.3431091851E+00
    0.4900000000E+04    0.2081463540E+00    0.2735595289E+00    0.3365828662E-02    0.1302035149E+00    0.3439069159E+00
    0.1000000000E+04    0.2460714885E+00    0.2436169642E+00    0.3614952903E-02    0.5293066996E-01    0.3021993833E+00
    0.3000000000E+04    0.2247309625E+00    0.2665516989E+00    0.3512963265E-02    0.9773919909E-01    0.3336332039E+00
    0.5000000000E+04    0.2073740681E+00    0.2738129256E+00    0.3358269113E-02    0.1317766776E+00    0.3442889644E+00
    0.7000000000E+04    0.1933966917E+00    0.2776668758E+00    0.3212052552E-02    0.1612927925E+00    0.3502245680E+00
    0.9000000000E+04    0.1814854949E+00    0.2801298082E+00    0.3074508779E-02    0.1879602593E+00    0.3541727042E+00
    0.1100000000E+05    0.1709890297E+00    0.2818678159E+00    0.2944359880E-02    0.2125122680E+00    0.3570577985E+00
    0.1300000000E+05    0.1615494448E+00    0.2831729995E+00    0.2820705053E-02    0.2353454495E+00    0.3592932750E+00
    0.1500000000E+05    0.1529497989E+00    0.2841960524E+00    0.2702958752E-02    0.2567041345E+00    0.3610961488E+00
    0.1700000000E+05    0.1450477603E+00    0.2850235050E+00    0.2590723319E-02    0.2767539539E+00    0.3625930258E+00
    0.1900000000E+05    0.1377437280E+00    0.2857089912E+00    0.2483707097E-02    0.2956162161E+00    0.3638635531E+00
    0.2100000000E+05    0.1309641421E+00    0.2862877220E+00    0.2381676916E-02    0.3133856744E+00    0.3649607627E+00
    0.2300000000E+05    0.1246521406E+00    0.2867838752E+00    0.2284430998E-02    0.3301403621E+00    0.3659215678E+00
    0.2500000000E+05    0.1187620465E+00    0.2872146627E+00    0.2191783695E-02    0.3459472977E+00    0.3667725958E+00
    0.2700000000E+05    0.1132559757E+00    0.2875927064E+00    0.2103557115E-02    0.3608659049E+00    0.3675336263E+00
    0.2900000000E+05    0.1081016753E+00    0.2879274950E+00    0.2019576783E-02    0.3749501067E+00    0.3682197183E+00
    0.3100000000E+05    0.1032711070E+00    0.2882263134E+00    0.1939669693E-02    0.3882496290E+00    0.3688425783E+00
    0.3300000000E+05    0.9873949236E-01    0.2884948576E+00    0.1863663733E-02    0.4008108204E+00    0.3694114713E+00
    0.3500000000E+05    0.9448465465E-01    0.2887376513E+00    0.1791387876E-02    0.4126771747E+00    0.3699338454E+00
    0.3700000000E+05    0.9048655313E-01    0.2889583380E+00    0.1722672766E-02    0.4238896687E+00    0.3704157702E+00
    0.3900000000E+05    0.8672694572E-01    0.2891598879E+00    0.1657351475E-02    0.4344869881E+00    0.3708622516E+00
    0.4100000000E+05    0.8318913791E-01    0.2893447496E+00    0.1595260275E-02    0.4445056831E+00    0.3712774626E+00
    0.4300000000E+05    0.7985779071E-01    0.2895149606E+00    0.1536239364E-02    0.4539802853E+00    0.3716649152E+00
    0.4500000000E+05    0.7671876967E-01    0.2896722324E+00    0.1480133500E-02    0.4629434008E+00    0.3720275907E+00
    0.4700000000E+05    0.7375902273E-01    0.2898180136E+00    0.1426792515E-02    0.4714257911E+00    0.3723680391E+00
    0.4900000000E+05    0.7096647885E-01    0.2899535393E+00    0.1376071715E-02    0.4794564487E+00    0.3726884570E+00
    0.1000000000E+05    0.1760872520E+00    0.2810663800E+00    0.3008575421E-02    0.2004710208E+00    0.3557156731E+00
    0.3000000000E+05    0.1056475408E+00    0.2880810129E+00    0.1979124860E-02    0.3816949841E+00    0.3685384244E+00
    0.5000000000E+05    0.6962938266E-01    0.2900177937E+00    0.1351650239E-02    0.4833109722E+00    0.3728417596E+00
    0.7000000000E+05    0.4935862476E-01    0.2909573863E+00    0.9703139632E-03    0.5424761669E+00    0.3752086102E+00
    0.9000000000E+05    0.3716878260E-01    0.2915132278E+00    0.7303284342E-03    0.5787006602E+00    0.3767654101E+00
    0.1100000000E+06    0.2936669344E-01    0.2918781514E+00    0.5720815788E-03    0.6021266329E+00    0.3778948105E+00
    0.1300000000E+06    0.2409349402E-01    0.2921335927E+00    0.4629368564E-03    0.6180492856E+00    0.3787667455E+00
    0.1500000000E+06    0.2036227778E-01    0.2923202498E+00    0.3846313160E-03    0.6293430573E+00    0.3794693515E+00
    0.1700000000E+06    0.1761925161E-01    0.2924608415E+00    0.3265319230E-03    0.6376456605E+00    0.3800533917E+00
    0.1900000000E+06    0.1553725214E-01    0.2925690886E+00    0.2821809314E-03    0.6439354883E+00    0.3805504254E+00
    0.2100000000E+06    0.1391395550E-01    0.2926537828E+00    0.2474975298E-03    0.6488227893E+00    0.3809812503E+00
    0.2300000000E+06    0.1261913364E-01    0.2927208228E+00    0.2198091092E-03    0.6527029835E+00    0.3813602164E+00
    0.2500000000E+06    0.1156599102E-01    0.2927743154E+00    0.1973089942E-03    0.6558409991E+00    0.3816975979E+00
    0.2700000000E+06    0.1069489343E-01    0.2928172084E+00    0.1787412737E-03    0.6584196099E+00    0.3820009789E+00
    0.2900000000E+06    0.9963762313E-02    0.2928516712E+00    0.1632111026E-03    0.6605681954E+00    0.3822761018E+00
    0.3100000000E+06    0.9342202031E-02    0.2928793360E+00    0.1500668252E-03    0.6623804401E+00    0.3825274097E+00
    0.3300000000E+06    0.8807795573E-02    0.2929014529E+00    0.1388245852E-03    0.6639255581E+00    0.3827584045E+00
    0.3500000000E+06    0.8343701897E-02    0.2929189952E+00    0.1291188385E-03    0.6652556087E+00    0.3829718913E+00
    0.3700000000E+06    0.7937058055E-02    0.2929327315E+00    0.1206690974E-03    0.6664103806E+00    0.3831701484E+00
    0.3900000000E+06    0.7577892377E-02    0.2929432759E+00    0.1132571043E-03    0.6674207254E+00    0.3833550499E+00
    0.4100000000E+06    0.7258370079E-02    0.2929511251E+00    0.1067108587E-03    0.6683108790E+00    0.3835281538E+00
    0.4300000000E+06    0.6972259883E-02    0.2929566842E+00    0.1008932438E-03    0.6691001061E+00    0.3836907689E+00
    0.4500000000E+06    0.6714550534E-02    0.2929602870E+00    0.9569379703E-04    0.6698038858E+00    0.3838440037E+00
    0.4700000000E+06    0.6481170832E-02    0.2929622104E+00    0.9102266926E-04    0.6704347785E+00    0.3839888052E+00
    0.4900000000E+06    0.6268782359E-02    0.2929626860E+00    0.8680612936E-04    0.6710030688E+00    0.3841259881E+00
    0.1000000000E+06    0.3286355377E-01    0.2917130699E+00    0.6434764369E-03    0.5916055083E+00    0.3773701528E+00
    0.3000000000E+06    0.9640840861E-02    0.2928662677E+00    0.1563742235E-03    0.6615115613E+00    0.3824044950E+00
    0.5000000000E+06    0.6169577874E-02    0.2929624431E+00    0.8484884536E-04    0.6712664509E+00    0.3841919467E+00
    0.7000000000E+06    0.4814777223E-02    0.2929157667E+00    0.5913439280E-04    0.6746956456E+00    0.3852416285E+00
    0.9000000000E+06    0.4076134720E-02    0.2928333437E+00    0.4622922817E-04    0.6763837840E+00    0.3859716939E+00
    0.1100000000E+07    0.3600652876E-02    0.2927418752E+00    0.3851272573E-04    0.6773742309E+00    0.3865258328E+00
    0.1300000000E+07    0.3263215030E-02    0.2926500309E+00    0.3337473881E-04    0.6780213388E+00    0.3869696134E+00
    0.1500000000E+07    0.3008071382E-02    0.2925609243E+00    0.2969682313E-04    0.6784759324E+00    0.3873381553E+00
    0.1700000000E+07    0.2806440169E-02    0.2924756387E+00    0.2692417308E-04    0.6788123616E+00    0.3876523428E+00
    0.1900000000E+07    0.2641853954E-02    0.2923944424E+00    0.2475150246E-04    0.6790712814E+00    0.3879255509E+00
    0.2100000000E+07    0.2504149700E-02    0.2923172638E+00    0.2299729250E-04    0.6792767091E+00    0.3881668331E+00
    0.2300000000E+07    0.2386680424E-02    0.2922438921E+00    0.2154692677E-04    0.6794437085E+00    0.3883825878E+00
    0.2500000000E+07    0.2284894903E-02    0.2921740675E+00    0.2032447335E-04    0.6795821904E+00    0.3885774951E+00
    0.2700000000E+07    0.2195559231E-02    0.2921075224E+00    0.1927761632E-04    0.6796989349E+00    0.3887550771E+00
    0.2900000000E+07    0.2116304229E-02    0.2920439994E+00    0.1836911563E-04    0.6797987335E+00    0.3889180469E+00
    0.3100000000E+07    0.2045349189E-02    0.2919832594E+00    0.1757172227E-04    0.6798850661E+00    0.3890685369E+00
    0.3300000000E+07    0.1981326263E-02    0.2919250835E+00    0.1686502250E-04    0.6799605209E+00    0.3892082519E+00
    0.3500000000E+07    0.1923164897E-02    0.2918692736E+00    0.1623340854E-04    0.6800270615E+00    0.3893385754E+00
    0.3700000000E+07    0.1870013487E-02    0.2918156506E+00    0.1566473307E-04    0.6800862051E+00    0.3894606447E+00
    0.3900000000E+07    0.1821184884E-02    0.2917640533E+00    0.1514939292E-04    0.6801391420E+00    0.3895754057E+00
    0.4100000000E+07    0.1776117612E-02    0.2917143364E+00    0.1467969023E-04    0.6801868191E+00    0.3896836529E+00
    0.4300000000E+07    0.1734347721E-02    0.2916663686E+00    0.1424937757E-04    0.6802299995E+00    0.3897860602E+00
    0.4500000000E+07    0.1695487986E-02    0.2916200316E+00    0.1385332805E-04    0.6802693046E+00    0.3898832035E+00
    0.4700000000E+07    0.1659212287E-02    0.2915752180E+00    0.1348729200E-04    0.6803052458E+00    0.3899755789E+00
    0.4900000000E+07    0.1625243717E-02    0.2915318305E+00    0.1314771472E-04    0.6803382477E+00    0.3900636167E+00
    0.1000000000E+07    0.3815813368E-02    0.2927879963E+00    0.4193964433E-04    0.6769366737E+00    0.3862656355E+00
    0.3000000000E+07    0.2079882802E-02    0.2920132957E+00    0.1795793866E-04    0.6798434041E+00    0.3889947367E+00
    0.5000000000E+07    0.1609049225E-02    0.2915106435E+00    0.1298689257E-04    0.6803537599E+00    0.3901061281E+00
    0.7000000000E+07    0.1363362332E-02    0.2911440157E+00    0.1062869115E-04    0.6805718667E+00    0.3907989523E+00
    0.9000000000E+07    0.1205883820E-02    0.2908548349E+00    0.9193055919E-05    0.6806951796E+00    0.3912994766E+00
    0.1100000000E+08    0.1093764367E-02    0.2906156608E+00    0.8204344861E-05    0.6807754728E+00    0.3916899898E+00
    0.1300000000E+08    0.1008630384E-02    0.2904114992E+00    0.7471183095E-05    0.6808324244E+00    0.3920094834E+00
    0.1500000000E+08    0.9411013680E-03    0.2902332559E+00    0.6900022392E-05    0.6808752076E+00    0.3922794425E+00
    0.1700000000E+08    0.8858158311E-03    0.2900749935E+00    0.6439078696E-05    0.6809086992E+00    0.3925129377E+00
    0.1900000000E+08    0.8394554395E-03    0.2899326178E+00    0.6057085827E-05    0.6809357423E+00    0.3927184995E+00
    0.2100000000E+08    0.7998407510E-03    0.2898031837E+00    0.5733912604E-05    0.6809581122E+00    0.3929019969E+00
    0.2300000000E+08    0.7654728066E-03    0.2896845009E+00    0.5455938500E-05    0.6809769775E+00    0.3930676367E+00
    0.2500000000E+08    0.7352819484E-03    0.2895748953E+00    0.5213577304E-05    0.6809931410E+00    0.3932185346E+00
    0.2700000000E+08    0.7084814781E-03    0.2894730580E+00    0.4999861784E-05    0.6810071735E+00    0.3933570619E+00
