  Pressure (Pa) 2mC6-400 (mol/kg) 3mC6-400 (mol/kg) 33mC5-400 (mol/kg) 23mC5-400 (mol/kg) C7-400 (mol/kg)
    0.1000000000E+01    0.4742107204E-02    0.2618174254E-02    0.1287131556E-03    0.3722150002E-03    0.5098375885E-02
    0.3000000000E+01    0.1376935900E-01    0.7594480727E-02    0.3738152445E-03    0.1104991431E-02    0.1479100050E-01
    0.5000000000E+01    0.2223663152E-01    0.1225314322E-01    0.6038168313E-03    0.1822756950E-02    0.2386775119E-01
    0.7000000000E+01    0.3019638566E-01    0.1662505007E-01    0.8201346545E-03    0.2526113166E-02    0.3238843238E-01
    0.9000000000E+01    0.3769451798E-01    0.2073716768E-01    0.1024007859E-02    0.3215628493E-02    0.4040526054E-01
    0.1100000000E+02    0.4477137193E-01    0.2461314595E-01    0.1216525391E-02    0.3891840447E-02    0.4796403496E-01
    0.1300000000E+02    0.5146256664E-01    0.2827381473E-01    0.1398648450E-02    0.4555257758E-02    0.5510509799E-01
    0.1500000000E+02    0.5779968055E-01    0.3173759367E-01    0.1571228994E-02    0.5206362301E-02    0.6186412761E-01
    0.1700000000E+02    0.6381081877E-01    0.3502083235E-01    0.1735025109E-02    0.5845610881E-02    0.6827279551E-01
    0.1900000000E+02    0.6952108670E-01    0.3813809447E-01    0.1890713821E-02    0.6473436871E-02    0.7435931664E-01
    0.2100000000E+02    0.7495298754E-01    0.4110239625E-01    0.2038901858E-02    0.7090251724E-02    0.8014891057E-01
    0.2300000000E+02    0.8012675763E-01    0.4392540766E-01    0.2180134723E-02    0.7696446368E-02    0.8566419070E-01
    0.2500000000E+02    0.8506065076E-01    0.4661762296E-01    0.2314904384E-02    0.8292392493E-02    0.9092549424E-01
    0.2700000000E+02    0.8977118022E-01    0.4918850586E-01    0.2443655820E-02    0.8878443747E-02    0.9595116312E-01
    0.2900000000E+02    0.9427332593E-01    0.5164661372E-01    0.2566792622E-02    0.9454936833E-02    0.1007577843E+00
    0.3100000000E+02    0.9858071229E-01    0.5399970410E-01    0.2684681803E-02    0.1002219254E-01    0.1053603959E+00
    0.3300000000E+02    0.1027057616E+00    0.5625482665E-01    0.2797657941E-02    0.1058051668E-01    0.1097726652E+00
    0.3500000000E+02    0.1066598266E+00    0.5841840253E-01    0.2906026767E-02    0.1113020099E-01    0.1140070421E+00
    0.3700000000E+02    0.1104533062E+00    0.6049629340E-01    0.3010068282E-02    0.1167152392E-01    0.1180748930E+00
    0.3900000000E+02    0.1140957457E+00    0.6249386142E-01    0.3110039471E-02    0.1220475142E-01    0.1219866166E+00
    0.4100000000E+02    0.1175959245E+00    0.6441602175E-01    0.3206176676E-02    0.1273013764E-01    0.1257517456E+00
    0.4300000000E+02    0.1209619336E+00    0.6626728850E-01    0.3298697679E-02    0.1324792560E-01    0.1293790360E+00
    0.4500000000E+02    0.1242012432E+00    0.6805181508E-01    0.3387803534E-02    0.1375834779E-01    0.1328765447E+00
    0.4700000000E+02    0.1273207628E+00    0.6977342985E-01    0.3473680177E-02    0.1426162676E-01    0.1362516989E+00
    0.4900000000E+02    0.1303268935E+00    0.7143566753E-01    0.3556499865E-02    0.1475797565E-01    0.1395113566E+00
    0.1000000000E+02    0.4128327647E-01    0.2270331145E-01    0.1121623249E-02    0.3555364945E-02    0.4423926519E-01
    0.3000000000E+02    0.9645056111E-01    0.5283582988E-01    0.2626371538E-02    0.9739699905E-02    0.1030837068E+00
    0.5000000000E+02    0.1317893113E+00    0.7224555117E-01    0.3596813752E-02    0.1500361547E-01    0.1410998753E+00
    0.7000000000E+02    0.1563226361E+00    0.8600223307E-01    0.4275904121E-02    0.1959798963E-01    0.1681192622E+00
    0.9000000000E+02    0.1742489578E+00    0.9638367000E-01    0.4776586853E-02    0.2368661421E-01    0.1885634978E+00
    0.1100000000E+03    0.1878183463E+00    0.1045720290E+00    0.5159379645E-02    0.2738149533E-01    0.2047296063E+00
    0.1300000000E+03    0.1983569643E+00    0.1112453575E+00    0.5459961476E-02    0.3076215362E-01    0.2179363105E+00
    0.1500000000E+03    0.2067016509E+00    0.1168222861E+00    0.5700861881E-02    0.3388682337E-01    0.2289985431E+00
    0.1700000000E+03    0.2134083239E+00    0.1215763390E+00    0.5897061929E-02    0.3679927596E-01    0.2384492403E+00
    0.1900000000E+03    0.2188614107E+00    0.1256944435E+00    0.6058933829E-02    0.3953315031E-01    0.2466529325E+00
    0.2100000000E+03    0.2233354698E+00    0.1293090984E+00    0.6193895819E-02    0.4211479798E-01    0.2538682316E+00
    0.2300000000E+03    0.2270318668E+00    0.1325171101E+00    0.6307397107E-02    0.4456520895E-01    0.2602842446E+00
    0.2500000000E+03    0.2301016101E+00    0.1353910340E+00    0.6403531208E-02    0.4690134922E-01    0.2660428238E+00
    0.2700000000E+03    0.2326601105E+00    0.1379864470E+00    0.6485432477E-02    0.4913711131E-01    0.2712527160E+00
    0.2900000000E+03    0.2347970258E+00    0.1403467283E+00    0.6555540710E-02    0.5128400338E-01    0.2759988696E+00
    0.3100000000E+03    0.2365830081E+00    0.1425062962E+00    0.6615782556E-02    0.5335165784E-01    0.2803487384E+00
    0.3300000000E+03    0.2380744350E+00    0.1444928555E+00    0.6667698838E-02    0.5534821285E-01    0.2843566614E+00
    0.3500000000E+03    0.2393167979E+00    0.1463289936E+00    0.6712535763E-02    0.5728060263E-01    0.2880669746E+00
    0.3700000000E+03    0.2403471713E+00    0.1480333367E+00    0.6751311456E-02    0.5915478132E-01    0.2915162668E+00
    0.3900000000E+03    0.2411960419E+00    0.1496214024E+00    0.6784865282E-02    0.6097589769E-01    0.2947350423E+00
    0.4100000000E+03    0.2418886831E+00    0.1511062378E+00    0.6813894938E-02    0.6274843294E-01    0.2977489685E+00
    0.4300000000E+03    0.2424462012E+00    0.1524989052E+00    0.6838984712E-02    0.6447631050E-01    0.3005798235E+00
    0.4500000000E+03    0.2428863415E+00    0.1538088555E+00    0.6860627275E-02    0.6616298442E-01    0.3032462262E+00
    0.4700000000E+03    0.2432241154E+00    0.1550442191E+00    0.6879240661E-02    0.6781151098E-01    0.3057642058E+00
    0.4900000000E+03    0.2434722938E+00    0.1562120355E+00    0.6895181625E-02    0.6942460732E-01    0.3081476495E+00
    0.1000000000E+03    0.1814804153E+00    0.1007015836E+00    0.4980087279E-02    0.2557770025E-01    0.1970833219E+00
    0.3000000000E+03    0.2357300705E+00    0.1414497338E+00    0.6586790799E-02    0.5232719544E-01    0.2782196775E+00
    0.5000000000E+03    0.2435662609E+00    0.1567725604E+00    0.6902247338E-02    0.7021863758E-01    0.3092927640E+00
    0.7000000000E+03    0.2427046239E+00    0.1655798630E+00    0.6958633768E-02    0.8471165653E-01    0.3273913438E+00
    0.9000000000E+03    0.2392851618E+00    0.1715321984E+00    0.6929888509E-02    0.9734842091E-01    0.3397559434E+00
    0.1100000000E+04    0.2350212651E+00    0.1759205076E+00    0.6866925187E-02    0.1087849054E+00    0.3489567705E+00
    0.1300000000E+04    0.2305171133E+00    0.1793372663E+00    0.6788930803E-02    0.1193642482E+00    0.3561799981E+00
    0.1500000000E+04    0.2260126401E+00    0.1820994549E+00    0.6704283157E-02    0.1292901462E+00    0.3620633667E+00
    0.1700000000E+04    0.2216076182E+00    0.1843947653E+00    0.6616999185E-02    0.1386943109E+00    0.3669861769E+00
    0.1900000000E+04    0.2173422363E+00    0.1863426793E+00    0.6529124232E-02    0.1476673186E+00    0.3711908705E+00
    0.2100000000E+04    0.2132297679E+00    0.1880235115E+00    0.6441737009E-02    0.1562744198E+00    0.3748410298E+00
    0.2300000000E+04    0.2092709807E+00    0.1894935900E+00    0.6355413388E-02    0.1645643582E+00    0.3780517884E+00
    0.2500000000E+04    0.2054608803E+00    0.1907937907E+00    0.6270456095E-02    0.1725746236E+00    0.3809069731E+00
    0.2700000000E+04    0.2017919925E+00    0.1919546182E+00    0.6187014872E-02    0.1803347496E+00    0.3834693392E+00
    0.2900000000E+04    0.1982559960E+00    0.1929993768E+00    0.6105152105E-02    0.1878684749E+00    0.3857869729E+00
    0.3100000000E+04    0.1948445342E+00    0.1939462275E+00    0.6024879905E-02    0.1951952095E+00    0.3878974555E+00
    0.3300000000E+04    0.1915496071E+00    0.1948095676E+00    0.5946181616E-02    0.2023310621E+00    0.3898306614E+00
    0.3500000000E+04    0.1883637450E+00    0.1956009814E+00    0.5869024525E-02    0.2092895767E+00    0.3916106918E+00
    0.3700000000E+04    0.1852800672E+00    0.1963299124E+00    0.5793367474E-02    0.2160822734E+00    0.3932572443E+00
    0.3900000000E+04    0.1822922828E+00    0.1970041483E+00    0.5719165444E-02    0.2227190533E+00    0.3947866026E+00
    0.4100000000E+04    0.1793946608E+00    0.1976301779E+00    0.5646372306E-02    0.2292085068E+00    0.3962123672E+00
    0.4300000000E+04    0.1765819882E+00    0.1982134578E+00    0.5574942445E-02    0.2355581513E+00    0.3975460015E+00
    0.4500000000E+04    0.1738495230E+00    0.1987586150E+00    0.5504831698E-02    0.2417746180E+00    0.3987972481E+00
    0.4700000000E+04    0.1711929480E+00    0.1992696029E+00    0.5435997853E-02    0.2478637991E+00    0.3999744497E+00
    0.4900000000E+04    0.1686083265E+00    0.1997498225E+00    0.5368400879E-02    0.2538309669E+00    0.4010847988E+00
    0.1000000000E+04    0.2372079943E+00    0.1738756127E+00    0.6901104139E-02    0.1031907641E+00    0.3446593788E+00
    0.3000000000E+04    0.1965352094E+00    0.1934840654E+00    0.6064817731E-02    0.1915566416E+00    0.3868660863E+00
    0.5000000000E+04    0.1673418621E+00    0.1999793301E+00    0.5335054325E-02    0.2567702975E+00    0.4016168864E+00
    0.7000000000E+04    0.1450616533E+00    0.2034977497E+00    0.4725012743E-02    0.3101004198E+00    0.4099053160E+00
    0.9000000000E+04    0.1272619153E+00    0.2057754705E+00    0.4207091649E-02    0.3547799919E+00    0.4154311344E+00
    0.1100000000E+05    0.1127075981E+00    0.2073978605E+00    0.3764288589E-02    0.3925470762E+00    0.4194666575E+00
    0.1300000000E+05    0.1006402526E+00    0.2086251219E+00    0.3384291754E-02    0.4246242972E+00    0.4225869971E+00
    0.1500000000E+05    0.9053525624E-01    0.2095928464E+00    0.3057227306E-02    0.4519728621E+00    0.4250963910E+00
    0.1700000000E+05    0.8200470198E-01    0.2103795112E+00    0.2774858716E-02    0.4753787855E+00    0.4271733677E+00
    0.1900000000E+05    0.7475116498E-01    0.2110340742E+00    0.2530246428E-02    0.4954919360E+00    0.4289307231E+00
    0.2100000000E+05    0.6854191515E-01    0.2115888529E+00    0.2317547223E-02    0.5128502990E+00    0.4304437844E+00
    0.2300000000E+05    0.6319258169E-01    0.2120661424E+00    0.2131856955E-02    0.5278986900E+00    0.4317650763E+00
    0.2500000000E+05    0.5855585518E-01    0.2124818801E+00    0.1969071726E-02    0.5410044814E+00    0.4329325132E+00
    0.2700000000E+05    0.5451324242E-01    0.2128477956E+00    0.1825763304E-02    0.5524710313E+00    0.4339742516E+00
    0.2900000000E+05    0.5096886214E-01    0.2131727358E+00    0.1699069148E-02    0.5625490560E+00    0.4349117036E+00
    0.3100000000E+05    0.4784469491E-01    0.2134635132E+00    0.1586597372E-02    0.5714461386E+00    0.4357614843E+00
    0.3300000000E+05    0.4507690919E-01    0.2137254683E+00    0.1486346106E-02    0.5793345873E+00    0.4365367119E+00
    0.3500000000E+05    0.4261300043E-01    0.2139628536E+00    0.1396635989E-02    0.5863578737E+00    0.4372479016E+00
    0.3700000000E+05    0.4040955176E-01    0.2141791016E+00    0.1316054198E-02    0.5926358767E+00    0.4379035944E+00
    0.3900000000E+05    0.3843047325E-01    0.2143770168E+00    0.1243408326E-02    0.5982691399E+00    0.4385108104E+00
    0.4100000000E+05    0.3664561138E-01    0.2145589153E+00    0.1177688521E-02    0.6033423217E+00    0.4390753799E+00
    0.4300000000E+05    0.3502964611E-01    0.2147267285E+00    0.1118036456E-02    0.6079269912E+00    0.4396021916E+00
    0.4500000000E+05    0.3356121221E-01    0.2148820813E+00    0.1063719907E-02    0.6120838965E+00    0.4400953795E+00
    0.4700000000E+05    0.3222219601E-01    0.2150263512E+00    0.1014111916E-02    0.6158648082E+00    0.4405584665E+00
    0.4900000000E+05    0.3099717004E-01    0.2151607148E+00    0.9686736772E-03    0.6193140212E+00    0.4409944764E+00
    0.1000000000E+05    0.1196337017E+00    0.2066481138E+00    0.3977142297E-02    0.3744434267E+00    0.4175901385E+00
    0.3000000000E+05    0.4935853693E-01    0.2133220318E+00    0.1641188869E-02    0.5671337008E+00    0.4353466630E+00
    0.5000000000E+05    0.3042320260E-01    0.2152245035E+00    0.9473704234E-03    0.6209263454E+00    0.4412031576E+00
    0.7000000000E+05    0.2255887940E-01    0.2161646886E+00    0.6557296561E-03    0.6426275593E+00    0.4444357529E+00
    0.9000000000E+05    0.1837227185E-01    0.2167295818E+00    0.5026976970E-03    0.6536376442E+00    0.4465786630E+00
    0.1100000000E+06    0.1578172118E-01    0.2171059165E+00    0.4103447712E-03    0.6600843524E+00    0.4481429487E+00
    0.1300000000E+06    0.1401363168E-01    0.2173732215E+00    0.3491201825E-03    0.6642394075E+00    0.4493551885E+00
    0.1500000000E+06    0.1272223627E-01    0.2175715157E+00    0.3057294467E-03    0.6671064414E+00    0.4503336980E+00
    0.1700000000E+06    0.1173156899E-01    0.2177232708E+00    0.2734154236E-03    0.6691876130E+00    0.4511472699E+00
    0.1900000000E+06    0.1094307920E-01    0.2178421317E+00    0.2484168873E-03    0.6707584902E+00    0.4518390791E+00
    0.2100000000E+06    0.1029737480E-01    0.2179368843E+00    0.2284880605E-03    0.6719814452E+00    0.4524378207E+00
    0.2300000000E+06    0.9756533591E-02    0.2180134512E+00    0.2122111835E-03    0.6729577025E+00    0.4529634363E+00
    0.2500000000E+06    0.9295186442E-02    0.2180759743E+00    0.1986497668E-03    0.6737533222E+00    0.4534302890E+00
    0.2700000000E+06    0.8895698785E-02    0.2181274389E+00    0.1871615864E-03    0.6744130798E+00    0.4538490320E+00
    0.2900000000E+06    0.8545413594E-02    0.2181700521E+00    0.1772921085E-03    0.6749683060E+00    0.4542277628E+00
    0.3100000000E+06    0.8234996761E-02    0.2182054806E+00    0.1687108719E-03    0.6754415267E+00    0.4545727657E+00
    0.3300000000E+06    0.7957403000E-02    0.2182350064E+00    0.1611719884E-03    0.6758493206E+00    0.4548890056E+00
    0.3500000000E+06    0.7707206705E-02    0.2182596317E+00    0.1544887702E-03    0.6762041404E+00    0.4551804661E+00
    0.3700000000E+06    0.7480155695E-02    0.2182801512E+00    0.1485169442E-03    0.6765155084E+00    0.4554503875E+00
    0.3900000000E+06    0.7272865642E-02    0.2182972022E+00    0.1431432545E-03    0.6767908225E+00    0.4557014372E+00
    0.4100000000E+06    0.7082605902E-02    0.2183113024E+00    0.1382775452E-03    0.6770359116E+00    0.4559358344E+00
    0.4300000000E+06    0.6907146268E-02    0.2183228757E+00    0.1338471458E-03    0.6772554269E+00    0.4561554437E+00
    0.4500000000E+06    0.6744645271E-02    0.2183322728E+00    0.1297928165E-03    0.6774531223E+00    0.4563618448E+00
    0.4700000000E+06    0.6593567392E-02    0.2183397860E+00    0.1260657716E-03    0.6776320593E+00    0.4565563867E+00
    0.4900000000E+06    0.6452620784E-02    0.2183456606E+00    0.1226254600E-03    0.6777947578E+00    0.4567402300E+00
    0.1000000000E+06    0.1694105147E-01    0.2169349989E+00    0.4513579019E-03    0.6572443389E+00    0.4474153142E+00
    0.3000000000E+06    0.8385706415E-02    0.2181885767E+00    0.1728574607E-03    0.6752140167E+00    0.4544041436E+00
    0.5000000000E+06    0.6385597708E-02    0.2183480496E+00    0.1210019878E-03    0.6778706857E+00    0.4568284588E+00
    0.7000000000E+06    0.5381148469E-02    0.2183464777E+00    0.9762895394E-04    0.6788973776E+00    0.4582169384E+00
    0.9000000000E+06    0.4747592985E-02    0.2182991136E+00    0.8378948077E-04    0.6794388356E+00    0.4591634137E+00
    0.1100000000E+07    0.4300288215E-02    0.2182363506E+00    0.7442004783E-04    0.6797731427E+00    0.4598700902E+00
    0.1300000000E+07    0.3962320054E-02    0.2181688297E+00    0.6755150770E-04    0.6800002704E+00    0.4604282611E+00
    0.1500000000E+07    0.3695089212E-02    0.2181008390E+00    0.6224407388E-04    0.6801648227E+00    0.4608863295E+00
    0.1700000000E+07    0.3476778988E-02    0.2180342186E+00    0.5798664318E-04    0.6802896693E+00    0.4612728102E+00
    0.1900000000E+07    0.3293990449E-02    0.2179697534E+00    0.5447477272E-04    0.6803877377E+00    0.4616058077E+00
    0.2100000000E+07    0.3137972354E-02    0.2179077394E+00    0.5151452211E-04    0.6804668851E+00    0.4618974807E+00
    0.2300000000E+07    0.3002730949E-02    0.2178482377E+00    0.4897579579E-04    0.6805321626E+00    0.4621563592E+00
    0.2500000000E+07    0.2884002816E-02    0.2177911950E+00    0.4676767481E-04    0.6805869652E+00    0.4623886412E+00
    0.2700000000E+07    0.2778660260E-02    0.2177365039E+00    0.4482446652E-04    0.6806336603E+00    0.4625989609E+00
    0.2900000000E+07    0.2684349072E-02    0.2176840345E+00    0.4309737567E-04    0.6806739489E+00    0.4627908678E+00
    0.3100000000E+07    0.2599258350E-02    0.2176336501E+00    0.4154930429E-04    0.6807090854E+00    0.4629671361E+00
    0.3300000000E+07    0.2521968954E-02    0.2175852159E+00    0.4015148102E-04    0.6807400152E+00    0.4631299725E+00
    0.3500000000E+07    0.2451350684E-02    0.2175386033E+00    0.3888120530E-04    0.6807674645E+00    0.4632811586E+00
    0.3700000000E+07    0.2386490665E-02    0.2174936918E+00    0.3772029563E-04    0.6807920005E+00    0.4634221527E+00
    0.3900000000E+07    0.2326642316E-02    0.2174503695E+00    0.3665399624E-04    0.6808140728E+00    0.4635541619E+00
    0.4100000000E+07    0.2271188268E-02    0.2174085332E+00    0.3567019044E-04    0.6808340425E+00    0.4636781964E+00
    0.4300000000E+07    0.2219612910E-02    0.2173680881E+00    0.3475882379E-04    0.6808522027E+00    0.4637951091E+00
    0.4500000000E+07    0.2171481762E-02    0.2173289473E+00    0.3391147423E-04    0.6808687943E+00    0.4639056265E+00
    0.4700000000E+07    0.2126425740E-02    0.2172910309E+00    0.3312102677E-04    0.6808840168E+00    0.4640103721E+00
    0.4900000000E+07    0.2084129002E-02    0.2172542658E+00    0.3238142401E-04    0.6808980370E+00    0.4641098845E+00
    0.1000000000E+07    0.4506784497E-02    0.2182687645E+00    0.7870518070E-04    0.6796236525E+00    0.4595395791E+00
    0.3000000000E+07    0.2640747640E-02    0.2176585902E+00    0.4230292526E-04    0.6806920960E+00    0.4628808075E+00
    0.5000000000E+07    0.2063928841E-02    0.2172362937E+00    0.3202903708E-04    0.6809046410E+00    0.4641578272E+00
    0.7000000000E+07    0.1754945451E-02    0.2169236145E+00    0.2670676102E-04    0.6809984108E+00    0.4649292006E+00
    0.9000000000E+07    0.1554771827E-02    0.2166751952E+00    0.2332833585E-04    0.6810521075E+00    0.4654750242E+00
    0.1100000000E+08    0.1411456637E-02    0.2164688335E+00    0.2094464847E-04    0.6810872721E+00    0.4658944342E+00
    0.1300000000E+08    0.1302270208E-02    0.2162921567E+00    0.1914916960E-04    0.6811122761E+00    0.4662335030E+00
    0.1500000000E+08    0.1215472922E-02    0.2161375743E+00    0.1773510340E-04    0.6811310745E+00    0.4665172368E+00
    0.1700000000E+08    0.1144304789E-02    0.2160000922E+00    0.1658477110E-04    0.6811457880E+00    0.4667606611E+00
    0.1900000000E+08    0.1084560351E-02    0.2158762475E+00    0.1562566672E-04    0.6811576603E+00    0.4669734807E+00
    0.2100000000E+08    0.1033467182E-02    0.2157635388E+00    0.1481037878E-04    0.6811674709E+00    0.4671623127E+00
    0.2300000000E+08    0.9891131100E-03    0.2156600995E+00    0.1410643647E-04    0.6811757345E+00    0.4673318625E+00
    0.2500000000E+08    0.9501306247E-03    0.2155644989E+00    0.1349076137E-04    0.6811828053E+00    0.4674855913E+00
    0.2700000000E+08    0.9155122184E-03    0.2154756159E+00    0.1294644437E-04    0.6811889354E+00    0.4676261162E+00
