  Pressure (Pa) 2mC6-400 (mol/kg) 3mC6-400 (mol/kg) 33mC5-400 (mol/kg) 23mC5-400 (mol/kg) C7-400 (mol/kg)
    0.1000000000E+01    0.4765739783E-02    0.1580464417E-02    0.5173853451E-03    0.1860872366E-03    0.1709749388E-02
    0.3000000000E+01    0.1396948979E-01    0.4637940453E-02    0.1516699819E-02    0.5523185826E-03    0.5017803683E-02
    0.5000000000E+01    0.2276069253E-01    0.7565413315E-02    0.2471382743E-02    0.9109003314E-03    0.8185801222E-02
    0.7000000000E+01    0.3116638032E-01    0.1037164183E-01    0.3384359484E-02    0.1262145436E-02    0.1122316598E-01
    0.9000000000E+01    0.3921123962E-01    0.1306460222E-01    0.4258301391E-02    0.1606349179E-02    0.1413848048E-01
    0.1100000000E+02    0.4691786337E-01    0.1565157410E-01    0.5095653128E-02    0.1943790424E-02    0.1693957820E-01
    0.1300000000E+02    0.5430697105E-01    0.1813921538E-01    0.5898656524E-02    0.2274732768E-02    0.1963362408E-01
    0.1500000000E+02    0.6139760135E-01    0.2053362760E-01    0.6669371442E-02    0.2599425584E-02    0.2222718476E-01
    0.1700000000E+02    0.6820728135E-01    0.2284041326E-01    0.7409694106E-02    0.2918104997E-02    0.2472629022E-01
    0.1900000000E+02    0.7475217539E-01    0.2506472618E-01    0.8121373227E-02    0.3230994759E-02    0.2713648782E-01
    0.2100000000E+02    0.8104721662E-01    0.2721131575E-01    0.8806024248E-02    0.3538307075E-02    0.2946289001E-01
    0.2300000000E+02    0.8710622338E-01    0.2928456621E-01    0.9465141956E-02    0.3840243347E-02    0.3171021644E-01
    0.2500000000E+02    0.9294200255E-01    0.3128853126E-01    0.1010011167E-01    0.4136994869E-02    0.3388283122E-01
    0.2700000000E+02    0.9856644149E-01    0.3322696491E-01    0.1071221918E-01    0.4428743469E-02    0.3598477608E-01
    0.2900000000E+02    0.1039905900E+00    0.3510334885E-01    0.1130265967E-01    0.4715662096E-02    0.3801979979E-01
    0.3100000000E+02    0.1092247338E+00    0.3692091691E-01    0.1187254561E-01    0.4997915369E-02    0.3999138448E-01
    0.3300000000E+02    0.1142784598E+00    0.3868267689E-01    0.1242291388E-01    0.5275660083E-02    0.4190276908E-01
    0.3500000000E+02    0.1191607154E+00    0.4039143017E-01    0.1295473216E-01    0.5549045681E-02    0.4375697043E-01
    0.3700000000E+02    0.1238798616E+00    0.4204978921E-01    0.1346890465E-01    0.5818214685E-02    0.4555680210E-01
    0.3900000000E+02    0.1284437202E+00    0.4366019339E-01    0.1396627727E-01    0.6083303104E-02    0.4730489142E-01
    0.4100000000E+02    0.1328596176E+00    0.4522492323E-01    0.1444764231E-01    0.6344440811E-02    0.4900369475E-01
    0.4300000000E+02    0.1371344234E+00    0.4674611321E-01    0.1491374267E-01    0.6601751891E-02    0.5065551132E-01
    0.4500000000E+02    0.1412745862E+00    0.4822576340E-01    0.1536527566E-01    0.6855354968E-02    0.5226249569E-01
    0.4700000000E+02    0.1452861652E+00    0.4966574997E-01    0.1580289651E-01    0.7105363511E-02    0.5382666907E-01
    0.4900000000E+02    0.1491748596E+00    0.5106783475E-01    0.1622722150E-01    0.7351886114E-02    0.5534992960E-01
    0.1000000000E+02    0.4310549445E-01    0.1437090684E-01    0.4681406420E-02    0.1775898294E-02    0.1555284383E-01
    0.3000000000E+02    0.1066307977E+00    0.3601929182E-01    0.1159010546E-01    0.4857361924E-02    0.3901331414E-01
    0.5000000000E+02    0.1510748143E+00    0.5175518540E-01    0.1643458071E-01    0.7473872858E-02    0.5609677937E-01
    0.7000000000E+02    0.1837724241E+00    0.6386616097E-01    0.2000807571E-01    0.9753682264E-02    0.6926710416E-01
    0.9000000000E+02    0.2087170832E+00    0.7357747873E-01    0.2274239077E-01    0.1177994316E-01    0.7984478587E-01
    0.1100000000E+03    0.2282762779E+00    0.8160778651E-01    0.2489350092E-01    0.1360922707E-01    0.8860478667E-01
    0.1300000000E+03    0.2439450197E+00    0.8840820409E-01    0.2662305483E-01    0.1528154310E-01    0.9603385215E-01
    0.1500000000E+03    0.2567146059E+00    0.9427726512E-01    0.2803824929E-01    0.1682610469E-01    0.1024542682E+00
    0.1700000000E+03    0.2672684523E+00    0.9942105518E-01    0.2921300054E-01    0.1826482076E-01    0.1080886359E+00
    0.1900000000E+03    0.2760929740E+00    0.1039868511E+00    0.3019992994E-01    0.1961449977E-01    0.1130961172E+00
    0.2100000000E+03    0.2835436993E+00    0.1080829862E+00    0.3103750997E-01    0.2088829179E-01    0.1175938476E+00
    0.2300000000E+03    0.2898864115E+00    0.1117911216E+00    0.3175451080E-01    0.2209666110E-01    0.1216701667E+00
    0.2500000000E+03    0.2953236864E+00    0.1151741181E+00    0.3237286850E-01    0.2324805984E-01    0.1253931097E+00
    0.2700000000E+03    0.3000125420E+00    0.1182812531E+00    0.3290959266E-01    0.2434940551E-01    0.1288160359E+00
    0.2900000000E+03    0.3040764928E+00    0.1211517765E+00    0.3337806928E-01    0.2540642646E-01    0.1319814662E+00
    0.3100000000E+03    0.3076139745E+00    0.1238173938E+00    0.3378897141E-01    0.2642391642E-01    0.1349237641E+00
    0.3300000000E+03    0.3107043532E+00    0.1263040381E+00    0.3415090880E-01    0.2740592522E-01    0.1376710497E+00
    0.3500000000E+03    0.3134122904E+00    0.1286331598E+00    0.3447089976E-01    0.2835590364E-01    0.1402465926E+00
    0.3700000000E+03    0.3157909652E+00    0.1308226807E+00    0.3475471959E-01    0.2927681504E-01    0.1426698433E+00
    0.3900000000E+03    0.3178844873E+00    0.1328877112E+00    0.3500716156E-01    0.3017122242E-01    0.1449572078E+00
    0.4100000000E+03    0.3197297293E+00    0.1348410972E+00    0.3523223502E-01    0.3104135696E-01    0.1471226397E+00
    0.4300000000E+03    0.3213577336E+00    0.1366938419E+00    0.3543331764E-01    0.3188917275E-01    0.1491780958E+00
    0.4500000000E+03    0.3227948050E+00    0.1384554357E+00    0.3561327358E-01    0.3271639061E-01    0.1511338930E+00
    0.4700000000E+03    0.3240633680E+00    0.1401341158E+00    0.3577454633E-01    0.3352453379E-01    0.1529989900E+00
    0.4900000000E+03    0.3251826458E+00    0.1417370740E+00    0.3591923209E-01    0.3431495703E-01    0.1547812113E+00
    0.1000000000E+03    0.2190614623E+00    0.7777001182E-01    0.2387912584E-01    0.1271640054E-01    0.8441666938E-01
    0.3000000000E+03    0.3059056927E+00    0.1225084594E+00    0.3359013693E-01    0.2591984415E-01    0.1334786212E+00
    0.5000000000E+03    0.3256915701E+00    0.1425121607E+00    0.3598592965E-01    0.3470390694E-01    0.1556434239E+00
    0.7000000000E+03    0.3310510085E+00    0.1552317711E+00    0.3677902353E-01    0.4178852050E-01    0.1698364361E+00
    0.9000000000E+03    0.3314834615E+00    0.1645089884E+00    0.3700905521E-01    0.4794439641E-01    0.1802438854E+00
    0.1100000000E+04    0.3298721832E+00    0.1717861098E+00    0.3699533926E-01    0.5350126117E-01    0.1884432438E+00
    0.1300000000E+04    0.3273351097E+00    0.1777568964E+00    0.3686368585E-01    0.5863266827E-01    0.1951956558E+00
    0.1500000000E+04    0.3243723861E+00    0.1828077257E+00    0.3667158925E-01    0.6344229368E-01    0.2009261721E+00
    0.1700000000E+04    0.3212289630E+00    0.1871757813E+00    0.3644801072E-01    0.6799759631E-01    0.2058963394E+00
    0.1900000000E+04    0.3180318889E+00    0.1910171288E+00    0.3620854709E-01    0.7234525532E-01    0.2102786226E+00
    0.2100000000E+04    0.3148492209E+00    0.1944399410E+00    0.3596199423E-01    0.7651910332E-01    0.2141927940E+00
    0.2300000000E+04    0.3117177304E+00    0.1975222878E+00    0.3571346483E-01    0.8054456366E-01    0.2177254492E+00
    0.2500000000E+04    0.3086568754E+00    0.2003223633E+00    0.3546597949E-01    0.8444130073E-01    0.2209412434E+00
    0.2700000000E+04    0.3056762400E+00    0.2028847069E+00    0.3522132592E-01    0.8822488812E-01    0.2238897369E+00
    0.2900000000E+04    0.3027796696E+00    0.2052441648E+00    0.3498054451E-01    0.9190790442E-01    0.2266097598E+00
    0.3100000000E+04    0.2999676485E+00    0.2074285119E+00    0.3474421314E-01    0.9550067926E-01    0.2291323038E+00
    0.3300000000E+04    0.2972387036E+00    0.2094602419E+00    0.3451261937E-01    0.9901181666E-01    0.2314824996E+00
    0.3500000000E+04    0.2945902489E+00    0.2113578244E+00    0.3428586715E-01    0.1024485718E+00    0.2336810073E+00
    0.3700000000E+04    0.2920191025E+00    0.2131366095E+00    0.3406394438E-01    0.1058171283E+00    0.2357450167E+00
    0.3900000000E+04    0.2895218031E+00    0.2148094910E+00    0.3384676624E-01    0.1091228065E+00    0.2376889829E+00
    0.4100000000E+04    0.2870948060E+00    0.2163874025E+00    0.3363420353E-01    0.1123702223E+00    0.2395251762E+00
    0.4300000000E+04    0.2847346014E+00    0.2178796940E+00    0.3342610113E-01    0.1155634104E+00    0.2412641005E+00
    0.4500000000E+04    0.2824377855E+00    0.2192944231E+00    0.3322229030E-01    0.1187059214E+00    0.2429148159E+00
    0.4700000000E+04    0.2802011009E+00    0.2206385811E+00    0.3302259667E-01    0.1218008986E+00    0.2444851914E+00
    0.4900000000E+04    0.2780214570E+00    0.2219182725E+00    0.3282684557E-01    0.1248511400E+00    0.2459821037E+00
    0.1000000000E+04    0.3308418355E+00    0.1683440527E+00    0.3702242402E-01    0.5078461239E-01    0.1845609180E+00
    0.3000000000E+04    0.3013631485E+00    0.2063567144E+00    0.3486179928E-01    0.9371499882E-01    0.2278940272E+00
    0.5000000000E+04    0.2769521074E+00    0.2225356442E+00    0.3273039467E-01    0.1263602775E+00    0.2467049289E+00
    0.7000000000E+04    0.2579441446E+00    0.2325135582E+00    0.3097023249E-01    0.1546847049E+00    0.2584507933E+00
    0.9000000000E+04    0.2422854675E+00    0.2395657512E+00    0.2945313869E-01    0.1803005472E+00    0.2668332526E+00
    0.1100000000E+05    0.2288834213E+00    0.2449328115E+00    0.2810393646E-01    0.2039184983E+00    0.2732647967E+00
    0.1300000000E+05    0.2171183984E+00    0.2492141913E+00    0.2687938379E-01    0.2259240391E+00    0.2784318901E+00
    0.1500000000E+05    0.2066090666E+00    0.2527432568E+00    0.2575297080E-01    0.2465543871E+00    0.2827181518E+00
    0.1700000000E+05    0.1971044240E+00    0.2557234799E+00    0.2470740879E-01    0.2659694916E+00    0.2863587313E+00
    0.1900000000E+05    0.1884300404E+00    0.2582876116E+00    0.2373079579E-01    0.2842853794E+00    0.2895076427E+00
    0.2100000000E+05    0.1804591560E+00    0.2605267309E+00    0.2281453800E-01    0.3015915183E+00    0.2922709316E+00
    0.2300000000E+05    0.1730961260E+00    0.2625058378E+00    0.2195215969E-01    0.3179605254E+00    0.2947245320E+00
    0.2500000000E+05    0.1662664343E+00    0.2642728176E+00    0.2113859002E-01    0.3334538751E+00    0.2969245607E+00
    0.2700000000E+05    0.1599104085E+00    0.2658638822E+00    0.2036971962E-01    0.3481253751E+00    0.2989135819E+00
    0.2900000000E+05    0.1539791206E+00    0.2673070237E+00    0.1964211646E-01    0.3620233394E+00    0.3007245929E+00
    0.3100000000E+05    0.1484316331E+00    0.2686242885E+00    0.1895283923E-01    0.3751919701E+00    0.3023836536E+00
    0.3300000000E+05    0.1432330984E+00    0.2698333219E+00    0.1829931227E-01    0.3876722484E+00    0.3039116778E+00
    0.3500000000E+05    0.1383534172E+00    0.2709484467E+00    0.1767924016E-01    0.3995025158E+00    0.3053256847E+00
    0.3700000000E+05    0.1337662706E+00    0.2719814329E+00    0.1709054854E-01    0.4107188575E+00    0.3066396952E+00
    0.3900000000E+05    0.1294484084E+00    0.2729420590E+00    0.1653134237E-01    0.4213553594E+00    0.3078653866E+00
    0.4100000000E+05    0.1253791150E+00    0.2738385293E+00    0.1599987608E-01    0.4314442849E+00    0.3090125785E+00
    0.4300000000E+05    0.1215398025E+00    0.2746777874E+00    0.1549453179E-01    0.4410162011E+00    0.3100896010E+00
    0.4500000000E+05    0.1179136938E+00    0.2754657567E+00    0.1501380310E-01    0.4501000732E+00    0.3111035761E+00
    0.4700000000E+05    0.1144855729E+00    0.2762075272E+00    0.1455628281E-01    0.4587233410E+00    0.3120606367E+00
    0.4900000000E+05    0.1112415839E+00    0.2769075014E+00    0.1412065325E-01    0.4669119832E+00    0.3129660981E+00
    0.1000000000E+05    0.2353485336E+00    0.2424136983E+00    0.2876077297E-01    0.1923304247E+00    0.2702400327E+00
    0.3000000000E+05    0.1511597046E+00    0.2679801992E+00    0.1929285550E-01    0.3686961926E+00    0.3015717061E+00
    0.5000000000E+05    0.1096846399E+00    0.2772430315E+00    0.1391065828E-01    0.4708510533E+00    0.3134009508E+00
    0.7000000000E+05    0.8564806989E-01    0.2824726367E+00    0.1059763912E-01    0.5320862696E+00    0.3202551239E+00
    0.9000000000E+05    0.7054659508E-01    0.2859531519E+00    0.8457514246E-02    0.5703755630E+00    0.3249116315E+00
    0.1100000000E+06    0.6041421244E-01    0.2884849714E+00    0.7005960336E-02    0.5954958787E+00    0.3283598687E+00
    0.1300000000E+06    0.5323341764E-01    0.2904332024E+00    0.5976419691E-02    0.6127375395E+00    0.3310564333E+00
    0.1500000000E+06    0.4791004838E-01    0.2919918702E+00    0.5217353467E-02    0.6250479883E+00    0.3332461855E+00
    0.1700000000E+06    0.4381531032E-01    0.2932750627E+00    0.4639003184E-02    0.6341384941E+00    0.3350742235E+00
    0.1900000000E+06    0.4056861294E-01    0.2943549053E+00    0.4185943861E-02    0.6410456814E+00    0.3366329209E+00
    0.2100000000E+06    0.3792885683E-01    0.2952795563E+00    0.3822597279E-02    0.6464228818E+00    0.3379843588E+00
    0.2300000000E+06    0.3573712446E-01    0.2960825757E+00    0.3525313533E-02    0.6506968041E+00    0.3391720686E+00
    0.2500000000E+06    0.3388498899E-01    0.2967881696E+00    0.3277876766E-02    0.6541551004E+00    0.3402276355E+00
    0.2700000000E+06    0.3229621391E-01    0.2974142991E+00    0.3068859394E-02    0.6569971773E+00    0.3411746307E+00
    0.2900000000E+06    0.3091576728E-01    0.2979746115E+00    0.2890010608E-02    0.6593647251E+00    0.3420310640E+00
    0.3100000000E+06    0.2970299456E-01    0.2984796881E+00    0.2735243839E-02    0.6613606520E+00    0.3428109744E+00
    0.3300000000E+06    0.2862724266E-01    0.2989378765E+00    0.2599982349E-02    0.6630611695E+00    0.3435254957E+00
    0.3500000000E+06    0.2766497655E-01    0.2993558630E+00    0.2480725379E-02    0.6645237095E+00    0.3441835912E+00
    0.3700000000E+06    0.2679783160E-01    0.2997390745E+00    0.2374753796E-02    0.6657922337E+00    0.3447925725E+00
    0.3900000000E+06    0.2601126843E-01    0.3000919681E+00    0.2279926179E-02    0.6669008703E+00    0.3453584736E+00
    0.4100000000E+06    0.2529362490E-01    0.3004182431E+00    0.2194534844E-02    0.6678764540E+00    0.3458863262E+00
    0.4300000000E+06    0.2463543570E-01    0.3007209985E+00    0.2117202432E-02    0.6687403303E+00    0.3463803655E+00
    0.4500000000E+06    0.2402893587E-01    0.3010028532E+00    0.2046806442E-02    0.6695096593E+00    0.3468441863E+00
    0.4700000000E+06    0.2346769289E-01    0.3012660371E+00    0.1982423361E-02    0.6701983707E+00    0.3472808632E+00
    0.4900000000E+06    0.2294633042E-01    0.3015124623E+00    0.1923286745E-02    0.6708178726E+00    0.3476930444E+00
    0.1000000000E+06    0.6501500502E-01    0.2873090994E+00    0.7665907503E-02    0.5841777504E+00    0.3267511785E+00
    0.3000000000E+06    0.3029053249E-01    0.2982334879E+00    0.2809932485E-02    0.6604038607E+00    0.3424298305E+00
    0.5000000000E+06    0.2269916026E-01    0.3016299151E+00    0.1895481305E-02    0.6711046796E+00    0.3478906784E+00
    0.7000000000E+06    0.1904863759E-01    0.3034021798E+00    0.1502980850E-02    0.6748136701E+00    0.3509820516E+00
    0.9000000000E+06    0.1679036941E-01    0.3045164473E+00    0.1278014981E-02    0.6766119934E+00    0.3530626616E+00
    0.1100000000E+07    0.1521125555E-01    0.3052903039E+00    0.1128949661E-02    0.6776519413E+00    0.3545973747E+00
    0.1300000000E+07    0.1402418831E-01    0.3058623626E+00    0.1021275861E-02    0.6783223240E+00    0.3557959786E+00
    0.1500000000E+07    0.1308816288E-01    0.3063038062E+00    0.9389480668E-03    0.6787874483E+00    0.3567694262E+00
    0.1700000000E+07    0.1232461409E-01    0.3066553253E+00    0.8734195613E-03    0.6791277247E+00    0.3575828586E+00
    0.1900000000E+07    0.1168576158E-01    0.3069420288E+00    0.8196836655E-03    0.6793868111E+00    0.3582774764E+00
    0.2100000000E+07    0.1114061373E-01    0.3071803280E+00    0.7745938373E-03    0.6795903215E+00    0.3588808365E+00
    0.2300000000E+07    0.1066804974E-01    0.3073814425E+00    0.7360626971E-03    0.6797542150E+00    0.3594121924E+00
    0.2500000000E+07    0.1025310073E-01    0.3075533240E+00    0.7026448503E-03    0.6798889250E+00    0.3598854754E+00
    0.2700000000E+07    0.9884814835E-02    0.3077017785E+00    0.6733039932E-03    0.6800015454E+00    0.3603110599E+00
    0.2900000000E+07    0.9554965058E-02    0.3078311513E+00    0.6472754080E-03    0.6800970599E+00    0.3606968597E+00
    0.3100000000E+07    0.9257232427E-02    0.3079447642E+00    0.6239809414E-03    0.6801790681E+00    0.3610490357E+00
    0.3300000000E+07    0.8986670447E-02    0.3080452031E+00    0.6029743599E-03    0.6802502321E+00    0.3613724694E+00
    0.3500000000E+07    0.8739342920E-02    0.3081345128E+00    0.5839050516E-03    0.6803125616E+00    0.3616710878E+00
    0.3700000000E+07    0.8512072377E-02    0.3082143329E+00    0.5664932208E-03    0.6803676011E+00    0.3619480926E+00
    0.3900000000E+07    0.8302261245E-02    0.3082859945E+00    0.5505125133E-03    0.6804165568E+00    0.3622061253E+00
    0.4100000000E+07    0.8107762073E-02    0.3083505899E+00    0.5357775787E-03    0.6804603838E+00    0.3624473880E+00
    0.4300000000E+07    0.7926781664E-02    0.3084090241E+00    0.5221349949E-03    0.6804998479E+00    0.3626737343E+00
    0.4500000000E+07    0.7757809084E-02    0.3084620542E+00    0.5094565318E-03    0.6805355703E+00    0.3628867375E+00
    0.4700000000E+07    0.7599560819E-02    0.3085103180E+00    0.4976340729E-03    0.6805680600E+00    0.3630877434E+00
    0.4900000000E+07    0.7450938447E-02    0.3085543571E+00    0.4865757346E-03    0.6805977379E+00    0.3632779113E+00
    0.1000000000E+07    0.1593893864E-01    0.3049349761E+00    0.1196804953E-02    0.6771942893E+00    0.3538818213E+00
    0.3000000000E+07    0.9402420519E-02    0.3078897515E+00    0.6353168970E-03    0.6801395678E+00    0.3608768199E+00
    0.5000000000E+07    0.7379936037E-02    0.3085749398E+00    0.4813080823E-03    0.6806116344E+00    0.3633692505E+00
    0.7000000000E+07    0.6291835336E-02    0.3088483271E+00    0.4018099234E-03    0.6808029051E+00    0.3648131889E+00
    0.9000000000E+07    0.5584611662E-02    0.3089745581E+00    0.3513678963E-03    0.6809068974E+00    0.3658046756E+00
    0.1100000000E+08    0.5077012944E-02    0.3090329470E+00    0.3157647425E-03    0.6809725261E+00    0.3665489069E+00
    0.1300000000E+08    0.4689532460E-02    0.3090554566E+00    0.2889310819E-03    0.6810178730E+00    0.3671391920E+00
    0.1500000000E+08    0.4381012214E-02    0.3090573213E+00    0.2677838665E-03    0.6810511776E+00    0.3676252669E+00
    0.1700000000E+08    0.4127705839E-02    0.3090466405E+00    0.2505696626E-03    0.6810767356E+00    0.3680365559E+00
    0.1900000000E+08    0.3914815476E-02    0.3090280638E+00    0.2362082794E-03    0.6810970088E+00    0.3683918066E+00
    0.2100000000E+08    0.3732571323E-02    0.3090044156E+00    0.2239933290E-03    0.6811135109E+00    0.3687036470E+00
    0.2300000000E+08    0.3574226297E-02    0.3089774874E+00    0.2134409285E-03    0.6811272246E+00    0.3689809597E+00
    0.2500000000E+08    0.3434949575E-02    0.3089484538E+00    0.2042070684E-03    0.6811388165E+00    0.3692302134E+00
    0.2700000000E+08    0.3311178389E-02    0.3089181050E+00    0.1960396218E-03    0.6811487547E+00    0.3694562548E+00
