  Pressure (Pa) 2mC6-400 (mol/kg) 3mC6-400 (mol/kg) 33mC5-400 (mol/kg) 23mC5-400 (mol/kg) C7-400 (mol/kg)
    0.1000000000E+01    0.5529615307E-02    0.2093682565E-02    0.3216161609E-03    0.9300239658E-04    0.5096294295E-02
    0.3000000000E+01    0.1604038296E-01    0.6068494708E-02    0.9331372224E-03    0.2757991674E-03    0.1477377308E-01
    0.5000000000E+01    0.2588073336E-01    0.9784360299E-02    0.1505900118E-02    0.4544786441E-03    0.2382363025E-01
    0.7000000000E+01    0.3511521075E-01    0.1326715906E-01    0.2043640500E-02    0.6292224961E-03    0.3230850526E-01
    0.9000000000E+01    0.4380007735E-01    0.1653939106E-01    0.2549613947E-02    0.8002013237E-03    0.4028286326E-01
    0.1100000000E+02    0.5198462152E-01    0.1962071314E-01    0.3026671884E-02    0.9675755061E-03    0.4779429195E-01
    0.1300000000E+02    0.5971222374E-01    0.2252837620E-01    0.3477323437E-02    0.1131495970E-02    0.5488455877E-01
    0.1500000000E+02    0.6702123134E-01    0.2527758396E-01    0.3903786182E-02    0.1292104891E-02    0.6159047851E-01
    0.1700000000E+02    0.7394568103E-01    0.2788178939E-01    0.4308028044E-02    0.1449536330E-02    0.6794462994E-01
    0.1900000000E+02    0.8051589922E-01    0.3035294087E-01    0.4691802120E-02    0.1603916817E-02    0.7397595124E-01
    0.2100000000E+02    0.8675900391E-01    0.3270168797E-01    0.5056675769E-02    0.1755365886E-02    0.7971023756E-01
    0.2300000000E+02    0.9269932632E-01    0.3493755417E-01    0.5404055056E-02    0.1903996559E-02    0.8517055886E-01
    0.2500000000E+02    0.9835876710E-01    0.3706908280E-01    0.5735205398E-02    0.2049915792E-02    0.9037761282E-01
    0.2700000000E+02    0.1037570987E+00    0.3910396069E-01    0.6051269079E-02    0.2193224891E-02    0.9535002397E-01
    0.2900000000E+02    0.1089122229E+00    0.4104912356E-01    0.6353280183E-02    0.2334019884E-02    0.1001045987E+00
    0.3100000000E+02    0.1138403921E+00    0.4291084619E-01    0.6642177383E-02    0.2472391868E-02    0.1046565434E+00
    0.3300000000E+02    0.1185563984E+00    0.4469481986E-01    0.6918814930E-02    0.2608427332E-02    0.1090196515E+00
    0.3500000000E+02    0.1230737380E+00    0.4640621911E-01    0.7183972142E-02    0.2742208448E-02    0.1132064657E+00
    0.3700000000E+02    0.1274047530E+00    0.4804975951E-01    0.7438361627E-02    0.2873813344E-02    0.1172284170E+00
    0.3900000000E+02    0.1315607550E+00    0.4962974784E-01    0.7682636426E-02    0.3003316358E-02    0.1210959467E+00
    0.4100000000E+02    0.1355521327E+00    0.5115012578E-01    0.7917396249E-02    0.3130788268E-02    0.1248186117E+00
    0.4300000000E+02    0.1393884460E+00    0.5261450815E-01    0.8143192930E-02    0.3256296509E-02    0.1284051774E+00
    0.4500000000E+02    0.1430785094E+00    0.5402621635E-01    0.8360535221E-02    0.3379905372E-02    0.1318636983E+00
    0.4700000000E+02    0.1466304644E+00    0.5538830782E-01    0.8569893008E-02    0.3501676189E-02    0.1352015898E+00
    0.4900000000E+02    0.1500518440E+00    0.5670360195E-01    0.8771701036E-02    0.3621667508E-02    0.1384256903E+00
    0.1000000000E+02    0.4795205107E-01    0.1810278581E-01    0.2791593154E-02    0.8843293496E-03    0.4409370788E-01
    0.3000000000E+02    0.1114037202E+00    0.4199004635E-01    0.6499312770E-02    0.2403503242E-02    0.1024050066E+00
    0.5000000000E+02    0.1517157699E+00    0.5734452170E-01    0.8869900958E-02    0.3681013430E-02    0.1399970622E+00
    0.7000000000E+02    0.1795902572E+00    0.6824367257E-01    0.1052127533E-01    0.4786858049E-02    0.1667548721E+00
    0.9000000000E+02    0.1999378140E+00    0.7649522922E-01    0.1173679417E-01    0.5765270229E-02    0.1870653279E+00
    0.1100000000E+03    0.2153623068E+00    0.8303005462E-01    0.1266670535E-01    0.6645754209E-02    0.2031895604E+00
    0.1300000000E+03    0.2273848351E+00    0.8837949524E-01    0.1339881373E-01    0.7448853962E-02    0.2164194441E+00
    0.1500000000E+03    0.2369579156E+00    0.9287064810E-01    0.1398814133E-01    0.8189383927E-02    0.2275509737E+00
    0.1700000000E+03    0.2447100958E+00    0.9671687108E-01    0.1447102993E-01    0.8878341993E-02    0.2371038147E+00
    0.1900000000E+03    0.2510734969E+00    0.1000638533E+00    0.1487249209E-01    0.9524095429E-02    0.2454331200E+00
    0.2100000000E+03    0.2563551707E+00    0.1030148418E+00    0.1521032358E-01    0.1013314499E-01    0.2527907910E+00
    0.2300000000E+03    0.2607793156E+00    0.1056452895E+00    0.1549753654E-01    0.1071063368E-01    0.2593610689E+00
    0.2500000000E+03    0.2645134160E+00    0.1080117814E+00    0.1574386641E-01    0.1126069527E-01    0.2652822347E+00
    0.2700000000E+03    0.2676850484E+00    0.1101576981E+00    0.1595674104E-01    0.1178669893E-01    0.2706603849E+00
    0.2900000000E+03    0.2703930382E+00    0.1121169354E+00    0.1614192443E-01    0.1229142485E-01    0.2755784828E+00
    0.3100000000E+03    0.2727150706E+00    0.1139164197E+00    0.1630395592E-01    0.1277719264E-01    0.2801024841E+00
    0.3300000000E+03    0.2747130073E+00    0.1155778542E+00    0.1644645732E-01    0.1324595690E-01    0.2842855902E+00
    0.3500000000E+03    0.2764366782E+00    0.1171189589E+00    0.1657235200E-01    0.1369937948E-01    0.2881712701E+00
    0.3700000000E+03    0.2779266357E+00    0.1185543683E+00    0.1668402410E-01    0.1413888484E-01    0.2917954496E+00
    0.3900000000E+03    0.2792161882E+00    0.1198962935E+00    0.1678343630E-01    0.1456570298E-01    0.2951881267E+00
    0.4100000000E+03    0.2803329234E+00    0.1211550183E+00    0.1687221796E-01    0.1498090325E-01    0.2983745823E+00
    0.4300000000E+03    0.2812998656E+00    0.1223392763E+00    0.1695173222E-01    0.1538542108E-01    0.3013763012E+00
    0.4500000000E+03    0.2821363637E+00    0.1234565415E+00    0.1702312753E-01    0.1578007943E-01    0.3042116818E+00
    0.4700000000E+03    0.2828587821E+00    0.1245132546E+00    0.1708737771E-01    0.1616560620E-01    0.3068965891E+00
    0.4900000000E+03    0.2834810420E+00    0.1255150012E+00    0.1714531344E-01    0.1654264828E-01    0.3094447915E+00
    0.1000000000E+03    0.2081529267E+00    0.7993769437E-01    0.1223095689E-01    0.6216305565E-02    0.1955546166E+00
    0.3000000000E+03    0.2715981123E+00    0.1130351843E+00    0.1622558921E-01    0.1253654874E-01    0.2778861618E+00
    0.5000000000E+03    0.2837584023E+00    0.1259968095E+00    0.1717214010E-01    0.1672817050E-01    0.3106714446E+00
    0.7000000000E+03    0.2861891239E+00    0.1336588042E+00    0.1750605992E-01    0.2010568153E-01    0.3302785000E+00
    0.9000000000E+03    0.2856034276E+00    0.1389460723E+00    0.1763275266E-01    0.2303677086E-01    0.3439345369E+00
    0.1100000000E+04    0.2839009508E+00    0.1429083901E+00    0.1767165289E-01    0.2567872205E-01    0.3542491378E+00
    0.1300000000E+04    0.2817707597E+00    0.1460350079E+00    0.1766847615E-01    0.2811455570E-01    0.3624446416E+00
    0.1500000000E+04    0.2794993495E+00    0.1485912164E+00    0.1764365175E-01    0.3039404676E-01    0.3691867619E+00
    0.1700000000E+04    0.2772151456E+00    0.1507359687E+00    0.1760728899E-01    0.3254970589E-01    0.3748759363E+00
    0.1900000000E+04    0.2749773985E+00    0.1525715211E+00    0.1756475722E-01    0.3460411408E-01    0.3797706887E+00
    0.2100000000E+04    0.2728127983E+00    0.1541672599E+00    0.1751905448E-01    0.3657369748E-01    0.3840470155E+00
    0.2300000000E+04    0.2707319692E+00    0.1555722649E+00    0.1747191372E-01    0.3847084286E-01    0.3878297851E+00
    0.2500000000E+04    0.2687374064E+00    0.1568224288E+00    0.1742435873E-01    0.4030516360E-01    0.3912105750E+00
    0.2700000000E+04    0.2668274854E+00    0.1579447280E+00    0.1737700016E-01    0.4208429820E-01    0.3942583980E+00
    0.2900000000E+04    0.2649985594E+00    0.1589599061E+00    0.1733020064E-01    0.4381443590E-01    0.3970264566E+00
    0.3100000000E+04    0.2632460806E+00    0.1598842266E+00    0.1728417050E-01    0.4550067521E-01    0.3995565633E+00
    0.3300000000E+04    0.2615652052E+00    0.1607306546E+00    0.1723902498E-01    0.4714727592E-01    0.4018821277E+00
    0.3500000000E+04    0.2599511181E+00    0.1615096768E+00    0.1719481936E-01    0.4875784082E-01    0.4040302323E+00
    0.3700000000E+04    0.2583992013E+00    0.1622298838E+00    0.1715157096E-01    0.5033544977E-01    0.4060231101E+00
    0.3900000000E+04    0.2569051150E+00    0.1628983924E+00    0.1710927317E-01    0.5188276044E-01    0.4078792173E+00
    0.4100000000E+04    0.2554648295E+00    0.1635211581E+00    0.1706790456E-01    0.5340208536E-01    0.4096140291E+00
    0.4300000000E+04    0.2540746301E+00    0.1641032094E+00    0.1702743470E-01    0.5489545181E-01    0.4112406367E+00
    0.4500000000E+04    0.2527311063E+00    0.1646488268E+00    0.1698782816E-01    0.5636464890E-01    0.4127702048E+00
    0.4700000000E+04    0.2514311342E+00    0.1651616809E+00    0.1694904698E-01    0.5781126513E-01    0.4142123246E+00
    0.4900000000E+04    0.2501718552E+00    0.1656449407E+00    0.1691105236E-01    0.5923671864E-01    0.4155752905E+00
    0.1000000000E+04    0.2848344184E+00    0.1410548143E+00    0.1765943172E-01    0.2438763210E-01    0.3494146121E+00
    0.3000000000E+04    0.2641130647E+00    0.1594325470E+00    0.1730708046E-01    0.4466275937E-01    0.3983189968E+00
    0.5000000000E+04    0.2495566493E+00    0.1658763471E+00    0.1689233795E-01    0.5994191210E-01    0.4162293830E+00
    0.7000000000E+04    0.2388616733E+00    0.1694618173E+00    0.1655073289E-01    0.7318538046E-01    0.4264997317E+00
    0.9000000000E+04    0.2303015196E+00    0.1718240814E+00    0.1625377551E-01    0.8522114416E-01    0.4334365022E+00
    0.1100000000E+05    0.2230742834E+00    0.1735288047E+00    0.1598505511E-01    0.9642464982E-01    0.4385526110E+00
    0.1300000000E+05    0.2167552193E+00    0.1748318480E+00    0.1573551830E-01    0.1070040195E+00    0.4425409921E+00
    0.1500000000E+05    0.2110948031E+00    0.1758683002E+00    0.1549983283E-01    0.1170886996E+00    0.4457714947E+00
    0.1700000000E+05    0.2059348327E+00    0.1767171700E+00    0.1527465639E-01    0.1267655167E+00    0.4484625495E+00
    0.1900000000E+05    0.2011690593E+00    0.1774281772E+00    0.1505778454E-01    0.1360959154E+00    0.4507528462E+00
    0.2100000000E+05    0.1967228541E+00    0.1780343851E+00    0.1484770253E-01    0.1451251590E+00    0.4527353825E+00
    0.2300000000E+05    0.1925418851E+00    0.1785587509E+00    0.1464333439E-01    0.1538876498E+00    0.4544752352E+00
    0.2500000000E+05    0.1885854214E+00    0.1790177787E+00    0.1444389477E-01    0.1624102014E+00    0.4560195344E+00
    0.2700000000E+05    0.1848221737E+00    0.1794236773E+00    0.1424879734E-01    0.1707141518E+00    0.4574033903E+00
    0.2900000000E+05    0.1812276038E+00    0.1797856970E+00    0.1405759600E-01    0.1788167825E+00    0.4586535848E+00
    0.3100000000E+05    0.1777821235E+00    0.1801109914E+00    0.1386994577E-01    0.1867323034E+00    0.4597909629E+00
    0.3300000000E+05    0.1744698524E+00    0.1804051899E+00    0.1368557613E-01    0.1944725561E+00    0.4608320313E+00
    0.3500000000E+05    0.1712777396E+00    0.1806727912E+00    0.1350427226E-01    0.2020475267E+00    0.4617900607E+00
    0.3700000000E+05    0.1681949295E+00    0.1809174384E+00    0.1332586171E-01    0.2094657289E+00    0.4626758619E+00
    0.3900000000E+05    0.1652122932E+00    0.1811421176E+00    0.1315020460E-01    0.2167344937E+00    0.4634983459E+00
    0.4100000000E+05    0.1623220783E+00    0.1813493020E+00    0.1297718636E-01    0.2238601933E+00    0.4642649349E+00
    0.4300000000E+05    0.1595176417E+00    0.1815410597E+00    0.1280671227E-01    0.2308484154E+00    0.4649818694E+00
    0.4500000000E+05    0.1567932431E+00    0.1817191351E+00    0.1263870328E-01    0.2377041011E+00    0.4656544410E+00
    0.4700000000E+05    0.1541438847E+00    0.1818850108E+00    0.1247309282E-01    0.2444316547E+00    0.4662871714E+00
    0.4900000000E+05    0.1515651831E+00    0.1820399563E+00    0.1230982421E-01    0.2510350328E+00    0.4668839514E+00
    0.1000000000E+05    0.2265534319E+00    0.1727385894E+00    0.1611656854E-01    0.9091143836E-01    0.4361680212E+00
    0.3000000000E+05    0.1794872952E+00    0.1799525526E+00    0.1396334540E-01    0.1827971428E+00    0.4592352574E+00
    0.5000000000E+05    0.1503011015E+00    0.1821136779E+00    0.1222905263E-01    0.2542912878E+00    0.4671699310E+00
    0.7000000000E+05    0.1279842080E+00    0.1832145253E+00    0.1072743357E-01    0.3136249303E+00    0.4716249750E+00
    0.9000000000E+05    0.1100699010E+00    0.1838929382E+00    0.9426374037E-02    0.3633519164E+00    0.4745931310E+00
    0.1100000000E+06    0.9544037222E-01    0.1843556410E+00    0.8305917131E-02    0.4050615564E+00    0.4767547323E+00
    0.1300000000E+06    0.8339127585E-01    0.1846918871E+00    0.7345672572E-02    0.4400456185E+00    0.4784180539E+00
    0.1500000000E+06    0.7340643489E-01    0.1849470962E+00    0.6524717233E-02    0.4694200069E+00    0.4797473591E+00
    0.1700000000E+06    0.6508474329E-01    0.1851470251E+00    0.5822964275E-02    0.4941442846E+00    0.4808398844E+00
    0.1900000000E+06    0.5810839408E-01    0.1853074529E+00    0.5222158412E-02    0.5150291840E+00    0.4817575618E+00
    0.2100000000E+06    0.5222423031E-01    0.1854386241E+00    0.4706323022E-02    0.5327488104E+00    0.4825420074E+00
    0.2300000000E+06    0.4723032544E-01    0.1855474985E+00    0.4261816516E-02    0.5478572990E+00    0.4832223510E+00
    0.2500000000E+06    0.4296545713E-01    0.1856389796E+00    0.3877170714E-02    0.5608069885E+00    0.4838196521E+00
    0.2700000000E+06    0.3930067081E-01    0.1857166271E+00    0.3542833278E-02    0.5719658503E+00    0.4843495413E+00
    0.2900000000E+06    0.3613253153E-01    0.1857830907E+00    0.3250886471E-02    0.5816329876E+00    0.4848238788E+00
    0.3100000000E+06    0.3337776658E-01    0.1858403851E+00    0.2994779782E-02    0.5900518004E+00    0.4852518347E+00
    0.3300000000E+06    0.3096904153E-01    0.1858900706E+00    0.2769092741E-02    0.5974208521E+00    0.4856406163E+00
    0.3500000000E+06    0.2885164531E-01    0.1859333747E+00    0.2569332628E-02    0.6039026830E+00    0.4859959705E+00
    0.3700000000E+06    0.2698089453E-01    0.1859712767E+00    0.2391765943E-02    0.6096308820E+00    0.4863225387E+00
    0.3900000000E+06    0.2532010167E-01    0.1860045678E+00    0.2233279953E-02    0.6147157297E+00    0.4866241128E+00
    0.4100000000E+06    0.2383898253E-01    0.1860338940E+00    0.2091269889E-02    0.6192486880E+00    0.4869038235E+00
    0.4300000000E+06    0.2251240501E-01    0.1860597881E+00    0.1963547431E-02    0.6233059715E+00    0.4871642795E+00
    0.4500000000E+06    0.2131940268E-01    0.1860826936E+00    0.1848266600E-02    0.6269513930E+00    0.4874076737E+00
    0.4700000000E+06    0.2024239430E-01    0.1861029825E+00    0.1743863746E-02    0.6302386332E+00    0.4876358640E+00
    0.4900000000E+06    0.1926656335E-01    0.1861209689E+00    0.1649008881E-02    0.6332130599E+00    0.4878504359E+00
    0.1000000000E+06    0.1023943714E+00    0.1841441835E+00    0.8844816994E-02    0.3851235389E+00    0.4757506462E+00
    0.3000000000E+06    0.3470801644E-01    0.1858127775E+00    0.3118715835E-02    0.5859850861E+00    0.4850431647E+00
    0.5000000000E+06    0.1881259124E-01    0.1861291839E+00    0.1604800324E-02    0.6345952381E+00    0.4879530482E+00
    0.7000000000E+06    0.1283027166E-01    0.1862204478E+00    0.1018780249E-02    0.6526386633E+00    0.4895386258E+00
    0.9000000000E+06    0.9867743483E-02    0.1862376221E+00    0.7289866615E-03    0.6613272237E+00    0.4905908991E+00
    0.1100000000E+07    0.8136721132E-02    0.1862237251E+00    0.5622565716E-03    0.6662307172E+00    0.4913633704E+00
    0.1300000000E+07    0.7009720924E-02    0.1861952209E+00    0.4561600443E-03    0.6693041515E+00    0.4919662438E+00
    0.1500000000E+07    0.6218558860E-02    0.1861595320E+00    0.3836502459E-03    0.6713784731E+00    0.4924565047E+00
    0.1700000000E+07    0.5631760182E-02    0.1861203671E+00    0.3313947430E-03    0.6728573175E+00    0.4928671344E+00
    0.1900000000E+07    0.5178047633E-02    0.1860797086E+00    0.2921646348E-03    0.6739569647E+00    0.4932187970E+00
    0.2100000000E+07    0.4815692390E-02    0.1860386634E+00    0.2617432235E-03    0.6748023376E+00    0.4935252270E+00
    0.2300000000E+07    0.4518739502E-02    0.1859978652E+00    0.2375244869E-03    0.6754699953E+00    0.4937959793E+00
    0.2500000000E+07    0.4270236188E-02    0.1859576793E+00    0.2178205718E-03    0.6760091614E+00    0.4940379480E+00
    0.2700000000E+07    0.4058654474E-02    0.1859183131E+00    0.2014951117E-03    0.6764527621E+00    0.4942562572E+00
    0.2900000000E+07    0.3875886476E-02    0.1858798788E+00    0.1877577065E-03    0.6768235660E+00    0.4944548113E+00
    0.3100000000E+07    0.3716064223E-02    0.1858424297E+00    0.1760431202E-03    0.6771377698E+00    0.4946366482E+00
    0.3300000000E+07    0.3574835238E-02    0.1858059830E+00    0.1659373465E-03    0.6774071791E+00    0.4948041742E+00
    0.3500000000E+07    0.3448901637E-02    0.1857705331E+00    0.1571307585E-03    0.6776405833E+00    0.4949593255E+00
    0.3700000000E+07    0.3335717614E-02    0.1857360604E+00    0.1493875112E-03    0.6778446493E+00    0.4951036811E+00
    0.3900000000E+07    0.3233285388E-02    0.1857025370E+00    0.1425250212E-03    0.6780245181E+00    0.4952385444E+00
    0.4100000000E+07    0.3140014216E-02    0.1856699301E+00    0.1363998789E-03    0.6781842123E+00    0.4953650030E+00
    0.4300000000E+07    0.3054620873E-02    0.1856382045E+00    0.1308979722E-03    0.6783269217E+00    0.4954839727E+00
    0.4500000000E+07    0.2976058036E-02    0.1856073242E+00    0.1259274319E-03    0.6784552052E+00    0.4955962319E+00
    0.4700000000E+07    0.2903461863E-02    0.1855772531E+00    0.1214135071E-03    0.6785711385E+00    0.4957024467E+00
    0.4900000000E+07    0.2836113004E-02    0.1855479561E+00    0.1172947849E-03    0.6786764213E+00    0.4958031919E+00
    0.1000000000E+07    0.8900483134E-02    0.1862332113E+00    0.6354084541E-03    0.6640893479E+00    0.4910034126E+00
    0.3000000000E+07    0.3793408313E-02    0.1858610293E+00    0.1816763325E-03    0.6769869212E+00    0.4945476564E+00
    0.5000000000E+07    0.2804213645E-02    0.1855335871E+00    0.1153673696E-03    0.6787255174E+00    0.4958516717E+00
    0.7000000000E+07    0.2335345115E-02    0.1852793466E+00    0.8881301631E-04    0.6793886298E+00    0.4966266605E+00
    0.9000000000E+07    0.2047594200E-02    0.1850728212E+00    0.7417937868E-04    0.6797405467E+00    0.4971693969E+00
    0.1100000000E+08    0.1847600076E-02    0.1848989641E+00    0.6473729513E-04    0.6799607851E+00    0.4975833230E+00
    0.1300000000E+08    0.1698006513E-02    0.1847487679E+00    0.5804871815E-04    0.6801128941E+00    0.4979160236E+00
    0.1500000000E+08    0.1580545185E-02    0.1846164850E+00    0.5301082830E-04    0.6802250404E+00    0.4981931270E+00
    0.1700000000E+08    0.1485074461E-02    0.1844982372E+00    0.4904863851E-04    0.6803116432E+00    0.4984299372E+00
    0.1900000000E+08    0.1405447084E-02    0.1843912868E+00    0.4583113086E-04    0.6803808659E+00    0.4986362881E+00
    0.2100000000E+08    0.1337688031E-02    0.1842936295E+00    0.4315327727E-04    0.6804376883E+00    0.4988188547E+00
    0.2300000000E+08    0.1279096052E-02    0.1842037538E+00    0.4088074295E-04    0.6804853273E+00    0.4989823657E+00
    0.2500000000E+08    0.1227761779E-02    0.1841204915E+00    0.3892150300E-04    0.6805259582E+00    0.4991302872E+00
    0.2700000000E+08    0.1182291684E-02    0.1840429207E+00    0.3721019648E-04    0.6805611073E+00    0.4992652322E+00
