  Pressure (Pa) 2mC6-400 (mol/kg) 3mC6-400 (mol/kg) 33mC5-400 (mol/kg) 23mC5-400 (mol/kg) C7-400 (mol/kg)
    0.1000000000E+01    0.5526686090E-02    0.2615890389E-02    0.6428938279E-04    0.3719525547E-03    0.5093945365E-02
    0.3000000000E+01    0.1601556843E-01    0.7575423946E-02    0.1863407489E-03    0.1102698469E-02    0.1475402728E-01
    0.5000000000E+01    0.2581569396E-01    0.1220393407E-01    0.3004287268E-03    0.1816570730E-02    0.2377226601E-01
    0.7000000000E+01    0.3499465572E-01    0.1653516592E-01    0.4073357617E-03    0.2514331113E-02    0.3221400108E-01
    0.9000000000E+01    0.4361121979E-01    0.2059837596E-01    0.5077419572E-03    0.3196694099E-02    0.4013588686E-01
    0.1100000000E+02    0.5171674340E-01    0.2441905701E-01    0.6022415368E-03    0.3864330553E-02    0.4758729499E-01
    0.1300000000E+02    0.5935632615E-01    0.2801952701E-01    0.6913562063E-03    0.4517871063E-02    0.5461145300E-01
    0.1500000000E+02    0.6656975131E-01    0.3141941041E-01    0.7755460763E-03    0.5157908972E-02    0.6124637551E-01
    0.1700000000E+02    0.7339226080E-01    0.3463603440E-01    0.8552186533E-03    0.5785003142E-02    0.6752563075E-01
    0.1900000000E+02    0.7985519718E-01    0.3768475713E-01    0.9307362856E-03    0.6399680466E-02    0.7347897539E-01
    0.2100000000E+02    0.8598653863E-01    0.4057924101E-01    0.1002422368E-02    0.7002438168E-02    0.7913288344E-01
    0.2300000000E+02    0.9181134742E-01    0.4333168174E-01    0.1070566541E-02    0.7593745902E-02    0.8451098928E-01
    0.2500000000E+02    0.9735214766E-01    0.4595300103E-01    0.1135429071E-02    0.8174047676E-02    0.8963446060E-01
    0.2700000000E+02    0.1026292452E+00    0.4845300967E-01    0.1197244553E-02    0.8743763610E-02    0.9452231403E-01
    0.2900000000E+02    0.1076609996E+00    0.5084054615E-01    0.1256225072E-02    0.9303291560E-02    0.9919168326E-01
    0.3100000000E+02    0.1124640570E+00    0.5312359493E-01    0.1312562887E-02    0.9853008596E-02    0.1036580480E+00
    0.3300000000E+02    0.1170535494E+00    0.5530938784E-01    0.1366432753E-02    0.1039327238E-01    0.1079354304E+00
    0.3500000000E+02    0.1214432668E+00    0.5740449129E-01    0.1417993904E-02    0.1092442241E-01    0.1120365636E+00
    0.3700000000E+02    0.1256458056E+00    0.5941488168E-01    0.1467391778E-02    0.1144678121E-01    0.1159730376E+00
    0.3900000000E+02    0.1296726981E+00    0.6134601062E-01    0.1514759512E-02    0.1196065537E-01    0.1197554262E+00
    0.4100000000E+02    0.1335345250E+00    0.6320286179E-01    0.1560219245E-02    0.1246633655E-01    0.1233933963E+00
    0.4300000000E+02    0.1372410132E+00    0.6499000043E-01    0.1603883253E-02    0.1296410242E-01    0.1268958040E+00
    0.4500000000E+02    0.1408011224E+00    0.6671161677E-01    0.1645854947E-02    0.1345421746E-01    0.1302707789E+00
    0.4700000000E+02    0.1442231210E+00    0.6837156401E-01    0.1686229750E-02    0.1393693381E-01    0.1335257974E+00
    0.4900000000E+02    0.1475146525E+00    0.6997339187E-01    0.1725095871E-02    0.1441249196E-01    0.1366677478E+00
    0.1000000000E+02    0.4772490820E-01    0.2253756943E-01    0.5556959063E-03    0.3532312824E-02    0.4391756672E-01
    0.3000000000E+02    0.1100901363E+00    0.5199466296E-01    0.1284713010E-02    0.9579353649E-02    0.1014493328E+00
    0.5000000000E+02    0.1491137257E+00    0.7075354469E-01    0.1743988939E-02    0.1464765885E-01    0.1381983284E+00
    0.7000000000E+02    0.1757144332E+00    0.8398032382E-01    0.2059591919E-02    0.1902579607E-01    0.1641840852E+00
    0.9000000000E+02    0.1948552972E+00    0.9394132074E-01    0.2288787381E-02    0.2289469203E-01    0.1838066526E+00
    0.1100000000E+03    0.2091501199E+00    0.1017952146E+00    0.2461733668E-02    0.2637424554E-01    0.1993178418E+00
    0.1300000000E+03    0.2201173166E+00    0.1081999132E+00    0.2595957990E-02    0.2954748356E-01    0.2119974823E+00
    0.1500000000E+03    0.2287030537E+00    0.1135587636E+00    0.2702390446E-02    0.3247399315E-01    0.2226309421E+00
    0.1700000000E+03    0.2355288586E+00    0.1181339821E+00    0.2788218325E-02    0.3519782619E-01    0.2317292573E+00
    0.1900000000E+03    0.2410201919E+00    0.1221041185E+00    0.2858367751E-02    0.3775237394E-01    0.2396407172E+00
    0.2100000000E+03    0.2454781229E+00    0.1255954017E+00    0.2916329592E-02    0.4016349322E-01    0.2466117667E+00
    0.2300000000E+03    0.2491215979E+00    0.1286998830E+00    0.2964646556E-02    0.4245157929E-01    0.2528222786E+00
    0.2500000000E+03    0.2521135325E+00    0.1314864630E+00    0.3005213937E-02    0.4463298048E-01    0.2584070019E+00
    0.2700000000E+03    0.2545775410E+00    0.1340078723E+00    0.3039472520E-02    0.4672098816E-01    0.2634691468E+00
    0.2900000000E+03    0.2566090107E+00    0.1363052459E+00    0.3068536330E-02    0.4872654485E-01    0.2680892932E+00
    0.3100000000E+03    0.2582826376E+00    0.1384112123E+00    0.3093279608E-02    0.5065876083E-01    0.2723314083E+00
    0.3300000000E+03    0.2596576759E+00    0.1403520338E+00    0.3114397442E-02    0.5252529758E-01    0.2762470191E+00
    0.3500000000E+03    0.2607816735E+00    0.1421491240E+00    0.3132448930E-02    0.5433265692E-01    0.2798781720E+00
    0.3700000000E+03    0.2616931777E+00    0.1438201459E+00    0.3147888483E-02    0.5608640211E-01    0.2832595744E+00
    0.3900000000E+03    0.2624237284E+00    0.1453798192E+00    0.3161088890E-02    0.5779132913E-01    0.2864201728E+00
    0.4100000000E+03    0.2629993481E+00    0.1468405265E+00    0.3172358578E-02    0.5945160093E-01    0.2893843346E+00
    0.4300000000E+03    0.2634416701E+00    0.1482127716E+00    0.3181954697E-02    0.6107085371E-01    0.2921727456E+00
    0.4500000000E+03    0.2637688032E+00    0.1495055339E+00    0.3190093156E-02    0.6265228205E-01    0.2948031013E+00
    0.4700000000E+03    0.2639960018E+00    0.1507265431E+00    0.3196956410E-02    0.6419870753E-01    0.2972906454E+00
    0.4900000000E+03    0.2641361910E+00    0.1518824960E+00    0.3202699561E-02    0.6571263463E-01    0.2996485938E+00
    0.1000000000E+03    0.2024959698E+00    0.9808263204E-01    0.2380993396E-02    0.2467727623E-01    0.1919808311E+00
    0.3000000000E+03    0.2574865390E+00    0.1373803847E+00    0.3081400968E-02    0.4970131140E-01    0.2702541321E+00
    0.5000000000E+03    0.2641771629E+00    0.1524379299E+00    0.3205193297E-02    0.6645811870E-01    0.3007826296E+00
    0.7000000000E+03    0.2623935674E+00    0.1612209644E+00    0.3220090033E-02    0.8009567357E-01    0.3188143863E+00
    0.9000000000E+03    0.2582710033E+00    0.1672232544E+00    0.3200807227E-02    0.9203039410E-01    0.3312618923E+00
    0.1100000000E+04    0.2534564375E+00    0.1716874292E+00    0.3168481150E-02    0.1028618626E+00    0.3405994594E+00
    0.1300000000E+04    0.2485075723E+00    0.1751883612E+00    0.3130838145E-02    0.1129038590E+00    0.3479779267E+00
    0.1500000000E+04    0.2436343134E+00    0.1780358076E+00    0.3091144725E-02    0.1223430388E+00    0.3540203158E+00
    0.1700000000E+04    0.2389166538E+00    0.1804143414E+00    0.3050908492E-02    0.1313003978E+00    0.3590994290E+00
    0.1900000000E+04    0.2343813046E+00    0.1824421200E+00    0.3010860301E-02    0.1398593518E+00    0.3634548387E+00
    0.2100000000E+04    0.2300320454E+00    0.1841989674E+00    0.2971359992E-02    0.1480801313E+00    0.3672489675E+00
    0.2300000000E+04    0.2258627549E+00    0.1857411226E+00    0.2932580211E-02    0.1560078219E+00    0.3705966258E+00
    0.2500000000E+04    0.2218633094E+00    0.1871095653E+00    0.2894595654E-02    0.1636771597E+00    0.3735817313E+00
    0.2700000000E+04    0.2180223309E+00    0.1883349932E+00    0.2857428738E-02    0.1711155481E+00    0.3762673303E+00
    0.2900000000E+04    0.2143284692E+00    0.1894409396E+00    0.2821073923E-02    0.1783450375E+00    0.3787018890E+00
    0.3100000000E+04    0.2107709793E+00    0.1904458029E+00    0.2785511038E-02    0.1853836719E+00    0.3809233988E+00
    0.3300000000E+04    0.2073399507E+00    0.1913642121E+00    0.2750712740E-02    0.1922464329E+00    0.3829621434E+00
    0.3500000000E+04    0.2040263665E+00    0.1922079705E+00    0.2716648711E-02    0.1989459188E+00    0.3848426171E+00
    0.3700000000E+04    0.2008220801E+00    0.1929867254E+00    0.2683288034E-02    0.2054928432E+00    0.3865848860E+00
    0.3900000000E+04    0.1977197540E+00    0.1937084517E+00    0.2650600495E-02    0.2118964099E+00    0.3882055761E+00
    0.4100000000E+04    0.1947127859E+00    0.1943798098E+00    0.2618557274E-02    0.2181645976E+00    0.3897186021E+00
    0.4300000000E+04    0.1917952320E+00    0.1950064123E+00    0.2587131273E-02    0.2243043812E+00    0.3911357155E+00
    0.4500000000E+04    0.1889617333E+00    0.1955930287E+00    0.2556297234E-02    0.2303219044E+00    0.3924669226E+00
    0.4700000000E+04    0.1862074490E+00    0.1961437418E+00    0.2526031730E-02    0.2362226176E+00    0.3937208061E+00
    0.4900000000E+04    0.1835279963E+00    0.1966620706E+00    0.2496313094E-02    0.2420113879E+00    0.3949047781E+00
    0.1000000000E+04    0.2559028245E+00    0.1696028301E+00    0.3185633392E-02    0.9756033163E-01    0.3362299047E+00
    0.3000000000E+04    0.2125333179E+00    0.1899550167E+00    0.2803195091E-02    0.1818872125E+00    0.3798372274E+00
    0.5000000000E+04    0.1822150741E+00    0.1969100606E+00    0.2481652535E-02    0.2448651784E+00    0.3954725934E+00
    0.7000000000E+04    0.1590886628E+00    0.2007348363E+00    0.2213036537E-02    0.2969337817E+00    0.4043553246E+00
    0.9000000000E+04    0.1405136425E+00    0.2032360412E+00    0.1983544559E-02    0.3410373932E+00    0.4103173787E+00
    0.1100000000E+05    0.1252105570E+00    0.2050313171E+00    0.1785653687E-02    0.3787162164E+00    0.4146921346E+00
    0.1300000000E+05    0.1124178055E+00    0.2063978231E+00    0.1614275836E-02    0.4110398942E+00    0.4180869107E+00
    0.1500000000E+05    0.1016176368E+00    0.2074810316E+00    0.1465446252E-02    0.4388524283E+00    0.4208247581E+00
    0.1700000000E+05    0.9242938508E-01    0.2083656281E+00    0.1335870717E-02    0.4628530526E+00    0.4230960590E+00
    0.1900000000E+05    0.8456051207E-01    0.2091047018E+00    0.1222750452E-02    0.4836296826E+00    0.4250215214E+00
    0.2100000000E+05    0.7778052766E-01    0.2097334434E+00    0.1123696869E-02    0.5016776220E+00    0.4266819978E+00
    0.2300000000E+05    0.7190514690E-01    0.2102762196E+00    0.1036674903E-02    0.5174133526E+00    0.4281340131E+00
    0.2500000000E+05    0.6678563457E-01    0.2107505054E+00    0.9599559698E-03    0.5311862454E+00    0.4294184641E+00
    0.2700000000E+05    0.6230112723E-01    0.2111692000E+00    0.8920756077E-03    0.5432888973E+00    0.4305657857E+00
    0.2900000000E+05    0.5835286186E-01    0.2115420585E+00    0.8317950491E-03    0.5539662159E+00    0.4315991666E+00
    0.3100000000E+05    0.5485972985E-01    0.2118766113E+00    0.7780669360E-03    0.5634232826E+00    0.4325366316E+00
    0.3300000000E+05    0.5175480321E-01    0.2121787752E+00    0.7300053148E-03    0.5718320528E+00    0.4333924341E+00
    0.3500000000E+05    0.4898259720E-01    0.2124532716E+00    0.6868598110E-03    0.5793369931E+00    0.4341780157E+00
    0.3700000000E+05    0.4649690100E-01    0.2127039189E+00    0.6479936857E-03    0.5860597807E+00    0.4349026825E+00
    0.3900000000E+05    0.4425905107E-01    0.2129338428E+00    0.6128653607E-03    0.5921031944E+00    0.4355740921E+00
    0.4100000000E+05    0.4223655161E-01    0.2131456293E+00    0.5810129625E-03    0.5975543240E+00    0.4361986119E+00
    0.4300000000E+05    0.4040196845E-01    0.2133414385E+00    0.5520414449E-03    0.6024872115E+00    0.4367815861E+00
    0.4500000000E+05    0.3873203880E-01    0.2135230903E+00    0.5256118826E-03    0.6069650223E+00    0.4373275381E+00
    0.4700000000E+05    0.3720695219E-01    0.2136921303E+00    0.5014325789E-03    0.6110418311E+00    0.4378403263E+00
    0.4900000000E+05    0.3580976740E-01    0.2138498804E+00    0.4792516798E-03    0.6147640920E+00    0.4383232649E+00
    0.1000000000E+05    0.1325083601E+00    0.2042001659E+00    0.1881002116E-02    0.3606062000E+00    0.4126556834E+00
    0.3000000000E+05    0.5655388434E-01    0.2117137211E+00    0.8041707694E-03    0.5588358281E+00    0.4320789223E+00
    0.5000000000E+05    0.3515450996E-01    0.2139248836E+00    0.4688412887E-03    0.6165050033E+00    0.4385544511E+00
    0.7000000000E+05    0.2613794668E-01    0.2150402869E+00    0.3256334809E-03    0.6399783786E+00    0.4421387908E+00
    0.9000000000E+05    0.2131167163E-01    0.2157223923E+00    0.2500087546E-03    0.6518910636E+00    0.4445171896E+00
    0.1100000000E+06    0.1831797082E-01    0.2161844355E+00    0.2042317847E-03    0.6588506577E+00    0.4462538366E+00
    0.1300000000E+06    0.1627215213E-01    0.2165180417E+00    0.1738351765E-03    0.6633228447E+00    0.4475995442E+00
    0.1500000000E+06    0.1477683168E-01    0.2167696604E+00    0.1522724152E-03    0.6663989973E+00    0.4486855058E+00
    0.1700000000E+06    0.1362920851E-01    0.2169655467E+00    0.1362048281E-03    0.6686251149E+00    0.4495880891E+00
    0.1900000000E+06    0.1271551037E-01    0.2171217389E+00    0.1237700418E-03    0.6703005119E+00    0.4503552619E+00
    0.2100000000E+06    0.1196709771E-01    0.2172486223E+00    0.1138544859E-03    0.6716012889E+00    0.4510189229E+00
    0.2300000000E+06    0.1134011239E-01    0.2173532353E+00    0.1057544778E-03    0.6726370409E+00    0.4516012492E+00
    0.2500000000E+06    0.1080519981E-01    0.2174405253E+00    0.9900488430E-04    0.6734791624E+00    0.4521182187E+00
    0.2700000000E+06    0.1034194791E-01    0.2175140762E+00    0.9328656640E-04    0.6741759562E+00    0.4525816847E+00
    0.2900000000E+06    0.9935702413E-02    0.2175765503E+00    0.8837356920E-04    0.6747611605E+00    0.4530006583E+00
    0.3100000000E+06    0.9575654239E-02    0.2176299676E+00    0.8410156972E-04    0.6752589892E+00    0.4533821331E+00
    0.3300000000E+06    0.9253643584E-02    0.2176758896E+00    0.8034827274E-04    0.6756872329E+00    0.4537316348E+00
    0.3500000000E+06    0.8963385798E-02    0.2177155423E+00    0.7702081150E-04    0.6760592326E+00    0.4540535970E+00
    0.3700000000E+06    0.8699954960E-02    0.2177499023E+00    0.7404740872E-04    0.6763851737E+00    0.4543516258E+00
    0.3900000000E+06    0.8459430178E-02    0.2177797569E+00    0.7137171276E-04    0.6766729570E+00    0.4546286895E+00
    0.4100000000E+06    0.8238647649E-02    0.2178057479E+00    0.6894886177E-04    0.6769287987E+00    0.4548872579E+00
    0.4300000000E+06    0.8035023223E-02    0.2178284039E+00    0.6674269228E-04    0.6771576518E+00    0.4551294054E+00
    0.4500000000E+06    0.7846423047E-02    0.2178481637E+00    0.6472372287E-04    0.6773635087E+00    0.4553568897E+00
    0.4700000000E+06    0.7671067699E-02    0.2178653951E+00    0.6286767351E-04    0.6775496208E+00    0.4555712117E+00
    0.4900000000E+06    0.7507460054E-02    0.2178804080E+00    0.6115436184E-04    0.6777186614E+00    0.4557736621E+00
    0.1000000000E+06    0.1965832621E-01    0.2159736558E+00    0.2245726778E-03    0.6557870969E+00    0.4454460173E+00
    0.3000000000E+06    0.9750465107E-02    0.2176042844E+00    0.8616589970E-04    0.6750197616E+00    0.4531957084E+00
    0.5000000000E+06    0.7429657145E-02    0.2178871664E+00    0.6034583660E-04    0.6777974877E+00    0.4558707906E+00
    0.7000000000E+06    0.6263316025E-02    0.2179528390E+00    0.4870396973E-04    0.6788591228E+00    0.4573964533E+00
    0.9000000000E+06    0.5527282812E-02    0.2179494343E+00    0.4180888081E-04    0.6794153272E+00    0.4584328582E+00
    0.1100000000E+07    0.5007435109E-02    0.2179183268E+00    0.3713982257E-04    0.6797572252E+00    0.4592044324E+00
    0.1300000000E+07    0.4614543479E-02    0.2178750218E+00    0.3371638725E-04    0.6799887731E+00    0.4598123356E+00
    0.1500000000E+07    0.4303813073E-02    0.2178263406E+00    0.3107061444E-04    0.6801561257E+00    0.4603101185E+00
    0.1700000000E+07    0.4049918098E-02    0.2177755911E+00    0.2894797348E-04    0.6802828585E+00    0.4607292826E+00
    0.1900000000E+07    0.3837300623E-02    0.2177244752E+00    0.2719683346E-04    0.6803822583E+00    0.4610898017E+00
    0.2100000000E+07    0.3655797099E-02    0.2176738960E+00    0.2572058964E-04    0.6804623807E+00    0.4614050728E+00
    0.2300000000E+07    0.3498445162E-02    0.2176243345E+00    0.2445443255E-04    0.6805283935E+00    0.4616844835E+00
    0.2500000000E+07    0.3360291576E-02    0.2175760384E+00    0.2335306480E-04    0.6805837647E+00    0.4619348472E+00
    0.2700000000E+07    0.3237702042E-02    0.2175291227E+00    0.2238375411E-04    0.6806309084E+00    0.4621612529E+00
    0.2900000000E+07    0.3127940662E-02    0.2174836256E+00    0.2152218545E-04    0.6806715573E+00    0.4623675946E+00
    0.3100000000E+07    0.3028902671E-02    0.2174395404E+00    0.2074987115E-04    0.6807069875E+00    0.4625569129E+00
    0.3300000000E+07    0.2938938459E-02    0.2173968347E+00    0.2005247195E-04    0.6807381600E+00    0.4627316238E+00
    0.3500000000E+07    0.2856734143E-02    0.2173554616E+00    0.1941867340E-04    0.6807658121E+00    0.4628936770E+00
    0.3700000000E+07    0.2781228386E-02    0.2173153665E+00    0.1883941284E-04    0.6807905193E+00    0.4630446664E+00
    0.3900000000E+07    0.2711553115E-02    0.2172764920E+00    0.1830733470E-04    0.6808127375E+00    0.4631859106E+00
    0.4100000000E+07    0.2646990436E-02    0.2172387799E+00    0.1781639860E-04    0.6808328325E+00    0.4633185122E+00
    0.4300000000E+07    0.2586940740E-02    0.2172021729E+00    0.1736159195E-04    0.6808511011E+00    0.4634434014E+00
    0.4500000000E+07    0.2530898728E-02    0.2171666159E+00    0.1693871575E-04    0.6808677872E+00    0.4635613701E+00
    0.4700000000E+07    0.2478435131E-02    0.2171320560E+00    0.1654422246E-04    0.6808830925E+00    0.4636730973E+00
    0.4900000000E+07    0.2429182577E-02    0.2170984433E+00    0.1617509176E-04    0.6808971856E+00    0.4637791696E+00
    0.1000000000E+07    0.5247441080E-02    0.2179360682E+00    0.3927534439E-04    0.6796044941E+00    0.4588438254E+00
    0.3000000000E+07    0.3077193396E-02    0.2174614081E+00    0.2112584967E-04    0.6806898586E+00    0.4624642182E+00
    0.5000000000E+07    0.2405659796E-02    0.2170819773E+00    0.1599921345E-04    0.6809038230E+00    0.4638302470E+00
    0.7000000000E+07    0.2045801035E-02    0.2167923693E+00    0.1334248327E-04    0.6809979903E+00    0.4646497215E+00
    0.9000000000E+07    0.1812615285E-02    0.2165589266E+00    0.1165571447E-04    0.6810518520E+00    0.4652268565E+00
    0.1100000000E+08    0.1645639285E-02    0.2163632985E+00    0.1046542309E-04    0.6810871007E+00    0.4656687555E+00
    0.1300000000E+08    0.1518412170E-02    0.2161948044E+00    0.9568756593E-05    0.6811121532E+00    0.4660249980E+00
    0.1500000000E+08    0.1417264606E-02    0.2160467292E+00    0.8862509161E-05    0.6811309821E+00    0.4663224091E+00
    0.1700000000E+08    0.1334324276E-02    0.2159145839E+00    0.8287943023E-05    0.6811457161E+00    0.4665770647E+00
    0.1900000000E+08    0.1264693167E-02    0.2157952200E+00    0.7808863952E-05    0.6811576027E+00    0.4667993248E+00
    0.2100000000E+08    0.1205141982E-02    0.2156863437E+00    0.7401602553E-05    0.6811674237E+00    0.4669962391E+00
    0.2300000000E+08    0.1153443262E-02    0.2155862314E+00    0.7049947107E-05    0.6811756952E+00    0.4671728118E+00
    0.2500000000E+08    0.1108003904E-02    0.2154935550E+00    0.6742374496E-05    0.6811827721E+00    0.4673327183E+00
    0.2700000000E+08    0.1067650126E-02    0.2154072689E+00    0.6470441481E-05    0.6811889069E+00    0.4674787334E+00
