  Pressure (Pa) 2mC6-400 (mol/kg) 3mC6-400 (mol/kg) 33mC5-400 (mol/kg) 23mC5-400 (mol/kg) C7-400 (mol/kg)
    0.1000000000E+01    0.5548237505E-02    0.2628536751E-02    0.1936103682E-03    0.3719056627E-03    0.1706150050E-02
    0.3000000000E+01    0.1619679360E-01    0.7682259152E-02    0.5652604573E-03    0.1102289562E-02    0.4987019077E-02
    0.5000000000E+01    0.2628708857E-01    0.1248309420E-01    0.9175047640E-03    0.1815469567E-02    0.8104425208E-02
    0.7000000000E+01    0.3586164779E-01    0.1705089900E-01    0.1251822107E-02    0.2512237604E-02    0.1107118690E-01
    0.9000000000E+01    0.4495871664E-01    0.2140347286E-01    0.1569542356E-02    0.3193335476E-02    0.1389879515E-01
    0.1100000000E+02    0.5361279297E-01    0.2555681847E-01    0.1871864971E-02    0.3859458843E-02    0.1659758189E-01
    0.1300000000E+02    0.6185508113E-01    0.2952536423E-01    0.2159874819E-02    0.4511260815E-02    0.1917686339E-01
    0.1500000000E+02    0.6971388103E-01    0.3332215435E-01    0.2434555715E-02    0.5149355218E-02    0.2164506280E-01
    0.1700000000E+02    0.7721492276E-01    0.3695901188E-01    0.2696802078E-02    0.5774319558E-02    0.2400981532E-01
    0.1900000000E+02    0.8438165556E-01    0.4044667922E-01    0.2947428986E-02    0.6386697722E-02    0.2627805884E-01
    0.2100000000E+02    0.9123549825E-01    0.4379493964E-01    0.3187180894E-02    0.6987002431E-02    0.2845611227E-01
    0.2300000000E+02    0.9779605713E-01    0.4701272269E-01    0.3416739220E-02    0.7575717489E-02    0.3054974354E-01
    0.2500000000E+02    0.1040813160E+00    0.5010819594E-01    0.3636728960E-02    0.8153299829E-02    0.3256422880E-01
    0.2700000000E+02    0.1101078027E+00    0.5308884516E-01    0.3847724477E-02    0.8720181397E-02    0.3450440414E-01
    0.2900000000E+02    0.1158907353E+00    0.5596154452E-01    0.4050254593E-02    0.9276770865E-02    0.3637471085E-01
    0.3100000000E+02    0.1214441507E+00    0.5873261824E-01    0.4244807064E-02    0.9823455214E-02    0.3817923524E-01
    0.3300000000E+02    0.1267810185E+00    0.6140789499E-01    0.4431832537E-02    0.1036060118E-01    0.3992174366E-01
    0.3500000000E+02    0.1319133414E+00    0.6399275582E-01    0.4611748052E-02    0.1088855660E-01    0.4160571351E-01
    0.3700000000E+02    0.1368522451E+00    0.6649217672E-01    0.4784940156E-02    0.1140765163E-01    0.4323436067E-01
    0.3900000000E+02    0.1416080574E+00    0.6891076632E-01    0.4951767663E-02    0.1191819987E-01    0.4481066379E-01
    0.4100000000E+02    0.1461903793E+00    0.7125279949E-01    0.5112564130E-02    0.1242049944E-01    0.4633738602E-01
    0.4300000000E+02    0.1506081486E+00    0.7352224726E-01    0.5267640058E-02    0.1291483392E-01    0.4781709431E-01
    0.4500000000E+02    0.1548696967E+00    0.7572280360E-01    0.5417284876E-02    0.1340147325E-01    0.4925217669E-01
    0.4700000000E+02    0.1589827995E+00    0.7785790944E-01    0.5561768709E-02    0.1388067456E-01    0.5064485773E-01
    0.4900000000E+02    0.1629547234E+00    0.7993077408E-01    0.5701343981E-02    0.1435268296E-01    0.5199721245E-01
    0.1000000000E+02    0.4933910626E-01    0.2350411290E-01    0.1722558047E-02    0.3528227196E-02    0.1526368666E-01
    0.3000000000E+02    0.1186952983E+00    0.5735940927E-01    0.4148499042E-02    0.9551327800E-02    0.3728495332E-01
    0.5000000000E+02    0.1648898852E+00    0.8094481035E-01    0.5769365306E-02    0.1458606329E-01    0.5265887809E-01
    0.7000000000E+02    0.1976199657E+00    0.9858987084E-01    0.6922068094E-02    0.1892751048E-01    0.6418377204E-01
    0.9000000000E+02    0.2218240980E+00    0.1124576115E+00    0.7778150822E-02    0.2275941477E-01    0.7325868384E-01
    0.1100000000E+03    0.2402924820E+00    0.1237556065E+00    0.8434529302E-02    0.2620290670E-01    0.8066522320E-01
    0.1300000000E+03    0.2547233931E+00    0.1332145593E+00    0.8950198621E-02    0.2934152189E-01    0.8687666090E-01
    0.1500000000E+03    0.2662103056E+00    0.1413045349E+00    0.9363152702E-02    0.3223501524E-01    0.9219765285E-01
    0.1700000000E+03    0.2754890303E+00    0.1483428548E+00    0.9698966272E-02    0.3492744441E-01    0.9683399006E-01
    0.1900000000E+03    0.2830726438E+00    0.1545522334E+00    0.9975479607E-02    0.3745213126E-01    0.1009301977E+00
    0.2100000000E+03    0.2893295740E+00    0.1600940867E+00    0.1020550948E-01    0.3983483139E-01    0.1045910862E+00
    0.2300000000E+03    0.2945309880E+00    0.1650885998E+00    0.1039849432E-01    0.4209582877E-01    0.1078947400E+00
    0.2500000000E+03    0.2988807104E+00    0.1696273355E+00    0.1056153291E-01    0.4425136124E-01    0.1109006819E+00
    0.2700000000E+03    0.3025347539E+00    0.1737814424E+00    0.1070006247E-01    0.4631461562E-01    0.1136551905E+00
    0.2900000000E+03    0.3056144408E+00    0.1776071650E+00    0.1081831434E-01    0.4829643799E-01    0.1161948702E+00
    0.3100000000E+03    0.3082154405E+00    0.1811496422E+00    0.1091962777E-01    0.5020585091E-01    0.1185491139E+00
    0.3300000000E+03    0.3104141320E+00    0.1844455867E+00    0.1100667097E-01    0.5205043676E-01    0.1207418404E+00
    0.3500000000E+03    0.3122721706E+00    0.1875252149E+00    0.1108159976E-01    0.5383662626E-01    0.1227927465E+00
    0.3700000000E+03    0.3138398219E+00    0.1904136634E+00    0.1114617337E-01    0.5556991895E-01    0.1247182261E+00
    0.3900000000E+03    0.3151584353E+00    0.1931320439E+00    0.1120184048E-01    0.5725505370E-01    0.1265320554E+00
    0.4100000000E+03    0.3162623026E+00    0.1956982433E+00    0.1124980381E-01    0.5889614221E-01    0.1282459117E+00
    0.4300000000E+03    0.3171800750E+00    0.1981275358E+00    0.1129106936E-01    0.6049677473E-01    0.1298697719E+00
    0.4500000000E+03    0.3179358533E+00    0.2004330594E+00    0.1132648438E-01    0.6206010448E-01    0.1314122214E+00
    0.4700000000E+03    0.3185500375E+00    0.2026261898E+00    0.1135676696E-01    0.6358891580E-01    0.1328806976E+00
    0.4900000000E+03    0.3190399946E+00    0.2047168364E+00    0.1138252918E-01    0.6508567955E-01    0.1342816825E+00
    0.1000000000E+03    0.2316508798E+00    0.1183742640E+00    0.8126982636E-02    0.2452380906E-01    0.7713581469E-01
    0.3000000000E+03    0.3069696114E+00    0.1794113429E+00    0.1087090797E-01    0.4925969175E-01    0.1173935650E+00
    0.5000000000E+03    0.3192431184E+00    0.2057264836E+00    0.1139388209E-01    0.6582274138E-01    0.1349586686E+00
    0.7000000000E+03    0.3194596308E+00    0.2221746818E+00    0.1147833833E-01    0.7930949384E-01    0.1460263990E+00
    0.9000000000E+03    0.3160033861E+00    0.2340183798E+00    0.1142160818E-01    0.9111671598E-01    0.1540451605E+00
    0.1100000000E+04    0.3112508470E+00    0.2432094244E+00    0.1130980611E-01    0.1018353466E+00    0.1602995067E+00
    0.1300000000E+04    0.3060605379E+00    0.2506803815E+00    0.1117503126E-01    0.1117747173E+00    0.1654053917E+00
    0.1500000000E+04    0.3007854656E+00    0.2569479833E+00    0.1103109933E-01    0.1211189252E+00    0.1697051761E+00
    0.1700000000E+04    0.2955803449E+00    0.2623280007E+00    0.1088449803E-01    0.1299873721E+00    0.1734086482E+00
    0.1900000000E+04    0.2905134631E+00    0.2670273193E+00    0.1073842866E-01    0.1384624190E+00    0.1766535951E+00
    0.2100000000E+04    0.2856127635E+00    0.2711887401E+00    0.1059449842E-01    0.1466035652E+00    0.1795353361E+00
    0.2300000000E+04    0.2808865731E+00    0.2749149050E+00    0.1045349750E-01    0.1544553697E+00    0.1821225253E+00
    0.2500000000E+04    0.2763335409E+00    0.2782820195E+00    0.1031578138E-01    0.1620521780E+00    0.1844662311E+00
    0.2700000000E+04    0.2719476256E+00    0.2813481806E+00    0.1018146909E-01    0.1694210954E+00    0.1866054555E+00
    0.2900000000E+04    0.2677206762E+00    0.2841586688E+00    0.1005055035E-01    0.1765839399E+00    0.1885706473E+00
    0.3100000000E+04    0.2636437889E+00    0.2867494416E+00    0.9922945171E-02    0.1835585705E+00    0.1903860238E+00
    0.3300000000E+04    0.2597080203E+00    0.2891495142E+00    0.9798537740E-02    0.1903598188E+00    0.1920711554E+00
    0.3500000000E+04    0.2559047519E+00    0.2913826276E+00    0.9677195929E-02    0.1970001587E+00    0.1936420781E+00
    0.3700000000E+04    0.2522258656E+00    0.2934684452E+00    0.9558782551E-02    0.2034902002E+00    0.1951120913E+00
    0.3900000000E+04    0.2486638130E+00    0.2954234293E+00    0.9443161784E-02    0.2098390578E+00    0.1964923435E+00
    0.4100000000E+04    0.2452116284E+00    0.2972614944E+00    0.9330202723E-02    0.2160546335E+00    0.1977922696E+00
    0.4300000000E+04    0.2418629100E+00    0.2989945029E+00    0.9219781229E-02    0.2221438343E+00    0.1990199226E+00
    0.4500000000E+04    0.2386117867E+00    0.3006326457E+00    0.9111780744E-02    0.2281127434E+00    0.2001822287E+00
    0.4700000000E+04    0.2354528778E+00    0.3021847397E+00    0.9006092500E-02    0.2339667567E+00    0.2012851867E+00
    0.4900000000E+04    0.2323812510E+00    0.3036584611E+00    0.8902615368E-02    0.2397106913E+00    0.2023340250E+00
    0.1000000000E+04    0.3137175375E+00    0.2388734449E+00    0.1136993952E-01    0.9658874100E-01    0.1573453486E+00
    0.3000000000E+04    0.2656640383E+00    0.2854795658E+00    0.9986340244E-02    0.1800937929E+00    0.1894957453E+00
    0.5000000000E+04    0.2308767394E+00    0.3043680658E+00    0.8851676371E-02    0.2425427484E+00    0.2028396040E+00
    0.7000000000E+04    0.2044481876E+00    0.3157119216E+00    0.7929588799E-02    0.2942644960E+00    0.2109749404E+00
    0.9000000000E+04    0.1833154652E+00    0.3235871710E+00    0.7155305771E-02    0.3381650690E+00    0.2166887872E+00
    0.1100000000E+05    0.1659401870E+00    0.3295014586E+00    0.6494408945E-02    0.3757537136E+00    0.2210214606E+00
    0.1300000000E+05    0.1514102081E+00    0.3341704029E+00    0.5925241293E-02    0.4080722967E+00    0.2244703985E+00
    0.1500000000E+05    0.1391162223E+00    0.3379863614E+00    0.5432210725E-02    0.4359409377E+00    0.2273100760E+00
    0.1700000000E+05    0.1286189506E+00    0.3411860201E+00    0.5003166789E-02    0.4600394318E+00    0.2297070114E+00
    0.1900000000E+05    0.1195864717E+00    0.3439222740E+00    0.4628249795E-02    0.4809405978E+00    0.2317693273E+00
    0.2100000000E+05    0.1117606454E+00    0.3462991278E+00    0.4299305215E-02    0.4991284607E+00    0.2335709178E+00
    0.2300000000E+05    0.1049370020E+00    0.3483902512E+00    0.4009530985E-02    0.5150113527E+00    0.2351643478E+00
    0.2500000000E+05    0.9895156519E-01    0.3502495564E+00    0.3753231109E-02    0.5289329397E+00    0.2365882355E+00
    0.2700000000E+05    0.9367162783E-01    0.3519175709E+00    0.3525625744E-02    0.5411819576E+00    0.2378717155E+00
    0.2900000000E+05    0.8898900063E-01    0.3534254550E+00    0.3322697236E-02    0.5520008069E+00    0.2390372623E+00
    0.3100000000E+05    0.8481492264E-01    0.3547976305E+00    0.3141062651E-02    0.5615930353E+00    0.2401025440E+00
    0.3300000000E+05    0.8107615146E-01    0.3560535568E+00    0.2977867631E-02    0.5701297501E+00    0.2410816786E+00
    0.3500000000E+05    0.7771192103E-01    0.3572089643E+00    0.2830698013E-02    0.5777550438E+00    0.2419861089E+00
    0.3700000000E+05    0.7467155329E-01    0.3582767308E+00    0.2697506406E-02    0.5845905394E+00    0.2428252259E+00
    0.3900000000E+05    0.7191256990E-01    0.3592675177E+00    0.2576551327E-02    0.5907391715E+00    0.2436068226E+00
    0.4100000000E+05    0.6939919082E-01    0.3601902403E+00    0.2466346836E-02    0.5962883185E+00    0.2443374304E+00
    0.4300000000E+05    0.6710113438E-01    0.3610524211E+00    0.2365620892E-02    0.6013123890E+00    0.2450225718E+00
    0.4500000000E+05    0.6499265360E-01    0.3618604590E+00    0.2273280917E-02    0.6058749558E+00    0.2456669545E+00
    0.4700000000E+05    0.6305175878E-01    0.3626198376E+00    0.2188385307E-02    0.6100305166E+00    0.2462746202E+00
    0.4900000000E+05    0.6125958744E-01    0.3633352875E+00    0.2110119830E-02    0.6138259475E+00    0.2468490627E+00
    0.1000000000E+05    0.1742246209E+00    0.3267340103E+00    0.6812227978E-02    0.3576764953E+00    0.2189893169E+00
    0.3000000000E+05    0.8684329506E-01    0.3541271904E+00    0.3229407874E-02    0.5569388624E+00    0.2395814825E+00
    0.5000000000E+05    0.6041410544E-01    0.3636778440E+00    0.2073248878E-02    0.6156014791E+00    0.2471247904E+00
    0.7000000000E+05    0.4836022349E-01    0.3689842799E+00    0.1554187658E-02    0.6395614338E+00    0.2514604561E+00
    0.9000000000E+05    0.4143827902E-01    0.3724821072E+00    0.1266426024E-02    0.6517263121E+00    0.2543991849E+00
    0.1100000000E+06    0.3688184672E-01    0.3750096641E+00    0.1084221213E-02    0.6588280484E+00    0.2565747909E+00
    0.1300000000E+06    0.3361002264E-01    0.3769449905E+00    0.9581788530E-03    0.6633858950E+00    0.2582771139E+00
    0.1500000000E+06    0.3111788520E-01    0.3784873183E+00    0.8653980488E-03    0.6665163004E+00    0.2596608129E+00
    0.1700000000E+06    0.2913802719E-01    0.3797530466E+00    0.7939179803E-03    0.6687780426E+00    0.2608172737E+00
    0.1900000000E+06    0.2751515657E-01    0.3808153829E+00    0.7369106549E-03    0.6704774325E+00    0.2618045755E+00
    0.2100000000E+06    0.2615253924E-01    0.3817229986E+00    0.6902013435E-03    0.6717946336E+00    0.2626617102E+00
    0.2300000000E+06    0.2498651702E-01    0.3825096890E+00    0.6510948451E-03    0.6728417183E+00    0.2634160010E+00
    0.2500000000E+06    0.2397331334E-01    0.3831997534E+00    0.6177726931E-03    0.6736916528E+00    0.2640872650E+00
    0.2700000000E+06    0.2308172139E-01    0.3838111732E+00    0.5889624667E-03    0.6743937720E+00    0.2646902879E+00
    0.2900000000E+06    0.2228881998E-01    0.3843575781E+00    0.5637462299E-03    0.6749825105E+00    0.2652363654E+00
    0.3100000000E+06    0.2157734425E-01    0.3848495128E+00    0.5414443795E-03    0.6754825646E+00    0.2657343030E+00
    0.3300000000E+06    0.2093400739E-01    0.3852952802E+00    0.5215424285E-03    0.6759120657E+00    0.2661910841E+00
    0.3500000000E+06    0.2034839282E-01    0.3857015189E+00    0.5036432873E-03    0.6762845998E+00    0.2666123316E+00
    0.3700000000E+06    0.1981220143E-01    0.3860736087E+00    0.4874352457E-03    0.6766105317E+00    0.2670026327E+00
    0.3900000000E+06    0.1931872682E-01    0.3864159613E+00    0.4726699361E-03    0.6768978948E+00    0.2673657740E+00
    0.4100000000E+06    0.1886248143E-01    0.3867322335E+00    0.4591468222E-03    0.6771530049E+00    0.2677049139E+00
    0.4300000000E+06    0.1843892467E-01    0.3870254848E+00    0.4467020581E-03    0.6773808906E+00    0.2680227112E+00
    0.4500000000E+06    0.1804426182E-01    0.3872982978E+00    0.4352003440E-03    0.6775856020E+00    0.2683214237E+00
    0.4700000000E+06    0.1767529287E-01    0.3875528689E+00    0.4245288738E-03    0.6777704349E+00    0.2686029826E+00
    0.4900000000E+06    0.1732929728E-01    0.3877910798E+00    0.4145927721E-03    0.6779380971E+00    0.2688690521E+00
    0.1000000000E+06    0.3895213792E-01    0.3738375325E+00    0.1166143810E-02    0.6557028518E+00    0.2555597375E+00
    0.3000000000E+06    0.2192381245E-01    0.3846097905E+00    0.5522663776E-03    0.6752423640E+00    0.2654908787E+00
    0.5000000000E+06    0.1716417309E-01    0.3879045661E+00    0.4098748638E-03    0.6780162058E+00    0.2689967368E+00
    0.7000000000E+06    0.1464464901E-01    0.3896128373E+00    0.3397634376E-03    0.6790624143E+00    0.2710043861E+00
    0.9000000000E+06    0.1301423750E-01    0.3906826592E+00    0.2961938487E-03    0.6796046337E+00    0.2723688608E+00
    0.1100000000E+07    0.1184535786E-01    0.3914235265E+00    0.2657824643E-03    0.6799348547E+00    0.2733838915E+00
    0.1300000000E+07    0.1095305194E-01    0.3919699473E+00    0.2430141131E-03    0.6801566674E+00    0.2741825831E+00
    0.1500000000E+07    0.1024222566E-01    0.3923907884E+00    0.2251473014E-03    0.6803158027E+00    0.2748356134E+00
    0.1700000000E+07    0.9658212584E-02    0.3927253258E+00    0.2106452131E-03    0.6804355001E+00    0.2753846359E+00
    0.1900000000E+07    0.9167013809E-02    0.3929977505E+00    0.1985707019E-03    0.6805287962E+00    0.2758560909E+00
    0.2100000000E+07    0.8746206243E-02    0.3932238494E+00    0.1883154928E-03    0.6806035609E+00    0.2762677234E+00
    0.2300000000E+07    0.8380312126E-02    0.3934144007E+00    0.1794652658E-03    0.6806648225E+00    0.2766319721E+00
    0.2500000000E+07    0.8058251393E-02    0.3935770349E+00    0.1717267578E-03    0.6807159428E+00    0.2769578651E+00
    0.2700000000E+07    0.7771852003E-02    0.3937173174E+00    0.1648857797E-03    0.6807592536E+00    0.2772521457E+00
    0.2900000000E+07    0.7514934828E-02    0.3938394099E+00    0.1587817606E-03    0.6807964230E+00    0.2775199720E+00
    0.3100000000E+07    0.7282728065E-02    0.3939464911E+00    0.1532916411E-03    0.6808286756E+00    0.2777653707E+00
    0.3300000000E+07    0.7071479381E-02    0.3940410335E+00    0.1483193113E-03    0.6808569304E+00    0.2779915407E+00
    0.3500000000E+07    0.6878191372E-02    0.3941249910E+00    0.1437884700E-03    0.6808818909E+00    0.2782010616E+00
    0.3700000000E+07    0.6700436470E-02    0.3941999292E+00    0.1396376680E-03    0.6809041046E+00    0.2783960419E+00
    0.3900000000E+07    0.6536224538E-02    0.3942671183E+00    0.1358167879E-03    0.6809240036E+00    0.2785782249E+00
    0.4100000000E+07    0.6383906265E-02    0.3943276001E+00    0.1322844922E-03    0.6809419342E+00    0.2787490675E+00
    0.4300000000E+07    0.6242101469E-02    0.3943822373E+00    0.1290063409E-03    0.6809581765E+00    0.2789097985E+00
    0.4500000000E+07    0.6109645025E-02    0.3944317511E+00    0.1259533792E-03    0.6809729599E+00    0.2790614630E+00
    0.4700000000E+07    0.5985545533E-02    0.3944767489E+00    0.1231010637E-03    0.6809864739E+00    0.2792049571E+00
    0.4900000000E+07    0.5868953301E-02    0.3945177461E+00    0.1204284349E-03    0.6809988766E+00    0.2793410540E+00
    0.1000000000E+07    0.1238672411E-01    0.3910835758E+00    0.2797837898E-03    0.6797876909E+00    0.2729096414E+00
    0.3000000000E+07    0.7395997488E-02    0.3938946584E+00    0.1559665052E-03    0.6808131005E+00    0.2776452583E+00
    0.5000000000E+07    0.5813239344E-02    0.3945368846E+00    0.1191537712E-03    0.6810047035E+00    0.2794065419E+00
    0.7000000000E+07    0.4958505318E-02    0.3947890255E+00    0.9980397440E-04    0.6810862260E+00    0.2804527787E+00
    0.9000000000E+07    0.4402248095E-02    0.3949025811E+00    0.8742916592E-04    0.6811316402E+00    0.2811842525E+00
    0.1100000000E+08    0.4002772270E-02    0.3949526064E+00    0.7865658302E-04    0.6811607107E+00    0.2817411086E+00
    0.1300000000E+08    0.3697735852E-02    0.3949692388E+00    0.7202664988E-04    0.6811809792E+00    0.2821879102E+00
    0.1500000000E+08    0.3454816461E-02    0.3949667927E+00    0.6679190736E-04    0.6811959548E+00    0.2825594432E+00
    0.1700000000E+08    0.3255348681E-02    0.3949528513E+00    0.6252495839E-04    0.6812074943E+00    0.2828764772E+00
    0.1900000000E+08    0.3087694324E-02    0.3949317517E+00    0.5896150239E-04    0.6812166737E+00    0.2831523530E+00
    0.2100000000E+08    0.2944166774E-02    0.3949061177E+00    0.5592821016E-04    0.6812241601E+00    0.2833961213E+00
    0.2300000000E+08    0.2819456235E-02    0.3948776060E+00    0.5330608990E-04    0.6812303899E+00    0.2836141900E+00
    0.2500000000E+08    0.2709760268E-02    0.3948472974E+00    0.5101039954E-04    0.6812356602E+00    0.2838112530E+00
    0.2700000000E+08    0.2612274170E-02    0.3948159148E+00    0.4897894385E-04    0.6812401810E+00    0.2839908467E+00
