  Pressure (Pa) 2mC6-400 (mol/kg) 3mC6-400 (mol/kg) 33mC5-400 (mol/kg) 23mC5-400 (mol/kg) C7-400 (mol/kg)
    0.1000000000E+01    0.5497684042E-02    0.2078830812E-02    0.6395661081E-04    0.1860265314E-03    0.1012064257E-01
    0.3000000000E+01    0.1577773340E-01    0.5945581848E-02    0.1836138720E-03    0.5517881048E-03    0.2895205661E-01
    0.5000000000E+01    0.2521138789E-01    0.9469239787E-02    0.2935053122E-03    0.9094688855E-03    0.4612039765E-01
    0.7000000000E+01    0.3390738987E-01    0.1269517508E-01    0.3948884720E-03    0.1259418683E-02    0.6184526991E-01
    0.9000000000E+01    0.4195596949E-01    0.1566102753E-01    0.4888063008E-03    0.1601966420E-02    0.7630888678E-01
    0.1100000000E+02    0.4943266577E-01    0.1839828992E-01    0.5761315224E-03    0.1937421695E-02    0.8966372704E-01
    0.1300000000E+02    0.5640123658E-01    0.2093351737E-01    0.6576004115E-03    0.2266076212E-02    0.1020383819E+00
    0.1500000000E+02    0.6291590127E-01    0.2328926167E-01    0.7338388143E-03    0.2588205078E-02    0.1135420726E+00
    0.1700000000E+02    0.6902308785E-01    0.2548480087E-01    0.8053824139E-03    0.2904067989E-02    0.1242681794E+00
    0.1900000000E+02    0.7476280794E-01    0.2753671482E-01    0.8726926731E-03    0.3213910321E-02    0.1342970244E+00
    0.2100000000E+02    0.8016974895E-01    0.2945934314E-01    0.9361694933E-03    0.3517964116E-02    0.1436980870E+00
    0.2300000000E+02    0.8527414908E-01    0.3126515290E-01    0.9961613529E-03    0.3816449002E-02    0.1525317821E+00
    0.2500000000E+02    0.9010250402E-01    0.3296503599E-01    0.1052973493E-02    0.4109573026E-02    0.1608508992E+00
    0.2700000000E+02    0.9467814202E-01    0.3456855152E-01    0.1106874575E-02    0.4397533422E-02    0.1687017750E+00
    0.2900000000E+02    0.9902169513E-01    0.3608412468E-01    0.1158102136E-02    0.4680517322E-02    0.1761252553E+00
    0.3100000000E+02    0.1031514879E+00    0.3751921094E-01    0.1206867084E-02    0.4958702410E-02    0.1831574898E+00
    0.3300000000E+02    0.1070838599E+00    0.3888043246E-01    0.1253357434E-02    0.5232257519E-02    0.1898305924E+00
    0.3500000000E+02    0.1108334354E+00    0.4017369205E-01    0.1297741414E-02    0.5501343192E-02    0.1961731927E+00
    0.3700000000E+02    0.1144133488E+00    0.4140426890E-01    0.1340170087E-02    0.5766112196E-02    0.2022108991E+00
    0.3900000000E+02    0.1178354360E+00    0.4257689932E-01    0.1380779546E-02    0.6026709994E-02    0.2079666899E+00
    0.4100000000E+02    0.1211103958E+00    0.4369584530E-01    0.1419692790E-02    0.6283275192E-02    0.2134612450E+00
    0.4300000000E+02    0.1242479279E+00    0.4476495280E-01    0.1457021310E-02    0.6535939943E-02    0.2187132285E+00
    0.4500000000E+02    0.1272568505E+00    0.4578770172E-01    0.1492866451E-02    0.6784830329E-02    0.2237395303E+00
    0.4700000000E+02    0.1301452019E+00    0.4676724877E-01    0.1527320581E-02    0.7030066715E-02    0.2285554739E+00
    0.4900000000E+02    0.1329203278E+00    0.4770646442E-01    0.1560468099E-02    0.7271764076E-02    0.2331749952E+00
    0.1000000000E+02    0.4576157112E-01    0.1705646915E-01    0.5332441095E-03    0.1770561980E-02    0.8311636566E-01
    0.3000000000E+02    0.1011122472E+00    0.3681129669E-01    0.1182780188E-02    0.4820198965E-02    0.1796881835E+00
    0.5000000000E+02    0.1342675561E+00    0.4816177468E-01    0.1576576291E-02    0.7391320153E-02    0.2354151116E+00
    0.7000000000E+02    0.1566368095E+00    0.5567723300E-01    0.1845869133E-02    0.9620943736E-02    0.2724632117E+00
    0.9000000000E+02    0.1727861160E+00    0.6109630753E-01    0.2043113221E-02    0.1159623009E-01    0.2992792132E+00
    0.1100000000E+03    0.1849667538E+00    0.6523192581E-01    0.2194179769E-02    0.1337560570E-01    0.3198181419E+00
    0.1300000000E+03    0.1944408658E+00    0.6851807960E-01    0.2313593780E-02    0.1499990792E-01    0.3361943570E+00
    0.1500000000E+03    0.2019799749E+00    0.7120906854E-01    0.2410253055E-02    0.1649867200E-01    0.3496484503E+00
    0.1700000000E+03    0.2080858824E+00    0.7346457078E-01    0.2489959848E-02    0.1789387525E-01    0.3609604347E+00
    0.1900000000E+03    0.2131005648E+00    0.7539035632E-01    0.2556679990E-02    0.1920226904E-01    0.3706476555E+00
    0.2100000000E+03    0.2172657409E+00    0.7705953420E-01    0.2613225563E-02    0.2043688718E-01    0.3790681591E+00
    0.2300000000E+03    0.2207573605E+00    0.7852442277E-01    0.2661650411E-02    0.2160805342E-01    0.3864784900E+00
    0.2500000000E+03    0.2237066402E+00    0.7982355756E-01    0.2703491617E-02    0.2272407343E-01    0.3930678383E+00
    0.2700000000E+03    0.2262134505E+00    0.8098602124E-01    0.2739923365E-02    0.2379172180E-01    0.3989791564E+00
    0.2900000000E+03    0.2283551379E+00    0.8203422375E-01    0.2771858472E-02    0.2481659211E-01    0.4043227269E+00
    0.3100000000E+03    0.2301925143E+00    0.8298574653E-01    0.2800017424E-02    0.2580335347E-01    0.4091851704E+00
    0.3300000000E+03    0.2317740258E+00    0.8385460104E-01    0.2824976510E-02    0.2675594171E-01    0.4136355969E+00
    0.3500000000E+03    0.2331387194E+00    0.8465210893E-01    0.2847202131E-02    0.2767770404E-01    0.4177299112E+00
    0.3700000000E+03    0.2343183947E+00    0.8538753113E-01    0.2867075733E-02    0.2857151008E-01    0.4215138926E+00
    0.3900000000E+03    0.2353391916E+00    0.8606852622E-01    0.2884912234E-02    0.2943983807E-01    0.4250254400E+00
    0.4100000000E+03    0.2362227783E+00    0.8670149013E-01    0.2900973846E-02    0.3028484268E-01    0.4282962374E+00
    0.4300000000E+03    0.2369872545E+00    0.8729181185E-01    0.2915480592E-02    0.3110840878E-01    0.4313530082E+00
    0.4500000000E+03    0.2376478438E+00    0.8784406860E-01    0.2928618405E-02    0.3191219466E-01    0.4342184737E+00
    0.4700000000E+03    0.2382174331E+00    0.8836217667E-01    0.2940545426E-02    0.3269766688E-01    0.4369120938E+00
    0.4900000000E+03    0.2387069953E+00    0.8884950941E-01    0.2951396969E-02    0.3346612881E-01    0.4394506468E+00
    0.1000000000E+03    0.1792783160E+00    0.6329171648E-01    0.2123335200E-02    0.1250753213E-01    0.3101734209E+00
    0.3000000000E+03    0.2293085868E+00    0.8252112251E-01    0.2786371026E-02    0.2531447512E-01    0.4068094174E+00
    0.5000000000E+03    0.2389247556E+00    0.8908256407E-01    0.2956456464E-02    0.3384434942E-01    0.4406663981E+00
    0.7000000000E+03    0.2407711344E+00    0.9266855133E-01    0.3022368598E-02    0.4074230651E-01    0.4595367071E+00
    0.9000000000E+03    0.2401569789E+00    0.9500564038E-01    0.3050932307E-02    0.4674851496E-01    0.4720391106E+00
    0.1100000000E+04    0.2386009419E+00    0.9667980086E-01    0.3062549816E-02    0.5217886790E-01    0.4811261692E+00
    0.1300000000E+04    0.2366613369E+00    0.9795257210E-01    0.3065340179E-02    0.5719965251E-01    0.4881262587E+00
    0.1500000000E+04    0.2345746428E+00    0.9896072008E-01    0.3063094806E-02    0.6191029104E-01    0.4937389666E+00
    0.1700000000E+04    0.2324497794E+00    0.9978365130E-01    0.3057787063E-02    0.6637554593E-01    0.4983731084E+00
    0.1900000000E+04    0.2303391625E+00    0.1004710463E+00    0.3050528226E-02    0.7064028069E-01    0.5022859941E+00
    0.2100000000E+04    0.2282681792E+00    0.1010557855E+00    0.3041982695E-02    0.7473704636E-01    0.5056488771E+00
    0.2300000000E+04    0.2262485835E+00    0.1015606074E+00    0.3032566797E-02    0.7869032696E-01    0.5085808160E+00
    0.2500000000E+04    0.2242850142E+00    0.1020018022E+00    0.3022551451E-02    0.8251907688E-01    0.5111675354E+00
    0.2700000000E+04    0.2223783346E+00    0.1023913840E+00    0.3012118487E-02    0.8623831909E-01    0.5134725618E+00
    0.2900000000E+04    0.2205274118E+00    0.1027384316E+00    0.3001393113E-02    0.8986019591E-01    0.5155441211E+00
    0.3100000000E+04    0.2187300918E+00    0.1030499485E+00    0.2990463418E-02    0.9339468482E-01    0.5174195807E+00
    0.3300000000E+04    0.2169837433E+00    0.1033314342E+00    0.2979392513E-02    0.9685010106E-01    0.5191284096E+00
    0.3500000000E+04    0.2152855635E+00    0.1035872747E+00    0.2968226309E-02    0.1002334597E+00    0.5206942065E+00
    0.3700000000E+04    0.2136327493E+00    0.1038210157E+00    0.2956998649E-02    0.1035507422E+00    0.5221361254E+00
    0.3900000000E+04    0.2120225905E+00    0.1040355581E+00    0.2945734749E-02    0.1068070969E+00    0.5234698988E+00
    0.4100000000E+04    0.2104525179E+00    0.1042333011E+00    0.2934453575E-02    0.1100069919E+00    0.5247085870E+00
    0.4300000000E+04    0.2089201247E+00    0.1044162478E+00    0.2923169500E-02    0.1131543340E+00    0.5258631355E+00
    0.4500000000E+04    0.2074231732E+00    0.1045860855E+00    0.2911893482E-02    0.1162525619E+00    0.5269427967E+00
    0.4700000000E+04    0.2059595920E+00    0.1047442465E+00    0.2900633912E-02    0.1193047203E+00    0.5279554531E+00
    0.4900000000E+04    0.2045274684E+00    0.1048919557E+00    0.2889397240E-02    0.1223135205E+00    0.5289078677E+00
    0.1000000000E+04    0.2394503995E+00    0.9590503422E-01    0.3058201359E-02    0.4952313133E-01    0.4769053837E+00
    0.3000000000E+04    0.2196222092E+00    0.1028982577E+00    0.2995949383E-02    0.9163780998E-01    0.5165043638E+00
    0.5000000000E+04    0.2038226466E+00    0.1049622261E+00    0.2883789090E-02    0.1238024292E+00    0.5293633410E+00
    0.7000000000E+04    0.1910178977E+00    0.1060115495E+00    0.2773559364E-02    0.1517794763E+00    0.5363840583E+00
    0.9000000000E+04    0.1800231577E+00    0.1066595793E+00    0.2667494288E-02    0.1771312527E+00    0.5409944690E+00
    0.1100000000E+05    0.1702647962E+00    0.1071034543E+00    0.2565542750E-02    0.2005459721E+00    0.5443323347E+00
    0.1300000000E+05    0.1614304451E+00    0.1074278641E+00    0.2467501177E-02    0.2223960165E+00    0.5468998954E+00
    0.1500000000E+05    0.1533317369E+00    0.1076757652E+00    0.2373209862E-02    0.2429097212E+00    0.5489581919E+00
    0.1700000000E+05    0.1458456694E+00    0.1078714641E+00    0.2282553289E-02    0.2622404055E+00    0.5506583139E+00
    0.1900000000E+05    0.1388865972E+00    0.1080298304E+00    0.2195442008E-02    0.2804988320E+00    0.5520946927E+00
    0.2100000000E+05    0.1323916010E+00    0.1081605095E+00    0.2111798484E-02    0.2977701239E+00    0.5533298610E+00
    0.2300000000E+05    0.1263122976E+00    0.1082700516E+00    0.2031548223E-02    0.3141232274E+00    0.5544071435E+00
    0.2500000000E+05    0.1206100000E+00    0.1083630712E+00    0.1954614755E-02    0.3296164725E+00    0.5553576697E+00
    0.2700000000E+05    0.1152527341E+00    0.1084429192E+00    0.1880917129E-02    0.3443009550E+00    0.5562044871E+00
    0.2900000000E+05    0.1102133355E+00    0.1085120908E+00    0.1810368991E-02    0.3582226436E+00    0.5569650933E+00
    0.3100000000E+05    0.1054682004E+00    0.1085724848E+00    0.1742878612E-02    0.3714237126E+00    0.5576530592E+00
    0.3300000000E+05    0.1009964456E+00    0.1086255729E+00    0.1678349477E-02    0.3839433941E+00    0.5582791051E+00
    0.3500000000E+05    0.9677933239E-01    0.1086725141E+00    0.1616681160E-02    0.3958185253E+00    0.5588518358E+00
    0.3700000000E+05    0.9279986132E-01    0.1087142343E+00    0.1557770332E-02    0.4070839042E+00    0.5593782551E+00
    0.3900000000E+05    0.8904248284E-01    0.1087514824E+00    0.1501511784E-02    0.4177725203E+00    0.5598641344E+00
    0.4100000000E+05    0.8549288517E-01    0.1087848708E+00    0.1447799406E-02    0.4279157089E+00    0.5603142816E+00
    0.4300000000E+05    0.8213783545E-01    0.1088149056E+00    0.1396527084E-02    0.4375432563E+00    0.5607327412E+00
    0.4500000000E+05    0.7896505758E-01    0.1088420083E+00    0.1347589490E-02    0.4466834760E+00    0.5611229454E+00
    0.4700000000E+05    0.7596313578E-01    0.1088665335E+00    0.1300882763E-02    0.4553632677E+00    0.5614878297E+00
    0.4900000000E+05    0.7312143636E-01    0.1088887811E+00    0.1256305076E-02    0.4636081673E+00    0.5618299224E+00
    0.1000000000E+05    0.1750128918E+00    0.1069003208E+00    0.2616017665E-02    0.1890528634E+00    0.5427829199E+00
    0.3000000000E+05    0.1078053462E+00    0.1085432846E+00    0.1776247511E-02    0.3649107422E+00    0.5573174294E+00
    0.5000000000E+05    0.7175754459E-01    0.1088991322E+00    0.1234783477E-02    0.4675751508E+00    0.5619931185E+00
    0.7000000000E+05    0.5081344577E-01    0.1090325085E+00    0.8937067834E-03    0.5293001979E+00    0.5644661729E+00
    0.9000000000E+05    0.3797582969E-01    0.1090887575E+00    0.6741039939E-03    0.5679246856E+00    0.5660332447E+00
    0.1100000000E+06    0.2967393542E-01    0.1091103949E+00    0.5272331692E-03    0.5932627799E+00    0.5671332194E+00
    0.1300000000E+06    0.2403683372E-01    0.1091142235E+00    0.4250552931E-03    0.6106490871E+00    0.5679588576E+00
    0.1500000000E+06    0.2004421561E-01    0.1091081108E+00    0.3513720636E-03    0.6230602353E+00    0.5686084760E+00
    0.1700000000E+06    0.1711319282E-01    0.1090961680E+00    0.2965487053E-03    0.6322247404E+00    0.5691376240E+00
    0.1900000000E+06    0.1489523917E-01    0.1090807141E+00    0.2546464452E-03    0.6391892426E+00    0.5695801660E+00
    0.2100000000E+06    0.1317306735E-01    0.1090631321E+00    0.2218727630E-03    0.6446129598E+00    0.5699580016E+00
    0.2300000000E+06    0.1180606630E-01    0.1090442817E+00    0.1957249116E-03    0.6489261398E+00    0.5702859762E+00
    0.2500000000E+06    0.1070019992E-01    0.1090247142E+00    0.1745016134E-03    0.6524186195E+00    0.5705745472E+00
    0.2700000000E+06    0.9790730582E-02    0.1090047915E+00    0.1570153822E-03    0.6552911932E+00    0.5708313190E+00
    0.2900000000E+06    0.9031936232E-02    0.1089847552E+00    0.1424175849E-03    0.6576864576E+00    0.5710619720E+00
    0.3100000000E+06    0.8390785416E-02    0.1089647678E+00    0.1300888712E-03    0.6597079299E+00    0.5712708463E+00
    0.3300000000E+06    0.7842929547E-02    0.1089449395E+00    0.1195686598E-03    0.6614322427E+00    0.5714613243E+00
    0.3500000000E+06    0.7370094745E-02    0.1089253444E+00    0.1105086238E-03    0.6629171270E+00    0.5716360866E+00
    0.3700000000E+06    0.6958343097E-02    0.1089060319E+00    0.1026413102E-03    0.6642067633E+00    0.5717972900E+00
    0.3900000000E+06    0.6596888026E-02    0.1088870340E+00    0.9575853185E-04    0.6653354436E+00    0.5719466925E+00
    0.4100000000E+06    0.6277271084E-02    0.1088683703E+00    0.8969621038E-04    0.6663301289E+00    0.5720857439E+00
    0.4300000000E+06    0.5992779554E-02    0.1088500519E+00    0.8432356021E-04    0.6672122643E+00    0.5722156524E+00
    0.4500000000E+06    0.5738027627E-02    0.1088320835E+00    0.7953525098E-04    0.6679990905E+00    0.5723374345E+00
    0.4700000000E+06    0.5508650648E-02    0.1088144655E+00    0.7524564596E-04    0.6687046031E+00    0.5724519524E+00
    0.4900000000E+06    0.5301078838E-02    0.1087971950E+00    0.7138451085E-04    0.6693402661E+00    0.5725599432E+00
    0.1000000000E+06    0.3340183805E-01    0.1091025413E+00    0.5936916429E-03    0.5818473355E+00    0.5666263761E+00
    0.3000000000E+06    0.8698344865E-02    0.1089747475E+00    0.1360014642E-03    0.6587386075E+00    0.5711689011E+00
    0.5000000000E+06    0.5204529032E-02    0.1087886885E+00    0.6959607005E-04    0.6696349287E+00    0.5726116928E+00
    0.7000000000E+06    0.3916663301E-02    0.1086350074E+00    0.4640382135E-04    0.6734762579E+00    0.5734202482E+00
    0.9000000000E+06    0.3244457728E-02    0.1085068943E+00    0.3508451393E-04    0.6753738082E+00    0.5739661584E+00
    0.1100000000E+07    0.2825686322E-02    0.1083974600E+00    0.2848519573E-04    0.6764918746E+00    0.5743716231E+00
    0.1300000000E+07    0.2535815408E-02    0.1083020158E+00    0.2418922235E-04    0.6772258681E+00    0.5746908525E+00
    0.1500000000E+07    0.2320839396E-02    0.1082173858E+00    0.2117528451E-04    0.6777441235E+00    0.5749522810E+00
    0.1700000000E+07    0.2153532209E-02    0.1081413504E+00    0.1894354394E-04    0.6781296706E+00    0.5751725381E+00
    0.1900000000E+07    0.2018636738E-02    0.1080723061E+00    0.1722250338E-04    0.6784279527E+00    0.5753621266E+00
    0.2100000000E+07    0.1906906267E-02    0.1080090591E+00    0.1585272165E-04    0.6786658480E+00    0.5755280719E+00
    0.2300000000E+07    0.1812388488E-02    0.1079506976E+00    0.1473470292E-04    0.6788602391E+00    0.5756752874E+00
    0.2500000000E+07    0.1731064356E-02    0.1078965100E+00    0.1380326678E-04    0.6790222512E+00    0.5758073342E+00
    0.2700000000E+07    0.1660113089E-02    0.1078459301E+00    0.1301397987E-04    0.6791595087E+00    0.5759268695E+00
    0.2900000000E+07    0.1597490602E-02    0.1077985002E+00    0.1233553048E-04    0.6792774096E+00    0.5760359252E+00
    0.3100000000E+07    0.1541675387E-02    0.1077538449E+00    0.1174522555E-04    0.6793798823E+00    0.5761360869E+00
    0.3300000000E+07    0.1491508800E-02    0.1077116527E+00    0.1122621793E-04    0.6794698541E+00    0.5762286144E+00
    0.3500000000E+07    0.1446091053E-02    0.1076716618E+00    0.1076573715E-04    0.6795495507E+00    0.5763145240E+00
    0.3700000000E+07    0.1404711388E-02    0.1076336506E+00    0.1035392499E-04    0.6796206951E+00    0.5763946464E+00
    0.3900000000E+07    0.1366799923E-02    0.1075974292E+00    0.9983048178E-05    0.6796846423E+00    0.5764696691E+00
    0.4100000000E+07    0.1331893677E-02    0.1075628343E+00    0.9646953287E-05    0.6797424724E+00    0.5765401667E+00
    0.4300000000E+07    0.1299612081E-02    0.1075297239E+00    0.9340681220E-05    0.6797950575E+00    0.5766066242E+00
    0.4500000000E+07    0.1269639017E-02    0.1074979740E+00    0.9060189408E-05    0.6798431095E+00    0.5766694547E+00
    0.4700000000E+07    0.1241709419E-02    0.1074674756E+00    0.8802148185E-05    0.6798872154E+00    0.5767290121E+00
    0.4900000000E+07    0.1215599120E-02    0.1074381324E+00    0.8563789228E-05    0.6799278639E+00    0.5767856025E+00
    0.1000000000E+07    0.3013732916E-02    0.1084501792E+00    0.3139669364E-04    0.6759973089E+00    0.5741821872E+00
    0.3000000000E+07    0.1568811580E-02    0.1077758465E+00    0.1203052550E-04    0.6793303722E+00    0.5760870325E+00
    0.5000000000E+07    0.1203165386E-02    0.1074238669E+00    0.8451250250E-05    0.6799470223E+00    0.5768128696E+00
    0.7000000000E+07    0.1015586472E-02    0.1071826944E+00    0.6826632159E-05    0.6802206192E+00    0.5772519466E+00
    0.9000000000E+07    0.8962801998E-03    0.1069986064E+00    0.5860671904E-05    0.6803798442E+00    0.5775631799E+00
    0.1100000000E+08    0.8117159663E-03    0.1068495164E+00    0.5205117470E-05    0.6804859820E+00    0.5778027234E+00
    0.1300000000E+08    0.7476928306E-03    0.1067241361E+00    0.4723838070E-05    0.6805627606E+00    0.5779966677E+00
    0.1500000000E+08    0.6970152084E-03    0.1066159030E+00    0.4351609176E-05    0.6806214209E+00    0.5781591771E+00
    0.1700000000E+08    0.6555913984E-03    0.1065206588E+00    0.4052853929E-05    0.6806680245E+00    0.5782987665E+00
    0.1900000000E+08    0.6208983164E-03    0.1064355997E+00    0.3806333504E-05    0.6807061511E+00    0.5784209387E+00
    0.2100000000E+08    0.5912834773E-03    0.1063587446E+00    0.3598495000E-05    0.6807380617E+00    0.5785294477E+00
    0.2300000000E+08    0.5656128559E-03    0.1062886409E+00    0.3420235109E-05    0.6807652606E+00    0.5786269650E+00
    0.2500000000E+08    0.5430786563E-03    0.1062241919E+00    0.3265185298E-05    0.6807887913E+00    0.5787154566E+00
    0.2700000000E+08    0.5230876495E-03    0.1061645487E+00    0.3128740291E-05    0.6808094023E+00    0.5787964101E+00
