  Pressure (Pa) 2mC6-400 (mol/kg) 3mC6-400 (mol/kg) 33mC5-400 (mol/kg) 23mC5-400 (mol/kg) C7-400 (mol/kg)
    0.1000000000E+01    0.5527827321E-02    0.5234080778E-03    0.1929064402E-03    0.4648180015E-03    0.6794897406E-02
    0.3000000000E+01    0.1602479128E-01    0.1517013857E-02    0.5593306651E-03    0.1377303161E-02    0.1969695071E-01
    0.5000000000E+01    0.2583874554E-01    0.2445793760E-02    0.9020542908E-03    0.2267832101E-02    0.3176102576E-01
    0.7000000000E+01    0.3503538355E-01    0.3316225519E-02    0.1223359228E-02    0.3137435899E-02    0.4307074157E-01
    0.9000000000E+01    0.4367200869E-01    0.4133941353E-02    0.1525235534E-02    0.3987079148E-02    0.5369881049E-01
    0.1100000000E+02    0.5179885357E-01    0.4903862093E-02    0.1809427355E-02    0.4817665331E-02    0.6370876756E-01
    0.1300000000E+02    0.5946015598E-01    0.5630306516E-02    0.2077470393E-02    0.5630041659E-02    0.7315638032E-01
    0.1500000000E+02    0.6669504239E-01    0.6317081090E-02    0.2330722663E-02    0.6425003471E-02    0.8209080615E-01
    0.1700000000E+02    0.7353825839E-01    0.6967554100E-02    0.2570389916E-02    0.7203298212E-02    0.9055554818E-01
    0.1900000000E+02    0.8002077597E-01    0.7584717242E-02    0.2797546775E-02    0.7965629050E-02    0.9858924970E-01
    0.2100000000E+02    0.8617030162E-01    0.8171237090E-02    0.3013154406E-02    0.8712658171E-02    0.1062263580E+00
    0.2300000000E+02    0.9201170358E-01    0.8729498333E-02    0.3218075388E-02    0.9445009774E-02    0.1134976822E+00
    0.2500000000E+02    0.9756737294E-01    0.9261640272E-02    0.3413086271E-02    0.1016327281E-01    0.1204308638E+00
    0.2700000000E+02    0.1028575304E+00    0.9769587780E-02    0.3598888238E-02    0.1086800350E-01    0.1270507762E+00
    0.2900000000E+02    0.1079004881E+00    0.1025507767E-01    0.3776116210E-02    0.1155972757E-01    0.1333798652E+00
    0.3100000000E+02    0.1127128737E+00    0.1071968127E-01    0.3945346642E-02    0.1223894244E-01    0.1394384396E+00
    0.3300000000E+02    0.1173098235E+00    0.1116482380E-01    0.4107104229E-02    0.1290611906E-01    0.1452449220E+00
    0.3500000000E+02    0.1217051493E+00    0.1159180108E-01    0.4261867699E-02    0.1356170373E-01    0.1508160639E+00
    0.3700000000E+02    0.1259114827E+00    0.1200179401E-01    0.4410074838E-02    0.1420611972E-01    0.1561671326E+00
    0.3900000000E+02    0.1299404011E+00    0.1239588112E-01    0.4552126856E-02    0.1483976876E-01    0.1613120734E+00
    0.4100000000E+02    0.1338025372E+00    0.1277504950E-01    0.4688392205E-02    0.1546303241E-01    0.1662636506E+00
    0.4300000000E+02    0.1375076758E+00    0.1314020439E-01    0.4819209918E-02    0.1607627337E-01    0.1710335712E+00
    0.4500000000E+02    0.1410648376E+00    0.1349217756E-01    0.4944892541E-02    0.1667983664E-01    0.1756325928E+00
    0.4700000000E+02    0.1444823541E+00    0.1383173465E-01    0.5065728720E-02    0.1727405060E-01    0.1800706191E+00
    0.4900000000E+02    0.1477679332E+00    0.1415958169E-01    0.5181985486E-02    0.1785922804E-01    0.1843567835E+00
    0.1000000000E+02    0.4779625949E-01    0.4524593212E-02    0.1669441528E-02    0.4404700157E-02    0.5877740014E-01
    0.3000000000E+02    0.1103345235E+00    0.1048989796E-01    0.3861697184E-02    0.1190086863E-01    0.1364417738E+00
    0.5000000000E+02    0.1493634989E+00    0.1431931972E-01    0.5238474628E-02    0.1814852177E-01    0.1864455795E+00
    0.7000000000E+02    0.1758321018E+00    0.1703392811E-01    0.6179242907E-02    0.2352552077E-01    0.2219908121E+00
    0.9000000000E+02    0.1947583513E+00    0.1908638078E-01    0.6857821194E-02    0.2826549195E-01    0.2489360597E+00
    0.1100000000E+03    0.2087936502E+00    0.2070971989E-01    0.7366051386E-02    0.3252159050E-01    0.2703004165E+00
    0.1300000000E+03    0.2194792660E+00    0.2203693232E-01    0.7757342495E-02    0.3639896237E-01    0.2878083534E+00
    0.1500000000E+03    0.2277748716E+00    0.2314985935E-01    0.8064972777E-02    0.3997254207E-01    0.3025220869E+00
    0.1700000000E+03    0.2343098916E+00    0.2410186623E-01    0.8310788869E-02    0.4329740772E-01    0.3151348562E+00
    0.1900000000E+03    0.2395143411E+00    0.2492938002E-01    0.8509732946E-02    0.4641510626E-01    0.3261202748E+00
    0.2100000000E+03    0.2436918402E+00    0.2565820650E-01    0.8672368949E-02    0.4935767781E-01    0.3358141458E+00
    0.2300000000E+03    0.2470626782E+00    0.2630719754E-01    0.8806372624E-02    0.5215030594E-01    0.3444619870E+00
    0.2500000000E+03    0.2497903816E+00    0.2689048559E-01    0.8917451017E-02    0.5481311589E-01    0.3522480023E+00
    0.2700000000E+03    0.2519987329E+00    0.2741890113E-01    0.9009931642E-02    0.5736242638E-01    0.3593134704E+00
    0.2900000000E+03    0.2537830231E+00    0.2790090339E-01    0.9087152189E-02    0.5981164121E-01    0.3657688244E+00
    0.3100000000E+03    0.2552176976E+00    0.2834320977E-01    0.9151725438E-02    0.6217189702E-01    0.3717018258E+00
    0.3300000000E+03    0.2563616750E+00    0.2875123257E-01    0.9205723655E-02    0.6445254248E-01    0.3771832389E+00
    0.3500000000E+03    0.2572621249E+00    0.2912938907E-01    0.9250809647E-02    0.6666149845E-01    0.3822708612E+00
    0.3700000000E+03    0.2579572014E+00    0.2948132600E-01    0.9288331631E-02    0.6880553260E-01    0.3870124427E+00
    0.3900000000E+03    0.2584780521E+00    0.2981008508E-01    0.9319393043E-02    0.7089047170E-01    0.3914478401E+00
    0.4100000000E+03    0.2588503183E+00    0.3011822696E-01    0.9344904675E-02    0.7292136750E-01    0.3956106304E+00
    0.4300000000E+03    0.2590952687E+00    0.3040792553E-01    0.9365624124E-02    0.7490262790E-01    0.3995293384E+00
    0.4500000000E+03    0.2592306675E+00    0.3068104042E-01    0.9382186017E-02    0.7683812171E-01    0.4032283822E+00
    0.4700000000E+03    0.2592714454E+00    0.3093917357E-01    0.9395125413E-02    0.7873126302E-01    0.4067288103E+00
    0.4900000000E+03    0.2592302247E+00    0.3118371378E-01    0.9404896111E-02    0.8058507985E-01    0.4100488831E+00
    0.1000000000E+03    0.2022731720E+00    0.1994179272E-01    0.7129273245E-02    0.3044658522E-01    0.2601875508E+00
    0.3000000000E+03    0.2545400664E+00    0.2812665384E-01    0.9120879287E-02    0.6100226750E-01    0.3687958517E+00
    0.5000000000E+03    0.2591822818E+00    0.3130127114E-01    0.9408716412E-02    0.8149809630E-01    0.4116463457E+00
    0.7000000000E+03    0.2558250428E+00    0.3316519583E-01    0.9388022641E-02    0.9821762454E-01    0.4371092676E+00
    0.9000000000E+03    0.2504104105E+00    0.3444461073E-01    0.9275575123E-02    0.1128691584E+00    0.4547562732E+00
    0.1100000000E+04    0.2444885948E+00    0.3539920871E-01    0.9131071062E-02    0.1261725409E+00    0.4680313974E+00
    0.1300000000E+04    0.2385644185E+00    0.3614963802E-01    0.8975655269E-02    0.1385034564E+00    0.4785429387E+00
    0.1500000000E+04    0.2328161219E+00    0.3676113465E-01    0.8817909605E-02    0.1500849169E+00    0.4871644505E+00
    0.1700000000E+04    0.2273033101E+00    0.3727268637E-01    0.8661575319E-02    0.1610612321E+00    0.4944201157E+00
    0.1900000000E+04    0.2220388006E+00    0.3770931639E-01    0.8508315303E-02    0.1715317473E+00    0.5006476043E+00
    0.2100000000E+04    0.2170164669E+00    0.3808796808E-01    0.8358834218E-02    0.1815681209E+00    0.5060763305E+00
    0.2300000000E+04    0.2122228583E+00    0.3842060264E-01    0.8213375152E-02    0.1912239654E+00    0.5108687609E+00
    0.2500000000E+04    0.2076422576E+00    0.3871595139E-01    0.8071954616E-02    0.2005405937E+00    0.5151438427E+00
    0.2700000000E+04    0.2032589036E+00    0.3898056545E-01    0.7934479039E-02    0.2095506306E+00    0.5189910713E+00
    0.2900000000E+04    0.1990579315E+00    0.3921947423E-01    0.7800804358E-02    0.2182803800E+00    0.5224793369E+00
    0.3100000000E+04    0.1950257191E+00    0.3943661491E-01    0.7670767019E-02    0.2267514336E+00    0.5256627050E+00
    0.3300000000E+04    0.1911499575E+00    0.3963512170E-01    0.7544200111E-02    0.2349817967E+00    0.5285843192E+00
    0.3500000000E+04    0.1874195967E+00    0.3981752623E-01    0.7420941563E-02    0.2429866958E+00    0.5312791093E+00
    0.3700000000E+04    0.1838247405E+00    0.3998589968E-01    0.7300838058E-02    0.2507791718E+00    0.5337757164E+00
    0.3900000000E+04    0.1803565250E+00    0.4014195580E-01    0.7183746597E-02    0.2583705227E+00    0.5360978907E+00
    0.4100000000E+04    0.1770069994E+00    0.4028712699E-01    0.7069534821E-02    0.2657706403E+00    0.5382655242E+00
    0.4300000000E+04    0.1737690143E+00    0.4042262133E-01    0.6958080655E-02    0.2729882699E+00    0.5402954287E+00
    0.4500000000E+04    0.1706361222E+00    0.4054946608E-01    0.6849271637E-02    0.2800312127E+00    0.5422019275E+00
    0.4700000000E+04    0.1676024901E+00    0.4066854121E-01    0.6743004118E-02    0.2869064861E+00    0.5439973144E+00
    0.4900000000E+04    0.1646628229E+00    0.4078060564E-01    0.6639182417E-02    0.2936204507E+00    0.5456922118E+00
    0.1000000000E+04    0.2474694807E+00    0.3495312455E-01    0.9205559463E-02    0.1196609701E+00    0.4618153497E+00
    0.3000000000E+04    0.1970215302E+00    0.3933055356E-01    0.7735341497E-02    0.2225470451E+00    0.5241062170E+00
    0.5000000000E+04    0.1632267020E+00    0.4083421809E-01    0.6588160829E-02    0.2969187761E+00    0.5465049105E+00
    0.7000000000E+04    0.1384613252E+00    0.4166046765E-01    0.5677667675E-02    0.3556140616E+00    0.5592006055E+00
    0.9000000000E+04    0.1194405613E+00    0.4219958090E-01    0.4939873582E-02    0.4028368539E+00    0.5676932120E+00
    0.1100000000E+05    0.1044658246E+00    0.4258545930E-01    0.4336040060E-02    0.4411491191E+00    0.5739026261E+00
    0.1300000000E+05    0.9247755676E-01    0.4287828978E-01    0.3838264633E-02    0.4724388087E+00    0.5787044779E+00
    0.1500000000E+05    0.8274957448E-01    0.4310968578E-01    0.3425074623E-02    0.4981682243E+00    0.5825646387E+00
    0.1700000000E+05    0.7476057845E-01    0.4329805455E-01    0.3079638663E-02    0.5194802016E+00    0.5857574905E+00
    0.1900000000E+05    0.6812687167E-01    0.4345493390E-01    0.2788715831E-02    0.5372676310E+00    0.5884567901E+00
    0.2100000000E+05    0.6256148619E-01    0.4358796903E-01    0.2541882371E-02    0.5522276920E+00    0.5907787383E+00
    0.2300000000E+05    0.5784715373E-01    0.4370245091E-01    0.2330920843E-02    0.5649053896E+00    0.5928044263E+00
    0.2500000000E+05    0.5381761167E-01    0.4380217160E-01    0.2149334729E-02    0.5757280745E+00    0.5945924161E+00
    0.2700000000E+05    0.5034435667E-01    0.4388992828E-01    0.1991966662E-02    0.5850323665E+00    0.5961862082E+00
    0.2900000000E+05    0.4732711782E-01    0.4396783464E-01    0.1854701301E-02    0.5930848966E+00    0.5976188884E+00
    0.3100000000E+05    0.4468693047E-01    0.4403752101E-01    0.1734235740E-02    0.6000981733E+00    0.5989161324E+00
    0.3300000000E+05    0.4236105424E-01    0.4410026731E-01    0.1627902719E-02    0.6062426829E+00    0.6000982136E+00
    0.3500000000E+05    0.4029921190E-01    0.4415709391E-01    0.1533534580E-02    0.6116561185E+00    0.6011813837E+00
    0.3700000000E+05    0.3846078247E-01    0.4420882536E-01    0.1449358419E-02    0.6164504348E+00    0.6021788448E+00
    0.3900000000E+05    0.3681268906E-01    0.4425613594E-01    0.1373915017E-02    0.6207172610E+00    0.6031014484E+00
    0.4100000000E+05    0.3532779644E-01    0.4429958302E-01    0.1305995908E-02    0.6245320747E+00    0.6039582088E+00
    0.4300000000E+05    0.3398368547E-01    0.4433963173E-01    0.1244594279E-02    0.6279574360E+00    0.6047566843E+00
    0.4500000000E+05    0.3276170852E-01    0.4437667357E-01    0.1188866462E-02    0.6310455094E+00    0.6055032676E+00
    0.4700000000E+05    0.3164625576E-01    0.4441104072E-01    0.1138101562E-02    0.6338400413E+00    0.6062034070E+00
    0.4900000000E+05    0.3062418096E-01    0.4444301700E-01    0.1091697369E-02    0.6363779201E+00    0.6068617790E+00
    0.1000000000E+05    0.1115236956E+00    0.4240695168E-01    0.4623136821E-02    0.4229771105E+00    0.5710148651E+00
    0.3000000000E+05    0.4596414474E-01    0.4400361834E-01    0.1792548380E-02    0.5967099216E+00    0.5982830648E+00
    0.5000000000E+05    0.3014461241E-01    0.4445818621E-01    0.1069967254E-02    0.6375605771E+00    0.6071765866E+00
    0.7000000000E+05    0.2348376974E-01    0.4468060007E-01    0.7728389555E-03    0.6532748174E+00    0.6120232826E+00
    0.9000000000E+05    0.1980186861E-01    0.4481258155E-01    0.6151585949E-03    0.6611357009E+00    0.6151961473E+00
    0.1100000000E+06    0.1743332858E-01    0.4489928161E-01    0.5180039042E-03    0.6657247079E+00    0.6174850637E+00
    0.1300000000E+06    0.1575951846E-01    0.4495991408E-01    0.4520938535E-03    0.6686864356E+00    0.6192394024E+00
    0.1500000000E+06    0.1449989404E-01    0.4500412935E-01    0.4043056884E-03    0.6707365704E+00    0.6206409990E+00
    0.1700000000E+06    0.1350878850E-01    0.4503733325E-01    0.3679408089E-03    0.6722306262E+00    0.6217951816E+00
    0.1900000000E+06    0.1270282516E-01    0.4506279887E-01    0.3392393726E-03    0.6733630867E+00    0.6227677923E+00
    0.2100000000E+06    0.1203065251E-01    0.4508262734E-01    0.3159329661E-03    0.6742484484E+00    0.6236024137E+00
    0.2300000000E+06    0.1145878988E-01    0.4509823032E-01    0.2965730905E-03    0.6749581242E+00    0.6243292109E+00
    0.2500000000E+06    0.1096439370E-01    0.4511059168E-01    0.2801915394E-03    0.6755387788E+00    0.6249698234E+00
    0.2700000000E+06    0.1053129044E-01    0.4512041801E-01    0.2661163571E-03    0.6760220979E+00    0.6255402382E+00
    0.2900000000E+06    0.1014767228E-01    0.4512822972E-01    0.2538663068E-03    0.6764302991E+00    0.6260525601E+00
    0.3100000000E+06    0.9804693217E-02    0.4513441832E-01    0.2430874359E-03    0.6767793921E+00    0.6265161479E+00
    0.3300000000E+06    0.9495578738E-02    0.4513928378E-01    0.2335133921E-03    0.6770811877E+00    0.6269383680E+00
    0.3500000000E+06    0.9215041449E-02    0.4514305966E-01    0.2249397333E-03    0.6773445782E+00    0.6273251100E+00
    0.3700000000E+06    0.8958886017E-02    0.4514593032E-01    0.2172067953E-03    0.6775763802E+00    0.6276811475E+00
    0.3900000000E+06    0.8723735106E-02    0.4514804307E-01    0.2101879646E-03    0.6777819015E+00    0.6280103965E+00
    0.4100000000E+06    0.8506834881E-02    0.4514951697E-01    0.2037814672E-03    0.6779653344E+00    0.6283161045E+00
    0.4300000000E+06    0.8305914200E-02    0.4515044912E-01    0.1979044977E-03    0.6781300316E+00    0.6286009906E+00
    0.4500000000E+06    0.8119080809E-02    0.4515091946E-01    0.1924889476E-03    0.6782787053E+00    0.6288673515E+00
    0.4700000000E+06    0.7944743594E-02    0.4515099429E-01    0.1874782431E-03    0.6784135720E+00    0.6291171424E+00
    0.4900000000E+06    0.7781553501E-02    0.4515072904E-01    0.1828249711E-03    0.6785364604E+00    0.6293520399E+00
    0.1000000000E+06    0.1850411386E-01    0.4486006421E-01    0.5614200887E-03    0.6637030891E+00    0.6164235993E+00
    0.3000000000E+06    0.9971566828E-02    0.4513150635E-01    0.2483113211E-03    0.6766114152E+00    0.6262899456E+00
    0.5000000000E+06    0.7703771817E-02    0.4515048374E-01    0.1806196067E-03    0.6785938984E+00    0.6294643636E+00
    0.7000000000E+06    0.6524951573E-02    0.4513588204E-01    0.1481646589E-03    0.6793769212E+00    0.6311948157E+00
    0.9000000000E+06    0.5770134482E-02    0.4511323385E-01    0.1283019907E-03    0.6797956841E+00    0.6323301175E+00
    0.1100000000E+07    0.5232870767E-02    0.4508881326E-01    0.1145788376E-03    0.6800568306E+00    0.6331513809E+00
    0.1300000000E+07    0.4824921930E-02    0.4506460784E-01    0.1043807515E-03    0.6802356129E+00    0.6337826903E+00
    0.1500000000E+07    0.4501307363E-02    0.4504129959E-01    0.9642381397E-04    0.6803659347E+00    0.6342885707E+00
    0.1700000000E+07    0.4236337705E-02    0.4501910180E-01    0.8999493079E-04    0.6804653137E+00    0.6347063881E+00
    0.1900000000E+07    0.4014119265E-02    0.4499804438E-01    0.8466245515E-04    0.6805437154E+00    0.6350595029E+00
    0.2100000000E+07    0.3824214998E-02    0.4497808397E-01    0.8014790777E-04    0.6806072288E+00    0.6353633831E+00
    0.2300000000E+07    0.3659446950E-02    0.4495914979E-01    0.7626256653E-04    0.6806597860E+00    0.6356287404E+00
    0.2500000000E+07    0.3514692833E-02    0.4494116355E-01    0.7287342916E-04    0.6807040408E+00    0.6358632636E+00
    0.2700000000E+07    0.3386185152E-02    0.4492404820E-01    0.6988372075E-04    0.6807418500E+00    0.6360726374E+00
    0.2900000000E+07    0.3271082153E-02    0.4490773156E-01    0.6722113175E-04    0.6807745520E+00    0.6362611693E+00
    0.3100000000E+07    0.3167194105E-02    0.4489214759E-01    0.6483040756E-04    0.6808031365E+00    0.6364321922E+00
    0.3300000000E+07    0.3072802504E-02    0.4487723663E-01    0.6266850744E-04    0.6808283516E+00    0.6365883320E+00
    0.3500000000E+07    0.2986537056E-02    0.4486294502E-01    0.6070134251E-04    0.6808507729E+00    0.6367316897E+00
    0.3700000000E+07    0.2907289801E-02    0.4484922468E-01    0.5890151848E-04    0.6808708512E+00    0.6368639700E+00
    0.3900000000E+07    0.2834153797E-02    0.4483603248E-01    0.5724673671E-04    0.6808889446E+00    0.6369865724E+00
    0.4100000000E+07    0.2766378478E-02    0.4482332971E-01    0.5571863835E-04    0.6809053410E+00    0.6371006586E+00
    0.4300000000E+07    0.2703336571E-02    0.4481108157E-01    0.5430195328E-04    0.6809202747E+00    0.6372072022E+00
    0.4500000000E+07    0.2644499185E-02    0.4479925671E-01    0.5298386341E-04    0.6809339384E+00    0.6373070263E+00
    0.4700000000E+07    0.2589416800E-02    0.4478782683E-01    0.5175351923E-04    0.6809464923E+00    0.6374008323E+00
    0.4900000000E+07    0.2537704561E-02    0.4477676628E-01    0.5060166791E-04    0.6809580700E+00    0.6374892221E+00
    0.1000000000E+07    0.5481300502E-02    0.4510107321E-01    0.1208825084E-03    0.6799397808E+00    0.6327702338E+00
    0.3000000000E+07    0.3217853049E-02    0.4489985187E-01    0.6599471865E-04    0.6807893075E+00    0.6363486911E+00
    0.5000000000E+07    0.2513006777E-02    0.4477136715E-01    0.5005264955E-04    0.6809635289E+00    0.6375315512E+00
    0.7000000000E+07    0.2135188491E-02    0.4467812358E-01    0.4174555227E-04    0.6810414530E+00    0.6381894976E+00
    0.9000000000E+07    0.1890436152E-02    0.4460479510E-01    0.3646042440E-04    0.6810864979E+00    0.6386283479E+00
    0.1100000000E+08    0.1715246152E-02    0.4454427413E-01    0.3272738470E-04    0.6811162142E+00    0.6389503308E+00
    0.1300000000E+08    0.1581812959E-02    0.4449269635E-01    0.2991393839E-04    0.6811374734E+00    0.6392009433E+00
    0.1500000000E+08    0.1475771020E-02    0.4444772566E-01    0.2769749204E-04    0.6811535405E+00    0.6394040202E+00
    0.1700000000E+08    0.1388847481E-02    0.4440784040E-01    0.2589416301E-04    0.6811661747E+00    0.6395734581E+00
    0.1900000000E+08    0.1315895757E-02    0.4437199321E-01    0.2439052637E-04    0.6811764117E+00    0.6397179993E+00
    0.2100000000E+08    0.1253523202E-02    0.4433943188E-01    0.2311235474E-04    0.6811849031E+00    0.6398434668E+00
    0.2300000000E+08    0.1199390092E-02    0.4430959765E-01    0.2200878251E-04    0.6811920804E+00    0.6399539149E+00
    0.2500000000E+08    0.1151823328E-02    0.4428206388E-01    0.2104364191E-04    0.6811982415E+00    0.6400522692E+00
    0.2700000000E+08    0.1109590411E-02    0.4425649734E-01    0.2019042505E-04    0.6812035991E+00    0.6401407032E+00
