  Pressure (Pa) 2mC6-400 (mol/kg) 3mC6-400 (mol/kg) 33mC5-400 (mol/kg) 23mC5-400 (mol/kg) C7-400 (mol/kg)
    0.1000000000E+01    0.5508268264E-02    0.2083652799E-02    0.1922345767E-03    0.9301412802E-04    0.8453334490E-02
    0.3000000000E+01    0.1586409162E-01    0.5985140615E-02    0.5538154738E-03    0.2759016110E-03    0.2428642692E-01
    0.5000000000E+01    0.2542984852E-01    0.9569844802E-02    0.8880335726E-03    0.4547548933E-03    0.3883989293E-01
    0.7000000000E+01    0.3429894936E-01    0.1287643024E-01    0.1198130284E-02    0.6297483866E-03    0.5226969313E-01
    0.9000000000E+01    0.4255012540E-01    0.1593745487E-01    0.1486836547E-02    0.8010460871E-03    0.6470717286E-01
    0.1100000000E+02    0.5025023918E-01    0.1878053327E-01    0.1756470709E-02    0.9688023573E-03    0.7626374995E-01
    0.1300000000E+02    0.5745647084E-01    0.2142924365E-01    0.2009014656E-02    0.1133162637E-02    0.8703456925E-01
    0.1500000000E+02    0.6421803624E-01    0.2390384193E-01    0.2246173612E-02    0.1294264092E-02    0.9710138029E-01
    0.1700000000E+02    0.7057754993E-01    0.2622182931E-01    0.2469423567E-02    0.1452236206E-02    0.1065348242E+00
    0.1900000000E+02    0.7657211589E-01    0.2839840702E-01    0.2680049225E-02    0.1607201323E-02    0.1153962669E+00
    0.2100000000E+02    0.8223420744E-01    0.3044684383E-01    0.2879174600E-02    0.1759275143E-02    0.1237392802E+00
    0.2300000000E+02    0.8759238261E-01    0.3237877511E-01    0.3067787890E-02    0.1908567173E-02    0.1316108470E+00
    0.2500000000E+02    0.9267186969E-01    0.3420444789E-01    0.3246761824E-02    0.2055181151E-02    0.1390523500E+00
    0.2700000000E+02    0.9749504988E-01    0.3593292303E-01    0.3416870434E-02    0.2199215426E-02    0.1461003859E+00
    0.2900000000E+02    0.1020818575E+00    0.3757224296E-01    0.3578802955E-02    0.2340763311E-02    0.1527874426E+00
    0.3100000000E+02    0.1064501137E+00    0.3912957173E-01    0.3733175417E-02    0.2479913407E-02    0.1591424629E+00
    0.3300000000E+02    0.1106158067E+00    0.4061131242E-01    0.3880540364E-02    0.2616749907E-02    0.1651913192E+00
    0.3500000000E+02    0.1145933277E+00    0.4202320623E-01    0.4021395049E-02    0.2751352873E-02    0.1709572119E+00
    0.3700000000E+02    0.1183956710E+00    0.4337041642E-01    0.4156188372E-02    0.2883798487E-02    0.1764610091E+00
    0.3900000000E+02    0.1220346042E+00    0.4465759972E-01    0.4285326787E-02    0.3014159295E-02    0.1817215336E+00
    0.4100000000E+02    0.1255208138E+00    0.4588896745E-01    0.4409179351E-02    0.3142504423E-02    0.1867558104E+00
    0.4300000000E+02    0.1288640307E+00    0.4706833790E-01    0.4528082060E-02    0.3268899782E-02    0.1915792772E+00
    0.4500000000E+02    0.1320731371E+00    0.4819918147E-01    0.4642341581E-02    0.3393408258E-02    0.1962059671E+00
    0.4700000000E+02    0.1351562608E+00    0.4928465979E-01    0.4752238487E-02    0.3516089885E-02    0.2006486663E+00
    0.4900000000E+02    0.1381208554E+00    0.5032765951E-01    0.4858030062E-02    0.3637002012E-02    0.2049190502E+00
    0.1000000000E+02    0.4646528649E-01    0.1738467829E-01    0.1623906657E-02    0.8853576098E-03    0.7058928328E-01
    0.3000000000E+02    0.1042922652E+00    0.3836073946E-01    0.3656898274E-02    0.2410632720E-02    0.1560047733E+00
    0.5000000000E+02    0.1395608669E+00    0.5083406415E-01    0.4909460992E-02    0.3696811739E-02    0.2069929986E+00
    0.7000000000E+02    0.1635404696E+00    0.5926757299E-01    0.5770938263E-02    0.4812230290E-02    0.2415923351E+00
    0.9000000000E+02    0.1809251447E+00    0.6543808147E-01    0.6403327523E-02    0.5800374284E-02    0.2669938719E+00
    0.1100000000E+03    0.1940759111E+00    0.7019982667E-01    0.6888122758E-02    0.6690406663E-02    0.2866592391E+00
    0.1300000000E+03    0.2043304683E+00    0.7401763102E-01    0.7271542879E-02    0.7502720726E-02    0.3024743544E+00
    0.1500000000E+03    0.2125112349E+00    0.7716769632E-01    0.7582048127E-02    0.8252073049E-02    0.3155611908E+00
    0.1700000000E+03    0.2191548110E+00    0.7982533497E-01    0.7838244643E-02    0.8949449552E-02    0.3266327284E+00
    0.1900000000E+03    0.2246275244E+00    0.8210768191E-01    0.8052863431E-02    0.9603228003E-02    0.3361658912E+00
    0.2100000000E+03    0.2291885461E+00    0.8409628268E-01    0.8234934048E-02    0.1021993012E-01    0.3444930716E+00
    0.2300000000E+03    0.2330266167E+00    0.8584984788E-01    0.8391049917E-02    0.1080472406E-01    0.3518538471E+00
    0.2500000000E+03    0.2362825191E+00    0.8741184884E-01    0.8526143127E-02    0.1136176969E-01    0.3584258008E+00
    0.2700000000E+03    0.2390634099E+00    0.8881524548E-01    0.8643978928E-02    0.1189446159E-01    0.3643437186E+00
    0.2900000000E+03    0.2414522756E+00    0.9008554071E-01    0.8747482372E-02    0.1240560381E-01    0.3697120005E+00
    0.3100000000E+03    0.2435143577E+00    0.9124281775E-01    0.8838960469E-02    0.1289753799E-01    0.3746129440E+00
    0.3300000000E+03    0.2453016268E+00    0.9230313695E-01    0.8920257106E-02    0.1337223887E-01    0.3791124275E+00
    0.3500000000E+03    0.2468559671E+00    0.9327951683E-01    0.8992863451E-02    0.1383138655E-01    0.3832639046E+00
    0.3700000000E+03    0.2482114866E+00    0.9418263798E-01    0.9057998148E-02    0.1427642197E-01    0.3871112718E+00
    0.3900000000E+03    0.2493962210E+00    0.9502135755E-01    0.9116666562E-02    0.1470859007E-01    0.3906909658E+00
    0.4100000000E+03    0.2504334097E+00    0.9580309190E-01    0.9169705205E-02    0.1512897362E-01    0.3940335247E+00
    0.4300000000E+03    0.2513424640E+00    0.9653410537E-01    0.9217815517E-02    0.1553852020E-01    0.3971647666E+00
    0.4500000000E+03    0.2521397115E+00    0.9721973133E-01    0.9261589852E-02    0.1593806378E-01    0.4001066923E+00
    0.4700000000E+03    0.2528389737E+00    0.9786454340E-01    0.9301531703E-02    0.1632834216E-01    0.4028781855E+00
    0.4900000000E+03    0.2534520198E+00    0.9847248970E-01    0.9338071604E-02    0.1671001128E-01    0.4054955613E+00
    0.1000000000E+03    0.1879301422E+00    0.6796004758E-01    0.6660733692E-02    0.6256219135E-02    0.2774016149E+00
    0.3000000000E+03    0.2425206479E+00    0.9067722157E-01    0.8794599961E-02    0.1265384083E-01    0.3722164407E+00
    0.5000000000E+03    0.2537294185E+00    0.9876372756E-01    0.9355183574E-02    0.1689780289E-01    0.4067509603E+00
    0.7000000000E+03    0.2565670420E+00    0.1032894198E+00    0.9586110131E-02    0.2031579600E-01    0.4264040133E+00
    0.9000000000E+03    0.2567314143E+00    0.1062896845E+00    0.9699553501E-02    0.2328086614E-01    0.4396137406E+00
    0.1100000000E+04    0.2558561597E+00    0.1084677746E+00    0.9759919923E-02    0.2595272666E-01    0.4493195837E+00
    0.1300000000E+04    0.2545443169E+00    0.1101418895E+00    0.9792713435E-02    0.2841567866E-01    0.4568607857E+00
    0.1500000000E+04    0.2530528926E+00    0.1114803055E+00    0.9809790251E-02    0.3072024937E-01    0.4629499368E+00
    0.1700000000E+04    0.2515013678E+00    0.1125816660E+00    0.9817295664E-02    0.3289942801E-01    0.4680070777E+00
    0.1900000000E+04    0.2499480776E+00    0.1135082061E+00    0.9818677109E-02    0.3497611874E-01    0.4722985704E+00
    0.2100000000E+04    0.2484219618E+00    0.1143014217E+00    0.9815988607E-02    0.3696697644E-01    0.4760028595E+00
    0.2300000000E+04    0.2469370319E+00    0.1149902011E+00    0.9810513367E-02    0.3888455586E-01    0.4792447277E+00
    0.2500000000E+04    0.2454994333E+00    0.1155953649E+00    0.9803084292E-02    0.4073859755E-01    0.4821144899E+00
    0.2700000000E+04    0.2441110797E+00    0.1161323533E+00    0.9794259265E-02    0.4253683876E-01    0.4846793905E+00
    0.2900000000E+04    0.2427715993E+00    0.1166128927E+00    0.9784421893E-02    0.4428554700E-01    0.4869906962E+00
    0.3100000000E+04    0.2414794092E+00    0.1170460714E+00    0.9773841860E-02    0.4598988398E-01    0.4890882860E+00
    0.3300000000E+04    0.2402323198E+00    0.1174390571E+00    0.9762712366E-02    0.4765416129E-01    0.4910037230E+00
    0.3500000000E+04    0.2390278802E+00    0.1177975891E+00    0.9751174080E-02    0.4928202480E-01    0.4927623666E+00
    0.3700000000E+04    0.2378635739E+00    0.1181263246E+00    0.9739330857E-02    0.5087659055E-01    0.4943848632E+00
    0.3900000000E+04    0.2367369295E+00    0.1184290879E+00    0.9727260301E-02    0.5244054695E-01    0.4958882197E+00
    0.4100000000E+04    0.2356455802E+00    0.1187090519E+00    0.9715021001E-02    0.5397623290E-01    0.4972865920E+00
    0.4300000000E+04    0.2345872943E+00    0.1189688747E+00    0.9702657587E-02    0.5548569847E-01    0.4985918733E+00
    0.4500000000E+04    0.2335599866E+00    0.1192108016E+00    0.9690204315E-02    0.5697075262E-01    0.4998141409E+00
    0.4700000000E+04    0.2325617209E+00    0.1194367444E+00    0.9677687642E-02    0.5843300125E-01    0.5009619989E+00
    0.4900000000E+04    0.2315907052E+00    0.1196483421E+00    0.9665128112E-02    0.5987387784E-01    0.5020428447E+00
    0.1000000000E+04    0.2563738014E+00    0.1074565796E+00    0.9734301935E-02    0.2464709404E-01    0.4447999428E+00
    0.3000000000E+04    0.2421197205E+00    0.1168349158E+00    0.9779211172E-02    0.4514297494E-01    0.4880640664E+00
    0.5000000000E+04    0.2311148940E+00    0.1197492111E+00    0.9658837426E-02    0.6058670866E-01    0.5025601725E+00
    0.7000000000E+04    0.2226913108E+00    0.1212731055E+00    0.9533209219E-02    0.7397456070E-01    0.5105694891E+00
    0.9000000000E+04    0.2157387497E+00    0.1222342897E+00    0.9409870067E-02    0.8614307290E-01    0.5158645228E+00
    0.1100000000E+05    0.2097219700E+00    0.1229044536E+00    0.9289127439E-02    0.9747122135E-01    0.5197158142E+00
    0.1300000000E+05    0.2043528585E+00    0.1234020667E+00    0.9170616451E-02    0.1081689370E+00    0.5226893711E+00
    0.1500000000E+05    0.1994603277E+00    0.1237879314E+00    0.9053996567E-02    0.1183667108E+00    0.5250812453E+00
    0.1700000000E+05    0.1949349757E+00    0.1240967938E+00    0.8939018945E-02    0.1281520191E+00    0.5270635671E+00
    0.1900000000E+05    0.1907027866E+00    0.1243500927E+00    0.8825510244E-02    0.1375867323E+00    0.5287442631E+00
    0.2100000000E+05    0.1867114292E+00    0.1245618426E+00    0.8713350890E-02    0.1467164027E+00    0.5301949554E+00
    0.2300000000E+05    0.1829225760E+00    0.1247416266E+00    0.8602458563E-02    0.1555756353E+00    0.5314653275E+00
    0.2500000000E+05    0.1793073332E+00    0.1248962399E+00    0.8492776786E-02    0.1641913889E+00    0.5325910932E+00
    0.2700000000E+05    0.1758433885E+00    0.1250306464E+00    0.8384267175E-02    0.1725851086E+00    0.5335986866E+00
    0.2900000000E+05    0.1725131564E+00    0.1251485638E+00    0.8276904139E-02    0.1807741570E+00    0.5345081586E+00
    0.3100000000E+05    0.1693025315E+00    0.1252528361E+00    0.8170671202E-02    0.1887728074E+00    0.5353350373E+00
    0.3300000000E+05    0.1662000249E+00    0.1253456790E+00    0.8065558410E-02    0.1965929527E+00    0.5360915658E+00
    0.3500000000E+05    0.1631961514E+00    0.1254288462E+00    0.7961560466E-02    0.2042446226E+00    0.5367875482E+00
    0.3700000000E+05    0.1602829848E+00    0.1255037451E+00    0.7858675382E-02    0.2117363694E+00    0.5374309437E+00
    0.3900000000E+05    0.1574538287E+00    0.1255715195E+00    0.7756903469E-02    0.2190755599E+00    0.5380282923E+00
    0.4100000000E+05    0.1547029694E+00    0.1256331090E+00    0.7656246597E-02    0.2262686009E+00    0.5385850263E+00
    0.4300000000E+05    0.1520254867E+00    0.1256892932E+00    0.7556707628E-02    0.2333211144E+00    0.5391057016E+00
    0.4500000000E+05    0.1494171073E+00    0.1257407244E+00    0.7458289986E-02    0.2402380763E+00    0.5395941730E+00
    0.4700000000E+05    0.1468740908E+00    0.1257879535E+00    0.7360997331E-02    0.2470239273E+00    0.5400537276E+00
    0.4900000000E+05    0.1443931381E+00    0.1258314483E+00    0.7264833306E-02    0.2536826615E+00    0.5404871892E+00
    0.1000000000E+05    0.2126351143E+00    0.1225963879E+00    0.9349195294E-02    0.9189656406E-01    0.5179261532E+00
    0.3000000000E+05    0.1708936643E+00    0.1252022547E+00    0.8223647158E-02    0.1847964897E+00    0.5349310913E+00
    0.5000000000E+05    0.1431750075E+00    0.1258519229E+00    0.7217175615E-02    0.2569655040E+00    0.5406949113E+00
    0.7000000000E+05    0.1214993694E+00    0.1261378335E+00    0.6323821158E-02    0.3166873817E+00    0.5439298484E+00
    0.9000000000E+05    0.1039477188E+00    0.1262898874E+00    0.5543333724E-02    0.3665663704E+00    0.5460778524E+00
    0.1100000000E+06    0.8957347071E-01    0.1263781177E+00    0.4869579491E-02    0.4082516693E+00    0.5476299191E+00
    0.1300000000E+06    0.7773500929E-01    0.1264312644E+00    0.4292271119E-02    0.4430919899E+00    0.5488104642E+00
    0.1500000000E+06    0.6793986118E-01    0.1264633018E+00    0.3799388639E-02    0.4722499178E+00    0.5497406864E+00
    0.1700000000E+06    0.5979551310E-01    0.1264818237E+00    0.3378889199E-02    0.4967196570E+00    0.5504933285E+00
    0.1900000000E+06    0.5298693351E-01    0.1264912946E+00    0.3019658094E-02    0.5173358068E+00    0.5511152583E+00
    0.2100000000E+06    0.4726166916E-01    0.1264944986E+00    0.2711918146E-02    0.5347878983E+00    0.5516382227E+00
    0.2300000000E+06    0.4241790761E-01    0.1264932529E+00    0.2447314783E-02    0.5496393880E+00    0.5520845391E+00
    0.2500000000E+06    0.3829449314E-01    0.1264887875E+00    0.2218832757E-02    0.5623477580E+00    0.5524703554E+00
    0.2700000000E+06    0.3476265091E-01    0.1264819597E+00    0.2020640607E-02    0.5732833838E+00    0.5528076323E+00
    0.2900000000E+06    0.3171925449E-01    0.1264733818E+00    0.1847916175E-02    0.5827460487E+00    0.5531054048E+00
    0.3100000000E+06    0.2908143794E-01    0.1264635000E+00    0.1696679731E-02    0.5909787942E+00    0.5533706145E+00
    0.3300000000E+06    0.2678233341E-01    0.1264526452E+00    0.1563645989E-02    0.5981792383E+00    0.5536086751E+00
    0.3500000000E+06    0.2476772334E-01    0.1264410662E+00    0.1446098198E-02    0.6045086776E+00    0.5538238653E+00
    0.3700000000E+06    0.2299342047E-01    0.1264289525E+00    0.1341783585E-02    0.6100993393E+00    0.5540196077E+00
    0.3900000000E+06    0.2142321968E-01    0.1264164500E+00    0.1248827735E-02    0.6150601328E+00    0.5541986707E+00
    0.4100000000E+06    0.2002729540E-01    0.1264036717E+00    0.1165665075E-02    0.6194812020E+00    0.5543633159E+00
    0.4300000000E+06    0.1878094476E-01    0.1263907061E+00    0.1090982646E-02    0.6234375303E+00    0.5545154083E+00
    0.4500000000E+06    0.1766359883E-01    0.1263776227E+00    0.1023674704E-02    0.6269918004E+00    0.5546564990E+00
    0.4700000000E+06    0.1665804168E-01    0.1263644766E+00    0.9628060533E-03    0.6301966690E+00    0.5547878883E+00
    0.4900000000E+06    0.1574979090E-01    0.1263513113E+00    0.9075823873E-03    0.6330965831E+00    0.5549106745E+00
    0.1000000000E+06    0.9640795945E-01    0.1263396750E+00    0.5193691495E-02    0.3883441190E+00    0.5469108913E+00
    0.3000000000E+06    0.3035415972E-01    0.1264685809E+00    0.1769831977E-02    0.5870028623E+00    0.5532417111E+00
    0.5000000000E+06    0.1532825348E-01    0.1263447326E+00    0.8818717133E-03    0.6344441912E+00    0.5549691387E+00
    0.7000000000E+06    0.9851693697E-02    0.1262175280E+00    0.5431384072E-03    0.6520525285E+00    0.5558539510E+00
    0.9000000000E+06    0.7222753809E-02    0.1261029019E+00    0.3777813593E-03    0.6605632776E+00    0.5564261151E+00
    0.1100000000E+07    0.5731900545E-02    0.1260008400E+00    0.2838159359E-03    0.6653910691E+00    0.5568415563E+00
    0.1300000000E+07    0.4788318005E-02    0.1259094534E+00    0.2247422922E-03    0.6684344108E+00    0.5571644643E+00
    0.1500000000E+07    0.4143172031E-02    0.1258269167E+00    0.1848465800E-03    0.6705007586E+00    0.5574268865E+00
    0.1700000000E+07    0.3676225801E-02    0.1257517383E+00    0.1564281307E-03    0.6719829162E+00    0.5576469435E+00
    0.1900000000E+07    0.3323219748E-02    0.1256827387E+00    0.1353352083E-03    0.6730917671E+00    0.5578358103E+00
    0.2100000000E+07    0.3047059925E-02    0.1256189861E+00    0.1191595016E-03    0.6739493865E+00    0.5580008326E+00
    0.2300000000E+07    0.2824991307E-02    0.1255597383E+00    0.1064207871E-03    0.6746307675E+00    0.5581470813E+00
    0.2500000000E+07    0.2642351036E-02    0.1255043970E+00    0.9616558614E-04    0.6751842479E+00    0.5582781951E+00
    0.2700000000E+07    0.2489299037E-02    0.1254524742E+00    0.8775543216E-04    0.6756422451E+00    0.5583968684E+00
    0.2900000000E+07    0.2359002793E-02    0.1254035675E+00    0.8074862817E-04    0.6760272353E+00    0.5585051486E+00
    0.3100000000E+07    0.2246578501E-02    0.1253573411E+00    0.7483099250E-04    0.6763552499E+00    0.5586046258E+00
    0.3300000000E+07    0.2148447030E-02    0.1253135123E+00    0.6977362384E-04    0.6766380057E+00    0.5586965583E+00
    0.3500000000E+07    0.2061927821E-02    0.1252718410E+00    0.6540623273E-04    0.6768842497E+00    0.5587819580E+00
    0.3700000000E+07    0.1984974698E-02    0.1252321214E+00    0.6159978557E-04    0.6771006345E+00    0.5588616497E+00
    0.3900000000E+07    0.1915999229E-02    0.1251941759E+00    0.5825490570E-04    0.6772923040E+00    0.5589363147E+00
    0.4100000000E+07    0.1853749715E-02    0.1251578504E+00    0.5529393801E-04    0.6774632942E+00    0.5590065213E+00
    0.4300000000E+07    0.1797226497E-02    0.1251230097E+00    0.5265540525E-04    0.6776168136E+00    0.5590727486E+00
    0.4500000000E+07    0.1745621508E-02    0.1250895353E+00    0.5029006200E-04    0.6777554436E+00    0.5591354039E+00
    0.4700000000E+07    0.1698274391E-02    0.1250573223E+00    0.4815803789E-04    0.6778812832E+00    0.5591948362E+00
    0.4900000000E+07    0.1654640116E-02    0.1250262775E+00    0.4622673759E-04    0.6779960560E+00    0.5592513468E+00
    0.1000000000E+07    0.6384386167E-02    0.1260504122E+00    0.3249021740E-03    0.6632794993E+00    0.5566483033E+00
    0.3000000000E+07    0.2300805300E-02    0.1253801380E+00    0.7766959992E-04    0.6761975498E+00    0.5585559023E+00
    0.5000000000E+07    0.1634070418E-02    0.1250111668E+00    0.4532776846E-04    0.6780497483E+00    0.5592785895E+00
    0.7000000000E+07    0.1338815238E-02    0.1247540959E+00    0.3330110661E-04    0.6787880345E+00    0.5597187253E+00
    0.9000000000E+07    0.1163842224E-02    0.1245561037E+00    0.2701598111E-04    0.6791931660E+00    0.5600326336E+00
    0.1100000000E+08    0.1044732350E-02    0.1243948188E+00    0.2311790364E-04    0.6794534996E+00    0.5602754895E+00
    0.1300000000E+08    0.9568380867E-03    0.1242586192E+00    0.2043932921E-04    0.6796372204E+00    0.5604729784E+00
    0.1500000000E+08    0.8884708658E-03    0.1241406756E+00    0.1846966775E-04    0.6797751366E+00    0.5606390812E+00
    0.1700000000E+08    0.8332845223E-03    0.1240366268E+00    0.1695027270E-04    0.6798832872E+00    0.5607822252E+00
    0.1900000000E+08    0.7874961970E-03    0.1239435147E+00    0.1573590051E-04    0.6799708893E+00    0.5609078713E+00
    0.2100000000E+08    0.7486912793E-03    0.1238592395E+00    0.1473851617E-04    0.6800436405E+00    0.5610197538E+00
    0.2300000000E+08    0.7152457189E-03    0.1237822555E+00    0.1390152398E-04    0.6801052661E+00    0.5611205367E+00
    0.2500000000E+08    0.6860211029E-03    0.1237113917E+00    0.1318679816E-04    0.6801583129E+00    0.5612121845E+00
    0.2700000000E+08    0.6601922727E-03    0.1236457394E+00    0.1256766009E-04    0.6802045859E+00    0.5612961870E+00
