  Pressure (Pa) 2mC6-400 (mol/kg) 3mC6-400 (mol/kg) 33mC5-400 (mol/kg) 23mC5-400 (mol/kg) C7-400 (mol/kg)
    0.1000000000E+01    0.5524820605E-02    0.1045772844E-02    0.3856084282E-03    0.9299641623E-04    0.6788157332E-02
    0.3000000000E+01    0.1600040085E-01    0.3025309416E-02    0.1117006008E-02    0.2757469694E-03    0.1964062287E-01
    0.5000000000E+01    0.2577753952E-01    0.4869039138E-02    0.1799963069E-02    0.4543379518E-03    0.3161533013E-01
    0.7000000000E+01    0.3492678457E-01    0.6591195517E-02    0.2439378652E-02    0.6289547814E-03    0.4280414650E-01
    0.9000000000E+01    0.4350919087E-01    0.8204066866E-02    0.3039491491E-02    0.7997714652E-03    0.5328639346E-01
    0.1100000000E+02    0.5157788965E-01    0.9718318876E-02    0.3603989319E-02    0.9669514807E-03    0.6313092613E-01
    0.1300000000E+02    0.5917935457E-01    0.1114325496E-01    0.4136097023E-02    0.1130648577E-02    0.7239781178E-01
    0.1500000000E+02    0.6635443068E-01    0.1248702796E-01    0.4638648282E-02    0.1291007502E-02    0.8113969484E-01
    0.1700000000E+02    0.7313917684E-01    0.1375681347E-01    0.5114144188E-02    0.1448164665E-02    0.8940291467E-01
    0.1900000000E+02    0.7956555990E-01    0.1495895275E-01    0.5564801562E-02    0.1602248742E-02    0.9722842685E-01
    0.2100000000E+02    0.8566203043E-01    0.1609907113E-01    0.5992592997E-02    0.1753381227E-02    0.1046525672E+00
    0.2300000000E+02    0.9145400290E-01    0.1718217685E-01    0.6399280263E-02    0.1901676935E-02    0.1117076889E+00
    0.2500000000E+02    0.9696425848E-01    0.1821274388E-01    0.6786442314E-02    0.2047244469E-02    0.1184226971E+00
    0.2700000000E+02    0.1022132847E+00    0.1919478176E-01    0.7155498901E-02    0.2190186640E-02    0.1248234987E+00
    0.2900000000E+02    0.1072195631E+00    0.2013189465E-01    0.7507730580E-02    0.2330600858E-02    0.1309333844E+00
    0.3100000000E+02    0.1119998147E+00    0.2102733171E-01    0.7844295734E-02    0.2468579490E-02    0.1367733525E+00
    0.3300000000E+02    0.1165692086E+00    0.2188402998E-01    0.8166245131E-02    0.2604210189E-02    0.1423623866E+00
    0.3500000000E+02    0.1209415431E+00    0.2270465130E-01    0.8474534426E-02    0.2737576199E-02    0.1477176929E+00
    0.3700000000E+02    0.1251293995E+00    0.2349161398E-01    0.8770034925E-02    0.2868756635E-02    0.1528549055E+00
    0.3900000000E+02    0.1291442776E+00    0.2424712031E-01    0.9053542915E-02    0.2997826741E-02    0.1577882631E+00
    0.4100000000E+02    0.1329967112E+00    0.2497318025E-01    0.9325787753E-02    0.3124858129E-02    0.1625307625E+00
    0.4300000000E+02    0.1366963705E+00    0.2567163223E-01    0.9587438920E-02    0.3249919004E-02    0.1670942925E+00
    0.4500000000E+02    0.1402521503E+00    0.2634416119E-01    0.9839112189E-02    0.3373074366E-02    0.1714897502E+00
    0.4700000000E+02    0.1436722488E+00    0.2699231438E-01    0.1008137503E-01    0.3494386201E-02    0.1757271436E+00
    0.4900000000E+02    0.1469642352E+00    0.2761751530E-01    0.1031475139E-01    0.3613913662E-02    0.1798156810E+00
    0.1000000000E+02    0.4760470614E-01    0.8972909587E-02    0.3325980788E-02    0.8838062280E-03    0.5828443126E-01
    0.3000000000E+02    0.1096369601E+00    0.2058463224E-01    0.7677903433E-02    0.2399889037E-02    0.1338858774E+00
    0.5000000000E+02    0.1485643950E+00    0.2792192270E-01    0.1042826000E-01    0.3673026001E-02    0.1818068073E+00
    0.7000000000E+02    0.1752915336E+00    0.3307476774E-01    0.1233222995E-01    0.4774056739E-02    0.2155595214E+00
    0.9000000000E+02    0.1947105441E+00    0.3694703061E-01    0.1372838547E-01    0.5747588195E-02    0.2409939775E+00
    0.1100000000E+03    0.2093808796E+00    0.3999669907E-01    0.1479386103E-01    0.6623293140E-02    0.2610773783E+00
    0.1300000000E+03    0.2207847040E+00    0.4248225697E-01    0.1563128495E-01    0.7421788596E-02    0.2774860372E+00
    0.1500000000E+03    0.2298445602E+00    0.4456150209E-01    0.1630459003E-01    0.8157916013E-02    0.2912442830E+00
    0.1700000000E+03    0.2371665372E+00    0.4633670354E-01    0.1685582505E-01    0.8842677767E-02    0.3030166070E+00
    0.1900000000E+03    0.2431659171E+00    0.4787734090E-01    0.1731383907E-01    0.9484434748E-02    0.3132548646E+00
    0.2100000000E+03    0.2481370012E+00    0.4923245078E-01    0.1769910719E-01    0.1008967639E-01    0.3222782478E+00
    0.2300000000E+03    0.2522942112E+00    0.5043774741E-01    0.1802657158E-01    0.1066353250E-01    0.3303194337E+00
    0.2500000000E+03    0.2557974346E+00    0.5151993764E-01    0.1830739390E-01    0.1121012332E-01    0.3375525664E+00
    0.2700000000E+03    0.2587682697E+00    0.5249944611E-01    0.1855007895E-01    0.1173280500E-01    0.3441109387E+00
    0.2900000000E+03    0.2613007806E+00    0.5339219787E-01    0.1876121901E-01    0.1223434552E-01    0.3500985648E+00
    0.3100000000E+03    0.2634688184E+00    0.5421082013E-01    0.1894600074E-01    0.1271705328E-01    0.3555979860E+00
    0.3300000000E+03    0.2653311255E+00    0.5496547388E-01    0.1910855892E-01    0.1318287269E-01    0.3606756756E+00
    0.3500000000E+03    0.2669349705E+00    0.5566444290E-01    0.1925222848E-01    0.1363345636E-01    0.3653858683E+00
    0.3700000000E+03    0.2683187843E+00    0.5631455938E-01    0.1937972745E-01    0.1407022040E-01    0.3697733295E+00
    0.3900000000E+03    0.2695141042E+00    0.5692151711E-01    0.1949329199E-01    0.1449438733E-01    0.3738753940E+00
    0.4100000000E+03    0.2705470290E+00    0.5749010584E-01    0.1959477756E-01    0.1490701970E-01    0.3777234918E+00
    0.4300000000E+03    0.2714393224E+00    0.5802438902E-01    0.1968573567E-01    0.1530904685E-01    0.3813443064E+00
    0.4500000000E+03    0.2722092599E+00    0.5852784060E-01    0.1976747287E-01    0.1570128623E-01    0.3847606666E+00
    0.4700000000E+03    0.2728722862E+00    0.5900345150E-01    0.1984109662E-01    0.1608446073E-01    0.3879922407E+00
    0.4900000000E+03    0.2734415305E+00    0.5945381338E-01    0.1990755126E-01    0.1645921275E-01    0.3910560834E+00
    0.1000000000E+03    0.2025294275E+00    0.3855540011E-01    0.1429485234E-01    0.6196215256E-02    0.2515795035E+00
    0.3000000000E+03    0.2624263815E+00    0.5381009018E-01    0.1885662495E-01    0.1247792438E-01    0.3529048209E+00
    0.5000000000E+03    0.2736945563E+00    0.5967024333E-01    0.1993834778E-01    0.1664361196E-01    0.3925298292E+00
    0.7000000000E+03    0.2758475586E+00    0.6309524756E-01    0.2032429661E-01    0.2000111006E-01    0.4159811004E+00
    0.9000000000E+03    0.2752018198E+00    0.6543831123E-01    0.2047492377E-01    0.2291542807E-01    0.4321866498E+00
    0.1100000000E+04    0.2735322752E+00    0.6718177417E-01    0.2052560616E-01    0.2554263773E-01    0.4443492855E+00
    0.1300000000E+04    0.2714783711E+00    0.6854921954E-01    0.2052813738E-01    0.2796512146E-01    0.4539616345E+00
    0.1500000000E+04    0.2693039252E+00    0.6966131327E-01    0.2050567914E-01    0.3023227921E-01    0.4618330458E+00
    0.1700000000E+04    0.2671260445E+00    0.7059004800E-01    0.2046971390E-01    0.3237638296E-01    0.4684484340E+00
    0.1900000000E+04    0.2649980012E+00    0.7138155796E-01    0.2042635919E-01    0.3441985237E-01    0.4741197335E+00
    0.2100000000E+04    0.2629432216E+00    0.7206703572E-01    0.2037904654E-01    0.3637899932E-01    0.4790585972E+00
    0.2300000000E+04    0.2609705259E+00    0.7266847190E-01    0.2032977252E-01    0.3826612656E-01    0.4834147311E+00
    0.2500000000E+04    0.2590814242E+00    0.7320189881E-01    0.2027972756E-01    0.4009078380E-01    0.4872976156E+00
    0.2700000000E+04    0.2572737814E+00    0.7367933117E-01    0.2022963112E-01    0.4186056007E-01    0.4907895357E+00
    0.2900000000E+04    0.2555437189E+00    0.7410998273E-01    0.2017991874E-01    0.4358160533E-01    0.4939537678E+00
    0.3100000000E+04    0.2538866241E+00    0.7450105871E-01    0.2013085076E-01    0.4525898637E-01    0.4968399254E+00
    0.3300000000E+04    0.2522976875E+00    0.7485828923E-01    0.2008257737E-01    0.4689693692E-01    0.4994875644E+00
    0.3500000000E+04    0.2507721862E+00    0.7518629841E-01    0.2003517866E-01    0.4849903814E-01    0.5019286828E+00
    0.3700000000E+04    0.2493056272E+00    0.7548886600E-01    0.1998868983E-01    0.5006835164E-01    0.5041894974E+00
    0.3900000000E+04    0.2478938126E+00    0.7576911692E-01    0.1994311732E-01    0.5160751960E-01    0.5062917313E+00
    0.4100000000E+04    0.2465328614E+00    0.7602966092E-01    0.1989844926E-01    0.5311884124E-01    0.5082535661E+00
    0.4300000000E+04    0.2452192084E+00    0.7627269743E-01    0.1985466240E-01    0.5460433234E-01    0.5100903572E+00
    0.4500000000E+04    0.2439495896E+00    0.7650009533E-01    0.1981172661E-01    0.5606577198E-01    0.5118151787E+00
    0.4700000000E+04    0.2427210224E+00    0.7671345445E-01    0.1976960795E-01    0.5750473986E-01    0.5134392451E+00
    0.4900000000E+04    0.2415307827E+00    0.7691415364E-01    0.1972827067E-01    0.5892264632E-01    0.5149722405E+00
    0.1000000000E+04    0.2744416903E+00    0.6636758673E-01    0.2050851530E-01    0.2425871315E-01    0.4386572909E+00
    0.3000000000E+04    0.2547063508E+00    0.7431007992E-01    0.2015529279E-01    0.4442547213E-01    0.4954289315E+00
    0.5000000000E+04    0.2409492497E+00    0.7701013571E-01    0.1970788372E-01    0.5962410207E-01    0.5157072596E+00
    0.7000000000E+04    0.2308305843E+00    0.7848652174E-01    0.1933289093E-01    0.7279680228E-01    0.5271896002E+00
    0.9000000000E+04    0.2227137906E+00    0.7944684907E-01    0.1900289545E-01    0.8476719919E-01    0.5348798702E+00
    0.1100000000E+05    0.2158448777E+00    0.8013269577E-01    0.1870150563E-01    0.9590892773E-01    0.5405161864E+00
    0.1300000000E+05    0.2098259016E+00    0.8065228125E-01    0.1841962545E-01    0.1064291730E+00    0.5448882829E+00
    0.1500000000E+05    0.2044235325E+00    0.8106230400E-01    0.1815189292E-01    0.1164568359E+00    0.5484150764E+00
    0.1700000000E+05    0.1994899959E+00    0.8139571094E-01    0.1789494928E-01    0.1260784012E+00    0.5513427338E+00
    0.1900000000E+05    0.1949261052E+00    0.8167311940E-01    0.1764658202E-01    0.1353550890E+00    0.5538268954E+00
    0.2100000000E+05    0.1906622113E+00    0.8190817188E-01    0.1740527319E-01    0.1443320100E+00    0.5559715442E+00
    0.2300000000E+05    0.1866476104E+00    0.8211029859E-01    0.1716994654E-01    0.1530434607E+00    0.5578492120E+00
    0.2500000000E+05    0.1828442881E+00    0.8228625117E-01    0.1693981805E-01    0.1615161807E+00    0.5595122780E+00
    0.2700000000E+05    0.1792230359E+00    0.8244100536E-01    0.1671430372E-01    0.1697714551E+00    0.5609996631E+00
    0.2900000000E+05    0.1757609411E+00    0.8257831800E-01    0.1649296027E-01    0.1778265280E+00    0.5623409871E+00
    0.3100000000E+05    0.1724397060E+00    0.8270108465E-01    0.1627544580E-01    0.1856955829E+00    0.5635592544E+00
    0.3300000000E+05    0.1692444907E+00    0.8281157702E-01    0.1606149296E-01    0.1933904425E+00    0.5646726465E+00
    0.3500000000E+05    0.1661630938E+00    0.8291160504E-01    0.1585089009E-01    0.2009210798E+00    0.5656957537E+00
    0.3700000000E+05    0.1631853611E+00    0.8300263047E-01    0.1564346780E-01    0.2082959991E+00    0.5666404417E+00
    0.3900000000E+05    0.1603027493E+00    0.8308584808E-01    0.1543908911E-01    0.2155225248E+00    0.5675164760E+00
    0.4100000000E+05    0.1575079990E+00    0.8316224499E-01    0.1523764219E-01    0.2226070245E+00    0.5683319783E+00
    0.4300000000E+05    0.1547948860E+00    0.8323264456E-01    0.1503903485E-01    0.2295550822E+00    0.5690937678E+00
    0.4500000000E+05    0.1521580286E+00    0.8329773962E-01    0.1484319037E-01    0.2363716359E+00    0.5698076194E+00
    0.4700000000E+05    0.1495927381E+00    0.8335811769E-01    0.1465004424E-01    0.2430610874E+00    0.5704784615E+00
    0.4900000000E+05    0.1470948996E+00    0.8341428062E-01    0.1445954168E-01    0.2496273901E+00    0.5711105303E+00
    0.1000000000E+05    0.2191534871E+00    0.7981558410E-01    0.1884931053E-01    0.9042622724E-01    0.5378929779E+00
    0.3000000000E+05    0.1740837137E+00    0.8264136516E-01    0.1638374262E-01    0.1817835202E+00    0.5629642701E+00
    0.5000000000E+05    0.1458701224E+00    0.8344091864E-01    0.1436526677E-01    0.2528654916E+00    0.5714131895E+00
    0.7000000000E+05    0.1242151768E+00    0.8383108458E-01    0.1260967798E-01    0.3118888040E+00    0.5761068903E+00
    0.9000000000E+05    0.1067952834E+00    0.8406219096E-01    0.1108516209E-01    0.3613996192E+00    0.5792075482E+00
    0.1100000000E+06    0.9254876289E-01    0.8421378215E-01    0.9770266475E-02    0.4029733703E+00    0.5814476447E+00
    0.1300000000E+06    0.8080209623E-01    0.8431965171E-01    0.8642014423E-02    0.4378851354E+00    0.5831577314E+00
    0.1500000000E+06    0.7105933139E-01    0.8439675257E-01    0.7676421961E-02    0.4672347086E+00    0.5845135723E+00
    0.1700000000E+06    0.6293375813E-01    0.8445457248E-01    0.6850289471E-02    0.4919679120E+00    0.5856190949E+00
    0.1900000000E+06    0.5611816951E-01    0.8449885188E-01    0.6142441774E-02    0.5128846250E+00    0.5865404372E+00
    0.2100000000E+06    0.5036732598E-01    0.8453327348E-01    0.5534291576E-02    0.5306508091E+00    0.5873219983E+00
    0.2300000000E+06    0.4548525924E-01    0.8456031032E-01    0.5009931458E-02    0.5458147087E+00    0.5879948152E+00
    0.2500000000E+06    0.4131525740E-01    0.8458168514E-01    0.4555962856E-02    0.5588245197E+00    0.5885812863E+00
    0.2700000000E+06    0.3773180127E-01    0.8459863470E-01    0.4161207320E-02    0.5700453713E+00    0.5890979999E+00
    0.2900000000E+06    0.3463409050E-01    0.8461206944E-01    0.3816386128E-02    0.5797744655E+00    0.5895575105E+00
    0.3100000000E+06    0.3194088828E-01    0.8462267409E-01    0.3513813245E-02    0.5882539678E+00    0.5899694965E+00
    0.3300000000E+06    0.2958644624E-01    0.8463097308E-01    0.3247121583E-02    0.5956816730E+00    0.5903415407E+00
    0.3500000000E+06    0.2751729942E-01    0.8463737454E-01    0.3011028694E-02    0.6022196730E+00    0.5906796688E+00
    0.3700000000E+06    0.2568975199E-01    0.8464220053E-01    0.2801141008E-02    0.6080013273E+00    0.5909887302E+00
    0.3900000000E+06    0.2406790578E-01    0.8464570833E-01    0.2613792653E-02    0.6131368326E+00    0.5912726726E+00
    0.4100000000E+06    0.2262211297E-01    0.8464810573E-01    0.2445913885E-02    0.6177176630E+00    0.5915347427E+00
    0.4300000000E+06    0.2132775875E-01    0.8464956221E-01    0.2294924168E-02    0.6218201069E+00    0.5917776362E+00
    0.4500000000E+06    0.2016430064E-01    0.8465021717E-01    0.2158645482E-02    0.6255080875E+00    0.5920036106E+00
    0.4700000000E+06    0.1911450750E-01    0.8465018625E-01    0.2035232013E-02    0.6288354178E+00    0.5922145714E+00
    0.4900000000E+06    0.1816385413E-01    0.8464956603E-01    0.1923113088E-02    0.6318476077E+00    0.5924121386E+00
    0.1000000000E+06    0.9932291701E-01    0.8414523830E-01    0.1040290269E-01    0.3830942865E+00    0.5804093006E+00
    0.3000000000E+06    0.3324135677E-01    0.8461768959E-01    0.3660244562E-02    0.5841571242E+00    0.5897689283E+00
    0.5000000000E+06    0.1772178455E-01    0.8464906082E-01    0.1870861871E-02    0.6332478403E+00    0.5925063410E+00
    0.7000000000E+06    0.1191317433E-01    0.8462222274E-01    0.1178698028E-02    0.6515627192E+00    0.5939383819E+00
    0.9000000000E+06    0.9056929205E-02    0.8458161495E-01    0.8371587136E-03    0.6604150842E+00    0.5948633343E+00
    0.1100000000E+07    0.7400162554E-02    0.8453810001E-01    0.6411949403E-03    0.6654270650E+00    0.5955288297E+00
    0.1300000000E+07    0.6329098975E-02    0.8449509319E-01    0.5168666895E-03    0.6685777490E+00    0.5960399851E+00
    0.1500000000E+07    0.5582165759E-02    0.8445375086E-01    0.4321570146E-03    0.6707101372E+00    0.5964501767E+00
    0.1700000000E+07    0.5031544331E-02    0.8441442261E-01    0.3712973117E-03    0.6722344545E+00    0.5967898516E+00
    0.1900000000E+07    0.4608175871E-02    0.8437714494E-01    0.3257470110E-03    0.6733708590E+00    0.5970778585E+00
    0.2100000000E+07    0.4271770785E-02    0.8434183084E-01    0.2905303154E-03    0.6742466972E+00    0.5973265971E+00
    0.2300000000E+07    0.3997356308E-02    0.8430834833E-01    0.2625760213E-03    0.6749401196E+00    0.5975446167E+00
    0.2500000000E+07    0.3768677085E-02    0.8427655436E-01    0.2398976582E-03    0.6755014379E+00    0.5977380371E+00
    0.2700000000E+07    0.3574716473E-02    0.8424630942E-01    0.2211596512E-03    0.6759643484E+00    0.5979113745E+00
    0.2900000000E+07    0.3407751508E-02    0.8421748355E-01    0.2054343392E-03    0.6763521806E+00    0.5980680475E+00
    0.3100000000E+07    0.3262210464E-02    0.8418995828E-01    0.1920592624E-03    0.6766815494E+00    0.5982107001E+00
    0.3300000000E+07    0.3133973211E-02    0.8416362682E-01    0.1805498895E-03    0.6769645797E+00    0.5983414154E+00
    0.3500000000E+07    0.3019927090E-02    0.8413839338E-01    0.1705443623E-03    0.6772103088E+00    0.5984618603E+00
    0.3700000000E+07    0.2917676063E-02    0.8411417217E-01    0.1617674395E-03    0.6774255994E+00    0.5985733882E+00
    0.3900000000E+07    0.2825344975E-02    0.8409088637E-01    0.1540063380E-03    0.6776157492E+00    0.5986771108E+00
    0.4100000000E+07    0.2741444603E-02    0.8406846711E-01    0.1470941607E-03    0.6777849083E+00    0.5987739519E+00
    0.4300000000E+07    0.2664776608E-02    0.8404685251E-01    0.1408982900E-03    0.6779363706E+00    0.5988646863E+00
    0.4500000000E+07    0.2594365279E-02    0.8402598686E-01    0.1353121048E-03    0.6780727820E+00    0.5989499696E+00
    0.4700000000E+07    0.2529407674E-02    0.8400581990E-01    0.1302489685E-03    0.6781962903E+00    0.5990303614E+00
    0.4900000000E+07    0.2469236619E-02    0.8398630613E-01    0.1256377988E-03    0.6783086567E+00    0.5991063422E+00
    0.1000000000E+07    0.8129693956E-02    0.8455992481E-01    0.7271033050E-03    0.6632364584E+00    0.5952201728E+00
    0.3000000000E+07    0.3332588385E-02    0.8420356528E-01    0.1984867100E-03    0.6765233293E+00    0.5981409850E+00
    0.5000000000E+07    0.2440767682E-02    0.8397678113E-01    0.1234829089E-03    0.6783611269E+00    0.5991428107E+00
    0.7000000000E+07    0.2024575495E-02    0.8381232839E-01    0.9401728120E-04    0.6790752786E+00    0.5997173126E+00
    0.9000000000E+07    0.1771168266E-02    0.8368304495E-01    0.7799354651E-04    0.6794599102E+00    0.6001099464E+00
    0.1100000000E+08    0.1595876309E-02    0.8357636268E-01    0.6775390500E-04    0.6797035436E+00    0.6004039156E+00
    0.1300000000E+08    0.1465170057E-02    0.8348545562E-01    0.6055309490E-04    0.6798735218E+00    0.6006367326E+00
    0.1500000000E+08    0.1362767062E-02    0.8340619978E-01    0.5516014181E-04    0.6799999323E+00    0.6008282812E+00
    0.1700000000E+08    0.1279673565E-02    0.8333591007E-01    0.5093793396E-04    0.6800982870E+00    0.6009902785E+00
    0.1900000000E+08    0.1210458649E-02    0.8327273887E-01    0.4752196984E-04    0.6801774254E+00    0.6011301679E+00
    0.2100000000E+08    0.1151620794E-02    0.8321535950E-01    0.4468768942E-04    0.6802427707E+00    0.6012529521E+00
    0.2300000000E+08    0.1100786077E-02    0.8316278664E-01    0.4228864331E-04    0.6802978456E+00    0.6013621435E+00
    0.2500000000E+08    0.1056279700E-02    0.8311426809E-01    0.4022491489E-04    0.6803450436E+00    0.6014602965E+00
    0.2700000000E+08    0.1016881262E-02    0.8306921637E-01    0.3842579203E-04    0.6803860521E+00    0.6015493228E+00
