  Pressure (Pa) 2mC6-400 (mol/kg) 3mC6-400 (mol/kg) 33mC5-400 (mol/kg) 23mC5-400 (mol/kg) C7-400 (mol/kg)
    0.1000000000E+01    0.5529662307E-02    0.2094321747E-02    0.6432339263E-04    0.4648774661E-03    0.5097843692E-02
    0.3000000000E+01    0.1604020565E-01    0.6073828473E-02    0.1866220180E-03    0.1377821352E-02    0.1478670362E-01
    0.5000000000E+01    0.2587881108E-01    0.9798134085E-02    0.3011486125E-03    0.2269226649E-02    0.2385702506E-01
    0.7000000000E+01    0.3510903689E-01    0.1329231885E-01    0.4086390868E-03    0.3140085514E-02    0.3236951155E-01
    0.9000000000E+01    0.4378645290E-01    0.1657824167E-01    0.5097367227E-03    0.3991327338E-02    0.4037707535E-01
    0.1100000000E+02    0.5195987728E-01    0.1967504322E-01    0.6050065318E-03    0.4823823722E-02    0.4792605367E-01
    0.1300000000E+02    0.5967238870E-01    0.2259955742E-01    0.6949470029E-03    0.5638392973E-02    0.5505720364E-01
    0.1500000000E+02    0.6696216012E-01    0.2536665031E-01    0.7799997773E-03    0.6435804194E-02    0.6180652161E-01
    0.1700000000E+02    0.7386314990E-01    0.2798950077E-01    0.8605576682E-03    0.7216780985E-02    0.6820592191E-01
    0.1900000000E+02    0.8040567834E-01    0.3047983440E-01    0.9369713474E-03    0.7982004831E-02    0.7428380249E-01
    0.2100000000E+02    0.8661691094E-01    0.3284811951E-01    0.1009554951E-02    0.8732118171E-02    0.8006551886E-01
    0.2300000000E+02    0.9252126596E-01    0.3510373213E-01    0.1078590805E-02    0.9467727211E-02    0.8557378317E-01
    0.2500000000E+02    0.9814075962E-01    0.3725509565E-01    0.1144333427E-02    0.1018940449E-01    0.9082900200E-01
    0.2700000000E+02    0.1034953000E+00    0.3930979952E-01    0.1207012934E-02    0.1089769124E-01    0.9584956346E-01
    0.2900000000E+02    0.1086029382E+00    0.4127470060E-01    0.1266837952E-02    0.1159309952E-01    0.1006520823E+00
    0.3100000000E+02    0.1134800840E+00    0.4315601003E-01    0.1323998116E-02    0.1227611420E-01    0.1052516102E+00
    0.3300000000E+02    0.1181416923E+00    0.4495936799E-01    0.1378666227E-02    0.1294719482E-01    0.1096618165E+00
    0.3500000000E+02    0.1226014232E+00    0.4668990827E-01    0.1431000113E-02    0.1360677717E-01    0.1138951445E+00
    0.3700000000E+02    0.1268717824E+00    0.4835231431E-01    0.1481144249E-02    0.1425527493E-01    0.1179629471E+00
    0.3900000000E+02    0.1309642429E+00    0.4995086782E-01    0.1529231166E-02    0.1489308102E-01    0.1218756043E+00
    0.4100000000E+02    0.1348893513E+00    0.5148949133E-01    0.1575382686E-02    0.1552056894E-01    0.1256426262E+00
    0.4300000000E+02    0.1386568213E+00    0.5297178534E-01    0.1619711000E-02    0.1613809398E-01    0.1292727433E+00
    0.4500000000E+02    0.1422756158E+00    0.5440106099E-01    0.1662319623E-02    0.1674599434E-01    0.1327739850E+00
    0.4700000000E+02    0.1457540195E+00    0.5578036882E-01    0.1703304231E-02    0.1734459216E-01    0.1361537494E+00
    0.4900000000E+02    0.1490997030E+00    0.5711252408E-01    0.1742753401E-02    0.1793419450E-01    0.1394188647E+00
    0.1000000000E+02    0.4793334765E-01    0.1814918071E-01    0.5580675133E-03    0.4409866366E-02    0.4420621995E-01
    0.3000000000E+02    0.1110693559E+00    0.4222543918E-01    0.1295739969E-02    0.1193612677E-01    0.1029763354E+00
    0.5000000000E+02    0.1507250179E+00    0.5776174052E-01    0.1761928101E-02    0.1822571441E-01    0.1410104206E+00
    0.7000000000E+02    0.1777435319E+00    0.6880856378E-01    0.2081900531E-02    0.2364832302E-01    0.1681277443E+00
    0.9000000000E+02    0.1971354209E+00    0.7717693294E-01    0.2313509671E-02    0.2843410424E-01    0.1887229945E+00
    0.1100000000E+03    0.2115628853E+00    0.8380436501E-01    0.2487492964E-02    0.3273472698E-01    0.2050733376E+00
    0.1300000000E+03    0.2225799040E+00    0.8922790300E-01    0.2621798972E-02    0.3665474394E-01    0.2184844118E+00
    0.1500000000E+03    0.2311572593E+00    0.9377896289E-01    0.2727647677E-02    0.4026891095E-01    0.2297626608E+00
    0.1700000000E+03    0.2379334049E+00    0.9767409507E-01    0.2812424690E-02    0.4363232077E-01    0.2394354814E+00
    0.1900000000E+03    0.2433455434E+00    0.1010613516E+00    0.2881193055E-02    0.4678662221E-01    0.2478637534E+00
    0.2100000000E+03    0.2477030010E+00    0.1040457465E+00    0.2937539438E-02    0.4976399223E-01    0.2553036633E+00
    0.2300000000E+03    0.2512306142E+00    0.1067040709E+00    0.2984074517E-02    0.5258976048E-01    0.2619427004E+00
    0.2500000000E+03    0.2540955592E+00    0.1090939374E+00    0.3022742459E-02    0.5528419487E-01    0.2679216412E+00
    0.2700000000E+03    0.2564245703E+00    0.1112595260E+00    0.3055019608E-02    0.5786374781E-01    0.2733485244E+00
    0.2900000000E+03    0.2583153462E+00    0.1132353619E+00    0.3082046133E-02    0.6034194544E-01    0.2783078438E+00
    0.3100000000E+03    0.2598443116E+00    0.1150488727E+00    0.3104715665E-02    0.6273003503E-01    0.2828667746E+00
    0.3300000000E+03    0.2610720247E+00    0.1167221654E+00    0.3123737777E-02    0.6503746458E-01    0.2870795007E+00
    0.3500000000E+03    0.2620470235E+00    0.1182732878E+00    0.3139682449E-02    0.6727224383E-01    0.2909902896E+00
    0.3700000000E+03    0.2628086116E+00    0.1197171432E+00    0.3153012294E-02    0.6944121991E-01    0.2946357224E+00
    0.3900000000E+03    0.2633889091E+00    0.1210661648E+00    0.3164106301E-02    0.7155029058E-01    0.2980463387E+00
    0.4100000000E+03    0.2638143842E+00    0.1223308215E+00    0.3173277576E-02    0.7360457106E-01    0.3012478707E+00
    0.4300000000E+03    0.2641070131E+00    0.1235200020E+00    0.3180786796E-02    0.7560852614E-01    0.3042621821E+00
    0.4500000000E+03    0.2642851685E+00    0.1246413111E+00    0.3186852511E-02    0.7756607566E-01    0.3071079905E+00
    0.4700000000E+03    0.2643643071E+00    0.1257013004E+00    0.3191659132E-02    0.7948067960E-01    0.3098014325E+00
    0.4900000000E+03    0.2643575076E+00    0.1267056504E+00    0.3195363193E-02    0.8135540729E-01    0.3123565082E+00
    0.1000000000E+03    0.2048546927E+00    0.8066833750E-01    0.2406376355E-02    0.3063767095E-01    0.1973317330E+00
    0.3000000000E+03    0.2591209497E+00    0.1141609184E+00    0.3093877453E-02    0.6154662579E-01    0.2806337078E+00
    0.5000000000E+03    0.2643254246E+00    0.1271885339E+00    0.3196844293E-02    0.8227868406E-01    0.3135860380E+00
    0.7000000000E+03    0.2611525749E+00    0.1348513621E+00    0.3192522969E-02    0.9918182826E-01    0.3331993054E+00
    0.9000000000E+03    0.2557785411E+00    0.1401201595E+00    0.3155881643E-02    0.1139883837E+00    0.3468131250E+00
    0.1100000000E+04    0.2498313917E+00    0.1440577304E+00    0.3107730391E-02    0.1274286379E+00    0.3570692581E+00
    0.1300000000E+04    0.2438483334E+00    0.1471579577E+00    0.3055501865E-02    0.1398836054E+00    0.3652015950E+00
    0.1500000000E+04    0.2380231022E+00    0.1496879695E+00    0.3002243967E-02    0.1515793414E+00    0.3718804913E+00
    0.1700000000E+04    0.2324234630E+00    0.1518074698E+00    0.2949304639E-02    0.1626620403E+00    0.3775083234E+00
    0.1900000000E+04    0.2270668377E+00    0.1536190018E+00    0.2897296664E-02    0.1732322888E+00    0.3823443884E+00
    0.2100000000E+04    0.2219498333E+00    0.1551920290E+00    0.2846490832E-02    0.1833626043E+00    0.3865649237E+00
    0.2300000000E+04    0.2170606861E+00    0.1565756122E+00    0.2796991233E-02    0.1931072174E+00    0.3902947897E+00
    0.2500000000E+04    0.2123847495E+00    0.1578055817E+00    0.2748818737E-02    0.2025079027E+00    0.3936254408E+00
    0.2700000000E+04    0.2079069555E+00    0.1589088342E+00    0.2701952704E-02    0.2115976401E+00    0.3966257180E+00
    0.2900000000E+04    0.2036128928E+00    0.1599060291E+00    0.2656352541E-02    0.2204030148E+00    0.3993486361E+00
    0.3100000000E+04    0.1994892376E+00    0.1608133473E+00    0.2611969067E-02    0.2289458476E+00    0.4018358208E+00
    0.3300000000E+04    0.1955238752E+00    0.1616436762E+00    0.2568750541E-02    0.2372443347E+00    0.4041205036E+00
    0.3500000000E+04    0.1917058793E+00    0.1624074305E+00    0.2526645822E-02    0.2453138660E+00    0.4062296016E+00
    0.3700000000E+04    0.1880254283E+00    0.1631131351E+00    0.2485605956E-02    0.2531676251E+00    0.4081851958E+00
    0.3900000000E+04    0.1844736990E+00    0.1637678470E+00    0.2445584889E-02    0.2608170373E+00    0.4100056042E+00
    0.4100000000E+04    0.1810427566E+00    0.1643774675E+00    0.2406539713E-02    0.2682721099E+00    0.4117061763E+00
    0.4300000000E+04    0.1777254503E+00    0.1649469761E+00    0.2368430638E-02    0.2755416948E+00    0.4132998899E+00
    0.4500000000E+04    0.1745153190E+00    0.1654806092E+00    0.2331220847E-02    0.2826336930E+00    0.4147978068E+00
    0.4700000000E+04    0.1714065065E+00    0.1659819971E+00    0.2294876269E-02    0.2895552158E+00    0.4162094252E+00
    0.4900000000E+04    0.1683936881E+00    0.1664542725E+00    0.2259365344E-02    0.2963127143E+00    0.4175429556E+00
    0.1000000000E+04    0.2528305825E+00    0.1422169236E+00    0.3132623760E-02    0.1208504929E+00    0.3522650303E+00
    0.3000000000E+04    0.2015305500E+00    0.1603700511E+00    0.2634011939E-02    0.2247060376E+00    0.4006194493E+00
    0.5000000000E+04    0.1669217419E+00    0.1666803570E+00    0.2241913265E-02    0.2996318155E+00    0.4181827060E+00
    0.7000000000E+04    0.1415366452E+00    0.1701781129E+00    0.1930491723E-02    0.3586199610E+00    0.4282070673E+00
    0.9000000000E+04    0.1220511233E+00    0.1724769788E+00    0.1678353058E-02    0.4059511325E+00    0.4349500635E+00
    0.1100000000E+05    0.1067276035E+00    0.1741330047E+00    0.1472280736E-02    0.4442486791E+00    0.4399036046E+00
    0.1300000000E+05    0.9447562203E-01    0.1753970540E+00    0.1302661996E-02    0.4754474795E+00    0.4437502832E+00
    0.1500000000E+05    0.8454587357E-01    0.1764013263E+00    0.1162074369E-02    0.5010430992E+00    0.4468542587E+00
    0.1700000000E+05    0.7640024677E-01    0.1772230250E+00    0.1044699275E-02    0.5222005519E+00    0.4494305261E+00
    0.1900000000E+05    0.6964298902E-01    0.1779106744E+00    0.9459657497E-03    0.5398267871E+00    0.4516155313E+00
    0.2100000000E+05    0.6397852529E-01    0.1784965103E+00    0.8622825099E-03    0.5546274705E+00    0.4535007055E+00
    0.2300000000E+05    0.5918343027E-01    0.1790028952E+00    0.7908244848E-03    0.5671524310E+00    0.4551499735E+00
    0.2500000000E+05    0.5508701010E-01    0.1794458933E+00    0.7293629372E-03    0.5778315140E+00    0.4566095806E+00
    0.2700000000E+05    0.5155754426E-01    0.1798373797E+00    0.6761320344E-03    0.5870023943E+00    0.4579139361E+00
    0.2900000000E+05    0.4849240181E-01    0.1801863467E+00    0.6297252662E-03    0.5949318950E+00    0.4590892520E+00
    0.3100000000E+05    0.4581086726E-01    0.1804997440E+00    0.5890156308E-03    0.6018322215E+00    0.4601559008E+00
    0.3300000000E+05    0.4344888605E-01    0.1807830381E+00    0.5530943497E-03    0.6078732904E+00    0.4611299921E+00
    0.3500000000E+05    0.4135518283E-01    0.1810405951E+00    0.5212238333E-03    0.6131920995E+00    0.4620244580E+00
    0.3700000000E+05    0.3948836966E-01    0.1812759496E+00    0.4928015173E-03    0.6178998676E+00    0.4628498177E+00
    0.3900000000E+05    0.3781477350E-01    0.1814919972E+00    0.4673319666E-03    0.6220874963E+00    0.4636147295E+00
    0.4100000000E+05    0.3630679056E-01    0.1816911355E+00    0.4444052614E-03    0.6258297713E+00    0.4643263943E+00
    0.4300000000E+05    0.3494162954E-01    0.1818753685E+00    0.4236801657E-03    0.6291886100E+00    0.4649908579E+00
    0.4500000000E+05    0.3370034410E-01    0.1820463861E+00    0.4048709479E-03    0.6322155889E+00    0.4656132395E+00
    0.4700000000E+05    0.3256708232E-01    0.1822056240E+00    0.3877370015E-03    0.6349539218E+00    0.4661979072E+00
    0.4900000000E+05    0.3152849996E-01    0.1823543111E+00    0.3720746240E-03    0.6374400177E+00    0.4667486145E+00
    0.1000000000E+05    0.1139474970E+00    0.1733656805E+00    0.1570220585E-02    0.4260961422E+00    0.4375971966E+00
    0.3000000000E+05    0.4710802633E-01    0.1803471203E+00    0.6087196085E-03    0.5984992164E+00    0.4596350676E+00
    0.5000000000E+05    0.3104111345E-01    0.1824250347E+00    0.3647400674E-03    0.6385983032E+00    0.4670122648E+00
    0.7000000000E+05    0.2426429515E-01    0.1834793037E+00    0.2644072289E-03    0.6539747442E+00    0.4711008178E+00
    0.9000000000E+05    0.2050865677E-01    0.1841268522E+00    0.2110821622E-03    0.6616578049E+00    0.4738127357E+00
    0.1100000000E+06    0.1808685877E-01    0.1845671515E+00    0.1781662050E-03    0.6661408727E+00    0.4757907635E+00
    0.1300000000E+06    0.1637185508E-01    0.1848861737E+00    0.1557955429E-03    0.6690336246E+00    0.4773214168E+00
    0.1500000000E+06    0.1507896201E-01    0.1851276057E+00    0.1395481362E-03    0.6710358201E+00    0.4785548051E+00
    0.1700000000E+06    0.1406016797E-01    0.1853161896E+00    0.1271652339E-03    0.6724948639E+00    0.4795783844E+00
    0.1900000000E+06    0.1323064053E-01    0.1854670650E+00    0.1173779926E-03    0.6736007434E+00    0.4804471100E+00
    0.2100000000E+06    0.1253806411E-01    0.1855900502E+00    0.1094202097E-03    0.6744652895E+00    0.4811975320E+00
    0.2300000000E+06    0.1194828798E-01    0.1856918084E+00    0.1028021833E-03    0.6751582463E+00    0.4818550592E+00
    0.2500000000E+06    0.1143798514E-01    0.1857770295E+00    0.9719629217E-04    0.6757251871E+00    0.4824379941E+00
    0.2700000000E+06    0.1099062258E-01    0.1858491149E+00    0.9237496000E-04    0.6761970563E+00    0.4829599102E+00
    0.2900000000E+06    0.1059411843E-01    0.1859105941E+00    0.8817506339E-04    0.6765955524E+00    0.4834311227E+00
    0.3100000000E+06    0.1023941340E-01    0.1859633886E+00    0.8447652516E-04    0.6769363116E+00    0.4838596338E+00
    0.3300000000E+06    0.9919563979E-02    0.1860089853E+00    0.8118891473E-04    0.6772308695E+00    0.4842517631E+00
    0.3500000000E+06    0.9629146808E-02    0.1860485528E+00    0.7824276826E-04    0.6774879120E+00    0.4846125793E+00
    0.3700000000E+06    0.9363855691E-02    0.1860830229E+00    0.7558379673E-04    0.6777140972E+00    0.4849462025E+00
    0.3900000000E+06    0.9120221818E-02    0.1861131475E+00    0.7316891932E-04    0.6779146102E+00    0.4852560230E+00
    0.4100000000E+06    0.8895415083E-02    0.1861395403E+00    0.7096348379E-04    0.6780935462E+00    0.4855448597E+00
    0.4300000000E+06    0.8687100148E-02    0.1861627070E+00    0.6893927864E-04    0.6782541807E+00    0.4858150794E+00
    0.4500000000E+06    0.8493330271E-02    0.1861830679E+00    0.6707308537E-04    0.6783991632E+00    0.4860686864E+00
    0.4700000000E+06    0.8312467733E-02    0.1862009756E+00    0.6534560662E-04    0.6785306593E+00    0.4863073914E+00
    0.4900000000E+06    0.8143123334E-02    0.1862167277E+00    0.6374066073E-04    0.6786504555E+00    0.4865326647E+00
    0.1000000000E+06    0.1918238926E-01    0.1843660952E+00    0.1928830311E-03    0.6641660846E+00    0.4748709770E+00
    0.3000000000E+06    0.1041201645E-01    0.1859379754E+00    0.8626935202E-04    0.6767723493E+00    0.4836502873E+00
    0.5000000000E+06    0.8062392573E-02    0.1862238759E+00    0.6297977880E-04    0.6787064405E+00    0.4866406687E+00
    0.7000000000E+06    0.6837629334E-02    0.1862988577E+00    0.5176413431E-04    0.6794689802E+00    0.4883303169E+00
    0.9000000000E+06    0.6052152285E-02    0.1863055313E+00    0.4488246184E-04    0.6798759488E+00    0.4894698393E+00
    0.1100000000E+07    0.5492461159E-02    0.1862841464E+00    0.4011969728E-04    0.6801292057E+00    0.4903131499E+00
    0.1300000000E+07    0.5067137710E-02    0.1862499564E+00    0.3657586445E-04    0.6803022270E+00    0.4909742181E+00
    0.1500000000E+07    0.4729521746E-02    0.1862097604E+00    0.3380811202E-04    0.6804280953E+00    0.4915131539E+00
    0.1700000000E+07    0.4452939441E-02    0.1861669089E+00    0.3157010216E-04    0.6805238918E+00    0.4919652016E+00
    0.1900000000E+07    0.4220875635E-02    0.1861231617E+00    0.2971254142E-04    0.6805993258E+00    0.4923526417E+00
    0.2100000000E+07    0.4022478467E-02    0.1860794798E+00    0.2813901617E-04    0.6806603249E+00    0.4926903780E+00
    0.2300000000E+07    0.3850280789E-02    0.1860363960E+00    0.2678413324E-04    0.6807107140E+00    0.4929888277E+00
    0.2500000000E+07    0.3698951521E-02    0.1859942039E+00    0.2560177357E-04    0.6807530722E+00    0.4932555340E+00
    0.2700000000E+07    0.3564568039E-02    0.1859530581E+00    0.2455835914E-04    0.6807892027E+00    0.4934961189E+00
    0.2900000000E+07    0.3444170525E-02    0.1859130309E+00    0.2362878688E-04    0.6808204040E+00    0.4937148752E+00
    0.3100000000E+07    0.3335477544E-02    0.1858741451E+00    0.2279386515E-04    0.6808476357E+00    0.4939151486E+00
    0.3300000000E+07    0.3236698100E-02    0.1858363936E+00    0.2203863798E-04    0.6808716223E+00    0.4940995929E+00
    0.3500000000E+07    0.3146403718E-02    0.1857997518E+00    0.2135125533E-04    0.6808929211E+00    0.4942703457E+00
    0.3700000000E+07    0.3063439105E-02    0.1857641847E+00    0.2072219087E-04    0.6809119680E+00    0.4944291517E+00
    0.3900000000E+07    0.2986858363E-02    0.1857296515E+00    0.2014368768E-04    0.6809291090E+00    0.4945774522E+00
    0.4100000000E+07    0.2915878519E-02    0.1856961091E+00    0.1960935740E-04    0.6809446222E+00    0.4947164503E+00
    0.4300000000E+07    0.2849845084E-02    0.1856635135E+00    0.1911388495E-04    0.6809587336E+00    0.4948471599E+00
    0.4500000000E+07    0.2788206118E-02    0.1856318214E+00    0.1865280755E-04    0.6809716292E+00    0.4949704426E+00
    0.4700000000E+07    0.2730492427E-02    0.1856009904E+00    0.1822234684E-04    0.6809834629E+00    0.4950870365E+00
    0.4900000000E+07    0.2676302246E-02    0.1855709800E+00    0.1781927979E-04    0.6809943639E+00    0.4951975781E+00
    0.1000000000E+07    0.5751324694E-02    0.1862970956E+00    0.4230830116E-04    0.6800157576E+00    0.4899195844E+00
    0.3000000000E+07    0.3388482671E-02    0.1858934452E+00    0.2320051340E-04    0.6808344662E+00    0.4938171425E+00
    0.5000000000E+07    0.2650418354E-02    0.1855562703E+00    0.1762713829E-04    0.6809994992E+00    0.4952507548E+00
    0.7000000000E+07    0.2254230982E-02    0.1852968157E+00    0.1471793559E-04    0.6810724385E+00    0.4960991052E+00
    0.9000000000E+07    0.1997335052E-02    0.1850869046E+00    0.1286500838E-04    0.6811142048E+00    0.4966909829E+00
    0.1100000000E+08    0.1813321001E-02    0.1849106145E+00    0.1155517291E-04    0.6811415403E+00    0.4971409490E+00
    0.1300000000E+08    0.1673086211E-02    0.1847585563E+00    0.1056736969E-04    0.6811609625E+00    0.4975016294E+00
    0.1500000000E+08    0.1561585199E-02    0.1846247861E+00    0.9788762225E-05    0.6811755524E+00    0.4978013228E+00
    0.1700000000E+08    0.1470148952E-02    0.1845053123E+00    0.9154991874E-05    0.6811869627E+00    0.4980569009E+00
    0.1900000000E+08    0.1393382011E-02    0.1843973271E+00    0.8626339447E-05    0.6811961624E+00    0.4982791886E+00
    0.2100000000E+08    0.1327726291E-02    0.1842987799E+00    0.8176800403E-05    0.6812037588E+00    0.4984755230E+00
    0.2300000000E+08    0.1270727124E-02    0.1842081274E+00    0.7788547757E-05    0.6812101529E+00    0.4986510948E+00
    0.2500000000E+08    0.1220628684E-02    0.1841241785E+00    0.7448901331E-05    0.6812156203E+00    0.4988097042E+00
    0.2700000000E+08    0.1176137163E-02    0.1840459945E+00    0.7148564765E-05    0.6812203575E+00    0.4989542123E+00
