  Pressure (Pa) 2mC6-400 (mol/kg) 3mC6-400 (mol/kg) 33mC5-400 (mol/kg) 23mC5-400 (mol/kg) C7-400 (mol/kg)
    0.1000000000E+01    0.5557276518E-02    0.1053774890E-02    0.2585607729E-03    0.5576713350E-03    0.1709961072E-02
    0.3000000000E+01    0.1627375028E-01    0.3093109487E-02    0.7572002639E-03    0.1651803129E-02    0.5019647430E-02
    0.5000000000E+01    0.2648960278E-01    0.5046700457E-02    0.1232597064E-02    0.2718813807E-02    0.8190761558E-02
    0.7000000000E+01    0.3623819562E-01    0.6920300803E-02    0.1686300255E-02    0.3760013297E-02    0.1123258928E-01
    0.9000000000E+01    0.4554998549E-01    0.8719150872E-02    0.2119723993E-02    0.4776624782E-02    0.1415358953E-01
    0.1100000000E+02    0.5445283522E-01    0.1044803458E-01    0.2534161958E-02    0.5769791876E-02    0.1696148496E-01
    0.1300000000E+02    0.6297228545E-01    0.1211132838E-01    0.2930799976E-02    0.6740585106E-02    0.1966334092E-01
    0.1500000000E+02    0.7113179277E-01    0.1371304402E-01    0.3310727086E-02    0.7690007754E-02    0.2226563439E-01
    0.1700000000E+02    0.7895293892E-01    0.1525686602E-01    0.3674945254E-02    0.8619001153E-02    0.2477431445E-01
    0.1900000000E+02    0.8645561519E-01    0.1674618463E-01    0.4024377945E-02    0.9528449477E-02    0.2719485536E-01
    0.2100000000E+02    0.9365818540E-01    0.1818412483E-01    0.4359877691E-02    0.1041918410E-01    0.2953230339E-01
    0.2300000000E+02    0.1005776303E+00    0.1957357198E-01    0.4682232795E-02    0.1129198753E-01    0.3179131815E-01
    0.2500000000E+02    0.1072296757E+00    0.2091719454E-01    0.4992173291E-02    0.1214759705E-01    0.3397620924E-01
    0.2700000000E+02    0.1136289068E+00    0.2221746423E-01    0.5290376248E-02    0.1298670797E-01    0.3609096878E-01
    0.2900000000E+02    0.1197888699E+00    0.2347667399E-01    0.5577470498E-02    0.1380997665E-01    0.3813930035E-01
    0.3100000000E+02    0.1257221636E+00    0.2469695398E-01    0.5854040868E-02    0.1461802323E-01    0.4012464484E-01
    0.3300000000E+02    0.1314405205E+00    0.2588028592E-01    0.6120631976E-02    0.1541143414E-01    0.4205020353E-01
    0.3500000000E+02    0.1369548804E+00    0.2702851590E-01    0.6377751632E-02    0.1619076444E-01    0.4391895881E-01
    0.3700000000E+02    0.1422754564E+00    0.2814336589E-01    0.6625873904E-02    0.1695653987E-01    0.4573369270E-01
    0.3900000000E+02    0.1474117940E+00    0.2922644409E-01    0.6865441878E-02    0.1770925889E-01    0.4749700359E-01
    0.4100000000E+02    0.1523728256E+00    0.3027925429E-01    0.7096870155E-02    0.1844939435E-01    0.4921132128E-01
    0.4300000000E+02    0.1571669181E+00    0.3130320426E-01    0.7320547102E-02    0.1917739528E-01    0.5087892060E-01
    0.4500000000E+02    0.1618019176E+00    0.3229961339E-01    0.7536836903E-02    0.1989368827E-01    0.5250193366E-01
    0.4700000000E+02    0.1662851893E+00    0.3326971957E-01    0.7746081409E-02    0.2059867901E-01    0.5408236101E-01
    0.4900000000E+02    0.1706236535E+00    0.3421468548E-01    0.7948601827E-02    0.2129275348E-01    0.5562208171E-01
    0.1000000000E+02    0.5005088010E-01    0.9592055973E-02    0.2329239692E-02    0.5276070329E-02    0.1557121921E-01
    0.3000000000E+02    0.1227830977E+00    0.2409155303E-01    0.5717036228E-02    0.1421586529E-01    0.3913964053E-01
    0.5000000000E+02    0.1727406320E+00    0.3467808500E-01    0.8047435617E-02    0.2163581266E-01    0.5637723336E-01
    0.7000000000E+02    0.2088694636E+00    0.4285983632E-01    0.9735688656E-02    0.2800452733E-01    0.6972081808E-01
    0.9000000000E+02    0.2359896442E+00    0.4944621112E-01    0.1100550985E-01    0.3360881596E-01    0.8047895451E-01
    0.1100000000E+03    0.2569275607E+00    0.5491277641E-01    0.1198807787E-01    0.3863522229E-01    0.8942092570E-01
    0.1300000000E+03    0.2734489184E+00    0.5955853290E-01    0.1276534516E-01    0.4321101471E-01    0.9703066217E-01
    0.1500000000E+03    0.2867125747E+00    0.6358163380E-01    0.1339110213E-01    0.4742643273E-01    0.1036290421E+00
    0.1700000000E+03    0.2975098183E+00    0.6711905285E-01    0.1390208196E-01    0.5134752465E-01    0.1094379864E+00
    0.1900000000E+03    0.3063988118E+00    0.7026879965E-01    0.1432419946E-01    0.5502393635E-01    0.1146163660E+00
    0.2100000000E+03    0.3137841309E+00    0.7310305322E-01    0.1467624200E-01    0.5849383855E-01    0.1192812380E+00
    0.2300000000E+03    0.3199658811E+00    0.7567628269E-01    0.1497214863E-01    0.6178715601E-01    0.1235209800E+00
    0.2500000000E+03    0.3251711433E+00    0.7803046218E-01    0.1522246923E-01    0.6492774926E-01    0.1274037279E+00
    0.2700000000E+03    0.3295747392E+00    0.8019852980E-01    0.1543532801E-01    0.6793492802E-01    0.1309829737E+00
    0.2900000000E+03    0.3333133149E+00    0.8220674692E-01    0.1561707709E-01    0.7082452547E-01    0.1343013851E+00
    0.3100000000E+03    0.3364951208E+00    0.8407634739E-01    0.1577275028E-01    0.7360967667E-01    0.1373934768E+00
    0.3300000000E+03    0.3392069445E+00    0.8582471544E-01    0.1590638483E-01    0.7630139288E-01    0.1402875179E+00
    0.3500000000E+03    0.3415191158E+00    0.8746624326E-01    0.1602125372E-01    0.7890899225E-01    0.1430069222E+00
    0.3700000000E+03    0.3434891821E+00    0.8901296612E-01    0.1612003622E-01    0.8144042760E-01    0.1455712770E+00
    0.3900000000E+03    0.3451646454E+00    0.9047504014E-01    0.1620494493E-01    0.8390253926E-01    0.1479971180E+00
    0.4100000000E+03    0.3465850302E+00    0.9186110659E-01    0.1627782179E-01    0.8630125237E-01    0.1502985204E+00
    0.4300000000E+03    0.3477834633E+00    0.9317857339E-01    0.1634021140E-01    0.8864173266E-01    0.1524875548E+00
    0.4500000000E+03    0.3487878962E+00    0.9443383500E-01    0.1639341777E-01    0.9092851065E-01    0.1545746448E+00
    0.4700000000E+03    0.3496220589E+00    0.9563244612E-01    0.1643854865E-01    0.9316558159E-01    0.1565688484E+00
    0.4900000000E+03    0.3503062121E+00    0.9677926024E-01    0.1647655042E-01    0.9535648663E-01    0.1584780830E+00
    0.1000000000E+03    0.2471029343E+00    0.5229777550E-01    0.1152673875E-01    0.3618523271E-01    0.8514185431E-01
    0.3000000000E+03    0.3349679531E+00    0.8315770883E-01    0.1569790056E-01    0.7222942451E-01    0.1358738261E+00
    0.5000000000E+03    0.3505975680E+00    0.9733459626E-01    0.1649313647E-01    0.9643562596E-01    0.1594030445E+00
    0.7000000000E+03    0.3516965575E+00    0.1065290784E+00    0.1659789595E-01    0.1162062041E+00    0.1747594267E+00
    0.9000000000E+03    0.3481470892E+00    0.1133418891E+00    0.1647519706E-01    0.1335348383E+00    0.1861917292E+00
    0.1100000000E+04    0.3428401807E+00    0.1187568917E+00    0.1626196416E-01    0.1492582656E+00    0.1953127876E+00
    0.1300000000E+04    0.3368579741E+00    0.1232505794E+00    0.1601027427E-01    0.1638120776E+00    0.2029059434E+00
    0.1500000000E+04    0.3306657080E+00    0.1270900180E+00    0.1574304163E-01    0.1774544019E+00    0.2094113233E+00
    0.1700000000E+04    0.3244800991E+00    0.1304401349E+00    0.1547130899E-01    0.1903521104E+00    0.2151013149E+00
    0.1900000000E+04    0.3184060630E+00    0.1334100701E+00    0.1520070440E-01    0.2026200758E+00    0.2201565163E+00
    0.2100000000E+04    0.3124942388E+00    0.1360758825E+00    0.1493417887E-01    0.2143412490E+00    0.2247030025E+00
    0.2300000000E+04    0.3067674946E+00    0.1384927494E+00    0.1467328002E-01    0.2255778466E+00    0.2288323803E+00
    0.2500000000E+04    0.3012339992E+00    0.1407020047E+00    0.1441878778E-01    0.2363780097E+00    0.2326133729E+00
    0.2700000000E+04    0.2958940103E+00    0.1427354342E+00    0.1417104946E-01    0.2467799795E+00    0.2360988994E+00
    0.2900000000E+04    0.2907435392E+00    0.1446180195E+00    0.1393016407E-01    0.2568148285E+00    0.2393306035E+00
    0.3100000000E+04    0.2857763864E+00    0.1463697600E+00    0.1369608718E-01    0.2665083110E+00    0.2423418627E+00
    0.3300000000E+04    0.2809852937E+00    0.1480069208E+00    0.1346869215E-01    0.2758821526E+00    0.2451598519E+00
    0.3500000000E+04    0.2763626024E+00    0.1495429114E+00    0.1324780653E-01    0.2849549725E+00    0.2478069992E+00
    0.3700000000E+04    0.2719006281E+00    0.1509889201E+00    0.1303323404E-01    0.2937429561E+00    0.2503020358E+00
    0.3900000000E+04    0.2675918706E+00    0.1523543803E+00    0.1282476788E-01    0.3022603546E+00    0.2526607703E+00
    0.4100000000E+04    0.2634291261E+00    0.1536473208E+00    0.1262219876E-01    0.3105198621E+00    0.2548966691E+00
    0.4300000000E+04    0.2594055414E+00    0.1548746315E+00    0.1242531976E-01    0.3185329043E+00    0.2570212992E+00
    0.4500000000E+04    0.2555146344E+00    0.1560422704E+00    0.1223392911E-01    0.3263098618E+00    0.2590446707E+00
    0.4700000000E+04    0.2517502935E+00    0.1571554242E+00    0.1204783178E-01    0.3338602445E+00    0.2609755053E+00
    0.4900000000E+04    0.2481067666E+00    0.1582186361E+00    0.1186684020E-01    0.3411928296E+00    0.2628214486E+00
    0.1000000000E+04    0.3456239482E+00    0.1161874337E+00    0.1637561832E-01    0.1415642562E+00    0.1909809033E+00
    0.3000000000E+04    0.2882374863E+00    0.1455091530E+00    0.1381228107E-01    0.2617028005E+00    0.2408619643E+00
    0.5000000000E+04    0.2463286049E+00    0.1587327834E+00    0.1177820257E-01    0.3447800183E+00    0.2637147238E+00
    0.7000000000E+04    0.2159540594E+00    0.1671558770E+00    0.1023379946E-01    0.4068258948E+00    0.2784086521E+00
    0.9000000000E+04    0.1931294200E+00    0.1732450860E+00    0.9037911163E-02    0.4540476224E+00    0.2891066497E+00
    0.1100000000E+05    0.1754991053E+00    0.1779599859E+00    0.8096125555E-02    0.4904468692E+00    0.2974385927E+00
    0.1300000000E+05    0.1615616287E+00    0.1817738066E+00    0.7342671844E-02    0.5188630850E+00    0.3042122542E+00
    0.1500000000E+05    0.1503151588E+00    0.1849541270E+00    0.6730686331E-02    0.5413409774E+00    0.3098862172E+00
    0.1700000000E+05    0.1410717935E+00    0.1876665674E+00    0.6226381832E-02    0.5593571160E+00    0.3147452893E+00
    0.1900000000E+05    0.1333486462E+00    0.1900204961E+00    0.5805152582E-02    0.5739824102E+00    0.3189780966E+00
    0.2100000000E+05    0.1268000993E+00    0.1920917495E+00    0.5448884298E-02    0.5859992781E+00    0.3227157716E+00
    0.2300000000E+05    0.1211742831E+00    0.1939349624E+00    0.5144084254E-02    0.5959848674E+00    0.3260530059E+00
    0.2500000000E+05    0.1162845027E+00    0.1955907267E+00    0.4880578407E-02    0.6043695624E+00    0.3290603026E+00
    0.2700000000E+05    0.1119901428E+00    0.1970899762E+00    0.4650599964E-02    0.6114779930E+00    0.3317914956E+00
    0.2900000000E+05    0.1081836925E+00    0.1984567917E+00    0.4448147588E-02    0.6175578514E+00    0.3342885700E+00
    0.3100000000E+05    0.1047817922E+00    0.1997102619E+00    0.4268529589E-02    0.6228002668E+00    0.3365848655E+00
    0.3300000000E+05    0.1017189585E+00    0.2008657567E+00    0.4108037016E-02    0.6273543306E+00    0.3387072713E+00
    0.3500000000E+05    0.9894312266E-01    0.2019358210E+00    0.3963706703E-02    0.6313375506E+00    0.3406777695E+00
    0.3700000000E+05    0.9641241417E-01    0.2029308177E+00    0.3833147670E-02    0.6348434529E+00    0.3425145459E+00
    0.3900000000E+05    0.9409280934E-01    0.2038593980E+00    0.3714412550E-02    0.6379471660E+00    0.3442328056E+00
    0.4100000000E+05    0.9195639165E-01    0.2047288532E+00    0.3605901349E-02    0.6407095655E+00    0.3458453815E+00
    0.4300000000E+05    0.8998004851E-01    0.2055453812E+00    0.3506288685E-02    0.6431803819E+00    0.3473631967E+00
    0.4500000000E+05    0.8814448403E-01    0.2063142904E+00    0.3414468201E-02    0.6454005524E+00    0.3487956202E+00
    0.4700000000E+05    0.8643346312E-01    0.2070401601E+00    0.3329509731E-02    0.6474040183E+00    0.3501507439E+00
    0.4900000000E+05    0.8483322684E-01    0.2077269652E+00    0.3250625964E-02    0.6492191110E+00    0.3514356009E+00
    0.1000000000E+05    0.1837734923E+00    0.1757380196E+00    0.8539896316E-02    0.4734007197E+00    0.2935064850E+00
    0.3000000000E+05    0.1064366258E+00    0.1990966592E+00    0.4355735993E-02    0.6202735749E+00    0.3354600040E+00
    0.5000000000E+05    0.8407091590E-01    0.2080568206E+00    0.3213248569E-02    0.6500636071E+00    0.3520536314E+00
    0.7000000000E+05    0.7252729850E-01    0.2132532238E+00    0.2664437745E-02    0.6612229759E+00    0.3618797134E+00
    0.9000000000E+05    0.6509914190E-01    0.2167723502E+00    0.2329747982E-02    0.6667881933E+00    0.3686472119E+00
    0.1100000000E+06    0.5975937399E-01    0.2193651260E+00    0.2098495497E-02    0.6700469888E+00    0.3737060629E+00
    0.1300000000E+06    0.5565938696E-01    0.2213803536E+00    0.1926195708E-02    0.6721601898E+00    0.3776890798E+00
    0.1500000000E+06    0.5237099226E-01    0.2230059389E+00    0.1791224971E-02    0.6736302952E+00    0.3809398853E+00
    0.1700000000E+06    0.4965046280E-01    0.2243535797E+00    0.1681668473E-02    0.6747067646E+00    0.3836641931E+00
    0.1900000000E+06    0.4734689820E-01    0.2254945294E+00    0.1590352654E-02    0.6755262733E+00    0.3859940798E+00
    0.2100000000E+06    0.4536089726E-01    0.2264767292E+00    0.1512664499E-02    0.6761694903E+00    0.3880189417E+00
    0.2300000000E+06    0.4362379218E-01    0.2273338104E+00    0.1445482970E-02    0.6766868817E+00    0.3898018406E+00
    0.2500000000E+06    0.4208632477E-01    0.2280901724E+00    0.1386609519E-02    0.6771115305E+00    0.3913887679E+00
    0.2700000000E+06    0.4071206238E-01    0.2287640143E+00    0.1334443789E-02    0.6774659725E+00    0.3928141978E+00
    0.2900000000E+06    0.3947336685E-01    0.2293692293E+00    0.1287788760E-02    0.6777660596E+00    0.3941045723E+00
    0.3100000000E+06    0.3834881916E-01    0.2299166350E+00    0.1245728377E-02    0.6780232495E+00    0.3952805726E+00
    0.3300000000E+06    0.3732151458E-01    0.2304147992E+00    0.1207547779E-02    0.6782460194E+00    0.3963586495E+00
    0.3500000000E+06    0.3637789934E-01    0.2308706087E+00    0.1172679625E-02    0.6784407698E+00    0.3973520814E+00
    0.3700000000E+06    0.3550695578E-01    0.2312896724E+00    0.1140666987E-02    0.6786124196E+00    0.3982717253E+00
    0.3900000000E+06    0.3469961863E-01    0.2316766106E+00    0.1111137074E-02    0.6787648090E+00    0.3991265604E+00
    0.4100000000E+06    0.3394834830E-01    0.2320352693E+00    0.1083782230E-02    0.6789009779E+00    0.3999240883E+00
    0.4300000000E+06    0.3324681353E-01    0.2323688794E+00    0.1058345943E-02    0.6790233630E+00    0.4006706342E+00
    0.4500000000E+06    0.3258965149E-01    0.2326801780E+00    0.1034612372E-02    0.6791339394E+00    0.4013715752E+00
    0.4700000000E+06    0.3197228403E-01    0.2329715011E+00    0.1012398380E-02    0.6792343246E+00    0.4020315168E+00
    0.4900000000E+06    0.3139077494E-01    0.2332448569E+00    0.9915474091E-03    0.6793258553E+00    0.4026544309E+00
    0.1000000000E+06    0.6223570508E-01    0.2181573721E+00    0.2204767576E-02    0.6686096383E+00    0.3713410592E+00
    0.3000000000E+06    0.3889797117E-01    0.2296495777E+00    0.1266232904E-02    0.6778994295E+00    0.3947057561E+00
    0.5000000000E+06    0.3111238467E-01    0.2333753490E+00    0.9815902004E-03    0.6793686559E+00    0.4029530976E+00
    0.7000000000E+06    0.2679838701E-01    0.2353619912E+00    0.8293468308E-03    0.6799530320E+00    0.4076214698E+00
    0.9000000000E+06    0.2394552652E-01    0.2366310914E+00    0.7307955735E-03    0.6802656276E+00    0.4107554905E+00
    0.1100000000E+07    0.2187366109E-01    0.2375242230E+00    0.6603048916E-03    0.6804600767E+00    0.4130597048E+00
    0.1300000000E+07    0.2027824805E-01    0.2381922296E+00    0.6066612592E-03    0.6805926937E+00    0.4148530584E+00
    0.1500000000E+07    0.1899930087E-01    0.2387132865E+00    0.5640703339E-03    0.6806889374E+00    0.4163044716E+00
    0.1700000000E+07    0.1794346958E-01    0.2391324215E+00    0.5291940220E-03    0.6807619838E+00    0.4175131662E+00
    0.1900000000E+07    0.1705205591E-01    0.2394776021E+00    0.4999549428E-03    0.6808193319E+00    0.4185418936E+00
    0.2100000000E+07    0.1628601747E-01    0.2397672143E+00    0.4749833087E-03    0.6808655629E+00    0.4194326084E+00
    0.2300000000E+07    0.1561822183E-01    0.2400138936E+00    0.4533342848E-03    0.6809036330E+00    0.4202146045E+00
    0.2500000000E+07    0.1502913764E-01    0.2402266389E+00    0.4343321780E-03    0.6809355352E+00    0.4209090619E+00
    0.2700000000E+07    0.1450429258E-01    0.2404120500E+00    0.4174792314E-03    0.6809626619E+00    0.4215317389E+00
    0.2900000000E+07    0.1403270032E-01    0.2405750873E+00    0.4023995678E-03    0.6809860152E+00    0.4220946445E+00
    0.3100000000E+07    0.1360584773E-01    0.2407195579E+00    0.3888033162E-03    0.6810063352E+00    0.4226071184E+00
    0.3300000000E+07    0.1321702044E-01    0.2408484367E+00    0.3764628551E-03    0.6810241798E+00    0.4230765529E+00
    0.3500000000E+07    0.1286084083E-01    0.2409640846E+00    0.3651966157E-03    0.6810399779E+00    0.4235088887E+00
    0.3700000000E+07    0.1253294338E-01    0.2410684015E+00    0.3548577558E-03    0.6810540645E+00    0.4239089638E+00
    0.3900000000E+07    0.1222974169E-01    0.2411629348E+00    0.3453260621E-03    0.6810667054E+00    0.4242807653E+00
    0.4100000000E+07    0.1194825791E-01    0.2412489585E+00    0.3365020477E-03    0.6810781136E+00    0.4246276138E+00
    0.4300000000E+07    0.1168599580E-01    0.2413275318E+00    0.3283025735E-03    0.6810884624E+00    0.4249523009E+00
    0.4500000000E+07    0.1144084476E-01    0.2413995430E+00    0.3206575497E-03    0.6810978940E+00    0.4252571938E+00
    0.4700000000E+07    0.1121100629E-01    0.2414657433E+00    0.3135074159E-03    0.6811065259E+00    0.4255443149E+00
    0.4900000000E+07    0.1099493693E-01    0.2415267720E+00    0.3068011914E-03    0.6811144567E+00    0.4258154049E+00
    0.1000000000E+07    0.2283587263E-01    0.2371127686E+00    0.6929272907E-03    0.6803730019E+00    0.4119863515E+00
    0.3000000000E+07    0.1381413714E-01    0.2406494410E+00    0.3954314821E-03    0.6809965160E+00    0.4223566844E+00
    0.5000000000E+07    0.1089164184E-01    0.2415555215E+00    0.3036005773E-03    0.6811181855E+00    0.4259454172E+00
    0.7000000000E+07    0.9303353962E-02    0.2419584493E+00    0.2548472598E-03    0.6811705483E+00    0.4279826236E+00
    0.9000000000E+07    0.8266252982E-02    0.2421738795E+00    0.2235141469E-03    0.6811998765E+00    0.4293594815E+00
    0.1100000000E+08    0.7519889483E-02    0.2422991987E+00    0.2012355195E-03    0.6812187102E+00    0.4303795697E+00
    0.1300000000E+08    0.6949135542E-02    0.2423747058E+00    0.1843643058E-03    0.6812318697E+00    0.4311796941E+00
    0.1500000000E+08    0.6494114369E-02    0.2424201147E+00    0.1710239728E-03    0.6812416085E+00    0.4318321986E+00
    0.1700000000E+08    0.6120169949E-02    0.2424461880E+00    0.1601379385E-03    0.6812491224E+00    0.4323795786E+00
    0.1900000000E+08    0.5805655986E-02    0.2424592772E+00    0.1510387856E-03    0.6812551062E+00    0.4328487360E+00
    0.2100000000E+08    0.5536255979E-02    0.2424633556E+00    0.1432879658E-03    0.6812599912E+00    0.4332576840E+00
    0.2300000000E+08    0.5302069034E-02    0.2424610230E+00    0.1365839399E-03    0.6812640600E+00    0.4336190240E+00
    0.2500000000E+08    0.5095998178E-02    0.2424540435E+00    0.1307116836E-03    0.6812675052E+00    0.4339418863E+00
    0.2700000000E+08    0.4912804389E-02    0.2424436488E+00    0.1255132115E-03    0.6812704630E+00    0.4342330795E+00
