  Pressure (Pa) 2mC6-400 (mol/kg) 3mC6-400 (mol/kg) 33mC5-400 (mol/kg) 23mC5-400 (mol/kg) C7-400 (mol/kg)
    0.1000000000E+01    0.6297414113E-02    0.2606948662E-02    0.6409982586E-04    0.1858838660E-03    0.6768817559E-02
    0.3000000000E+01    0.1814779858E-01    0.7501182661E-02    0.1847711844E-03    0.5505446305E-03    0.1948014123E-01
    0.5000000000E+01    0.2910426036E-01    0.1201305790E-01    0.2964041334E-03    0.9061218218E-03    0.3120293482E-01
    0.7000000000E+01    0.3926883640E-01    0.1618784356E-01    0.4000318062E-03    0.1253058130E-02    0.4205407038E-01
    0.9000000000E+01    0.4872810393E-01    0.2006385537E-01    0.4965305291E-03    0.1591766536E-02    0.5213248108E-01
    0.1100000000E+02    0.5755604521E-01    0.2367374610E-01    0.5866489175E-03    0.1922632803E-02    0.6152248884E-01
    0.1300000000E+02    0.6581629418E-01    0.2704551839E-01    0.6710306879E-03    0.2246017734E-02    0.7029641662E-01
    0.1500000000E+02    0.7356391545E-01    0.3020332758E-01    0.7502327180E-03    0.2562259193E-02    0.7851665870E-01
    0.1700000000E+02    0.8084682584E-01    0.3316812332E-01    0.8247394726E-03    0.2871673937E-02    0.8623733590E-01
    0.1900000000E+02    0.8770693965E-01    0.3595816685E-01    0.8949746237E-03    0.3174559274E-02    0.9350562970E-01
    0.2100000000E+02    0.9418109861E-01    0.3858945091E-01    0.9613104832E-03    0.3471194560E-02    0.1003628658E+00
    0.2300000000E+02    0.1003018325E+00    0.4107604333E-01    0.1024075716E-02    0.3761842569E-02    0.1068454002E+00
    0.2500000000E+02    0.1060979853E+00    0.4343036970E-01    0.1083561689E-02    0.4046750722E-02    0.1129853489E+00
    0.2700000000E+02    0.1115952345E+00    0.4566344770E-01    0.1140027732E-02    0.4326152227E-02    0.1188111925E+00
    0.2900000000E+02    0.1168165236E+00    0.4778508219E-01    0.1193705523E-02    0.4600267097E-02    0.1243482794E+00
    0.3100000000E+02    0.1217824250E+00    0.4980402872E-01    0.1244802763E-02    0.4869303100E-02    0.1296192481E+00
    0.3300000000E+02    0.1265114455E+00    0.5172813119E-01    0.1293506270E-02    0.5133456611E-02    0.1346443825E+00
    0.3500000000E+02    0.1310202858E+00    0.5356443833E-01    0.1339984607E-02    0.5392913405E-02    0.1394419122E+00
    0.3700000000E+02    0.1353240603E+00    0.5531930270E-01    0.1384390307E-02    0.5647849379E-02    0.1440282685E+00
    0.3900000000E+02    0.1394364863E+00    0.5699846525E-01    0.1426861788E-02    0.5898431210E-02    0.1484183025E+00
    0.4100000000E+02    0.1433700452E+00    0.5860712775E-01    0.1467524981E-02    0.6144816973E-02    0.1526254720E+00
    0.4300000000E+02    0.1471361222E+00    0.6015001517E-01    0.1506494752E-02    0.6387156697E-02    0.1566620028E+00
    0.4500000000E+02    0.1507451272E+00    0.6163142955E-01    0.1543876114E-02    0.6625592885E-02    0.1605390278E+00
    0.4700000000E+02    0.1542065995E+00    0.6305529670E-01    0.1579765291E-02    0.6860260991E-02    0.1642667073E+00
    0.4900000000E+02    0.1575292991E+00    0.6442520683E-01    0.1614250643E-02    0.7091289861E-02    0.1678543342E+00
    0.1000000000E+02    0.5321679352E-01    0.2190021702E-01    0.5423448060E-03    0.1758156826E-02    0.5690876047E-01
    0.3000000000E+02    0.1193301959E+00    0.4880688130E-01    0.1219564579E-02    0.4735407426E-02    0.1270157094E+00
    0.5000000000E+02    0.1591411535E+00    0.6509096700E-01    0.1630992548E-02    0.7205478142E-02    0.1695983175E+00
    0.7000000000E+02    0.1857456704E+00    0.7624247481E-01    0.1908801066E-02    0.9325075661E-02    0.1988576149E+00
    0.9000000000E+02    0.2046806601E+00    0.8448598250E-01    0.2108835054E-02    0.1118980129E-01    0.2205550941E+00
    0.1100000000E+03    0.2187393990E+00    0.9090352445E-01    0.2259274282E-02    0.1286172733E-01    0.2374964645E+00
    0.1300000000E+03    0.2294993831E+00    0.9608893595E-01    0.2376046835E-02    0.1438316827E-01    0.2512232993E+00
    0.1500000000E+03    0.2379242301E+00    0.1003974668E+00    0.2468894910E-02    0.1578412188E-01    0.2626588375E+00
    0.1700000000E+03    0.2446376492E+00    0.1040558664E+00    0.2544134329E-02    0.1708654977E-01    0.2723930034E+00
    0.1900000000E+03    0.2500617511E+00    0.1072163664E+00    0.2606047402E-02    0.1830696879E-01    0.2808222711E+00
    0.2100000000E+03    0.2544925331E+00    0.1099853972E+00    0.2657643223E-02    0.1945808781E-01    0.2882241146E+00
    0.2300000000E+03    0.2581436645E+00    0.1124398804E+00    0.2701098823E-02    0.2054987947E-01    0.2947992797E+00
    0.2500000000E+03    0.2611731591E+00    0.1146369736E+00    0.2738028064E-02    0.2159030367E-01    0.3006970794E+00
    0.2700000000E+03    0.2637002916E+00    0.1166201561E+00    0.2769652280E-02    0.2258580935E-01    0.3060312061E+00
    0.2900000000E+03    0.2658166949E+00    0.1184231753E+00    0.2796912314E-02    0.2354169058E-01    0.3108899874E+00
    0.3100000000E+03    0.2675938523E+00    0.1200726849E+00    0.2820544226E-02    0.2446234464E-01    0.3153432499E+00
    0.3300000000E+03    0.2690882832E+00    0.1215900602E+00    0.2841131744E-02    0.2535146240E-01    0.3194470422E+00
    0.3500000000E+03    0.2703452109E+00    0.1229926745E+00    0.2859143399E-02    0.2621217119E-01    0.3232469610E+00
    0.3700000000E+03    0.2714012065E+00    0.1242948188E+00    0.2874959328E-02    0.2704714353E-01    0.3267805451E+00
    0.3900000000E+03    0.2722861275E+00    0.1255083742E+00    0.2888890947E-02    0.2785868106E-01    0.3300790303E+00
    0.4100000000E+03    0.2730245608E+00    0.1266433133E+00    0.2901195616E-02    0.2864878007E-01    0.3331686575E+00
    0.4300000000E+03    0.2736369121E+00    0.1277080802E+00    0.2912087719E-02    0.2941918323E-01    0.3360716628E+00
    0.4500000000E+03    0.2741402375E+00    0.1287098804E+00    0.2921747140E-02    0.3017142092E-01    0.3388070373E+00
    0.4700000000E+03    0.2745488865E+00    0.1296549072E+00    0.2930325825E-02    0.3090684445E-01    0.3413911168E+00
    0.4900000000E+03    0.2748750040E+00    0.1305485189E+00    0.2937952908E-02    0.3162665310E-01    0.3438380453E+00
    0.1000000000E+03    0.2122018843E+00    0.8787838006E-01    0.2189066226E-02    0.1204686430E-01    0.2295045021E+00
    0.3000000000E+03    0.2667438451E+00    0.1192656762E+00    0.2809142227E-02    0.2400617564E-01    0.3131635270E+00
    0.5000000000E+03    0.2750104050E+00    0.1309775253E+00    0.2941444729E-02    0.3198104057E-01    0.3450139907E+00
    0.7000000000E+03    0.2752281190E+00    0.1377273472E+00    0.2981168951E-02    0.3845690019E-01    0.3636313891E+00
    0.9000000000E+03    0.2731557610E+00    0.1422996787E+00    0.2990654556E-02    0.4411285140E-01    0.3763874774E+00
    0.1100000000E+04    0.2703401400E+00    0.1456760667E+00    0.2987725899E-02    0.4923767107E-01    0.3858996638E+00
    0.1300000000E+04    0.2673118627E+00    0.1483079142E+00    0.2979046699E-02    0.5398352554E-01    0.3933789575E+00
    0.1500000000E+04    0.2642764482E+00    0.1504372609E+00    0.2967531778E-02    0.5844160717E-01    0.3994781282E+00
    0.1700000000E+04    0.2613169781E+00    0.1522077034E+00    0.2954593123E-02    0.6267147497E-01    0.4045862839E+00
    0.1900000000E+04    0.2584655168E+00    0.1537108032E+00    0.2940963824E-02    0.6671449523E-01    0.4089526028E+00
    0.2100000000E+04    0.2557315674E+00    0.1550081903E+00    0.2927042794E-02    0.7060075465E-01    0.4127454759E+00
    0.2300000000E+04    0.2531144169E+00    0.1561431375E+00    0.2913053591E-02    0.7435293413E-01    0.4160835768E+00
    0.2500000000E+04    0.2506088162E+00    0.1571470762E+00    0.2899123182E-02    0.7798862780E-01    0.4190534061E+00
    0.2700000000E+04    0.2482076950E+00    0.1580434817E+00    0.2885323340E-02    0.8152180625E-01    0.4217197813E+00
    0.2900000000E+04    0.2459034800E+00    0.1588503000E+00    0.2871693421E-02    0.8496378016E-01    0.4241324097E+00
    0.3100000000E+04    0.2436887316E+00    0.1595815244E+00    0.2858253379E-02    0.8832385787E-01    0.4263301664E+00
    0.3300000000E+04    0.2415564357E+00    0.1602482539E+00    0.2845011430E-02    0.9160980785E-01    0.4283439733E+00
    0.3500000000E+04    0.2395001217E+00    0.1608594223E+00    0.2831968675E-02    0.9482819230E-01    0.4301987900E+00
    0.3700000000E+04    0.2375138897E+00    0.1614223155E+00    0.2819121941E-02    0.9798461325E-01    0.4319150253E+00
    0.3900000000E+04    0.2355923945E+00    0.1619429436E+00    0.2806465560E-02    0.1010838977E+00    0.4335095581E+00
    0.4100000000E+04    0.2337308084E+00    0.1624263158E+00    0.2793992479E-02    0.1041302393E+00    0.4349964909E+00
    0.4300000000E+04    0.2319247761E+00    0.1628766455E+00    0.2781694970E-02    0.1071273081E+00    0.4363877145E+00
    0.4500000000E+04    0.2301703682E+00    0.1632975062E+00    0.2769565075E-02    0.1100783374E+00    0.4376933376E+00
    0.4700000000E+04    0.2284640363E+00    0.1636919517E+00    0.2757594884E-02    0.1129861927E+00    0.4389220187E+00
    0.4900000000E+04    0.2268025717E+00    0.1640626099E+00    0.2745776707E-02    0.1158534272E+00    0.4400812243E+00
    0.1000000000E+04    0.2717959952E+00    0.1441021554E+00    0.2990193054E-02    0.4673018268E-01    0.3814547437E+00
    0.3000000000E+04    0.2447853728E+00    0.1592246097E+00    0.2864948942E-02    0.8665353884E-01    0.4252560548E+00
    0.5000000000E+04    0.2259877456E+00    0.1642397419E+00    0.2739922305E-02    0.1172725355E+00    0.4406368325E+00
    0.7000000000E+04    0.2114693717E+00    0.1669536904E+00    0.2629239566E-02    0.1439705417E+00    0.4493026632E+00
    0.9000000000E+04    0.1993450401E+00    0.1687082966E+00    0.2527741066E-02    0.1682227932E+00    0.4550962091E+00
    0.1100000000E+05    0.1887739183E+00    0.1699563095E+00    0.2432738711E-02    0.1906819536E+00    0.4593400560E+00
    0.1300000000E+05    0.1793162566E+00    0.1708990076E+00    0.2342814387E-02    0.2117013854E+00    0.4626318846E+00
    0.1500000000E+05    0.1707144302E+00    0.1716412676E+00    0.2257161782E-02    0.2314970564E+00    0.4652876266E+00
    0.1700000000E+05    0.1628044409E+00    0.1722437767E+00    0.2175289137E-02    0.2502129019E+00    0.4674925022E+00
    0.1900000000E+05    0.1554749499E+00    0.1727443845E+00    0.2096876075E-02    0.2679517190E+00    0.4693634430E+00
    0.2100000000E+05    0.1486463019E+00    0.1731680677E+00    0.2021699512E-02    0.2847913712E+00    0.4709785030E+00
    0.2300000000E+05    0.1422589345E+00    0.1735320512E+00    0.1949593014E-02    0.3007939286E+00    0.4723921086E+00
    0.2500000000E+05    0.1362665825E+00    0.1738486436E+00    0.1880423536E-02    0.3160110938E+00    0.4736435669E+00
    0.2700000000E+05    0.1306321034E+00    0.1741269005E+00    0.1814077721E-02    0.3304875448E+00    0.4747620983E+00
    0.2900000000E+05    0.1253248154E+00    0.1743736490E+00    0.1750453702E-02    0.3442630468E+00    0.4757699579E+00
    0.3100000000E+05    0.1203187464E+00    0.1745941445E+00    0.1689456204E-02    0.3573738100E+00    0.4766844486E+00
    0.3300000000E+05    0.1155914519E+00    0.1747925051E+00    0.1630993658E-02    0.3698533719E+00    0.4775192638E+00
    0.3500000000E+05    0.1111231998E+00    0.1749720087E+00    0.1574976570E-02    0.3817331729E+00    0.4782854090E+00
    0.3700000000E+05    0.1068963973E+00    0.1751353000E+00    0.1521316673E-02    0.3930429341E+00    0.4789918500E+00
    0.3900000000E+05    0.1028951788E+00    0.1752845388E+00    0.1469926569E-02    0.4038109037E+00    0.4796459790E+00
    0.4100000000E+05    0.9910510698E-01    0.1754215084E+00    0.1420719671E-02    0.4140640194E+00    0.4802539558E+00
    0.4300000000E+05    0.9551294941E-01    0.1755476951E+00    0.1373610303E-02    0.4238280145E+00    0.4808209631E+00
    0.4500000000E+05    0.9210651061E-01    0.1756643486E+00    0.1328513916E-02    0.4331274898E+00    0.4813513983E+00
    0.4700000000E+05    0.8887450211E-01    0.1757725285E+00    0.1285347320E-02    0.4419859632E+00    0.4818490221E+00
    0.4900000000E+05    0.8580644037E-01    0.1758731389E+00    0.1244028937E-02    0.4504259063E+00    0.4823170734E+00
    0.1000000000E+05    0.1938986666E+00    0.1693797941E+00    0.2479536027E-02    0.1796500410E+00    0.4573650246E+00
    0.3000000000E+05    0.1227856031E+00    0.1744868984E+00    0.1719632424E-02    0.3508993700E+00    0.4762379464E+00
    0.5000000000E+05    0.8433081304E-01    0.1759208527E+00    0.1224037831E-02    0.4544956728E+00    0.4825409013E+00
    0.7000000000E+05    0.6137777241E-01    0.1766193747E+00    0.9030788980E-03    0.5186090470E+00    0.4859844190E+00
    0.9000000000E+05    0.4697438662E-01    0.1770329562E+00    0.6917509973E-03    0.5595247337E+00    0.4882301253E+00
    0.1100000000E+06    0.3748400213E-01    0.1773042848E+00    0.5480460351E-03    0.5867054183E+00    0.4898439300E+00
    0.1300000000E+06    0.3094157065E-01    0.1774938784E+00    0.4468164403E-03    0.6055025629E+00    0.4910780047E+00
    0.1500000000E+06    0.2624836009E-01    0.1776320649E+00    0.3731065104E-03    0.6189845073E+00    0.4920633421E+00
    0.1700000000E+06    0.2276451685E-01    0.1777358056E+00    0.3178320285E-03    0.6289666852E+00    0.4928753565E+00
    0.1900000000E+06    0.2010171419E-01    0.1778153578E+00    0.2753061709E-03    0.6365628419E+00    0.4935608440E+00
    0.2100000000E+06    0.1801496494E-01    0.1778772992E+00    0.2418543334E-03    0.6424810105E+00    0.4941505582E+00
    0.2300000000E+06    0.1634418523E-01    0.1779260459E+00    0.2150291887E-03    0.6471863996E+00    0.4946656473E+00
    0.2500000000E+06    0.1498143543E-01    0.1779646739E+00    0.1931548133E-03    0.6509939227E+00    0.4951211992E+00
    0.2700000000E+06    0.1385187713E-01    0.1779953909E+00    0.1750542986E-03    0.6541225188E+00    0.4955283097E+00
    0.2900000000E+06    0.1290232119E-01    0.1780198222E+00    0.1598822677E-03    0.6567280698E+00    0.4958953493E+00
    0.3100000000E+06    0.1209412271E-01    0.1780391903E+00    0.1470190381E-03    0.6589239450E+00    0.4962287704E+00
    0.3300000000E+06    0.1139864611E-01    0.1780544313E+00    0.1360020140E-03    0.6607941780E+00    0.4965336404E+00
    0.3500000000E+06    0.1079429527E-01    0.1780662741E+00    0.1264801532E-03    0.6624021301E+00    0.4968140039E+00
    0.3700000000E+06    0.1026452259E-01    0.1780752936E+00    0.1181830901E-03    0.6637963154E+00    0.4970731349E+00
    0.3900000000E+06    0.9796465821E-02    0.1780819495E+00    0.1108997811E-03    0.6650143996E+00    0.4973137171E+00
    0.4100000000E+06    0.9379996540E-02    0.1780866129E+00    0.1044634659E-03    0.6660859974E+00    0.4975379751E+00
    0.4300000000E+06    0.9007044194E-02    0.1780895867E+00    0.9874090087E-04    0.6670346622E+00    0.4977477711E+00
    0.4500000000E+06    0.8671108128E-02    0.1780911200E+00    0.9362453247E-04    0.6678793241E+00    0.4979446780E+00
    0.4700000000E+06    0.8366900100E-02    0.1780914196E+00    0.8902672861E-04    0.6686353451E+00    0.4981300354E+00
    0.4900000000E+06    0.8090078806E-02    0.1780906583E+00    0.8487547116E-04    0.6693153021E+00    0.4983049922E+00
    0.1000000000E+06    0.4176501724E-01    0.1771815874E+00    0.6133233034E-03    0.5744272569E+00    0.4890961701E+00
    0.3000000000E+06    0.1248253589E-01    0.1780300750E+00    0.1531940254E-03    0.6578713958E+00    0.4960659179E+00
    0.5000000000E+06    0.7960790291E-02    0.1780899260E+00    0.8294824346E-04    0.6696300734E+00    0.4983888860E+00
    0.7000000000E+06    0.6196742306E-02    0.1780450103E+00    0.5762453647E-04    0.6737011317E+00    0.4997033720E+00
    0.9000000000E+06    0.5237239570E-02    0.1779749214E+00    0.4492667608E-04    0.6756791782E+00    0.5005934945E+00
    0.1100000000E+07    0.4620912098E-02    0.1778992263E+00    0.3734617699E-04    0.6768278173E+00    0.5012551070E+00
    0.1300000000E+07    0.4184281846E-02    0.1778241338E+00    0.3230720921E-04    0.6775722346E+00    0.5017759086E+00
    0.1500000000E+07    0.3854596213E-02    0.1777517823E+00    0.2870592691E-04    0.6780918531E+00    0.5022021450E+00
    0.1700000000E+07    0.3594348718E-02    0.1776828463E+00    0.2599502693E-04    0.6784744471E+00    0.5025609522E+00
    0.1900000000E+07    0.3382109540E-02    0.1776174271E+00    0.2387356885E-04    0.6787676910E+00    0.5028695055E+00
    0.2100000000E+07    0.3204669701E-02    0.1775553957E+00    0.2216276575E-04    0.6789995821E+00    0.5031393098E+00
    0.2300000000E+07    0.3053399825E-02    0.1774965367E+00    0.2074982366E-04    0.6791875892E+00    0.5033784191E+00
    0.2500000000E+07    0.2922397286E-02    0.1774406098E+00    0.1956008269E-04    0.6793431525E+00    0.5035926745E+00
    0.2700000000E+07    0.2807471683E-02    0.1773873783E+00    0.1854214703E-04    0.6794740661E+00    0.5037864359E+00
    0.2900000000E+07    0.2705555548E-02    0.1773366198E+00    0.1765946165E-04    0.6795858177E+00    0.5039630380E+00
    0.3100000000E+07    0.2614344973E-02    0.1772881306E+00    0.1688529995E-04    0.6796823803E+00    0.5041250835E+00
    0.3300000000E+07    0.2532071338E-02    0.1772417266E+00    0.1619965472E-04    0.6797666997E+00    0.5042746399E+00
    0.3500000000E+07    0.2457351219E-02    0.1771972421E+00    0.1558724002E-04    0.6798410051E+00    0.5044133750E+00
    0.3700000000E+07    0.2389084697E-02    0.1771545284E+00    0.1503616726E-04    0.6799070146E+00    0.5045426521E+00
    0.3900000000E+07    0.2326384674E-02    0.1771134524E+00    0.1453704395E-04    0.6799660734E+00    0.5046635989E+00
    0.4100000000E+07    0.2268526603E-02    0.1770738942E+00    0.1408234581E-04    0.6800192497E+00    0.5047771579E+00
    0.4300000000E+07    0.2214912021E-02    0.1770357462E+00    0.1366596991E-04    0.6800674025E+00    0.5048841245E+00
    0.4500000000E+07    0.2165041610E-02    0.1769989114E+00    0.1328291080E-04    0.6801112302E+00    0.5049851757E+00
    0.4700000000E+07    0.2118494986E-02    0.1769633022E+00    0.1292902167E-04    0.6801513068E+00    0.5050808916E+00
    0.4900000000E+07    0.2074915306E-02    0.1769288392E+00    0.1260083568E-04    0.6801881085E+00    0.5051717737E+00
    0.1000000000E+07    0.4899659820E-02    0.1779372379E+00    0.4071112781E-04    0.6763216440E+00    0.5009459863E+00
    0.3000000000E+07    0.2658733099E-02    0.1773121035E+00    0.1726019577E-04    0.6796357937E+00    0.5040457404E+00
    0.5000000000E+07    0.2054140955E-02    0.1769120148E+00    0.1244544983E-04    0.6802054083E+00    0.5052155403E+00
    0.7000000000E+07    0.1739146966E-02    0.1766212951E+00    0.1017009092E-04    0.6804489518E+00    0.5059181152E+00
    0.9000000000E+07    0.1537414414E-02    0.1763924600E+00    0.8787822789E-05    0.6805872175E+00    0.5064134437E+00
    0.1100000000E+08    0.1393869177E-02    0.1762034585E+00    0.7837178849E-05    0.6806776954E+00    0.5067930515E+00
    0.1300000000E+08    0.1284919838E-02    0.1760422911E+00    0.7132941086E-05    0.6807421939E+00    0.5070993192E+00
    0.1500000000E+08    0.1198530072E-02    0.1759016988E+00    0.6584725719E-05    0.6807908808E+00    0.5073551857E+00
    0.1700000000E+08    0.1127823826E-02    0.1757769508E+00    0.6142564313E-05    0.6808291680E+00    0.5075744038E+00
    0.1900000000E+08    0.1068547004E-02    0.1756647891E+00    0.5776317031E-05    0.6808602159E+00    0.5077658396E+00
    0.2100000000E+08    0.1017906445E-02    0.1755628731E+00    0.5466593538E-05    0.6808860014E+00    0.5079355289E+00
    0.2300000000E+08    0.9739815990E-03    0.1754694633E+00    0.5200283306E-05    0.6809078292E+00    0.5080877578E+00
    0.2500000000E+08    0.9354022766E-03    0.1753832313E+00    0.4968164266E-05    0.6809265970E+00    0.5082256752E+00
    0.2700000000E+08    0.9011609507E-03    0.1753031390E+00    0.4763537092E-05    0.6809429444E+00    0.5083516595E+00
