  Pressure (Pa) 2mC6-400 (mol/kg) 3mC6-400 (mol/kg) 33mC5-400 (mol/kg) 23mC5-400 (mol/kg) C7-400 (mol/kg)
    0.1000000000E+01    0.6295323018E-02    0.1042358623E-02    0.2563149467E-03    0.9293676539E-04    0.8457622408E-02
    0.3000000000E+01    0.1813069547E-01    0.2997010000E-02    0.7383950204E-03    0.2752273853E-03    0.2432219860E-01
    0.5000000000E+01    0.2906091573E-01    0.4796393254E-02    0.1183869157E-02    0.4529402507E-03    0.3893232351E-01
    0.7000000000E+01    0.3919104804E-01    0.6459194492E-02    0.1596992308E-02    0.6263002608E-03    0.5243875506E-01
    0.9000000000E+01    0.4860997371E-01    0.8001183854E-02    0.1981362882E-02    0.7955170828E-03    0.6496874229E-01
    0.1100000000E+02    0.5739343748E-01    0.9435764970E-02    0.2340046496E-02    0.9607864452E-03    0.7663045315E-01
    0.1300000000E+02    0.6560642653E-01    0.1077440452E-01    0.2675672607E-02    0.1122291300E-02    0.8751643643E-01
    0.1500000000E+02    0.7330504728E-01    0.1202697138E-01    0.2990510711E-02    0.1280202870E-02    0.9770635509E-01
    0.1700000000E+02    0.8053801951E-01    0.1320200676E-01    0.3286530994E-02    0.1434681594E-02    0.1072691641E+00
    0.1900000000E+02    0.8734787628E-01    0.1430694131E-01    0.3565453027E-02    0.1585877978E-02    0.1162648600E+00
    0.2100000000E+02    0.9377193521E-01    0.1534827079E-01    0.3828785169E-02    0.1733933370E-02    0.1247458980E+00
    0.2300000000E+02    0.9984309064E-01    0.1633169945E-01    0.4077856700E-02    0.1878980663E-02    0.1327583470E+00
    0.2500000000E+02    0.1055904641E+00    0.1726225768E-01    0.4313844196E-02    0.2021144927E-02    0.1403428390E+00
    0.2700000000E+02    0.1110399421E+00    0.1814439926E-01    0.4537793330E-02    0.2160543994E-02    0.1475353529E+00
    0.2900000000E+02    0.1162146235E+00    0.1898208218E-01    0.4750636999E-02    0.2297288982E-02    0.1543678666E+00
    0.3100000000E+02    0.1211351934E+00    0.1977883622E-01    0.4953210481E-02    0.2431484781E-02    0.1608689020E+00
    0.3300000000E+02    0.1258202380E+00    0.2053781976E-01    0.5146264187E-02    0.2563230489E-02    0.1670639827E+00
    0.3500000000E+02    0.1302865106E+00    0.2126186767E-01    0.5330474431E-02    0.2692619819E-02    0.1729760212E+00
    0.3700000000E+02    0.1345491578E+00    0.2195353205E-01    0.5506452582E-02    0.2819741469E-02    0.1786256468E+00
    0.3900000000E+02    0.1386219121E+00    0.2261511688E-01    0.5674752876E-02    0.2944679459E-02    0.1840314856E+00
    0.4100000000E+02    0.1425172575E+00    0.2324870773E-01    0.5835879100E-02    0.3067513442E-02    0.1892103998E+00
    0.4300000000E+02    0.1462465714E+00    0.2385619721E-01    0.5990290359E-02    0.3188318995E-02    0.1941776937E+00
    0.4500000000E+02    0.1498202482E+00    0.2443930701E-01    0.6138406042E-02    0.3307167879E-02    0.1989472910E+00
    0.4700000000E+02    0.1532478056E+00    0.2499960696E-01    0.6280610143E-02    0.3424128285E-02    0.2035318887E+00
    0.4900000000E+02    0.1565379773E+00    0.2553853151E-01    0.6417255011E-02    0.3539265060E-02    0.2079430904E+00
    0.1000000000E+02    0.5307684862E-01    0.8731142734E-02    0.2163741974E-02    0.8786334753E-03    0.7090201701E-01
    0.3000000000E+02    0.1187054649E+00    0.1938536981E-01    0.4853158758E-02    0.2364699206E-02    0.1576581585E+00
    0.5000000000E+02    0.1581340788E+00    0.2580039286E-01    0.6483595005E-02    0.3596168987E-02    0.2100870239E+00
    0.7000000000E+02    0.1844881822E+00    0.3018215038E-01    0.7584885584E-02    0.4652029147E-02    0.2460208886E+00
    0.9000000000E+02    0.2032725100E+00    0.3341667900E-01    0.8379097923E-02    0.5580324633E-02    0.2726313218E+00
    0.1100000000E+03    0.2172517013E+00    0.3593268503E-01    0.8977793618E-02    0.6412186125E-02    0.2933924449E+00
    0.1300000000E+03    0.2279828601E+00    0.3796464153E-01    0.9443863861E-02    0.7168804307E-02    0.3102065716E+00
    0.1500000000E+03    0.2364155159E+00    0.3965248631E-01    0.9815711459E-02    0.7865186017E-02    0.3242103183E+00
    0.1700000000E+03    0.2431635774E+00    0.4108538930E-01    0.1011820654E-01    0.8512309629E-02    0.3361287451E+00
    0.1900000000E+03    0.2486422263E+00    0.4232314331E-01    0.1036820067E-01    0.9118427338E-02    0.3464485618E+00
    0.2100000000E+03    0.2531424742E+00    0.4340751396E-01    0.1057753052E-01    0.9689886471E-02    0.3555100939E+00
    0.2300000000E+03    0.2568743422E+00    0.4436866703E-01    0.1075475813E-01    0.1023166656E-01    0.3635593981E+00
    0.2500000000E+03    0.2599931333E+00    0.4522900634E-01    0.1090623037E-01    0.1074774158E-01    0.3707794012E+00
    0.2700000000E+03    0.2626160804E+00    0.4600556825E-01    0.1103675078E-01    0.1124133097E-01    0.3773093410E+00
    0.2900000000E+03    0.2648332599E+00    0.4671157214E-01    0.1115002034E-01    0.1171507764E-01    0.3832573633E+00
    0.3100000000E+03    0.2667149558E+00    0.4735745685E-01    0.1124893515E-01    0.1217117687E-01    0.3887089466E+00
    0.3300000000E+03    0.2683167553E+00    0.4795159260E-01    0.1133579268E-01    0.1261147149E-01    0.3937326937E+00
    0.3500000000E+03    0.2696831508E+00    0.4850078211E-01    0.1141243765E-01    0.1303752312E-01    0.3983844104E+00
    0.3700000000E+03    0.2708501367E+00    0.4901062067E-01    0.1148036736E-01    0.1345066647E-01    0.4027100380E+00
    0.3900000000E+03    0.2718471126E+00    0.4948576000E-01    0.1154080898E-01    0.1385205123E-01    0.4067478035E+00
    0.4100000000E+03    0.2726983004E+00    0.4993010465E-01    0.1159477717E-01    0.1424267475E-01    0.4105298210E+00
    0.4300000000E+03    0.2734238134E+00    0.5034696058E-01    0.1164311758E-01    0.1462340786E-01    0.4140833041E+00
    0.4500000000E+03    0.2740404728E+00    0.5073914906E-01    0.1168654019E-01    0.1499501544E-01    0.4174314956E+00
    0.4700000000E+03    0.2745624394E+00    0.5110909509E-01    0.1172564504E-01    0.1535817305E-01    0.4205943894E+00
    0.4900000000E+03    0.2750017057E+00    0.5145889671E-01    0.1176094242E-01    0.1571348037E-01    0.4235892979E+00
    0.1000000000E+03    0.2107465208E+00    0.3474686539E-01    0.8698192632E-02    0.6006806691E-02    0.2836000451E+00
    0.3000000000E+03    0.2658122727E+00    0.4704146447E-01    0.1120111641E-01    0.1194521068E-01    0.3860405811E+00
    0.5000000000E+03    0.2751935785E+00    0.5162682341E-01    0.1177730220E-01    0.1588835958E-01    0.4250285470E+00
    0.7000000000E+03    0.2765126000E+00    0.5426809821E-01    0.1198318451E-01    0.1907783483E-01    0.4478086686E+00
    0.9000000000E+03    0.2754729678E+00    0.5605588781E-01    0.1206578102E-01    0.2185360824E-01    0.4634063982E+00
    0.1100000000E+04    0.2736234461E+00    0.5737485410E-01    0.1209637487E-01    0.2436064240E-01    0.4750283542E+00
    0.1300000000E+04    0.2715040433E+00    0.5840197563E-01    0.1210193363E-01    0.2667552409E-01    0.4841588567E+00
    0.1500000000E+04    0.2693292783E+00    0.5923217054E-01    0.1209443170E-01    0.2884426590E-01    0.4915982188E+00
    0.1700000000E+04    0.2671896514E+00    0.5992175720E-01    0.1207978082E-01    0.3089699107E-01    0.4978235590E+00
    0.1900000000E+04    0.2651231546E+00    0.6050664546E-01    0.1206112550E-01    0.3285466981E-01    0.5031404218E+00
    0.2100000000E+04    0.2631440196E+00    0.6101100420E-01    0.1204023113E-01    0.3473258875E-01    0.5077552782E+00
    0.2300000000E+04    0.2612553359E+00    0.6145180087E-01    0.1201812859E-01    0.3654229743E-01    0.5118136220E+00
    0.2500000000E+04    0.2594549458E+00    0.6184135755E-01    0.1199543684E-01    0.3829277503E-01    0.5154214860E+00
    0.2700000000E+04    0.2577383205E+00    0.6218887518E-01    0.1197253427E-01    0.3999116723E-01    0.5186583098E+00
    0.2900000000E+04    0.2560999995E+00    0.6250138591E-01    0.1194965411E-01    0.4164327214E-01    0.5215850003E+00
    0.3100000000E+04    0.2545343178E+00    0.6278437164E-01    0.1192693977E-01    0.4325387210E-01    0.5242491815E+00
    0.3300000000E+04    0.2530357659E+00    0.6304217906E-01    0.1190447793E-01    0.4482696739E-01    0.5266887248E+00
    0.3500000000E+04    0.2515991598E+00    0.6327830611E-01    0.1188231894E-01    0.4636594486E-01    0.5289341921E+00
    0.3700000000E+04    0.2502197088E+00    0.6349560451E-01    0.1186048960E-01    0.4787370253E-01    0.5310105663E+00
    0.3900000000E+04    0.2488930306E+00    0.6369642604E-01    0.1183900147E-01    0.4935274334E-01    0.5329385040E+00
    0.4100000000E+04    0.2476151390E+00    0.6388273016E-01    0.1181785616E-01    0.5080524700E-01    0.5347352595E+00
    0.4300000000E+04    0.2463824184E+00    0.6405616454E-01    0.1179704890E-01    0.5223312572E-01    0.5364153771E+00
    0.4500000000E+04    0.2451915936E+00    0.6421812625E-01    0.1177657090E-01    0.5363806826E-01    0.5379912181E+00
    0.4700000000E+04    0.2440396973E+00    0.6436980878E-01    0.1175641094E-01    0.5502157497E-01    0.5394733676E+00
    0.4900000000E+04    0.2429240395E+00    0.6451223880E-01    0.1173655640E-01    0.5638498610E-01    0.5408709510E+00
    0.1000000000E+04    0.2746040163E+00    0.5676017044E-01    0.1208536440E-01    0.2313494911E-01    0.4695987588E+00
    0.3000000000E+04    0.2553084294E+00    0.6264627498E-01    0.1193826975E-01    0.4245349412E-01    0.5229473419E+00
    0.5000000000E+04    0.2423790281E+00    0.6458026654E-01    0.1172673953E-01    0.5705953661E-01    0.5415405459E+00
    0.7000000000E+04    0.2328951849E+00    0.6561906867E-01    0.1154329013E-01    0.6973276960E-01    0.5519595848E+00
    0.9000000000E+04    0.2252708585E+00    0.6628630997E-01    0.1137753020E-01    0.8125731175E-01    0.5588959859E+00
    0.1100000000E+05    0.2187962744E+00    0.6675810459E-01    0.1122293148E-01    0.9199007461E-01    0.5639601071E+00
    0.1300000000E+05    0.2131015395E+00    0.6711252267E-01    0.1107589135E-01    0.1021293920E+00    0.5678779102E+00
    0.1500000000E+05    0.2079713081E+00    0.6739013560E-01    0.1093431321E-01    0.1117988525E+00    0.5710322796E+00
    0.1700000000E+05    0.2032698030E+00    0.6761436248E-01    0.1079690301E-01    0.1210814809E+00    0.5736472118E+00
    0.1900000000E+05    0.1989061611E+00    0.6779977563E-01    0.1066282161E-01    0.1300361094E+00    0.5758638257E+00
    0.2100000000E+05    0.1948167095E+00    0.6795597007E-01    0.1053150274E-01    0.1387061261E+00    0.5777761256E+00
    0.2300000000E+05    0.1909551641E+00    0.6808954918E-01    0.1040255188E-01    0.1471245406E+00    0.5794495209E+00
    0.2500000000E+05    0.1872868620E+00    0.6820522201E-01    0.1027568706E-01    0.1553171013E+00    0.5809311473E+00
    0.2700000000E+05    0.1837851924E+00    0.6830644640E-01    0.1015070255E-01    0.1633043109E+00    0.5822559653E+00
    0.2900000000E+05    0.1804292944E+00    0.6839582441E-01    0.1002744573E-01    0.1711027803E+00    0.5834505384E+00
    0.3100000000E+05    0.1772025187E+00    0.6847535532E-01    0.9905801873E-02    0.1787261696E+00    0.5845354679E+00
    0.3300000000E+05    0.1740913695E+00    0.6854660310E-01    0.9785683799E-02    0.1861858596E+00    0.5855270155E+00
    0.3500000000E+05    0.1710847561E+00    0.6861081036E-01    0.9667024695E-02    0.1934914428E+00    0.5864382165E+00
    0.3700000000E+05    0.1681734539E+00    0.6866897806E-01    0.9549772999E-02    0.2006510898E+00    0.5872796613E+00
    0.3900000000E+05    0.1653497057E+00    0.6872192231E-01    0.9433888691E-02    0.2076718270E+00    0.5880600578E+00
    0.4100000000E+05    0.1626069244E+00    0.6877031578E-01    0.9319340564E-02    0.2145597512E+00    0.5887866422E+00
    0.4300000000E+05    0.1599394658E+00    0.6881471825E-01    0.9206104168E-02    0.2213201970E+00    0.5894654859E+00
    0.4500000000E+05    0.1573424535E+00    0.6885559973E-01    0.9094160257E-02    0.2279578692E+00    0.5901017268E+00
    0.4700000000E+05    0.1548116423E+00    0.6889335796E-01    0.8983493599E-02    0.2344769488E+00    0.5906997474E+00
    0.4900000000E+05    0.1523433097E+00    0.6892833196E-01    0.8874092041E-02    0.2408811785E+00    0.5912633122E+00
    0.1000000000E+05    0.2219179333E+00    0.6654049230E-01    0.1129910820E-01    0.8670791235E-01    0.5616051758E+00
    0.3000000000E+05    0.1788006737E+00    0.6843671434E-01    0.9966428179E-02    0.1749356017E+00    0.5840056055E+00
    0.5000000000E+05    0.1511315311E+00    0.6894486743E-01    0.8819862539E-02    0.2440412917E+00    0.5915332083E+00
    0.7000000000E+05    0.1295441174E+00    0.6918228090E-01    0.7799995664E-02    0.3018931927E+00    0.5957223312E+00
    0.9000000000E+05    0.1119457326E+00    0.6931694334E-01    0.6900102027E-02    0.3508493619E+00    0.5984923044E+00
    0.1100000000E+06    0.9738663246E-01    0.6940127449E-01    0.6113714759E-02    0.3923179259E+00    0.6004922705E+00
    0.1300000000E+06    0.8526112235E-01    0.6945721322E-01    0.5431358854E-02    0.4274300841E+00    0.6020157156E+00
    0.1500000000E+06    0.7511621743E-01    0.6949561789E-01    0.4841709638E-02    0.4571719146E+00    0.6032193450E+00
    0.1700000000E+06    0.6659174535E-01    0.6952248887E-01    0.4332998687E-02    0.4824056525E+00    0.6041963190E+00
    0.1900000000E+06    0.5939591074E-01    0.6954141253E-01    0.3893982893E-02    0.5038732614E+00    0.6050062618E+00
    0.2100000000E+06    0.5329152144E-01    0.6955466229E-01    0.3514466241E-02    0.5222026038E+00    0.6056894102E+00
    0.2300000000E+06    0.4808596205E-01    0.6956374682E-01    0.3185502619E-02    0.5379181531E+00    0.6062740143E+00
    0.2500000000E+06    0.4362301414E-01    0.6956970470E-01    0.2899405788E-02    0.5514542201E+00    0.6067805276E+00
    0.2700000000E+06    0.3977601001E-01    0.6957327264E-01    0.2649658113E-02    0.5631686232E+00    0.6072241300E+00
    0.2900000000E+06    0.3644213922E-01    0.6957498650E-01    0.2430775932E-02    0.5733554830E+00    0.6076163213E+00
    0.3100000000E+06    0.3353777730E-01    0.6957524433E-01    0.2238164701E-02    0.5822565112E+00    0.6079659674E+00
    0.3300000000E+06    0.3099469943E-01    0.6957434720E-01    0.2067981103E-02    0.5900706091E+00    0.6082800087E+00
    0.3500000000E+06    0.2875703943E-01    0.6957252641E-01    0.1917009767E-02    0.5969618419E+00    0.6085639516E+00
    0.3700000000E+06    0.2677886131E-01    0.6956996208E-01    0.1782556958E-02    0.6030659649E+00    0.6088222185E+00
    0.3900000000E+06    0.2502222637E-01    0.6956679616E-01    0.1662360915E-02    0.6084957195E+00    0.6090583999E+00
    0.4100000000E+06    0.2345565623E-01    0.6956314169E-01    0.1554517215E-02    0.6133451060E+00    0.6092754399E+00
    0.4300000000E+06    0.2205291020E-01    0.6955908951E-01    0.1457417178E-02    0.6176928268E+00    0.6094757751E+00
    0.4500000000E+06    0.2079201095E-01    0.6955471324E-01    0.1369697238E-02    0.6216050561E+00    0.6096614386E+00
    0.4700000000E+06    0.1965446617E-01    0.6955007300E-01    0.1290197440E-02    0.6251376734E+00    0.6098341407E+00
    0.4900000000E+06    0.1862464471E-01    0.6954521817E-01    0.1217927414E-02    0.6283380655E+00    0.6099953296E+00
    0.1000000000E+06    0.1043288796E+00    0.6936364894E-01    0.6493250637E-02    0.3724449072E+00    0.5995655944E+00
    0.3000000000E+06    0.3494085569E-01    0.6957527670E-01    0.2331442736E-02    0.5779533923E+00    0.6077959902E+00
    0.5000000000E+06    0.1814590232E-01    0.6954272332E-01    0.1184233473E-02    0.6298265283E+00    0.6100719999E+00
    0.7000000000E+06    0.1187572413E-01    0.6948846226E-01    0.7374147187E-03    0.6493343022E+00    0.6112230871E+00
    0.9000000000E+06    0.8824631002E-02    0.6943377232E-01    0.5171433935E-03    0.6587834669E+00    0.6119532871E+00
    0.1100000000E+07    0.7077049466E-02    0.6938248122E-01    0.3912050236E-03    0.6641365145E+00    0.6124732149E+00
    0.1300000000E+07    0.5961810837E-02    0.6933512919E-01    0.3116704515E-03    0.6675021755E+00    0.6128699750E+00
    0.1500000000E+07    0.5193773167E-02    0.6929148163E-01    0.2577543975E-03    0.6697802950E+00    0.6131870009E+00
    0.1700000000E+07    0.4634268061E-02    0.6925113662E-01    0.2192219679E-03    0.6714090428E+00    0.6134487487E+00
    0.1900000000E+07    0.4208795849E-02    0.6921369165E-01    0.1905357918E-03    0.6726236052E+00    0.6136702136E+00
    0.2100000000E+07    0.3874155231E-02    0.6917878787E-01    0.1684749270E-03    0.6735600068E+00    0.6138611889E+00
    0.2300000000E+07    0.3603735551E-02    0.6914611722E-01    0.1510551297E-03    0.6743017066E+00    0.6140283892E+00
    0.2500000000E+07    0.3380324195E-02    0.6911541850E-01    0.1369957026E-03    0.6749024206E+00    0.6141765987E+00
    0.2700000000E+07    0.3192328723E-02    0.6908647058E-01    0.1254375290E-03    0.6753981162E+00    0.6143093358E+00
    0.2900000000E+07    0.3031672621E-02    0.6905908578E-01    0.1157852845E-03    0.6758136897E+00    0.6144292556E+00
    0.3100000000E+07    0.2892564281E-02    0.6903310405E-01    0.1076148584E-03    0.6761668687E+00    0.6145384065E+00
    0.3300000000E+07    0.2770746189E-02    0.6900838812E-01    0.1006168087E-03    0.6764705879E+00    0.6146383989E+00
    0.3500000000E+07    0.2663020287E-02    0.6898481958E-01    0.9456060690E-04    0.6767344870E+00    0.6147305195E+00
    0.3700000000E+07    0.2566938440E-02    0.6896229566E-01    0.8927133981E-04    0.6769658855E+00    0.6148158109E+00
    0.3900000000E+07    0.2480594982E-02    0.6894072671E-01    0.8461412088E-04    0.6771704336E+00    0.6148951289E+00
    0.4100000000E+07    0.2402484289E-02    0.6892003406E-01    0.8048341343E-04    0.6773525572E+00    0.6149691833E+00
    0.4300000000E+07    0.2331400862E-02    0.6890014836E-01    0.7679556409E-04    0.6775157695E+00    0.6150385693E+00
    0.4500000000E+07    0.2266367875E-02    0.6888100813E-01    0.7348348268E-04    0.6776628923E+00    0.6151037899E+00
    0.4700000000E+07    0.2206585185E-02    0.6886255868E-01    0.7049278700E-04    0.6777962169E+00    0.6151652739E+00
    0.4900000000E+07    0.2151390900E-02    0.6884475113E-01    0.6777896622E-04    0.6779176218E+00    0.6152233896E+00
    0.1000000000E+07    0.7843791562E-02    0.6940763678E-01    0.4463494717E-03    0.6617966617E+00    0.6122325842E+00
    0.3000000000E+07    0.2959720459E-02    0.6904592859E-01    0.1115363767E-03    0.6759971785E+00    0.6144850678E+00
    0.5000000000E+07    0.2125338127E-02    0.6883607418E-01    0.6651414133E-04    0.6779743507E+00    0.6152512855E+00
    0.7000000000E+07    0.1748942615E-02    0.6868762319E-01    0.4947280827E-04    0.6787496334E+00    0.6156910440E+00
    0.9000000000E+07    0.1523713597E-02    0.6857238364E-01    0.4044975187E-04    0.6791707402E+00    0.6159921100E+00
    0.1100000000E+08    0.1369505184E-02    0.6847804110E-01    0.3479732439E-04    0.6794394759E+00    0.6162179331E+00
    0.1300000000E+08    0.1255283445E-02    0.6839809406E-01    0.3088265053E-04    0.6796281919E+00    0.6163970934E+00
    0.1500000000E+08    0.1166207632E-02    0.6832868255E-01    0.2798589427E-04    0.6797693384E+00    0.6165447383E+00
    0.1700000000E+08    0.1094170704E-02    0.6826732368E-01    0.2573986544E-04    0.6798797102E+00    0.6166697955E+00
    0.1900000000E+08    0.1034317730E-02    0.6821232421E-01    0.2393710586E-04    0.6799689132E+00    0.6167779392E+00
    0.2100000000E+08    0.9835386077E-03    0.6816247683E-01    0.2245119241E-04    0.6800428619E+00    0.6168729846E+00
    0.2300000000E+08    0.9397355002E-03    0.6811688990E-01    0.2120046129E-04    0.6801054109E+00    0.6169576121E+00
    0.2500000000E+08    0.9014344663E-03    0.6807488591E-01    0.2012966461E-04    0.6801591877E+00    0.6170337721E+00
    0.2700000000E+08    0.8675651023E-03    0.6803593780E-01    0.1919999446E-04    0.6802060502E+00    0.6171029250E+00
