  Pressure (Pa) 2mC6-400 (mol/kg) 3mC6-400 (mol/kg) 33mC5-400 (mol/kg) 23mC5-400 (mol/kg) C7-400 (mol/kg)
    0.1000000000E+01    0.6298713902E-02    0.5216577981E-03    0.1282248982E-03    0.3716428683E-03    0.8465349982E-02
    0.3000000000E+01    0.1815786443E-01    0.1502453850E-02    0.3697367123E-03    0.1100003381E-02    0.2438597970E-01
    0.5000000000E+01    0.2912832684E-01    0.2408293192E-02    0.5932697611E-03    0.1809327109E-02    0.3909541896E-01
    0.7000000000E+01    0.3930942037E-01    0.3247875985E-02    0.8008357808E-03    0.2500585500E-02    0.5273405273E-01
    0.9000000000E+01    0.4878575672E-01    0.4028590935E-02    0.9941481207E-03    0.3174681930E-02    0.6542111973E-01
    0.1100000000E+02    0.5762990744E-01    0.4756754328E-02    0.1174675928E-02    0.3832457670E-02    0.7725856482E-01
    0.1300000000E+02    0.6590450703E-01    0.5437798542E-02    0.1343686860E-02    0.4474697230E-02    0.8833407760E-01
    0.1500000000E+02    0.7366392673E-01    0.6076422087E-02    0.1502281068E-02    0.5102133158E-02    0.9872351105E-01
    0.1700000000E+02    0.8095561811E-01    0.6676710041E-02    0.1651418471E-02    0.5715450348E-02    0.1084928230E+00
    0.1900000000E+02    0.8782120044E-01    0.7242231471E-02    0.1791940822E-02    0.6315289933E-02    0.1176996468E+00
    0.2100000000E+02    0.9429734721E-01    0.7776118830E-02    0.1924589693E-02    0.6902252790E-02    0.1263945716E+00
    0.2300000000E+02    0.1004165141E+00    0.8281133096E-02    0.2050021248E-02    0.7476902716E-02    0.1346221926E+00
    0.2500000000E+02    0.1062075407E+00    0.8759717568E-02    0.2168818434E-02    0.8039769299E-02    0.1424219787E+00
    0.2700000000E+02    0.1116961506E+00    0.9214042549E-02    0.2281501135E-02    0.8591350531E-02    0.1498289929E+00
    0.2900000000E+02    0.1169053703E+00    0.9646042674E-02    0.2388534647E-02    0.9132115177E-02    0.1568744948E+00
    0.3100000000E+02    0.1218558809E+00    0.1005744827E-01    0.2490336817E-02    0.9662504932E-02    0.1635864457E+00
    0.3300000000E+02    0.1265663157E+00    0.1044981179E-01    0.2587284068E-02    0.1018293639E-01    0.1699899363E+00
    0.3500000000E+02    0.1310535132E+00    0.1082453032E-01    0.2679716524E-02    0.1069380285E-01    0.1761075478E+00
    0.3700000000E+02    0.1353327324E+00    0.1118286460E-01    0.2767942372E-02    0.1119547593E-01    0.1819596612E+00
    0.3900000000E+02    0.1394178380E+00    0.1152595548E-01    0.2852241611E-02    0.1168830712E-01    0.1875647204E+00
    0.4100000000E+02    0.1433214596E+00    0.1185483786E-01    0.2932869273E-02    0.1217262912E-01    0.1929394596E+00
    0.4300000000E+02    0.1470551291E+00    0.1217045290E-01    0.3010058205E-02    0.1264875710E-01    0.1980990979E+00
    0.4500000000E+02    0.1506293998E+00    0.1247365845E-01    0.3084021484E-02    0.1311698991E-01    0.2030575093E+00
    0.4700000000E+02    0.1540539505E+00    0.1276523812E-01    0.3154954517E-02    0.1357761112E-01    0.2078273688E+00
    0.4900000000E+02    0.1573376763E+00    0.1304590928E-01    0.3223036874E-02    0.1403089000E-01    0.2124202809E+00
    0.1000000000E+02    0.5328272917E-01    0.4398883258E-02    0.1085926575E-02    0.3505559582E-02    0.7144026128E-01
    0.3000000000E+02    0.1194117548E+00    0.9854218869E-02    0.2440065216E-02    0.9398580312E-02    0.1602705332E+00
    0.5000000000E+02    0.1589293149E+00    0.1318236193E-01    0.3256061235E-02    0.1425485654E-01    0.2146537431E+00
    0.7000000000E+02    0.1850501855E+00    0.1547276533E-01    0.3800829316E-02    0.1840463191E-01    0.2522024500E+00
    0.9000000000E+02    0.2034087308E+00    0.1717170875E-01    0.4188110723E-02    0.2204599183E-01    0.2801401262E+00
    0.1100000000E+03    0.2168535020E+00    0.1849775038E-01    0.4475422989E-02    0.2530588470E-01    0.3020084199E+00
    0.1300000000E+03    0.2269916470E+00    0.1957140593E-01    0.4695242531E-02    0.2826996142E-01    0.3197624070E+00
    0.1500000000E+03    0.2348023609E+00    0.2046502288E-01    0.4867379422E-02    0.3099843510E-01    0.3345770140E+00
    0.1700000000E+03    0.2409172686E+00    0.2122490344E-01    0.5004630739E-02    0.3353508370E-01    0.3472049806E+00
    0.1900000000E+03    0.2457621938E+00    0.2188220020E-01    0.5115638659E-02    0.3591264062E-01    0.3581532761E+00
    0.2100000000E+03    0.2496345281E+00    0.2245873148E-01    0.5206450406E-02    0.3815616826E-01    0.3677773217E+00
    0.2300000000E+03    0.2527480598E+00    0.2297028987E-01    0.5281422396E-02    0.4028524949E-01    0.3763346313E+00
    0.2500000000E+03    0.2552602344E+00    0.2342862521E-01    0.5343770292E-02    0.4231545732E-01    0.3840169813E+00
    0.2700000000E+03    0.2572894055E+00    0.2384268567E-01    0.5395917313E-02    0.4425936792E-01    0.3909705572E+00
    0.2900000000E+03    0.2589261246E+00    0.2421942339E-01    0.5439722328E-02    0.4612727601E-01    0.3973090401E+00
    0.3100000000E+03    0.2602407433E+00    0.2456433420E-01    0.5476633577E-02    0.4792771079E-01    0.4031223783E+00
    0.3300000000E+03    0.2612886610E+00    0.2488182905E-01    0.5507794871E-02    0.4966781516E-01    0.4084828282E+00
    0.3500000000E+03    0.2621140262E+00    0.2517549587E-01    0.5534120582E-02    0.5135362908E-01    0.4134492148E+00
    0.3700000000E+03    0.2627523977E+00    0.2544828799E-01    0.5556349597E-02    0.5299030474E-01    0.4180699998E+00
    0.3900000000E+03    0.2632326901E+00    0.2570266235E-01    0.5575084822E-02    0.5458227190E-01    0.4223855331E+00
    0.4100000000E+03    0.2635786185E+00    0.2594068251E-01    0.5590822542E-02    0.5613336684E-01    0.4264297321E+00
    0.4300000000E+03    0.2638097857E+00    0.2616409671E-01    0.5603974543E-02    0.5764693382E-01    0.4302313538E+00
    0.4500000000E+03    0.2639425105E+00    0.2637439760E-01    0.5614884991E-02    0.5912590594E-01    0.4338149713E+00
    0.4700000000E+03    0.2639904661E+00    0.2657286884E-01    0.5623843458E-02    0.6057287006E-01    0.4372017324E+00
    0.4900000000E+03    0.2639651774E+00    0.2676062151E-01    0.5631095076E-02    0.6199011945E-01    0.4404099564E+00
    0.1000000000E+03    0.2106253744E+00    0.1787229760E-01    0.4341839573E-02    0.2371753130E-01    0.2916862653E+00
    0.3000000000E+03    0.2596199330E+00    0.2439555954E-01    0.5458962051E-02    0.4703545235E-01    0.4002764785E+00
    0.5000000000E+03    0.2639281782E+00    0.2685078567E-01    0.5634147273E-02    0.6268824825E-01    0.4419521867E+00
    0.7000000000E+03    0.2610702400E+00    0.2827178116E-01    0.5642832631E-02    0.7548723674E-01    0.4664048756E+00
    0.9000000000E+03    0.2564257368E+00    0.2923692380E-01    0.5601655843E-02    0.8672633954E-01    0.4831975059E+00
    0.1100000000E+04    0.2513617943E+00    0.2995090963E-01    0.5542448279E-02    0.9695187711E-01    0.4957383583E+00
    0.1300000000E+04    0.2463123229E+00    0.3050815833E-01    0.5476483696E-02    0.1064502734E+00    0.5056087886E+00
    0.1500000000E+04    0.2414252563E+00    0.3095941954E-01    0.5408370926E-02    0.1153924130E+00    0.5136631102E+00
    0.1700000000E+04    0.2367466933E+00    0.3133486242E-01    0.5340152287E-02    0.1238894133E+00    0.5204115162E+00
    0.1900000000E+04    0.2322835483E+00    0.3165375646E-01    0.5272764521E-02    0.1320181060E+00    0.5261812360E+00
    0.2100000000E+04    0.2280274402E+00    0.3192909100E-01    0.5206630822E-02    0.1398341167E+00    0.5311937024E+00
    0.2300000000E+04    0.2239644778E+00    0.3216999792E-01    0.5141923824E-02    0.1473791822E+00    0.5356051488E+00
    0.2500000000E+04    0.2200794156E+00    0.3238311758E-01    0.5078690594E-02    0.1546855257E+00    0.5395295666E+00
    0.2700000000E+04    0.2163574142E+00    0.3257341428E-01    0.5016915061E-02    0.1617786126E+00    0.5430524476E+00
    0.2900000000E+04    0.2127847387E+00    0.3274468636E-01    0.4956550333E-02    0.1686789640E+00    0.5462394029E+00
    0.3100000000E+04    0.2093489751E+00    0.3289989785E-01    0.4897535794E-02    0.1754033921E+00    0.5491417808E+00
    0.3300000000E+04    0.2060390331E+00    0.3304140123E-01    0.4839806241E-02    0.1819658681E+00    0.5518004485E+00
    0.3500000000E+04    0.2028450551E+00    0.3317109134E-01    0.4783296725E-02    0.1883781474E+00    0.5542484109E+00
    0.3700000000E+04    0.1997582945E+00    0.3329051422E-01    0.4727945030E-02    0.1946502300E+00    0.5565126675E+00
    0.3900000000E+04    0.1967709864E+00    0.3340094592E-01    0.4673692850E-02    0.2007907065E+00    0.5586155576E+00
    0.4100000000E+04    0.1938762267E+00    0.3350345037E-01    0.4620486227E-02    0.2068070221E+00    0.5605757526E+00
    0.4300000000E+04    0.1910678623E+00    0.3359892287E-01    0.4568275596E-02    0.2127056813E+00    0.5624090012E+00
    0.4500000000E+04    0.1883403938E+00    0.3368812304E-01    0.4517015611E-02    0.2184924087E+00    0.5641286957E+00
    0.4700000000E+04    0.1856888913E+00    0.3377170022E-01    0.4466664865E-02    0.2241722771E+00    0.5657463100E+00
    0.4900000000E+04    0.1831089217E+00    0.3385021332E-01    0.4417185574E-02    0.2297498098E+00    0.5672717413E+00
    0.1000000000E+04    0.2539086198E+00    0.2961795179E-01    0.5573362830E-02    0.9194418470E-01    0.4898763308E+00
    0.3000000000E+04    0.2110504663E+00    0.3282414038E-01    0.4926878329E-02    0.1720622370E+00    0.5477233993E+00
    0.5000000000E+04    0.1818444967E+00    0.3388772467E-01    0.4392761823E-02    0.2325014846E+00    0.5680026175E+00
    0.7000000000E+04    0.1595191489E+00    0.3446150906E-01    0.3943086178E-02    0.2829655841E+00    0.5793735168E+00
    0.9000000000E+04    0.1414633361E+00    0.3483108020E-01    0.3554817111E-02    0.3261563568E+00    0.5869325087E+00
    0.1100000000E+05    0.1264634109E+00    0.3509291688E-01    0.3216311701E-02    0.3634445787E+00    0.5924359161E+00
    0.1300000000E+05    0.1138159214E+00    0.3528991439E-01    0.2920016796E-02    0.3957615720E+00    0.5966779700E+00
    0.1500000000E+05    0.1030496308E+00    0.3544441364E-01    0.2660119535E-02    0.4238385835E+00    0.6000787446E+00
    0.1700000000E+05    0.9381952440E-01    0.3556933290E-01    0.2431756256E-02    0.4482859416E+00    0.6028846467E+00
    0.1900000000E+05    0.8585956020E-01    0.3567272191E-01    0.2230727079E-02    0.4696239193E+00    0.6052512937E+00
    0.2100000000E+05    0.7895843594E-01    0.3575988729E-01    0.2053377272E-02    0.4882980134E+00    0.6072825706E+00
    0.2300000000E+05    0.7294543778E-01    0.3583448488E-01    0.1896530982E-02    0.5046891254E+00    0.6090508893E+00
    0.2500000000E+05    0.6768120721E-01    0.3589912411E-01    0.1757439605E-02    0.5191219664E+00    0.6106085020E+00
    0.2700000000E+05    0.6305119475E-01    0.3595572259E-01    0.1633733924E-02    0.5318726104E+00    0.6119941985E+00
    0.2900000000E+05    0.5896075557E-01    0.3600572441E-01    0.1523378146E-02    0.5431753628E+00    0.6132374649E+00
    0.3100000000E+05    0.5533134979E-01    0.3605023983E-01    0.1424626516E-02    0.5532289233E+00    0.6143611700E+00
    0.3300000000E+05    0.5209754112E-01    0.3609013786E-01    0.1335983416E-02    0.5622018181E+00    0.6153833594E+00
    0.3500000000E+05    0.4920459960E-01    0.3612610936E-01    0.1256167584E-02    0.5702371085E+00    0.6163184886E+00
    0.3700000000E+05    0.4660657422E-01    0.3615871108E-01    0.1184080613E-02    0.5774564221E+00    0.6171782904E+00
    0.3900000000E+05    0.4426473666E-01    0.3618839721E-01    0.1118779645E-02    0.5839633683E+00    0.6179724003E+00
    0.4100000000E+05    0.4214632062E-01    0.3621554221E-01    0.1059453926E-02    0.5898464143E+00    0.6187088142E+00
    0.4300000000E+05    0.4022349778E-01    0.3624045788E-01    0.1005404850E-02    0.5951812945E+00    0.6193942301E+00
    0.4500000000E+05    0.3847254363E-01    0.3626340609E-01    0.9560290403E-03    0.6000330235E+00    0.6200343060E+00
    0.4700000000E+05    0.3687315617E-01    0.3628460851E-01    0.9108040648E-03    0.6044575754E+00    0.6206338592E+00
    0.4900000000E+05    0.3540789772E-01    0.3630425419E-01    0.8692763880E-03    0.6085032844E+00    0.6211970195E+00
    0.1000000000E+05    0.1336327372E+00    0.3497209082E-01    0.3379872388E-02    0.3454738484E+00    0.5898789534E+00
    0.3000000000E+05    0.5709278972E-01    0.3602860880E-01    0.1472650711E-02    0.5483471106E+00    0.6138130383E+00
    0.5000000000E+05    0.3472078625E-01    0.3631354486E-01    0.8497736150E-03    0.6103973797E+00    0.6214660852E+00
    0.7000000000E+05    0.2529078624E-01    0.3644713540E-01    0.5810520165E-03    0.6360426959E+00    0.6255909541E+00
    0.9000000000E+05    0.2029357548E-01    0.3652313429E-01    0.4393931955E-03    0.6491141130E+00    0.6282737477E+00
    0.1100000000E+06    0.1723202816E-01    0.3657087047E-01    0.3541400427E-03    0.6567552421E+00    0.6302009763E+00
    0.1300000000E+06    0.1516530508E-01    0.3660263984E-01    0.2979385261E-03    0.6616613807E+00    0.6316737356E+00
    0.1500000000E+06    0.1367165632E-01    0.3662453612E-01    0.2583736456E-03    0.6650314411E+00    0.6328477818E+00
    0.1700000000E+06    0.1253685907E-01    0.3663993029E-01    0.2291147744E-03    0.6674665066E+00    0.6338129268E+00
    0.1900000000E+06    0.1164144550E-01    0.3665083901E-01    0.2066368979E-03    0.6692963221E+00    0.6346251174E+00
    0.2100000000E+06    0.1091380338E-01    0.3665854164E-01    0.1888380015E-03    0.6707148781E+00    0.6353212836E+00
    0.2300000000E+06    0.1030847532E-01    0.3666388783E-01    0.1743940784E-03    0.6718428420E+00    0.6359269287E+00
    0.2500000000E+06    0.9795233718E-02    0.3666746286E-01    0.1624330490E-03    0.6727587613E+00    0.6364603135E+00
    0.2700000000E+06    0.9353191723E-02    0.3666968221E-01    0.1523587677E-03    0.6735157301E+00    0.6369349076E+00
    0.2900000000E+06    0.8967444820E-02    0.3667084827E-01    0.1437507443E-03    0.6741507967E+00    0.6373608961E+00
    0.3100000000E+06    0.8627062647E-02    0.3667118582E-01    0.1363043407E-03    0.6746905238E+00    0.6377461439E+00
    0.3300000000E+06    0.8323838929E-02    0.3667086501E-01    0.1297936878E-03    0.6751544078E+00    0.6380968355E+00
    0.3500000000E+06    0.8051485874E-02    0.3667001665E-01    0.1240479072E-03    0.6755570539E+00    0.6384179108E+00
    0.3700000000E+06    0.7805099135E-02    0.3666874269E-01    0.1189354096E-03    0.6759096018E+00    0.6387133703E+00
    0.3900000000E+06    0.7580792946E-02    0.3666712355E-01    0.1143532565E-03    0.6762206841E+00    0.6389864936E+00
    0.4100000000E+06    0.7375445435E-02    0.3666522329E-01    0.1102197852E-03    0.6764970862E+00    0.6392399983E+00
    0.4300000000E+06    0.7186517112E-02    0.3666309349E-01    0.1064693925E-03    0.6767442102E+00    0.6394761586E+00
    0.4500000000E+06    0.7011919073E-02    0.3666077596E-01    0.1030487750E-03    0.6769664064E+00    0.6396968944E+00
    0.4700000000E+06    0.6849915696E-02    0.3665830488E-01    0.9991417610E-04    0.6771672150E+00    0.6399038390E+00
    0.4900000000E+06    0.6699051701E-02    0.3665570836E-01    0.9702933876E-04    0.6773495442E+00    0.6400983926E+00
    0.1000000000E+06    0.1859803691E-01    0.3654955401E-01    0.3919506474E-03    0.6533920337E+00    0.6293080627E+00
    0.3000000000E+06    0.8792148797E-02    0.3667110890E-01    0.1398979753E-03    0.6744312236E+00    0.6375581926E+00
    0.5000000000E+06    0.6627404933E-02    0.3665437049E-01    0.9567091323E-04    0.6774345486E+00    0.6401914067E+00
    0.7000000000E+06    0.5560456381E-02    0.3662497049E-01    0.7633196591E-04    0.6785785412E+00    0.6416229213E+00
    0.9000000000E+06    0.4893500561E-02    0.3659507749E-01    0.6508378425E-04    0.6791778984E+00    0.6425606186E+00
    0.1100000000E+07    0.4425074578E-02    0.3656693669E-01    0.5755716752E-04    0.6795468812E+00    0.6432382040E+00
    0.1300000000E+07    0.4072360169E-02    0.3654090156E-01    0.5208472702E-04    0.6797973365E+00    0.6437586453E+00
    0.1500000000E+07    0.3794146166E-02    0.3651686983E-01    0.4788174325E-04    0.6799788320E+00    0.6441754176E+00
    0.1700000000E+07    0.3567276364E-02    0.3649463454E-01    0.4452602470E-04    0.6801166633E+00    0.6445194573E+00
    0.1900000000E+07    0.3377590433E-02    0.3647398230E-01    0.4176823477E-04    0.6802250823E+00    0.6448100902E+00
    0.2100000000E+07    0.3215870278E-02    0.3645472053E-01    0.3945063974E-04    0.6803127309E+00    0.6450601048E+00
    0.2300000000E+07    0.3075818790E-02    0.3643668278E-01    0.3746804004E-04    0.6803851551E+00    0.6452783518E+00
    0.2500000000E+07    0.2952966172E-02    0.3641972730E-01    0.3574727141E-04    0.6804460791E+00    0.6454711817E+00
    0.2700000000E+07    0.2844039014E-02    0.3640373371E-01    0.3423568794E-04    0.6804980974E+00    0.6456432875E+00
    0.2900000000E+07    0.2746577020E-02    0.3638859963E-01    0.3289432449E-04    0.6805430739E+00    0.6457982239E+00
    0.3100000000E+07    0.2658690032E-02    0.3637423759E-01    0.3169364865E-04    0.6805823825E+00    0.6459387407E+00
    0.3300000000E+07    0.2578898394E-02    0.3636057246E-01    0.3061081899E-04    0.6806170590E+00    0.6460670035E+00
    0.3500000000E+07    0.2506024816E-02    0.3634753936E-01    0.2962785717E-04    0.6806478991E+00    0.6461847446E+00
    0.3700000000E+07    0.2439119172E-02    0.3633508195E-01    0.2873039487E-04    0.6806755246E+00    0.6462933691E+00
    0.3900000000E+07    0.2377404991E-02    0.3632315100E-01    0.2790679361E-04    0.6807004284E+00    0.6463940304E+00
    0.4100000000E+07    0.2320240605E-02    0.3631170332E-01    0.2714751309E-04    0.6807230066E+00    0.6464876857E+00
    0.4300000000E+07    0.2267090435E-02    0.3630070078E-01    0.2644464931E-04    0.6807435811E+00    0.6465751370E+00
    0.4500000000E+07    0.2217503413E-02    0.3629010960E-01    0.2579159105E-04    0.6807624165E+00    0.6466570622E+00
    0.4700000000E+07    0.2171096557E-02    0.3627989968E-01    0.2518276053E-04    0.6807797321E+00    0.6467340389E+00
    0.4900000000E+07    0.2127542275E-02    0.3627004411E-01    0.2461341480E-04    0.6807957113E+00    0.6468065626E+00
    0.1000000000E+07    0.4641084251E-02    0.3658074769E-01    0.6099060760E-04    0.6793819604E+00    0.6429238145E+00
    0.3000000000E+07    0.2701537286E-02    0.3638132706E-01    0.3227796016E-04    0.6805633654E+00    0.6458701378E+00
    0.5000000000E+07    0.2106745142E-02    0.3626524157E-01    0.2434225627E-04    0.6808032491E+00    0.6468412908E+00
    0.7000000000E+07    0.1788922308E-02    0.3618305069E-01    0.2025510540E-04    0.6809112029E+00    0.6473808453E+00
    0.9000000000E+07    0.1583320125E-02    0.3611922080E-01    0.1766847957E-04    0.6809740580E+00    0.6477404683E+00
    0.1100000000E+08    0.1436268854E-02    0.3606695271E-01    0.1584695798E-04    0.6810158073E+00    0.6480041881E+00
    0.1300000000E+08    0.1324324703E-02    0.3602265301E-01    0.1447680907E-04    0.6810458608E+00    0.6482093726E+00
    0.1500000000E+08    0.1235392672E-02    0.3598418693E-01    0.1339885962E-04    0.6810687024E+00    0.6483755871E+00
    0.1700000000E+08    0.1162514024E-02    0.3595018068E-01    0.1252270096E-04    0.6810867552E+00    0.6485142337E+00
    0.1900000000E+08    0.1101362608E-02    0.3591969711E-01    0.1179270900E-04    0.6811014506E+00    0.6486324829E+00
    0.2100000000E+08    0.1049088058E-02    0.3589206782E-01    0.1117255288E-04    0.6811136920E+00    0.6487351093E+00
    0.2300000000E+08    0.1003725413E-02    0.3586679910E-01    0.1063737401E-04    0.6811240795E+00    0.6488254364E+00
    0.2500000000E+08    0.9638700109E-03    0.3584351573E-01    0.1016951834E-04    0.6811330284E+00    0.6489058617E+00
    0.2700000000E+08    0.9284873726E-03    0.3582192580E-01    0.9756059902E-05    0.6811408361E+00    0.6489781663E+00
