  Pressure (Pa) 2mC6-400 (mol/kg) 3mC6-400 (mol/kg) 33mC5-400 (mol/kg) 23mC5-400 (mol/kg) C7-400 (mol/kg)
    0.1000000000E+01    0.6334177280E-02    0.2625831315E-02    0.2578763727E-03    0.1858487464E-03    0.1704400728E-02
    0.3000000000E+01    0.1845406976E-01    0.7659328460E-02    0.7513831291E-03    0.5502392177E-03    0.4972190915E-02
    0.5000000000E+01    0.2989405892E-01    0.1242300222E-01    0.1217313344E-02    0.9053015205E-03    0.8065563347E-02
    0.7000000000E+01    0.4070980080E-01    0.1693959896E-01    0.1657925152E-02    0.1251502524E-02    0.1099920246E-01
    0.9000000000E+01    0.5095094102E-01    0.2122933707E-01    0.2075232662E-02    0.1589276933E-02    0.1378616181E-01
    0.1100000000E+02    0.6066191539E-01    0.2531025063E-01    0.2471038482E-02    0.1919030060E-02    0.1643808568E-01
    0.1300000000E+02    0.6988262474E-01    0.2919847828E-01    0.2846961133E-02    0.2241140319E-02    0.1896539542E-01
    0.1500000000E+02    0.7864900653E-01    0.3290850744E-01    0.3204458267E-02    0.2555961465E-02    0.2137744688E-01
    0.1700000000E+02    0.8699352129E-01    0.3645338151E-01    0.3544846426E-02    0.2863824609E-02    0.2368266407E-01
    0.1900000000E+02    0.9494556849E-01    0.3984487660E-01    0.3869317926E-02    0.3165040037E-02    0.2588865317E-01
    0.2100000000E+02    0.1025318436E+00    0.4309365283E-01    0.4178955361E-02    0.3459898859E-02    0.2800230010E-01
    0.2300000000E+02    0.1097766456E+00    0.4620938442E-01    0.4474744089E-02    0.3748674497E-02    0.3002985447E-01
    0.2500000000E+02    0.1167021434E+00    0.4920087191E-01    0.4757583045E-02    0.4031624034E-02    0.3197700190E-01
    0.2700000000E+02    0.1233286072E+00    0.5207613937E-01    0.5028294127E-02    0.4308989451E-02    0.3384892682E-01
    0.2900000000E+02    0.1296746093E+00    0.5484251882E-01    0.5287630367E-02    0.4580998734E-02    0.3565036690E-01
    0.3100000000E+02    0.1357572008E+00    0.5750672393E-01    0.5536283084E-02    0.4847866902E-02    0.3738566058E-01
    0.3300000000E+02    0.1415920656E+00    0.6007491432E-01    0.5774888146E-02    0.5109796932E-02    0.3905878859E-01
    0.3500000000E+02    0.1471936564E+00    0.6255275213E-01    0.6004031482E-02    0.5366980613E-02    0.4067341045E-01
    0.3700000000E+02    0.1525753144E+00    0.6494545164E-01    0.6224253946E-02    0.5619599321E-02    0.4223289648E-01
    0.3900000000E+02    0.1577493752E+00    0.6725782311E-01    0.6436055610E-02    0.5867824736E-02    0.4374035610E-01
    0.4100000000E+02    0.1627272630E+00    0.6949431154E-01    0.6639899581E-02    0.6111819492E-02    0.4519866283E-01
    0.4300000000E+02    0.1675195737E+00    0.7165903101E-01    0.6836215384E-02    0.6351737786E-02    0.4661047649E-01
    0.4500000000E+02    0.1721361495E+00    0.7375579525E-01    0.7025401985E-02    0.6587725927E-02    0.4797826289E-01
    0.4700000000E+02    0.1765861455E+00    0.7578814477E-01    0.7207830484E-02    0.6819922848E-02    0.4930431137E-01
    0.4900000000E+02    0.1808780889E+00    0.7775937123E-01    0.7383846532E-02    0.7048460574E-02    0.5059075051E-01
    0.1000000000E+02    0.5587010600E-01    0.2329484689E-01    0.2275718102E-02    0.1755131903E-02    0.1512832516E-01
    0.3000000000E+02    0.1327478208E+00    0.5618699590E-01    0.5413251193E-02    0.4715062499E-02    0.3652602531E-01
    0.5000000000E+02    0.1829672973E+00    0.7872302929E-01    0.7469551479E-02    0.7161396717E-02    0.5121974128E-01
    0.7000000000E+02    0.2181262429E+00    0.9542953270E-01    0.8914789825E-02    0.9255487481E-02    0.6213551609E-01
    0.9000000000E+02    0.2439341711E+00    0.1084934915E+00    0.9980390806E-02    0.1109481696E-01    0.7068815035E-01
    0.1100000000E+03    0.2635408050E+00    0.1191085791E+00    0.1079402562E-01    0.1274221762E-01    0.7765042479E-01
    0.1300000000E+03    0.2788293956E+00    0.1279855618E+00    0.1143204248E-01    0.1424028057E-01    0.8348281392E-01
    0.1500000000E+03    0.2909958503E+00    0.1355762837E+00    0.1194293722E-01    0.1561906488E-01    0.8847824831E-01
    0.1700000000E+03    0.3008360594E+00    0.1421830388E+00    0.1235899591E-01    0.1690049787E-01    0.9283283526E-01
    0.1900000000E+03    0.3089000107E+00    0.1480165317E+00    0.1270253898E-01    0.1810102215E-01    0.9668335344E-01
    0.2100000000E+03    0.3155796991E+00    0.1532286520E+00    0.1298948295E-01    0.1923325879E-01    0.1001284640E+00
    0.2300000000E+03    0.3211618379E+00    0.1579320132E+00    0.1323147609E-01    0.2030709145E-01    0.1032413608E+00
    0.2500000000E+03    0.3258607993E+00    0.1622121220E+00    0.1343723311E-01    0.2133039561E-01    0.1060776528E+00
    0.2700000000E+03    0.3298399317E+00    0.1661352452E+00    0.1361339904E-01    0.2230954267E-01    0.1086804617E+00
    0.2900000000E+03    0.3332257727E+00    0.1697536587E+00    0.1376512528E-01    0.2324975666E-01    0.1110838246E+00
    0.3100000000E+03    0.3361177741E+00    0.1731092470E+00    0.1389646375E-01    0.2415537213E-01    0.1133150279E+00
    0.3300000000E+03    0.3385951083E+00    0.1762360326E+00    0.1401064292E-01    0.2503002410E-01    0.1153962484E+00
    0.3500000000E+03    0.3407215282E+00    0.1791619906E+00    0.1411026481E-01    0.2587679019E-01    0.1173457309E+00
    0.3700000000E+03    0.3425488998E+00    0.1819103756E+00    0.1419744834E-01    0.2669829872E-01    0.1191786495E+00
    0.3900000000E+03    0.3441198111E+00    0.1845007091E+00    0.1427393517E-01    0.2749681199E-01    0.1209077493E+00
    0.4100000000E+03    0.3454695263E+00    0.1869495245E+00    0.1434116898E-01    0.2827429121E-01    0.1225438298E+00
    0.4300000000E+03    0.3466274698E+00    0.1892709379E+00    0.1440035572E-01    0.2903244769E-01    0.1240961161E+00
    0.4500000000E+03    0.3476183650E+00    0.1914770901E+00    0.1445250991E-01    0.2977278377E-01    0.1255725464E+00
    0.4700000000E+03    0.3484631198E+00    0.1935784933E+00    0.1449849051E-01    0.3049662554E-01    0.1269799973E+00
    0.4900000000E+03    0.3491795197E+00    0.1955843063E+00    0.1453902921E-01    0.3120514961E-01    0.1283244631E+00
    0.1000000000E+03    0.2543740714E+00    0.1140548270E+00    0.1041308632E-01    0.1193948400E-01    0.7433419571E-01
    0.3000000000E+03    0.3347281445E+00    0.1714620194E+00    0.1383312453E-01    0.2370664748E-01    0.1122194561E+00
    0.5000000000E+03    0.3494944283E+00    0.1965539135E+00    0.1455745725E-01    0.3155399976E-01    0.1289747441E+00
    0.7000000000E+03    0.3517912285E+00    0.2124405713E+00    0.1475339052E-01    0.3793067571E-01    0.1396651627E+00
    0.9000000000E+03    0.3502036644E+00    0.2239941949E+00    0.1477620961E-01    0.4350259841E-01    0.1474851625E+00
    0.1100000000E+04    0.3471720524E+00    0.2330311943E+00    0.1472901495E-01    0.4855278567E-01    0.1536307928E+00
    0.1300000000E+04    0.3435885601E+00    0.2404247183E+00    0.1465061303E-01    0.5323042424E-01    0.1586790238E+00
    0.1500000000E+04    0.3398277253E+00    0.2466613990E+00    0.1455797481E-01    0.5762497530E-01    0.1629523869E+00
    0.1700000000E+04    0.3360592866E+00    0.2520402018E+00    0.1445925525E-01    0.6179490513E-01    0.1666495545E+00
    0.1900000000E+04    0.3323625386E+00    0.2567579509E+00    0.1435861277E-01    0.6578084637E-01    0.1699016298E+00
    0.2100000000E+04    0.3287737596E+00    0.2609510997E+00    0.1425823920E-01    0.6961236920E-01    0.1727996971E+00
    0.2300000000E+04    0.3253077491E+00    0.2647181210E+00    0.1415929935E-01    0.7331177696E-01    0.1754096154E+00
    0.2500000000E+04    0.3219682862E+00    0.2681323928E+00    0.1406239804E-01    0.7689637928E-01    0.1777805483E+00
    0.2700000000E+04    0.3187534661E+00    0.2712500457E+00    0.1396782542E-01    0.8037992694E-01    0.1799501660E+00
    0.2900000000E+04    0.3156585244E+00    0.2741149642E+00    0.1387569165E-01    0.8377355721E-01    0.1819479660E+00
    0.3100000000E+04    0.3126773668E+00    0.2767620985E+00    0.1378600328E-01    0.8708643921E-01    0.1837974748E+00
    0.3300000000E+04    0.3098034083E+00    0.2792197273E+00    0.1369870780E-01    0.9032622789E-01    0.1855177542E+00
    0.3500000000E+04    0.3070300330E+00    0.2815110477E+00    0.1361372009E-01    0.9349939170E-01    0.1871244613E+00
    0.3700000000E+04    0.3043508393E+00    0.2836553188E+00    0.1353093833E-01    0.9661145438E-01    0.1886306113E+00
    0.3900000000E+04    0.3017597648E+00    0.2856687003E+00    0.1345025364E-01    0.9966717686E-01    0.1900471378E+00
    0.4100000000E+04    0.2992511411E+00    0.2875648802E+00    0.1337155588E-01    0.1026706965E+00    0.1913833126E+00
    0.4300000000E+04    0.2968197085E+00    0.2893555512E+00    0.1329473708E-01    0.1056256351E+00    0.1926470648E+00
    0.4500000000E+04    0.2944606094E+00    0.2910507780E+00    0.1321969343E-01    0.1085351844E+00    0.1938452264E+00
    0.4700000000E+04    0.2921693693E+00    0.2926592839E+00    0.1314632638E-01    0.1114021735E+00    0.1949837250E+00
    0.4900000000E+04    0.2899418715E+00    0.2941886770E+00    0.1307454305E-01    0.1142291239E+00    0.1960677354E+00
    0.1000000000E+04    0.3487942563E+00    0.2287599386E+00    0.1475816926E-01    0.4608166544E-01    0.1507228205E+00
    0.3000000000E+04    0.3141541294E+00    0.2754638519E+00    0.1383054406E-01    0.8543958216E-01    0.1828899750E+00
    0.5000000000E+04    0.2888508308E+00    0.2949258242E+00    0.1303921786E-01    0.1156282997E+00    0.1965907494E+00
    0.7000000000E+04    0.2696062116E+00    0.3067762228E+00    0.1239771148E-01    0.1419529478E+00    0.2050503091E+00
    0.9000000000E+04    0.2538810351E+00    0.3150787210E+00    0.1184611360E-01    0.1658718464E+00    0.2110424460E+00
    0.1100000000E+05    0.2404525757E+00    0.3213563292E+00    0.1135407431E-01    0.1880314055E+00    0.2156152518E+00
    0.1300000000E+05    0.2286563301E+00    0.3263387052E+00    0.1090509941E-01    0.2087820186E+00    0.2192740747E+00
    0.1500000000E+05    0.2180940130E+00    0.3304287873E+00    0.1048943421E-01    0.2283378917E+00    0.2222994967E+00
    0.1700000000E+05    0.2085086413E+00    0.3338710678E+00    0.1010089886E-01    0.2468416444E+00    0.2248625819E+00
    0.1900000000E+05    0.1997246244E+00    0.3368242613E+00    0.9735351481E-02    0.2643948859E+00    0.2270748592E+00
    0.2100000000E+05    0.1916163051E+00    0.3393967871E+00    0.9389879245E-02    0.2810742851E+00    0.2290128190E+00
    0.2300000000E+05    0.1840902248E+00    0.3416657258E+00    0.9062343957E-02    0.2969406575E+00    0.2307310451E+00
    0.2500000000E+05    0.1770745470E+00    0.3436876703E+00    0.8751113189E-02    0.3120443797E+00    0.2322697548E+00
    0.2700000000E+05    0.1705124582E+00    0.3455052882E+00    0.8454894527E-02    0.3264287404E+00    0.2336593715E+00
    0.2900000000E+05    0.1643578935E+00    0.3471514723E+00    0.8172630006E-02    0.3401320701E+00    0.2349234245E+00
    0.3100000000E+05    0.1585726804E+00    0.3486520643E+00    0.7903427128E-02    0.3531891197E+00    0.2360804570E+00
    0.3300000000E+05    0.1531245810E+00    0.3500277011E+00    0.7646512857E-02    0.3656319637E+00    0.2371453220E+00
    0.3500000000E+05    0.1479859171E+00    0.3512950989E+00    0.7401202447E-02    0.3774905965E+00    0.2381300859E+00
    0.3700000000E+05    0.1431325868E+00    0.3524679683E+00    0.7166878052E-02    0.3887933261E+00    0.2390446741E+00
    0.3900000000E+05    0.1385433472E+00    0.3535576806E+00    0.6942973891E-02    0.3995670359E+00    0.2398973410E+00
    0.4100000000E+05    0.1341992826E+00    0.3545737600E+00    0.6728965877E-02    0.4098373569E+00    0.2406950194E+00
    0.4300000000E+05    0.1300834039E+00    0.3555242556E+00    0.6524364300E-02    0.4196287834E+00    0.2414435833E+00
    0.4500000000E+05    0.1261803421E+00    0.3564160241E+00    0.6328708625E-02    0.4289647497E+00    0.2421480498E+00
    0.4700000000E+05    0.1224761107E+00    0.3572549494E+00    0.6141563748E-02    0.4378676835E+00    0.2428127351E+00
    0.4900000000E+05    0.1189579174E+00    0.3580461143E+00    0.5962517274E-02    0.4463590442E+00    0.2434413765E+00
    0.1000000000E+05    0.2469296838E+00    0.3184142500E+00    0.1159389314E-01    0.1771453026E+00    0.2134672768E+00
    0.3000000000E+05    0.1614212536E+00    0.3479185727E+00    0.8036446553E-02    0.3467393207E+00    0.2355143156E+00
    0.5000000000E+05    0.1172648765E+00    0.3584251899E+00    0.5875907766E-02    0.4504568333E+00    0.2437432148E+00
    0.7000000000E+05    0.9075978260E-01    0.3643202479E+00    0.4483363466E-02    0.5153096297E+00    0.2484953895E+00
    0.9000000000E+05    0.7379064301E-01    0.3682311266E+00    0.3558365098E-02    0.5570153837E+00    0.2517192277E+00
    0.1100000000E+06    0.6232225681E-01    0.3710707501E+00    0.2921201223E-02    0.5848660591E+00    0.2541052739E+00
    0.1300000000E+06    0.5419462000E-01    0.3732534010E+00    0.2465869291E-02    0.6041924662E+00    0.2559712365E+00
    0.1500000000E+06    0.4819522371E-01    0.3749984482E+00    0.2129314538E-02    0.6180837589E+00    0.2574870837E+00
    0.1700000000E+06    0.4361160850E-01    0.3764345403E+00    0.1873055978E-02    0.6283818887E+00    0.2587533312E+00
    0.1900000000E+06    0.4000653629E-01    0.3776428426E+00    0.1672852862E-02    0.6362232952E+00    0.2598338624E+00
    0.2100000000E+06    0.3710075997E-01    0.3786774622E+00    0.1512934455E-02    0.6423334795E+00    0.2607715520E+00
    0.2300000000E+06    0.3470944077E-01    0.3795760557E+00    0.1382723002E-02    0.6471906285E+00    0.2615964309E+00
    0.2500000000E+06    0.3270628040E-01    0.3803657550E+00    0.1274923041E-02    0.6511192097E+00    0.2623302697E+00
    0.2700000000E+06    0.3100251800E-01    0.3810666746E+00    0.1184374544E-02    0.6543452098E+00    0.2629893045E+00
    0.2900000000E+06    0.2953419907E-01    0.3816940866E+00    0.1107344362E-02    0.6570297471E+00    0.2635859345E+00
    0.3100000000E+06    0.2825421152E-01    0.3822598249E+00    0.1041076297E-02    0.6592901189E+00    0.2641298216E+00
    0.3300000000E+06    0.2712715913E-01    0.3827732202E+00    0.9834980281E-03    0.6612133364E+00    0.2646286264E+00
    0.3500000000E+06    0.2612597499E-01    0.3832417431E+00    0.9330256566E-03    0.6628650409E+00    0.2650885153E+00
    0.3700000000E+06    0.2522963130E-01    0.3836714547E+00    0.8884305358E-03    0.6642955115E+00    0.2655145178E+00
    0.3900000000E+06    0.2442155724E-01    0.3840673313E+00    0.8487467234E-03    0.6655437931E+00    0.2659107847E+00
    0.4100000000E+06    0.2368852467E-01    0.3844335021E+00    0.8132054990E-03    0.6666405883E+00    0.2662807776E+00
    0.4300000000E+06    0.2301984945E-01    0.3847734257E+00    0.7811882596E-03    0.6676103162E+00    0.2666274101E+00
    0.4500000000E+06    0.2240680955E-01    0.3850900237E+00    0.7521921183E-03    0.6684726017E+00    0.2669531559E+00
    0.4700000000E+06    0.2184221496E-01    0.3853857838E+00    0.7258044271E-03    0.6692433682E+00    0.2672601309E+00
    0.4900000000E+06    0.2132008530E-01    0.3856628388E+00    0.7016836648E-03    0.6699356499E+00    0.2675501580E+00
    0.1000000000E+06    0.6753364367E-01    0.3697524140E+00    0.3211725675E-02    0.5722709215E+00    0.2529921820E+00
    0.3000000000E+06    0.2887310447E-01    0.3819840318E+00    0.1073007951E-02    0.6582069276E+00    0.2638639520E+00
    0.5000000000E+06    0.2107334529E-01    0.3857949371E+00    0.6903824617E-03    0.6702557958E+00    0.2676893182E+00
    0.7000000000E+06    0.1748878756E-01    0.3877928219E+00    0.5339459494E-03    0.6743700782E+00    0.2698753219E+00
    0.9000000000E+06    0.1532565409E-01    0.3890552414E+00    0.4472959382E-03    0.6763406709E+00    0.2713583066E+00
    0.1100000000E+07    0.1383568035E-01    0.3899364255E+00    0.3912726931E-03    0.6774691826E+00    0.2724596939E+00
    0.1300000000E+07    0.1272667520E-01    0.3905911165E+00    0.3515368313E-03    0.6781909209E+00    0.2733250507E+00
    0.1500000000E+07    0.1185824412E-01    0.3910988753E+00    0.3215760708E-03    0.6786884065E+00    0.2740316278E+00
    0.1700000000E+07    0.1115341831E-01    0.3915052427E+00    0.2979893841E-03    0.6790503559E+00    0.2746249259E+00
    0.1900000000E+07    0.1056596223E-01    0.3918383607E+00    0.2788173667E-03    0.6793246489E+00    0.2751338109E+00
    0.2100000000E+07    0.1006617404E-01    0.3921166497E+00    0.2628459482E-03    0.6795392282E+00    0.2755776446E+00
    0.2300000000E+07    0.9633967187E-02    0.3923527214E+00    0.2492794910E-03    0.6797114223E+00    0.2759699916E+00
    0.2500000000E+07    0.9255194687E-02    0.3925555276E+00    0.2375728490E-03    0.6798525117E+00    0.2763206916E+00
    0.2700000000E+07    0.8919559444E-02    0.3927316142E+00    0.2273387565E-03    0.6799701372E+00    0.2766370899E+00
    0.2900000000E+07    0.8619359788E-02    0.3928858877E+00    0.2182937455E-03    0.6800696484E+00    0.2769248027E+00
    0.3100000000E+07    0.8348701940E-02    0.3930221046E+00    0.2102250352E-03    0.6801548967E+00    0.2771882118E+00
    0.3300000000E+07    0.8102986755E-02    0.3931431932E+00    0.2029694401E-03    0.6802287224E+00    0.2774307961E+00
    0.3500000000E+07    0.7878564389E-02    0.3932514727E+00    0.1963994727E-03    0.6802932640E+00    0.2776553603E+00
    0.3700000000E+07    0.7672495523E-02    0.3933488057E+00    0.1904139156E-03    0.6803501608E+00    0.2778641953E+00
    0.3900000000E+07    0.7482382272E-02    0.3934367061E+00    0.1849312629E-03    0.6804006903E+00    0.2780591946E+00
    0.4100000000E+07    0.7306245928E-02    0.3935164184E+00    0.1798850532E-03    0.6804458618E+00    0.2782419398E+00
    0.4300000000E+07    0.7142436904E-02    0.3935889752E+00    0.1752204837E-03    0.6804864832E+00    0.2784137642E+00
    0.4500000000E+07    0.6989567310E-02    0.3936552413E+00    0.1708919101E-03    0.6805232083E+00    0.2785758017E+00
    0.4700000000E+07    0.6846459711E-02    0.3937159467E+00    0.1668609710E-03    0.6805565721E+00    0.2787290236E+00
    0.4900000000E+07    0.6712107666E-02    0.3937717118E+00    0.1630951607E-03    0.6805870163E+00    0.2788742680E+00
    0.1000000000E+07    0.1452010375E-01    0.3895312664E+00    0.4166312686E-03    0.6769737544E+00    0.2719453078E+00
    0.3000000000E+07    0.8480651245E-02    0.3929560538E+00    0.2141485245E-03    0.6801138585E+00    0.2770593097E+00
    0.5000000000E+07    0.6647939508E-02    0.3937979109E+00    0.1613028459E-03    0.6806012609E+00    0.2789441299E+00
    0.7000000000E+07    0.5665787449E-02    0.3941586511E+00    0.1343656815E-03    0.6807965879E+00    0.2800576880E+00
    0.9000000000E+07    0.5028450805E-02    0.3943431509E+00    0.1173711417E-03    0.6809021659E+00    0.2808331860E+00
    0.1100000000E+08    0.4571395548E-02    0.3944442461E+00    0.1054144014E-03    0.6809685481E+00    0.2814217550E+00
    0.1300000000E+08    0.4222670263E-02    0.3944999398E+00    0.9642099699E-04    0.6810142961E+00    0.2818928242E+00
    0.1500000000E+08    0.3945094685E-02    0.3945286392E+00    0.8934320240E-04    0.6810478293E+00    0.2822837135E+00
    0.1700000000E+08    0.3717242326E-02    0.3945402970E+00    0.8358745518E-04    0.6810735228E+00    0.2826166611E+00
    0.1900000000E+08    0.3525771772E-02    0.3945407305E+00    0.7878911945E-04    0.6810938774E+00    0.2829059254E+00
    0.2100000000E+08    0.3361879986E-02    0.3945335429E+00    0.7471024540E-04    0.6811104279E+00    0.2831611646E+00
    0.2300000000E+08    0.3219490248E-02    0.3945210681E+00    0.7118810242E-04    0.6811241689E+00    0.2833892068E+00
    0.2500000000E+08    0.3094253208E-02    0.3945048722E+00    0.6810715083E-04    0.6811357742E+00    0.2835950475E+00
    0.2700000000E+08    0.2982962071E-02    0.3944860368E+00    0.6538280099E-04    0.6811457165E+00    0.2837824456E+00
