  Pressure (Pa) 2mC6-400 (mol/kg) 3mC6-400 (mol/kg) 33mC5-400 (mol/kg) 23mC5-400 (mol/kg) C7-400 (mol/kg)
    0.1000000000E+01    0.6306229752E-02    0.3133688815E-02    0.6418843016E-04    0.1858839819E-03    0.5085253102E-02
    0.3000000000E+01    0.1822045755E-01    0.9045762940E-02    0.1855010146E-03    0.5505456398E-03    0.1468172038E-01
    0.5000000000E+01    0.2928976354E-01    0.1452949999E-01    0.2982663009E-03    0.9061245355E-03    0.2358605456E-01
    0.7000000000E+01    0.3960412497E-01    0.1963225851E-01    0.4033955600E-03    0.1253063282E-02    0.3187467423E-01
    0.9000000000E+01    0.4924079427E-01    0.2439458083E-01    0.5016709874E-03    0.1591774789E-02    0.3961300713E-01
    0.1100000000E+02    0.5826650690E-01    0.2885138156E-01    0.5937681262E-03    0.1922644759E-02    0.4685740558E-01
    0.1300000000E+02    0.6673924165E-01    0.3303289535E-01    0.6802737416E-03    0.2246033936E-02    0.5365667417E-01
    0.1500000000E+02    0.7470963608E-01    0.3696543903E-01    0.7617001893E-03    0.2562280133E-02    0.6005329837E-01
    0.1700000000E+02    0.8222213369E-01    0.4067202927E-01    0.8384970585E-03    0.2871700060E-02    0.6608444027E-01
    0.1900000000E+02    0.8931592056E-01    0.4417288676E-01    0.9110606762E-03    0.3174590983E-02    0.7178275142E-01
    0.2100000000E+02    0.9602569539E-01    0.4748585048E-01    0.9797419179E-03    0.3471232220E-02    0.7717704075E-01
    0.2300000000E+02    0.1023823066E+00    0.5062672027E-01    0.1044852671E-02    0.3761886507E-02    0.8229282706E-01
    0.2500000000E+02    0.1084132828E+00    0.5360954179E-01    0.1106671212E-02    0.4046801237E-02    0.8715279850E-01
    0.2700000000E+02    0.1141432768E+00    0.5644684490E-01    0.1165446710E-02    0.4326209586E-02    0.9177719701E-01
    0.2900000000E+02    0.1195944397E+00    0.5914984410E-01    0.1221403015E-02    0.4600331542E-02    0.9618414158E-01
    0.3100000000E+02    0.1247867367E+00    0.6172860782E-01    0.1274741863E-02    0.4869374848E-02    0.1003899014E+00
    0.3300000000E+02    0.1297382164E+00    0.6419220225E-01    0.1325645600E-02    0.5133535858E-02    0.1044091278E+00
    0.3500000000E+02    0.1344652402E+00    0.6654881391E-01    0.1374279506E-02    0.5393000326E-02    0.1082550519E+00
    0.3700000000E+02    0.1389826792E+00    0.6880585461E-01    0.1420793795E-02    0.5647944130E-02    0.1119396541E+00
    0.3900000000E+02    0.1433040839E+00    0.7097005170E-01    0.1465325326E-02    0.5898533932E-02    0.1154738099E+00
    0.4100000000E+02    0.1474418309E+00    0.7304752595E-01    0.1507999090E-02    0.6144927789E-02    0.1188674148E+00
    0.4300000000E+02    0.1514072499E+00    0.7504385897E-01    0.1548929499E-02    0.6387275717E-02    0.1221294939E+00
    0.4500000000E+02    0.1552107346E+00    0.7696415181E-01    0.1588221504E-02    0.6625720207E-02    0.1252682963E+00
    0.4700000000E+02    0.1588618395E+00    0.7881307608E-01    0.1625971578E-02    0.6860396699E-02    0.1282913771E+00
    0.4900000000E+02    0.1623693649E+00    0.8059491859E-01    0.1662268572E-02    0.7091434031E-02    0.1312056701E+00
    0.1000000000E+02    0.5382620932E-01    0.2665918177E-01    0.5484532727E-03    0.1758166859E-02    0.4329373665E-01
    0.3000000000E+02    0.1222217763E+00    0.6045416680E-01    0.1248387799E-02    0.4735475497E-02    0.9831121843E-01
    0.5000000000E+02    0.1640718476E+00    0.8146192836E-01    0.1679898033E-02    0.7205626567E-02    0.1326240338E+00
    0.7000000000E+02    0.1922573810E+00    0.9608672539E-01    0.1973098467E-02    0.9325311055E-02    0.1565846841E+00
    0.9000000000E+02    0.2124049229E+00    0.1070218280E+00    0.2184793199E-02    0.1119012367E-01    0.1745517779E+00
    0.1100000000E+03    0.2274041967E+00    0.1156082476E+00    0.2344160481E-02    0.1286213392E-01    0.1886978576E+00
    0.1300000000E+03    0.2389046989E+00    0.1225939244E+00    0.2467866177E-02    0.1438365519E-01    0.2002359029E+00
    0.1500000000E+03    0.2479209035E+00    0.1284316205E+00    0.2566170133E-02    0.1578468491E-01    0.2099009259E+00
    0.1700000000E+03    0.2551124360E+00    0.1334129524E+00    0.2645751720E-02    0.1708718476E-01    0.2181668005E+00
    0.1900000000E+03    0.2609271412E+00    0.1377351097E+00    0.2711152411E-02    0.1830767177E-01    0.2253542646E+00
    0.2100000000E+03    0.2656797934E+00    0.1415367601E+00    0.2765569465E-02    0.1945885509E-01    0.2316890791E+00
    0.2300000000E+03    0.2695980158E+00    0.1449186129E+00    0.2811319079E-02    0.2055070764E-01    0.2373353561E+00
    0.2500000000E+03    0.2728503728E+00    0.1479558105E+00    0.2850119830E-02    0.2159118960E-01    0.2424156545E+00
    0.2700000000E+03    0.2755642439E+00    0.1507057182E+00    0.2883273105E-02    0.2258675017E-01    0.2470236204E+00
    0.2900000000E+03    0.2778375779E+00    0.1532130005E+00    0.2911781831E-02    0.2354268368E-01    0.2512322295E+00
    0.3100000000E+03    0.2797468449E+00    0.1555130328E+00    0.2936430846E-02    0.2446338762E-01    0.2550993285E+00
    0.3300000000E+03    0.2813525481E+00    0.1576342557E+00    0.2957842652E-02    0.2535255307E-01    0.2586714628E+00
    0.3500000000E+03    0.2827031273E+00    0.1595998386E+00    0.2976516929E-02    0.2621330752E-01    0.2619865821E+00
    0.3700000000E+03    0.2838377760E+00    0.1614288803E+00    0.2992859082E-02    0.2704832366E-01    0.2650759929E+00
    0.3900000000E+03    0.2847885085E+00    0.1631372899E+00    0.3007201203E-02    0.2785990328E-01    0.2679657940E+00
    0.4100000000E+03    0.2855817001E+00    0.1647384460E+00    0.3019817703E-02    0.2865004279E-01    0.2706779494E+00
    0.4300000000E+03    0.2862392498E+00    0.1662436955E+00    0.3030937131E-02    0.2942048499E-01    0.2732311016E+00
    0.4500000000E+03    0.2867794697E+00    0.1676627373E+00    0.3040751222E-02    0.3017276037E-01    0.2756411972E+00
    0.4700000000E+03    0.2872177719E+00    0.1690039204E+00    0.3049421889E-02    0.3090822032E-01    0.2779219736E+00
    0.4900000000E+03    0.2875672051E+00    0.1702744789E+00    0.3057086701E-02    0.3162806422E-01    0.2800853417E+00
    0.1000000000E+03    0.2204253446E+00    0.1115526477E+00    0.2269777883E-02    0.1204722923E-01    0.1820116935E+00
    0.3000000000E+03    0.2788336162E+00    0.1543870051E+00    0.2924546619E-02    0.2400719397E-01    0.2532053299E+00
    0.5000000000E+03    0.2877121336E+00    0.1708852763E+00    0.3060579327E-02    0.3198246889E-01    0.2811262966E+00
    0.7000000000E+03    0.2879267495E+00    0.1805712928E+00    0.3098747375E-02    0.3845862685E-01    0.2977246876E+00
    0.9000000000E+03    0.2856715154E+00    0.1872233405E+00    0.3105362764E-02    0.4411481714E-01    0.3092380263E+00
    0.1100000000E+04    0.2826152354E+00    0.1921896905E+00    0.3099282539E-02    0.4923984103E-01    0.3179067391E+00
    0.1300000000E+04    0.2793316223E+00    0.1960964343E+00    0.3087499568E-02    0.5398587815E-01    0.3247768666E+00
    0.1500000000E+04    0.2760432102E+00    0.1992820756E+00    0.3073038589E-02    0.5844412897E-01    0.3304166364E+00
    0.1700000000E+04    0.2728399959E+00    0.2019489172E+00    0.3057342822E-02    0.6267415780E-01    0.3351670739E+00
    0.1900000000E+04    0.2697566553E+00    0.2042268020E+00    0.3041146393E-02    0.6671733463E-01    0.3392478951E+00
    0.2100000000E+04    0.2668033655E+00    0.2062036487E+00    0.3024837707E-02    0.7060374888E-01    0.3428083961E+00
    0.2300000000E+04    0.2639791995E+00    0.2079415242E+00    0.3008625936E-02    0.7435608348E-01    0.3459543177E+00
    0.2500000000E+04    0.2612782986E+00    0.2094857363E+00    0.2992623022E-02    0.7799193416E-01    0.3487630850E+00
    0.2700000000E+04    0.2586928260E+00    0.2108702799E+00    0.2976886417E-02    0.8152527277E-01    0.3512929584E+00
    0.2900000000E+04    0.2562144036E+00    0.2121212546E+00    0.2961442370E-02    0.8496741102E-01    0.3535887890E+00
    0.3100000000E+04    0.2538348058E+00    0.2132590928E+00    0.2946299070E-02    0.8832765810E-01    0.3556857805E+00
    0.3300000000E+04    0.2515462784E+00    0.2143000606E+00    0.2931454267E-02    0.9161378318E-01    0.3576120276E+00
    0.3500000000E+04    0.2493416670E+00    0.2152572976E+00    0.2916899798E-02    0.9483234907E-01    0.3593902792E+00
    0.3700000000E+04    0.2472144469E+00    0.2161415544E+00    0.2902624292E-02    0.9798895831E-01    0.3610391904E+00
    0.3900000000E+04    0.2451587052E+00    0.2169617272E+00    0.2888614824E-02    0.1010884384E+00    0.3625742325E+00
    0.4100000000E+04    0.2431691001E+00    0.2177252523E+00    0.2874857908E-02    0.1041349832E+00    0.3640083653E+00
    0.4300000000E+04    0.2412408110E+00    0.2184384022E+00    0.2861340099E-02    0.1071322632E+00    0.3653525430E+00
    0.4500000000E+04    0.2393694876E+00    0.2191065111E+00    0.2848048348E-02    0.1100835121E+00    0.3666160996E+00
    0.4700000000E+04    0.2375512006E+00    0.2197341489E+00    0.2834970194E-02    0.1129915955E+00    0.3678070475E+00
    0.4900000000E+04    0.2357823958E+00    0.2203252574E+00    0.2822093872E-02    0.1158590669E+00    0.3689323108E+00
    0.1000000000E+04    0.2841950189E+00    0.1898685112E+00    0.3103332090E-02    0.4673225388E-01    0.3138466813E+00
    0.3000000000E+04    0.2550127495E+00    0.2127032154E+00    0.2953833087E-02    0.8665725371E-01    0.3546602408E+00
    0.5000000000E+04    0.2349155309E+00    0.2206082002E+00    0.2815727922E-02    0.1172782970E+00    0.3694722231E+00
    0.7000000000E+04    0.2195361316E+00    0.2249835384E+00    0.2696712011E-02    0.1439792385E+00    0.3779419192E+00
    0.9000000000E+04    0.2067849004E+00    0.2278576802E+00    0.2589294423E-02    0.1682354281E+00    0.3836561921E+00
    0.1100000000E+05    0.1957290157E+00    0.2299279227E+00    0.2489797415E-02    0.1906995463E+00    0.3878687660E+00
    0.1300000000E+05    0.1858807164E+00    0.2315083674E+00    0.2396302503E-02    0.2117249262E+00    0.3911521028E+00
    0.1500000000E+05    0.1769545112E+00    0.2327643637E+00    0.2307719182E-02    0.2315274773E+00    0.3938111420E+00
    0.1700000000E+05    0.1687689421E+00    0.2337924018E+00    0.2223380536E-02    0.2502510586E+00    0.3960257432E+00
    0.1900000000E+05    0.1612010846E+00    0.2346530957E+00    0.2142851514E-02    0.2679983788E+00    0.3979100128E+00
    0.2100000000E+05    0.1541632464E+00    0.2353866960E+00    0.2065830388E-02    0.2848472064E+00    0.3995404302E+00
    0.2300000000E+05    0.1475900877E+00    0.2360211179E+00    0.1992094775E-02    0.3008595133E+00    0.4009705074E+00
    0.2500000000E+05    0.1414310683E+00    0.2365764096E+00    0.1921470625E-02    0.3160869040E+00    0.4022390045E+00
    0.2700000000E+05    0.1356458050E+00    0.2370673897E+00    0.1853813768E-02    0.3305739607E+00    0.4033748083E+00
    0.2900000000E+05    0.1302011085E+00    0.2375052781E+00    0.1788998705E-02    0.3443603571E+00    0.4043999671E+00
    0.3100000000E+05    0.1250690313E+00    0.2378987457E+00    0.1726911706E-02    0.3574822174E+00    0.4053316555E+00
    0.3300000000E+05    0.1202255493E+00    0.2382546129E+00    0.1667446562E-02    0.3699729992E+00    0.4061834870E+00
    0.3500000000E+05    0.1156496498E+00    0.2385783272E+00    0.1610502005E-02    0.3818640706E+00    0.4069664186E+00
    0.3700000000E+05    0.1113226883E+00    0.2388742986E+00    0.1555980183E-02    0.3931850872E+00    0.4076893874E+00
    0.3900000000E+05    0.1072279274E+00    0.2391461402E+00    0.1503785807E-02    0.4039642392E+00    0.4083597694E+00
    0.4100000000E+05    0.1033501985E+00    0.2393968438E+00    0.1453825725E-02    0.4142284132E+00    0.4089837173E+00
    0.4300000000E+05    0.9967565117E-01    0.2396289104E+00    0.1406008754E-02    0.4240032988E+00    0.4095664112E+00
    0.4500000000E+05    0.9619156271E-01    0.2398444490E+00    0.1360245675E-02    0.4333134592E+00    0.4101122499E+00
    0.4700000000E+05    0.9288619180E-01    0.2400452518E+00    0.1316449317E-02    0.4421823808E+00    0.4106249976E+00
    0.4900000000E+05    0.8974866299E-01    0.2402328527E+00    0.1274534675E-02    0.4506325095E+00    0.4111078978E+00
    0.1000000000E+05    0.2010820252E+00    0.2289686569E+00    0.2538702283E-02    0.1796650283E+00    0.3859054530E+00
    0.3000000000E+05    0.1275975737E+00    0.2377071013E+00    0.1757620976E-02    0.3510022086E+00    0.4048765730E+00
    0.5000000000E+05    0.8823965447E-01    0.2403221227E+00    0.1254257060E-02    0.4547072635E+00    0.4113390489E+00
    0.7000000000E+05    0.6475967421E-01    0.2416563414E+00    0.9287762924E-03    0.5189037711E+00    0.4149160627E+00
    0.9000000000E+05    0.4999977303E-01    0.2424803199E+00    0.7143969522E-03    0.5598724310E+00    0.4172743514E+00
    0.1100000000E+06    0.4024824663E-01    0.2430436143E+00    0.5684715290E-03    0.5870838840E+00    0.4189843021E+00
    0.1300000000E+06    0.3350429237E-01    0.2434539713E+00    0.4655437510E-03    0.6058974244E+00    0.4203014788E+00
    0.1500000000E+06    0.2864960752E-01    0.2437662366E+00    0.3904864493E-03    0.6193868344E+00    0.4213594715E+00
    0.1700000000E+06    0.2503264335E-01    0.2440115249E+00    0.3341120120E-03    0.6293709953E+00    0.4222356852E+00
    0.1900000000E+06    0.2225762609E-01    0.2442089067E+00    0.2906675438E-03    0.6369657846E+00    0.4229784472E+00
    0.2100000000E+06    0.2007458643E-01    0.2443707698E+00    0.2564342562E-03    0.6428805541E+00    0.4236196970E+00
    0.2300000000E+06    0.1831997155E-01    0.2445055347E+00    0.2289341487E-03    0.6475813344E+00    0.4241815116E+00
    0.2500000000E+06    0.1688334524E-01    0.2446191376E+00    0.2064693233E-03    0.6513835569E+00    0.4246797139E+00
    0.2700000000E+06    0.1568802174E-01    0.2447158905E+00    0.1878466986E-03    0.6545064899E+00    0.4251259886E+00
    0.2900000000E+06    0.1467941222E-01    0.2447990050E+00    0.1722087158E-03    0.6571062254E+00    0.4255291826E+00
    0.3100000000E+06    0.1381778943E-01    0.2448709250E+00    0.1589263296E-03    0.6592962671E+00    0.4258961386E+00
    0.3300000000E+06    0.1307366601E-01    0.2449335439E+00    0.1475296194E-03    0.6611607344E+00    0.4262322465E+00
    0.3500000000E+06    0.1242476496E-01    0.2449883526E+00    0.1376617229E-03    0.6627630418E+00    0.4265418200E+00
    0.3700000000E+06    0.1185398704E-01    0.2450365416E+00    0.1290475856E-03    0.6641517355E+00    0.4268283595E+00
    0.3900000000E+06    0.1134801759E-01    0.2450790730E+00    0.1214723394E-03    0.6653644998E+00    0.4270947410E+00
    0.4100000000E+06    0.1089635313E-01    0.2451167332E+00    0.1147660703E-03    0.6664309582E+00    0.4273433530E+00
    0.4300000000E+06    0.1049060915E-01    0.2451501713E+00    0.1087929076E-03    0.6673746669E+00    0.4275761990E+00
    0.4500000000E+06    0.1012401987E-01    0.2451799277E+00    0.1034430902E-03    0.6682145549E+00    0.4277949741E+00
    0.4700000000E+06    0.9791071390E-02    0.2452064563E+00    0.9862711515E-04    0.6689659802E+00    0.4280011243E+00
    0.4900000000E+06    0.9487228941E-02    0.2452301409E+00    0.9427136745E-04    0.6696415143E+00    0.4281958919E+00
    0.1000000000E+06    0.4465067862E-01    0.2427860183E+00    0.6347789385E-03    0.5747925713E+00    0.4181902905E+00
    0.3000000000E+06    0.1423226894E-01    0.2448362351E+00    0.1653055442E-03    0.6582466306E+00    0.4257168245E+00
    0.5000000000E+06    0.9345021499E-02    0.2452410207E+00    0.9224658840E-04    0.6699541371E+00    0.4282893487E+00
    0.7000000000E+06    0.7382179883E-02    0.2453678422E+00    0.6543965062E-04    0.6739896116E+00    0.4297590833E+00
    0.9000000000E+06    0.6292631916E-02    0.2454016695E+00    0.5179010538E-04    0.6759421576E+00    0.4307601822E+00
    0.1100000000E+07    0.5582547480E-02    0.2453956808E+00    0.4353301035E-04    0.6770714995E+00    0.4315074144E+00
    0.1300000000E+07    0.5074105742E-02    0.2453704398E+00    0.3798145446E-04    0.6778006745E+00    0.4320975365E+00
    0.1500000000E+07    0.4687090116E-02    0.2453353276E+00    0.3397461432E-04    0.6783078568E+00    0.4325817939E+00
    0.1700000000E+07    0.4379670120E-02    0.2452950964E+00    0.3093254863E-04    0.6786800475E+00    0.4329903581E+00
    0.1900000000E+07    0.4127712482E-02    0.2452523296E+00    0.2853409810E-04    0.6789644157E+00    0.4333423787E+00
    0.2100000000E+07    0.3916218456E-02    0.2452085004E+00    0.2658719419E-04    0.6791886133E+00    0.4336507132E+00
    0.2300000000E+07    0.3735319763E-02    0.2451644754E+00    0.2496991097E-04    0.6793698644E+00    0.4339243810E+00
    0.2500000000E+07    0.3578224941E-02    0.2451207735E+00    0.2360107583E-04    0.6795194300E+00    0.4341699345E+00
    0.2700000000E+07    0.3440086914E-02    0.2450777058E+00    0.2242450682E-04    0.6796449697E+00    0.4343922729E+00
    0.2900000000E+07    0.3317340992E-02    0.2450354560E+00    0.2140004236E-04    0.6797518682E+00    0.4345951484E+00
    0.3100000000E+07    0.3207298856E-02    0.2449941278E+00    0.2049817979E-04    0.6798440180E+00    0.4347814934E+00
    0.3300000000E+07    0.3107889323E-02    0.2449537738E+00    0.1969673569E-04    0.6799243006E+00    0.4349536406E+00
    0.3500000000E+07    0.3017487084E-02    0.2449144141E+00    0.1897869090E-04    0.6799948938E+00    0.4351134732E+00
    0.3700000000E+07    0.2934796192E-02    0.2448760474E+00    0.1833075705E-04    0.6800574734E+00    0.4352625326E+00
    0.3900000000E+07    0.2858768754E-02    0.2448386589E+00    0.1774239718E-04    0.6801133500E+00    0.4354020948E+00
    0.4100000000E+07    0.2788546897E-02    0.2448022253E+00    0.1720514099E-04    0.6801635625E+00    0.4355332275E+00
    0.4300000000E+07    0.2723420541E-02    0.2447667183E+00    0.1671209586E-04    0.6802089454E+00    0.4356568322E+00
    0.4500000000E+07    0.2662796108E-02    0.2447321062E+00    0.1625759124E-04    0.6802501766E+00    0.4357736769E+00
    0.4700000000E+07    0.2606172980E-02    0.2446983564E+00    0.1583691571E-04    0.6802878124E+00    0.4358844205E+00
    0.4900000000E+07    0.2553125533E-02    0.2446654356E+00    0.1544611953E-04    0.6803223134E+00    0.4359896325E+00
    0.1000000000E+07    0.5904766699E-02    0.2454019755E+00    0.4721065588E-04    0.6765743620E+00    0.4311579533E+00
    0.3000000000E+07    0.3260873528E-02    0.2450146724E+00    0.2093531422E-04    0.6797995871E+00    0.4346902294E+00
    0.5000000000E+07    0.2527826703E-02    0.2446492757E+00    0.1526086247E-04    0.6803385112E+00    0.4360403215E+00
    0.7000000000E+07    0.2143399619E-02    0.2443621237E+00    0.1253128520E-04    0.6805649309E+00    0.4368559226E+00
    0.9000000000E+07    0.1896460692E-02    0.2441275501E+00    0.1085785661E-04    0.6806918127E+00    0.4374330969E+00
    0.1100000000E+08    0.1720441232E-02    0.2439294078E+00    0.9700530491E-05    0.6807739832E+00    0.4378766347E+00
    0.1300000000E+08    0.1586689379E-02    0.2437578291E+00    0.8839952732E-05    0.6808320555E+00    0.4382352376E+00
    0.1500000000E+08    0.1480544196E-02    0.2436064498E+00    0.8168218143E-05    0.6808755687E+00    0.4385353394E+00
    0.1700000000E+08    0.1393613621E-02    0.2434709465E+00    0.7625324175E-05    0.6809095674E+00    0.4387928238E+00
    0.1900000000E+08    0.1320698142E-02    0.2433482528E+00    0.7174919086E-05    0.6809369805E+00    0.4390179502E+00
    0.2100000000E+08    0.1258380093E-02    0.2432361163E+00    0.6793535355E-05    0.6809596310E+00    0.4392177138E+00
    0.2300000000E+08    0.1204307480E-02    0.2431328337E+00    0.6465261595E-05    0.6809787163E+00    0.4393970893E+00
    0.2500000000E+08    0.1156801115E-02    0.2430370856E+00    0.6178879995E-05    0.6809950567E+00    0.4395597357E+00
    0.2700000000E+08    0.1114625531E-02    0.2429478287E+00    0.5926225842E-05    0.6810092346E+00    0.4397084200E+00
