  Pressure (Pa) 2mC6-400 (mol/kg) 3mC6-400 (mol/kg) 33mC5-400 (mol/kg) 23mC5-400 (mol/kg) C7-400 (mol/kg)
    0.1000000000E+01    0.6279879621E-02    0.1558845957E-02    0.6392359798E-04    0.1858836342E-03    0.1011884189E-01
    0.3000000000E+01    0.1800475915E-01    0.4457008116E-02    0.1833346025E-03    0.5505426121E-03    0.2893789633E-01
    0.5000000000E+01    0.2874250738E-01    0.7096622187E-02    0.2927734864E-03    0.9061163945E-03    0.4608587443E-01
    0.7000000000E+01    0.3862065647E-01    0.9512219583E-02    0.3935309767E-03    0.1253047827E-02    0.6178564302E-01
    0.9000000000E+01    0.4774492693E-01    0.1173238562E-01    0.4866765834E-03    0.1591750029E-02    0.7622172058E-01
    0.1100000000E+02    0.5620375972E-01    0.1378099040E-01    0.5731046352E-03    0.1922608892E-02    0.8954821210E-01
    0.1300000000E+02    0.6407175888E-01    0.1567812582E-01    0.6535692364E-03    0.2245985331E-02    0.1018948497E+00
    0.1500000000E+02    0.7141233867E-01    0.1744082729E-01    0.7287111382E-03    0.2562217315E-02    0.1133716465E+00
    0.1700000000E+02    0.7827978196E-01    0.1908363600E-01    0.7990786263E-03    0.2871621694E-02    0.1240725218E+00
    0.1900000000E+02    0.8472085748E-01    0.2061904116E-01    0.8651439255E-03    0.3174495860E-02    0.1340781536E+00
    0.2100000000E+02    0.9077610245E-01    0.2205783131E-01    0.9273162081E-03    0.3471119248E-02    0.1434582437E+00
    0.2300000000E+02    0.9648084912E-01    0.2340937564E-01    0.9859519989E-03    0.3761754699E-02    0.1522733328E+00
    0.2500000000E+02    0.1018660529E+00    0.2468185121E-01    0.1041363568E-02    0.4046649702E-02    0.1605762660E+00
    0.2700000000E+02    0.1069589657E+00    0.2588242768E-01    0.1093825753E-02    0.4326037519E-02    0.1684133849E+00
    0.2900000000E+02    0.1117836875E+00    0.2701741879E-01    0.1143581541E-02    0.4600138220E-02    0.1758255044E+00
    0.3100000000E+02    0.1163616205E+00    0.2809240711E-01    0.1190846674E-02    0.4869159617E-02    0.1828487177E+00
    0.3300000000E+02    0.1207118468E+00    0.2911234757E-01    0.1235813462E-02    0.5133298133E-02    0.1895150653E+00
    0.3500000000E+02    0.1248514428E+00    0.3008165388E-01    0.1278653970E-02    0.5392739582E-02    0.1958530913E+00
    0.3700000000E+02    0.1287957432E+00    0.3100427096E-01    0.1319522688E-02    0.5647659897E-02    0.2018883122E+00
    0.3900000000E+02    0.1325585642E+00    0.3188373603E-01    0.1358558784E-02    0.5898225790E-02    0.2076436102E+00
    0.4100000000E+02    0.1361523922E+00    0.3272323034E-01    0.1395888016E-02    0.6144595367E-02    0.2131395680E+00
    0.4300000000E+02    0.1395885450E+00    0.3352562321E-01    0.1431624356E-02    0.6386918684E-02    0.2183947526E+00
    0.4500000000E+02    0.1428773090E+00    0.3429350966E-01    0.1465871381E-02    0.6625338271E-02    0.2234259581E+00
    0.4700000000E+02    0.1460280583E+00    0.3502924273E-01    0.1498723471E-02    0.6859989606E-02    0.2282484151E+00
    0.4900000000E+02    0.1490493561E+00    0.3573496124E-01    0.1530266840E-02    0.7091001557E-02    0.2328759692E+00
    0.1000000000E+02    0.5205257031E-01    0.1277679822E-01    0.5306802341E-03    0.1758136760E-02    0.8301504540E-01
    0.3000000000E+02    0.1141022595E+00    0.2756208999E-01    0.1167512911E-02    0.4735271297E-02    0.1793836338E+00
    0.5000000000E+02    0.1505139371E+00    0.3607718083E-01    0.1545572683E-02    0.7205181329E-02    0.2351206446E+00
    0.7000000000E+02    0.1746032263E+00    0.4173784427E-01    0.1799026268E-02    0.9324604940E-02    0.2723206902E+00
    0.9000000000E+02    0.1916791296E+00    0.4583794121E-01    0.1981322205E-02    0.1118915663E-01    0.2993653080E+00
    0.1100000000E+03    0.2043410555E+00    0.4898137879E-01    0.2118644487E-02    0.1286091428E-01    0.3201720554E+00
    0.1300000000E+03    0.2140330159E+00    0.5149043527E-01    0.2225559604E-02    0.1438219459E-01    0.3368343952E+00
    0.1500000000E+03    0.2216286962E+00    0.5355402429E-01    0.2310898685E-02    0.1578299599E-01    0.3505810971E+00
    0.1700000000E+03    0.2276903596E+00    0.5529087008E-01    0.2380358861E-02    0.1708528000E-01    0.3621853851E+00
    0.1900000000E+03    0.2325971945E+00    0.5677970762E-01    0.2437792779E-02    0.1830556305E-01    0.3721606876E+00
    0.2100000000E+03    0.2366145213E+00    0.5807503456E-01    0.2485904204E-02    0.1945655351E-01    0.3808628186E+00
    0.2300000000E+03    0.2399336089E+00    0.5921591013E-01    0.2526648493E-02    0.2054822341E-01    0.3885471020E+00
    0.2500000000E+03    0.2426957930E+00    0.6023115035E-01    0.2561475407E-02    0.2158853210E-01    0.3954021251E+00
    0.2700000000E+03    0.2450077126E+00    0.6114253930E-01    0.2591482679E-02    0.2258392799E-01    0.4015706184E+00
    0.2900000000E+03    0.2469512771E+00    0.6196689180E-01    0.2617516599E-02    0.2353970468E-01    0.4071628781E+00
    0.3100000000E+03    0.2485903831E+00    0.6271742279E-01    0.2640239894E-02    0.2446025898E-01    0.4122656828E+00
    0.3300000000E+03    0.2499755561E+00    0.6340468235E-01    0.2660178708E-02    0.2534928139E-01    0.4169483864E+00
    0.3500000000E+03    0.2511472308E+00    0.6403721021E-01    0.2677755856E-02    0.2620989886E-01    0.4212671873E+00
    0.3700000000E+03    0.2521381143E+00    0.6462200399E-01    0.2693314816E-02    0.2704478360E-01    0.4252681829E+00
    0.3900000000E+03    0.2529749170E+00    0.6516486059E-01    0.2707137347E-02    0.2785623695E-01    0.4289896002E+00
    0.4100000000E+03    0.2536796424E+00    0.6567062955E-01    0.2719456617E-02    0.2864625495E-01    0.4324634506E+00
    0.4300000000E+03    0.2542705586E+00    0.6614340387E-01    0.2730467135E-02    0.2941658002E-01    0.4357167783E+00
    0.4500000000E+03    0.2547629412E+00    0.6658666584E-01    0.2740332347E-02    0.3016874234E-01    0.4387726146E+00
    0.4700000000E+03    0.2551696478E+00    0.6700339989E-01    0.2749190519E-02    0.3090409303E-01    0.4416507165E+00
    0.4900000000E+03    0.2555015654E+00    0.6739618087E-01    0.2757159338E-02    0.3162383118E-01    0.4443681457E+00
    0.1000000000E+03    0.1984537402E+00    0.4750486245E-01    0.2054515188E-02    0.1204613456E-01    0.3103901097E+00
    0.3000000000E+03    0.2478054600E+00    0.6235067191E-01    0.2629256433E-02    0.2400413928E-01    0.4097707765E+00
    0.5000000000E+03    0.2556424301E+00    0.6758429910E-01    0.2760842301E-02    0.3197818423E-01    0.4456713173E+00
    0.7000000000E+03    0.2561875528E+00    0.7050364987E-01    0.2805981811E-02    0.3845344702E-01    0.4660533117E+00
    0.9000000000E+03    0.2546143518E+00    0.7243443734E-01    0.2821843944E-02    0.4410891979E-01    0.4797313263E+00
    0.1100000000E+04    0.2523236612E+00    0.7383337609E-01    0.2825106303E-02    0.4923333063E-01    0.4897685388E+00
    0.1300000000E+04    0.2498020931E+00    0.7490678219E-01    0.2822155372E-02    0.5397881930E-01    0.4975588762E+00
    0.1500000000E+04    0.2472419744E+00    0.7576362953E-01    0.2815866874E-02    0.5843656201E-01    0.5038433635E+00
    0.1700000000E+04    0.2447238116E+00    0.7646773076E-01    0.2807683802E-02    0.6266610713E-01    0.5090584690E+00
    0.1900000000E+04    0.2422809231E+00    0.7705930703E-01    0.2798388373E-02    0.6670881355E-01    0.5134807805E+00
    0.2100000000E+04    0.2399253634E+00    0.7756515233E-01    0.2788429615E-02    0.7059476256E-01    0.5172954748E+00
    0.2300000000E+04    0.2376592742E+00    0.7800390424E-01    0.2778076734E-02    0.7434663097E-01    0.5206319651E+00
    0.2500000000E+04    0.2354801710E+00    0.7838898497E-01    0.2767496577E-02    0.7798200974E-01    0.5235838656E+00
    0.2700000000E+04    0.2333835140E+00    0.7873034071E-01    0.2756795176E-02    0.8151486693E-01    0.5262208405E+00
    0.2900000000E+04    0.2313639889E+00    0.7903552007E-01    0.2746041158E-02    0.8495651116E-01    0.5285959751E+00
    0.3100000000E+04    0.2294161482E+00    0.7931036955E-01    0.2735279477E-02    0.8831624910E-01    0.5307505440E+00
    0.3300000000E+04    0.2275347270E+00    0.7955949715E-01    0.2724539751E-02    0.9160184779E-01    0.5327172003E+00
    0.3500000000E+04    0.2257147879E+00    0.7978659039E-01    0.2713841471E-02    0.9481986821E-01    0.5345221683E+00
    0.3700000000E+04    0.2239517771E+00    0.7999463984E-01    0.2703197337E-02    0.9797591140E-01    0.5361867903E+00
    0.3900000000E+04    0.2222415328E+00    0.8018609965E-01    0.2692615435E-02    0.1010748035E+00    0.5377286396E+00
    0.4100000000E+04    0.2205802707E+00    0.8036300516E-01    0.2682100698E-02    0.1041207373E+00    0.5391623383E+00
    0.4300000000E+04    0.2189645585E+00    0.8052706036E-01    0.2671655883E-02    0.1071173822E+00    0.5405001676E+00
    0.4500000000E+04    0.2173912856E+00    0.8067970408E-01    0.2661282244E-02    0.1100679710E+00    0.5417525295E+00
    0.4700000000E+04    0.2158576326E+00    0.8082216071E-01    0.2650980005E-02    0.1129753687E+00    0.5429283029E+00
    0.4900000000E+04    0.2143610416E+00    0.8095547950E-01    0.2640748680E-02    0.1158421280E+00    0.5440351192E+00
    0.1000000000E+04    0.2535177136E+00    0.7318422295E-01    0.2824527574E-02    0.4672603994E-01    0.4850960233E+00
    0.3000000000E+04    0.2303814436E+00    0.7917642330E-01    0.2740659137E-02    0.8664610131E-01    0.5296986169E+00
    0.5000000000E+04    0.2136259098E+00    0.8101899995E-01    0.2635659324E-02    0.1172609919E+00    0.5445647668E+00
    0.7000000000E+04    0.2004054609E+00    0.8197567786E-01    0.2537256534E-02    0.1439531114E+00    0.5527547723E+00
    0.9000000000E+04    0.1892041247E+00    0.8257552015E-01    0.2444285816E-02    0.1681974688E+00    0.5581567885E+00
    0.1100000000E+05    0.1793355683E+00    0.8299151046E-01    0.2355659550E-02    0.1906466948E+00    0.5620772926E+00
    0.1300000000E+05    0.1704376388E+00    0.8329884668E-01    0.2270743153E-02    0.2116542128E+00    0.5650973804E+00
    0.1500000000E+05    0.1622966208E+00    0.8353602231E-01    0.2189165697E-02    0.2314361079E+00    0.5675206491E+00
    0.1700000000E+05    0.1547755201E+00    0.8372498385E-01    0.2110699383E-02    0.2501364695E+00    0.5695234772E+00
    0.1900000000E+05    0.1477806547E+00    0.8387924417E-01    0.2035194373E-02    0.2678582718E+00    0.5712164041E+00
    0.2100000000E+05    0.1412444710E+00    0.8400761897E-01    0.1962543227E-02    0.2846795696E+00    0.5726727757E+00
    0.2300000000E+05    0.1351160151E+00    0.8411612552E-01    0.1892660977E-02    0.3006626296E+00    0.5739434812E+00
    0.2500000000E+05    0.1293553340E+00    0.8420902288E-01    0.1825473747E-02    0.3158593509E+00    0.5750651207E+00
    0.2700000000E+05    0.1239300313E+00    0.8428941709E-01    0.1760912258E-02    0.3303146032E+00    0.5760648081E+00
    0.2900000000E+05    0.1188130702E+00    0.8435963060E-01    0.1698908185E-02    0.3440683349E+00    0.5769631339E+00
    0.3100000000E+05    0.1139813297E+00    0.8442143724E-01    0.1639392247E-02    0.3571569282E+00    0.5777760687E+00
    0.3300000000E+05    0.1094146313E+00    0.8447621682E-01    0.1582293338E-02    0.3696140794E+00    0.5785162262E+00
    0.3500000000E+05    0.1050950697E+00    0.8452505984E-01    0.1527538305E-02    0.3814713739E+00    0.5791937280E+00
    0.3700000000E+05    0.1010065428E+00    0.8456884025E-01    0.1475052095E-02    0.3927586630E+00    0.5798168093E+00
    0.3900000000E+05    0.9713441644E-01    0.8460826716E-01    0.1424758115E-02    0.4035043108E+00    0.5803922527E+00
    0.4100000000E+05    0.9346528004E-01    0.8464392230E-01    0.1376578710E-02    0.4137353559E+00    0.5809257057E+00
    0.4300000000E+05    0.8998676636E-01    0.8467628764E-01    0.1330435663E-02    0.4234776195E+00    0.5814219169E+00
    0.4500000000E+05    0.8668741482E-01    0.8470576606E-01    0.1286250703E-02    0.4327557767E+00    0.5818849136E+00
    0.4700000000E+05    0.8355656646E-01    0.8473269708E-01    0.1243945979E-02    0.4415934077E+00    0.5823181388E+00
    0.4900000000E+05    0.8058428099E-01    0.8475736890E-01    0.1203444484E-02    0.4500130356E+00    0.5827245570E+00
    0.1000000000E+05    0.1841306436E+00    0.8280055030E-01    0.2399477410E-02    0.1796200022E+00    0.5602565444E+00
    0.3000000000E+05    0.1163628685E+00    0.8439149072E-01    0.1668843595E-02    0.3506936128E+00    0.5773794198E+00
    0.5000000000E+05    0.7915467280E-01    0.8476893601E-01    0.1183846209E-02    0.4540728552E+00    0.5829185297E+00
    0.7000000000E+05    0.5692739481E-01    0.8492612380E-01    0.8691115473E-03    0.5180205282E+00    0.5858659113E+00
    0.9000000000E+05    0.4301332333E-01    0.8500395292E-01    0.6619982838E-03    0.5588307087E+00    0.5877415318E+00
    0.1100000000E+06    0.3387948698E-01    0.8504475195E-01    0.5213540431E-03    0.5859501356E+00    0.5890609539E+00
    0.1300000000E+06    0.2761064315E-01    0.8506566229E-01    0.4224543067E-03    0.6047146420E+00    0.5900519243E+00
    0.1500000000E+06    0.2313546359E-01    0.8507490737E-01    0.3505825625E-03    0.6181817250E+00    0.5908313148E+00
    0.1700000000E+06    0.1983048970E-01    0.8507689373E-01    0.2968001971E-03    0.6281599540E+00    0.5914655040E+00
    0.1900000000E+06    0.1731781786E-01    0.8507417447E-01    0.2555137657E-03    0.6357588304E+00    0.5919951258E+00
    0.2100000000E+06    0.1535941247E-01    0.8506831715E-01    0.2231111095E-03    0.6416837637E+00    0.5924465408E+00
    0.2300000000E+06    0.1380001138E-01    0.8506032807E-01    0.1971881600E-03    0.6463983262E+00    0.5928376611E+00
    0.2500000000E+06    0.1253513087E-01    0.8505087632E-01    0.1760998845E-03    0.6502164007E+00    0.5931811264E+00
    0.2700000000E+06    0.1149247942E-01    0.8504041941E-01    0.1586920209E-03    0.6533562714E+00    0.5934861402E+00
    0.2900000000E+06    0.1062079003E-01    0.8502927737E-01    0.1441361808E-03    0.6559734013E+00    0.5937595829E+00
    0.3100000000E+06    0.9882898605E-02    0.8501767815E-01    0.1318256852E-03    0.6581808918E+00    0.5940067153E+00
    0.3300000000E+06    0.9251331010E-02    0.8500578657E-01    0.1213080694E-03    0.6600626067E+00    0.5942316381E+00
    0.3500000000E+06    0.8705416462E-02    0.8499372319E-01    0.1122403097E-03    0.6616818005E+00    0.5944376022E+00
    0.3700000000E+06    0.8229354918E-02    0.8498157695E-01    0.1043584766E-03    0.6630869231E+00    0.5946272228E+00
    0.3900000000E+06    0.7810895543E-02    0.8496941392E-01    0.9745675726E-04    0.6643156037E+00    0.5948026316E+00
    0.4100000000E+06    0.7440415516E-02    0.8495728335E-01    0.9137269078E-04    0.6653974391E+00    0.5949655862E+00
    0.4300000000E+06    0.7110266539E-02    0.8494522195E-01    0.8597660325E-04    0.6663559768E+00    0.5951175507E+00
    0.4500000000E+06    0.6814303772E-02    0.8493325709E-01    0.8116393258E-04    0.6672101494E+00    0.5952597564E+00
    0.4700000000E+06    0.6547541237E-02    0.8492140898E-01    0.7684957442E-04    0.6679753264E+00    0.5953932475E+00
    0.4900000000E+06    0.6305896307E-02    0.8490969244E-01    0.7296366294E-04    0.6686640956E+00    0.5955189160E+00
    0.1000000000E+06    0.3799497629E-01    0.8502760123E-01    0.5852127991E-03    0.5736981559E+00    0.5884527893E+00
    0.3000000000E+06    0.1023702425E-01    0.8502352338E-01    0.1377315474E-03    0.6571225428E+00    0.5938861586E+00
    0.5000000000E+06    0.6193415919E-02    0.8490388697E-01    0.7116290798E-04    0.6689831481E+00    0.5955790610E+00
    0.7000000000E+06    0.4687238370E-02    0.8479593777E-01    0.4775384249E-04    0.6731251243E+00    0.5965117267E+00
    0.9000000000E+06    0.3895689398E-02    0.8470279316E-01    0.3627681355E-04    0.6751540112E+00    0.5971328098E+00
    0.1100000000E+07    0.3400109573E-02    0.8462170245E-01    0.2956094311E-04    0.6763411334E+00    0.5975888340E+00
    0.1300000000E+07    0.3055777781E-02    0.8455010487E-01    0.2517529356E-04    0.6771159534E+00    0.5979443503E+00
    0.1500000000E+07    0.2799663912E-02    0.8448606557E-01    0.2208990511E-04    0.6776603817E+00    0.5982329996E+00
    0.1700000000E+07    0.2599877910E-02    0.8442815293E-01    0.1979962522E-04    0.6780637327E+00    0.5984743389E+00
    0.1900000000E+07    0.2438493859E-02    0.8437529512E-01    0.1802954555E-04    0.6783746876E+00    0.5986806526E+00
    0.2100000000E+07    0.2304618459E-02    0.8432667451E-01    0.1661793881E-04    0.6786219319E+00    0.5988601157E+00
    0.2300000000E+07    0.2191223009E-02    0.8428165534E-01    0.1546371821E-04    0.6788234227E+00    0.5990184184E+00
    0.2500000000E+07    0.2093551869E-02    0.8423973435E-01    0.1450055991E-04    0.6789909572E+00    0.5991596669E+00
    0.2700000000E+07    0.2008261174E-02    0.8420050679E-01    0.1368318599E-04    0.6791325974E+00    0.5992869119E+00
    0.2900000000E+07    0.1932923845E-02    0.8416364245E-01    0.1297964623E-04    0.6792540367E+00    0.5994024773E+00
    0.3100000000E+07    0.1865730675E-02    0.8412886846E-01    0.1236675489E-04    0.6793594088E+00    0.5995081698E+00
    0.3300000000E+07    0.1805302138E-02    0.8409595683E-01    0.1182727803E-04    0.6794517871E+00    0.5996054198E+00
    0.3500000000E+07    0.1750565663E-02    0.8406471507E-01    0.1134813678E-04    0.6795335039E+00    0.5996953772E+00
    0.3700000000E+07    0.1700673108E-02    0.8403497924E-01    0.1091922369E-04    0.6796063614E+00    0.5997789791E+00
    0.3900000000E+07    0.1654943788E-02    0.8400660853E-01    0.1053260163E-04    0.6796717743E+00    0.5998569985E+00
    0.4100000000E+07    0.1612824221E-02    0.8397948110E-01    0.1018194860E-04    0.6797308685E+00    0.5999300798E+00
    0.4300000000E+07    0.1573859085E-02    0.8395349083E-01    0.9862164770E-05    0.6797845519E+00    0.5999987652E+00
    0.4500000000E+07    0.1537669898E-02    0.8392854473E-01    0.9569089065E-05    0.6798335644E+00    0.6000635152E+00
    0.4700000000E+07    0.1503939083E-02    0.8390456082E-01    0.9299291206E-05    0.6798785154E+00    0.6001247236E+00
    0.4900000000E+07    0.1472397907E-02    0.8388146647E-01    0.9049916834E-05    0.6799199114E+00    0.6001827299E+00
    0.1000000000E+07    0.3622905855E-02    0.8466091625E-01    0.3252662748E-04    0.6758169395E+00    0.5973763732E+00
    0.3000000000E+07    0.1898403850E-02    0.8414600934E-01    0.1266306133E-04    0.6793085187E+00    0.5994564608E+00
    0.5000000000E+07    0.1457375482E-02    0.8387023240E-01    0.8932124559E-05    0.6799394118E+00    0.6002106257E+00
    0.7000000000E+07    0.1230562896E-02    0.8367972655E-01    0.7227814603E-05    0.6802171553E+00    0.6006549849E+00
    0.9000000000E+07    0.1086150771E-02    0.8353367558E-01    0.6210986700E-05    0.6803781610E+00    0.6009643641E+00
    0.1100000000E+08    0.9837342225E-03    0.8341505757E-01    0.5519445486E-05    0.6804852355E+00    0.6011992937E+00
    0.1300000000E+08    0.9061691046E-03    0.8331510350E-01    0.5011021029E-05    0.6805625734E+00    0.6013874775E+00
    0.1500000000E+08    0.8447588845E-03    0.8322868876E-01    0.4617397055E-05    0.6806215980E+00    0.6015437758E+00
    0.1700000000E+08    0.7945547519E-03    0.8315255376E-01    0.4301230132E-05    0.6806684548E+00    0.6016770330E+00
    0.1900000000E+08    0.7525035379E-03    0.8308449442E-01    0.4040189958E-05    0.6807067660E+00    0.6017929157E+00
    0.2100000000E+08    0.7166048290E-03    0.8302294970E-01    0.3820008511E-05    0.6807388167E+00    0.6018952610E+00
    0.2300000000E+08    0.6854854414E-03    0.8296677299E-01    0.3631092011E-05    0.6807661253E+00    0.6019867811E+00
    0.2500000000E+08    0.6581670026E-03    0.8291509701E-01    0.3466722950E-05    0.6807897443E+00    0.6020694604E+00
    0.2700000000E+08    0.6339308885E-03    0.8286724969E-01    0.3322040157E-05    0.6808104279E+00    0.6021447921E+00
