  Pressure (Pa) 2mC6-400 (mol/kg) 3mC6-400 (mol/kg) 33mC5-400 (mol/kg) 23mC5-400 (mol/kg) C7-400 (mol/kg)
    0.1000000000E+01    0.6344463346E-02    0.1052606644E-02    0.3874328770E-03    0.2786998180E-03    0.1708072673E-02
    0.3000000000E+01    0.1854130863E-01    0.3083117177E-02    0.1132316197E-02    0.8247219619E-03    0.5003494351E-02
    0.5000000000E+01    0.3012281078E-01    0.5020287522E-02    0.1839707119E-02    0.1356243296E-02    0.8148060816E-02
    0.7000000000E+01    0.4113371283E-01    0.6870976369E-02    0.2512332136E-02    0.1874015771E-02    0.1115284314E-01
    0.9000000000E+01    0.5161450077E-01    0.8641373983E-02    0.3152658248E-02    0.2378737751E-02    0.1402783417E-01
    0.1100000000E+02    0.6160190140E-01    0.1033708224E-01    0.3762923324E-02    0.2871058789E-02    0.1678207756E-01
    0.1300000000E+02    0.7112931159E-01    0.1196318338E-01    0.4345162274E-02    0.3351583902E-02    0.1942377868E-01
    0.1500000000E+02    0.8022716959E-01    0.1352429936E-01    0.4901229684E-02    0.3820877396E-02    0.2196040024E-01
    0.1700000000E+02    0.8892327755E-01    0.1502464315E-01    0.5432819481E-02    0.4279466296E-02    0.2439874511E-01
    0.1900000000E+02    0.9724308242E-01    0.1646806335E-01    0.5941482059E-02    0.4727843444E-02    0.2674502822E-01
    0.2100000000E+02    0.1052099216E+00    0.1785808306E-01    0.6428639249E-02    0.5166470272E-02    0.2900493924E-01
    0.2300000000E+02    0.1128452380E+00    0.1919793387E-01    0.6895597441E-02    0.5595779325E-02    0.3118369742E-01
    0.2500000000E+02    0.1201687698E+00    0.2049058562E-01    0.7343559133E-02    0.6016176528E-02    0.3328609960E-01
    0.2700000000E+02    0.1271987171E+00    0.2173877262E-01    0.7773633097E-02    0.6428043251E-02    0.3531656250E-01
    0.2900000000E+02    0.1339518895E+00    0.2294501674E-01    0.8186843385E-02    0.6831738170E-02    0.3727915994E-01
    0.3100000000E+02    0.1404438370E+00    0.2411164786E-01    0.8584137298E-02    0.7227598978E-02    0.3917765586E-01
    0.3300000000E+02    0.1466889665E+00    0.2524082193E-01    0.8966392477E-02    0.7615943921E-02    0.4101553344E-01
    0.3500000000E+02    0.1527006450E+00    0.2633453707E-01    0.9334423214E-02    0.7997073215E-02    0.4279602111E-01
    0.3700000000E+02    0.1584912925E+00    0.2739464792E-01    0.9688986085E-02    0.8371270335E-02    0.4452211561E-01
    0.3900000000E+02    0.1640724642E+00    0.2842287838E-01    0.1003078500E-01    0.8738803186E-02    0.4619660265E-01
    0.4100000000E+02    0.1694549251E+00    0.2942083306E-01    0.1036047570E-01    0.9099925193E-02    0.4782207537E-01
    0.4300000000E+02    0.1746487165E+00    0.3039000756E-01    0.1067866986E-01    0.9454876279E-02    0.4940095082E-01
    0.4500000000E+02    0.1796632159E+00    0.3133179763E-01    0.1098593870E-01    0.9803883780E-02    0.5093548489E-01
    0.4700000000E+02    0.1845071912E+00    0.3224750747E-01    0.1128281630E-01    0.1014716328E-01    0.5242778563E-01
    0.4900000000E+02    0.1891888495E+00    0.3313835721E-01    0.1156980258E-01    0.1048491938E-01    0.5387982529E-01
    0.1000000000E+02    0.5666771376E-01    0.9498235198E-02    0.3461416758E-02    0.2626409577E-02    0.1541951802E-01
    0.3000000000E+02    0.1372295904E+00    0.2353314530E-01    0.8387423481E-02    0.7030627509E-02    0.3823619663E-01
    0.5000000000E+02    0.1914712321E+00    0.3357481952E-01    0.1170973403E-01    0.1065178726E-01    0.5459132913E-01
    0.7000000000E+02    0.2302295118E+00    0.4124130480E-01    0.1408849355E-01    0.1374157740E-01    0.6709959464E-01
    0.9000000000E+02    0.2591199247E+00    0.4736661296E-01    0.1586575143E-01    0.1645006565E-01    0.7710958579E-01
    0.1100000000E+03    0.2813452044E+00    0.5242703090E-01    0.1723658970E-01    0.1887301664E-01    0.8539192784E-01
    0.1300000000E+03    0.2988652153E+00    0.5671580359E-01    0.1832039105E-01    0.2107483891E-01    0.9242136477E-01
    0.1500000000E+03    0.3129459032E+00    0.6042419833E-01    0.1919427573E-01    0.2310070534E-01    0.9850772028E-01
    0.1700000000E+03    0.3244408626E+00    0.6368279982E-01    0.1991025043E-01    0.2498340010E-01    0.1038626369E+00
    0.1900000000E+03    0.3339461339E+00    0.6658413291E-01    0.2050463577E-01    0.2674740282E-01    0.1086361520E+00
    0.2100000000E+03    0.3418901887E+00    0.6919580225E-01    0.2100354634E-01    0.2841143675E-01    0.1129379490E+00
    0.2300000000E+03    0.3485886949E+00    0.7156849985E-01    0.2142622584E-01    0.2999011987E-01    0.1168503132E+00
    0.2500000000E+03    0.3542791557E+00    0.7374108556E-01    0.2178715662E-01    0.3149506985E-01    0.1204363545E+00
    0.2700000000E+03    0.3591435484E+00    0.7574392292E-01    0.2209743833E-01    0.3293566450E-01    0.1237454080E+00
    0.2900000000E+03    0.3633235449E+00    0.7760113498E-01    0.2236571490E-01    0.3431957789E-01    0.1268166877E+00
    0.3100000000E+03    0.3669309997E+00    0.7933216959E-01    0.2259881335E-01    0.3565316660E-01    0.1296818219E+00
    0.3300000000E+03    0.3700553357E+00    0.8095291022E-01    0.2280219357E-01    0.3694175328E-01    0.1323666540E+00
    0.3500000000E+03    0.3727688458E+00    0.8247648029E-01    0.2298027135E-01    0.3818983844E-01    0.1348925458E+00
    0.3700000000E+03    0.3751305658E+00    0.8391383604E-01    0.2313665423E-01    0.3940126100E-01    0.1372773393E+00
    0.3900000000E+03    0.3771891455E+00    0.8527421049E-01    0.2327431644E-01    0.4057932175E-01    0.1395360766E+00
    0.4100000000E+03    0.3789850092E+00    0.8656545095E-01    0.2339573054E-01    0.4172687947E-01    0.1416815473E+00
    0.4300000000E+03    0.3805520010E+00    0.8779427872E-01    0.2350296768E-01    0.4284642658E-01    0.1437247106E+00
    0.4500000000E+03    0.3819186523E+00    0.8896649155E-01    0.2359777483E-01    0.4394014935E-01    0.1456750235E+00
    0.4700000000E+03    0.3831091694E+00    0.9008712308E-01    0.2368163499E-01    0.4500997632E-01    0.1475406997E+00
    0.4900000000E+03    0.3841442101E+00    0.9116056973E-01    0.2375581452E-01    0.4605761748E-01    0.1493289160E+00
    0.1000000000E+03    0.2709223425E+00    0.5000853777E-01    0.1659324038E-01    0.1769264950E-01    0.8143208134E-01
    0.3000000000E+03    0.3651927958E+00    0.7848135886E-01    0.2248629239E-01    0.3499230871E-01    0.1282732894E+00
    0.5000000000E+03    0.3846090665E+00    0.9168082386E-01    0.2378961995E-01    0.4657360100E-01    0.1501959773E+00
    0.7000000000E+03    0.3889519460E+00    0.1003394975E+00    0.2415455114E-01    0.5602432262E-01    0.1646648086E+00
    0.9000000000E+03    0.3883089312E+00    0.1068139084E+00    0.2420124173E-01    0.6431043588E-01    0.1755323023E+00
    0.1100000000E+04    0.3856517399E+00    0.1119975078E+00    0.2411418916E-01    0.7184102597E-01    0.1842641743E+00
    0.1300000000E+04    0.3821111415E+00    0.1163249817E+00    0.2396456838E-01    0.7883128316E-01    0.1915755564E+00
    0.1500000000E+04    0.3781856162E+00    0.1200411487E+00    0.2378434969E-01    0.8541003047E-01    0.1978701867E+00
    0.1700000000E+04    0.3741159228E+00    0.1232978971E+00    0.2358937355E-01    0.9166132219E-01    0.2033990734E+00
    0.1900000000E+04    0.3700250185E+00    0.1261961671E+00    0.2338801972E-01    0.9764347608E-01    0.2083293374E+00
    0.2100000000E+04    0.3659774798E+00    0.1288065770E+00    0.2318491497E-01    0.1033988570E+00    0.2127780910E+00
    0.2300000000E+04    0.3620072112E+00    0.1311805394E+00    0.2298267691E-01    0.1089593583E+00    0.2168307243E+00
    0.2500000000E+04    0.3581313156E+00    0.1333566933E+00    0.2278279587E-01    0.1143496825E+00    0.2205515006E+00
    0.2700000000E+04    0.3543574271E+00    0.1353648411E+00    0.2258610701E-01    0.1195894118E+00    0.2239900485E+00
    0.2900000000E+04    0.3506877584E+00    0.1372284703E+00    0.2239305476E-01    0.1246943718E+00    0.2271855275E+00
    0.3100000000E+04    0.3471214105E+00    0.1389664324E+00    0.2220384654E-01    0.1296775613E+00    0.2301694020E+00
    0.3300000000E+04    0.3436557243E+00    0.1405940956E+00    0.2201854467E-01    0.1345498073E+00    0.2329673485E+00
    0.3500000000E+04    0.3402870873E+00    0.1421241584E+00    0.2183712278E-01    0.1393202366E+00    0.2356006045E+00
    0.3700000000E+04    0.3370114195E+00    0.1435672381E+00    0.2165950095E-01    0.1439966242E+00    0.2380869425E+00
    0.3900000000E+04    0.3338244680E+00    0.1449323045E+00    0.2148556800E-01    0.1485856552E+00    0.2404413908E+00
    0.4100000000E+04    0.3307219842E+00    0.1462270059E+00    0.2131519571E-01    0.1530931250E+00    0.2426767740E+00
    0.4300000000E+04    0.3276998290E+00    0.1474579180E+00    0.2114824789E-01    0.1575240950E+00    0.2448041267E+00
    0.4500000000E+04    0.3247540319E+00    0.1486307360E+00    0.2098458626E-01    0.1618830147E+00    0.2468330139E+00
    0.4700000000E+04    0.3218808223E+00    0.1497504262E+00    0.2082407410E-01    0.1661738198E+00    0.2487717820E+00
    0.4900000000E+04    0.3190766429E+00    0.1508213455E+00    0.2066657854E-01    0.1704000102E+00    0.2506277587E+00
    0.1000000000E+04    0.3871392329E+00    0.1095336421E+00    0.2416861218E-01    0.6815394496E-01    0.1801102539E+00
    0.3000000000E+04    0.3488918057E+00    0.1381121284E+00    0.2229796364E-01    0.1272004665E+00    0.2287021929E+00
    0.5000000000E+04    0.3176993870E+00    0.1513397351E+00    0.2058892186E-01    0.1724898656E+00    0.2515267515E+00
    0.7000000000E+04    0.2930756439E+00    0.1598809162E+00    0.1916654732E-01    0.2115065602E+00    0.2663966346E+00
    0.9000000000E+04    0.2726702739E+00    0.1661140570E+00    0.1793829329E-01    0.2462640528E+00    0.2773221518E+00
    0.1100000000E+05    0.2552300907E+00    0.1709754601E+00    0.1685220796E-01    0.2776596523E+00    0.2858910442E+00
    0.1300000000E+05    0.2400290055E+00    0.1749308990E+00    0.1587807487E-01    0.3062042078E+00    0.2928966213E+00
    0.1500000000E+05    0.2266052638E+00    0.1782455653E+00    0.1499664308E-01    0.3322417604E+00    0.2987922300E+00
    0.1700000000E+05    0.2146418832E+00    0.1810845545E+00    0.1419455335E-01    0.3560338191E+00    0.3038610200E+00
    0.1900000000E+05    0.2039076191E+00    0.1835574326E+00    0.1346183717E-01    0.3777961239E+00    0.3082914585E+00
    0.2100000000E+05    0.1942255435E+00    0.1857405064E+00    0.1279061315E-01    0.3977158959E+00    0.3122151581E+00
    0.2300000000E+05    0.1854552285E+00    0.1876889644E+00    0.1217437361E-01    0.4159603114E+00    0.3157275473E+00
    0.2500000000E+05    0.1774820735E+00    0.1894439545E+00    0.1160757686E-01    0.4326808315E+00    0.3188999444E+00
    0.2700000000E+05    0.1702105876E+00    0.1910369346E+00    0.1108540384E-01    0.4480155462E+00    0.3217869938E+00
    0.2900000000E+05    0.1635599608E+00    0.1924924654E+00    0.1060360594E-01    0.4620905747E+00    0.3244314484E+00
    0.3100000000E+05    0.1574610127E+00    0.1938300690E+00    0.1015840452E-01    0.4750210343E+00    0.3268673569E+00
    0.3300000000E+05    0.1518540031E+00    0.1950655035E+00    0.9746420579E-02    0.4869118259E+00    0.3291222546E+00
    0.3500000000E+05    0.1466870023E+00    0.1962116613E+00    0.9364622371E-02    0.4978583466E+00    0.3312187085E+00
    0.3700000000E+05    0.1419146361E+00    0.1972792151E+00    0.9010284211E-02    0.5079471774E+00    0.3331754314E+00
    0.3900000000E+05    0.1374970947E+00    0.1982770935E+00    0.8680952491E-02    0.5172567576E+00    0.3350081026E+00
    0.4100000000E+05    0.1333993304E+00    0.1992128363E+00    0.8374416708E-02    0.5258580445E+00    0.3367299818E+00
    0.4300000000E+05    0.1295903978E+00    0.2000928638E+00    0.8088684159E-02    0.5338151536E+00    0.3383523763E+00
    0.4500000000E+05    0.1260429033E+00    0.2009226853E+00    0.7821957530E-02    0.5411859699E+00    0.3398850011E+00
    0.4700000000E+05    0.1227325402E+00    0.2017070603E+00    0.7572614884E-02    0.5480227264E+00    0.3413362605E+00
    0.4900000000E+05    0.1196376946E+00    0.2024501275E+00    0.7339191699E-02    0.5543725444E+00    0.3427134706E+00
    0.1000000000E+05    0.2636331752E+00    0.1686805699E+00    0.1737971228E-01    0.2623447100E+00    0.2818405152E+00
    0.3000000000E+05    0.1604454606E+00    0.1931749470E+00    0.1037665055E-01    0.4686920884E+00    0.3256736179E+00
    0.5000000000E+05    0.1181649883E+00    0.2028073194E+00    0.7228031282E-02    0.5573783028E+00    0.3433763400E+00
    0.7000000000E+05    0.9632470443E-01    0.2084621841E+00    0.5580601685E-02    0.6002389740E+00    0.3539515263E+00
    0.9000000000E+05    0.8316879958E-01    0.2123229590E+00    0.4602764871E-02    0.6236589017E+00    0.3612746288E+00
    0.1100000000E+06    0.7434260075E-01    0.2151847023E+00    0.3963149337E-02    0.6377863103E+00    0.3667700847E+00
    0.1300000000E+06    0.6795508717E-01    0.2174197173E+00    0.3513384256E-02    0.6469772622E+00    0.3711097239E+00
    0.1500000000E+06    0.6307354788E-01    0.2192298141E+00    0.3179471630E-02    0.6533139563E+00    0.3746599934E+00
    0.1700000000E+06    0.5918952347E-01    0.2207355562E+00    0.2921053233E-02    0.6578856561E+00    0.3776410538E+00
    0.1900000000E+06    0.5600310749E-01    0.2220141733E+00    0.2714462902E-02    0.6613056344E+00    0.3801946772E+00
    0.2100000000E+06    0.5332593897E-01    0.2231178139E+00    0.2544980225E-02    0.6639405057E+00    0.3824170647E+00
    0.2300000000E+06    0.5103355037E-01    0.2240831746E+00    0.2402994811E-02    0.6660205362E+00    0.3843762285E+00
    0.2500000000E+06    0.4904019413E-01    0.2249369525E+00    0.2281974614E-02    0.6676964450E+00    0.3861218664E+00
    0.2700000000E+06    0.4728471423E-01    0.2256991098E+00    0.2177326874E-02    0.6690703835E+00    0.3876912951E+00
    0.2900000000E+06    0.4572220245E-01    0.2263849198E+00    0.2085727907E-02    0.6702136801E+00    0.3891131813E+00
    0.3100000000E+06    0.4431885289E-01    0.2270062991E+00    0.2004712092E-02    0.6711774375E+00    0.3904099777E+00
    0.3300000000E+06    0.4304866842E-01    0.2275727037E+00    0.1932410619E-02    0.6719990978E+00    0.3915995668E+00
    0.3500000000E+06    0.4189128381E-01    0.2280917474E+00    0.1867380170E-02    0.6727066397E+00    0.3926963998E+00
    0.3700000000E+06    0.4083048555E-01    0.2285696413E+00    0.1808487451E-02    0.6733213374E+00    0.3937123053E+00
    0.3900000000E+06    0.3985318049E-01    0.2290115096E+00    0.1754829449E-02    0.6738596202E+00    0.3946570751E+00
    0.4100000000E+06    0.3894866100E-01    0.2294216236E+00    0.1705677170E-02    0.6743343539E+00    0.3955388981E+00
    0.4300000000E+06    0.3810807134E-01    0.2298035763E+00    0.1660435163E-02    0.6747557400E+00    0.3963646841E+00
    0.4500000000E+06    0.3732401309E-01    0.2301604155E+00    0.1618611885E-02    0.6751319607E+00    0.3971403124E+00
    0.4700000000E+06    0.3659024887E-01    0.2304947455E+00    0.1579797673E-02    0.6754696456E+00    0.3978708220E+00
    0.4900000000E+06    0.3590147671E-01    0.2308088074E+00    0.1543648117E-02    0.6757742180E+00    0.3985605617E+00
    0.1000000000E+06    0.7836527047E-01    0.2138497752E+00    0.4252456440E-02    0.6315343975E+00    0.3641986954E+00
    0.3000000000E+06    0.4500241053E-01    0.2267030230E+00    0.2044025550E-02    0.6707153988E+00    0.3897760062E+00
    0.5000000000E+06    0.3557251788E-01    0.2309588545E+00    0.1526479612E-02    0.6759155167E+00    0.3988913426E+00
    0.7000000000E+06    0.3053069309E-01    0.2332540103E+00    0.1270931743E-02    0.6777660246E+00    0.4040673991E+00
    0.9000000000E+06    0.2724187363E-01    0.2347326525E+00    0.1111541603E-02    0.6786872969E+00    0.4075474051E+00
    0.1100000000E+07    0.2486926636E-01    0.2357806273E+00    0.9998965823E-03    0.6792321437E+00    0.4101079411E+00
    0.1300000000E+07    0.2304900853E-01    0.2365693589E+00    0.9160485019E-03    0.6795900157E+00    0.4121015445E+00
    0.1500000000E+07    0.2159305080E-01    0.2371881103E+00    0.8500705879E-03    0.6798422624E+00    0.4137152792E+00
    0.1700000000E+07    0.2039277578E-01    0.2376885002E+00    0.7963891516E-03    0.6800292946E+00    0.4150591740E+00
    0.1900000000E+07    0.1938034377E-01    0.2381027004E+00    0.7515992413E-03    0.6801733539E+00    0.4162028865E+00
    0.2100000000E+07    0.1851084376E-01    0.2384519260E+00    0.7134867347E-03    0.6802876515E+00    0.4171930250E+00
    0.2300000000E+07    0.1775317108E-01    0.2387507975E+00    0.6805407916E-03    0.6803805113E+00    0.4180621534E+00
    0.2500000000E+07    0.1708499164E-01    0.2390097543E+00    0.6516901650E-03    0.6804574310E+00    0.4188338271E+00
    0.2700000000E+07    0.1648978832E-01    0.2392364710E+00    0.6261511722E-03    0.6805221830E+00    0.4195255789E+00
    0.2900000000E+07    0.1595504129E-01    0.2394367288E+00    0.6033354017E-03    0.6805774406E+00    0.4201507742E+00
    0.3100000000E+07    0.1547106056E-01    0.2396149745E+00    0.5827912458E-03    0.6806251492E+00    0.4207198105E+00
    0.3300000000E+07    0.1503021075E-01    0.2397746896E+00    0.5641655142E-03    0.6806667584E+00    0.4212409189E+00
    0.3500000000E+07    0.1462638119E-01    0.2399186426E+00    0.5471774489E-03    0.6807033694E+00    0.4217207152E+00
    0.3700000000E+07    0.1425461432E-01    0.2400490656E+00    0.5316006679E-03    0.6807358339E+00    0.4221645880E+00
    0.3900000000E+07    0.1391083939E-01    0.2401677798E+00    0.5172503240E-03    0.6807648208E+00    0.4225769787E+00
    0.4100000000E+07    0.1359167778E-01    0.2402762873E+00    0.5039737891E-03    0.6807908625E+00    0.4229615864E+00
    0.4300000000E+07    0.1329429824E-01    0.2403758391E+00    0.4916437718E-03    0.6808143881E+00    0.4233215212E+00
    0.4500000000E+07    0.1301630760E-01    0.2404674861E+00    0.4801531514E-03    0.6808357473E+00    0.4236594202E+00
    0.4700000000E+07    0.1275566701E-01    0.2405521181E+00    0.4694110450E-03    0.6808552279E+00    0.4239775370E+00
    0.4900000000E+07    0.1251062709E-01    0.2406304942E+00    0.4593397726E-03    0.6808730687E+00    0.4242778106E+00
    0.1000000000E+07    0.2596975893E-01    0.2352969862E+00    0.1051343560E-02    0.6789910133E+00    0.4089150215E+00
    0.3000000000E+07    0.1570722336E-01    0.2395283664E+00    0.5928034013E-03    0.6806021383E+00    0.4204417544E+00
    0.5000000000E+07    0.1239347707E-01    0.2406675435E+00    0.4545344405E-03    0.6808814380E+00    0.4244217900E+00
    0.7000000000E+07    0.1059162232E-01    0.2411986244E+00    0.3814259575E-03    0.6809976871E+00    0.4266750040E+00
    0.9000000000E+07    0.9414380623E-02    0.2414982505E+00    0.3345089085E-03    0.6810617705E+00    0.4281941616E+00
    0.1100000000E+08    0.8566744953E-02    0.2416843978E+00    0.3011717749E-03    0.6811025501E+00    0.4293172637E+00
    0.1300000000E+08    0.7918282735E-02    0.2418065458E+00    0.2759344777E-03    0.6811308807E+00    0.4301965033E+00
    0.1500000000E+08    0.7401134559E-02    0.2418892114E+00    0.2559823387E-03    0.6811517658E+00    0.4309122893E+00
    0.1700000000E+08    0.6976010675E-02    0.2419459487E+00    0.2397022837E-03    0.6811678360E+00    0.4315118128E+00
    0.1900000000E+08    0.6618362631E-02    0.2419848591E+00    0.2260949941E-03    0.6811806083E+00    0.4320249219E+00
    0.2100000000E+08    0.6311949701E-02    0.2420110757E+00    0.2145041427E-03    0.6811910200E+00    0.4324715861E+00
    0.2300000000E+08    0.6045537245E-02    0.2420280028E+00    0.2044785955E-03    0.6811996820E+00    0.4328657638E+00
    0.2500000000E+08    0.5811070297E-02    0.2420379815E+00    0.1956967283E-03    0.6812070100E+00    0.4332175606E+00
    0.2700000000E+08    0.5602601328E-02    0.2420426707E+00    0.1879222728E-03    0.6812132966E+00    0.4335345068E+00
