  Pressure (Pa) 2mC6-400 (mol/kg) 3mC6-400 (mol/kg) 33mC5-400 (mol/kg) 23mC5-400 (mol/kg) C7-400 (mol/kg)
    0.1000000000E+01    0.7078662463E-02    0.5211257065E-03    0.1921371738E-03    0.1857175446E-03    0.8456748528E-02
    0.3000000000E+01    0.2036658174E-01    0.1498084905E-02    0.5529521731E-03    0.5491011091E-03    0.2431534390E-01
    0.5000000000E+01    0.3261330642E-01    0.2397177819E-02    0.8856761445E-03    0.9022521067E-03    0.3891568365E-01
    0.7000000000E+01    0.4394047712E-01    0.3227850089E-02    0.1193594386E-02    0.1245733156E-02    0.5241019006E-01
    0.9000000000E+01    0.5445094698E-01    0.3998060640E-02    0.1479484024E-02    0.1580064356E-02    0.6492731171E-01
    0.1100000000E+02    0.6423233050E-01    0.4714564255E-02    0.1745710122E-02    0.1905727305E-02    0.7657607800E-01
    0.1300000000E+02    0.7335977118E-01    0.5383131966E-02    0.1994300607E-02    0.2223168670E-02    0.8744965172E-01
    0.1500000000E+02    0.8189812226E-01    0.6008724657E-02    0.2227005303E-02    0.2532803355E-02    0.9762812773E-01
    0.1700000000E+02    0.8990368134E-01    0.6595631106E-02    0.2445342865E-02    0.2835017337E-02    0.1071807584E+00
    0.1900000000E+02    0.9742558221E-01    0.7147578658E-02    0.2650638438E-02    0.3130170191E-02    0.1161677383E+00
    0.2100000000E+02    0.1045069209E+00    0.7667822696E-02    0.2844054109E-02    0.3418597360E-02    0.1246416465E+00
    0.2300000000E+02    0.1111856733E+00    0.8159219478E-02    0.3026613731E-02    0.3700612187E-02    0.1326486217E+00
    0.2500000000E+02    0.1174954491E+00    0.8624285865E-02    0.3199223286E-02    0.3976507744E-02    0.1402293251E+00
    0.2700000000E+02    0.1234661139E+00    0.9065248602E-02    0.3362687721E-02    0.4246558485E-02    0.1474197355E+00
    0.2900000000E+02    0.1291243073E+00    0.9484085234E-02    0.3517724936E-02    0.4511021728E-02    0.1542518091E+00
    0.3100000000E+02    0.1344938760E+00    0.9882558265E-02    0.3664977488E-02    0.4770139007E-02    0.1607540308E+00
    0.3300000000E+02    0.1395962379E+00    0.1026224383E-01    0.3805022423E-02    0.5024137291E-02    0.1669518765E+00
    0.3500000000E+02    0.1444506901E+00    0.1062455589E-01    0.3938379600E-02    0.5273230090E-02    0.1728682035E+00
    0.3700000000E+02    0.1490746707E+00    0.1097076673E-01    0.4065518748E-02    0.5517618459E-02    0.1785235814E+00
    0.3900000000E+02    0.1534839815E+00    0.1130202441E-01    0.4186865493E-02    0.5757491923E-02    0.1839365741E+00
    0.4100000000E+02    0.1576929799E+00    0.1161936774E-01    0.4302806529E-02    0.5993029301E-02    0.1891239800E+00
    0.4300000000E+02    0.1617147437E+00    0.1192373902E-01    0.4413694056E-02    0.6224399481E-02    0.1941010397E+00
    0.4500000000E+02    0.1655612130E+00    0.1221599517E-01    0.4519849629E-02    0.6451762108E-02    0.1988816139E+00
    0.4700000000E+02    0.1692433141E+00    0.1249691722E-01    0.4621567483E-02    0.6675268231E-02    0.2034783376E+00
    0.4900000000E+02    0.1727710670E+00    0.1276721868E-01    0.4719117437E-02    0.6895060884E-02    0.2079027544E+00
    0.1000000000E+02    0.5942781381E-01    0.4362644300E-02    0.1614921127E-02    0.1743950665E-02    0.7085408070E-01
    0.3000000000E+02    0.1318437780E+00    0.9685764626E-02    0.3592286798E-02    0.4641234099E-02    0.1575424936E+00
    0.5000000000E+02    0.1744799696E+00    0.1289859296E-01    0.4766407723E-02    0.7003607300E-02    0.2100536856E+00
    0.7000000000E+02    0.2024375366E+00    0.1510106425E-01    0.5544097322E-02    0.9009035317E-02    0.2461717954E+00
    0.9000000000E+02    0.2220065151E+00    0.1673341673E-01    0.6094741227E-02    0.1076129804E-01    0.2730236641E+00
    0.1100000000E+03    0.2363180134E+00    0.1800834461E-01    0.6502689742E-02    0.1232555893E-01    0.2940565939E+00
    0.1300000000E+03    0.2471183607E+00    0.1904212801E-01    0.6815029263E-02    0.1374511464E-01    0.3111573729E+00
    0.1500000000E+03    0.2554619399E+00    0.1990417813E-01    0.7060224219E-02    0.1505004761E-01    0.3254535240E+00
    0.1700000000E+03    0.2620238711E+00    0.2063874996E-01    0.7256527823E-02    0.1626203008E-01    0.3376646985E+00
    0.1900000000E+03    0.2672565193E+00    0.2127554326E-01    0.7416191884E-02    0.1739715003E-01    0.3482743615E+00
    0.2100000000E+03    0.2714741878E+00    0.2183532434E-01    0.7547745422E-02    0.1846765467E-01    0.3576208986E+00
    0.2300000000E+03    0.2749018360E+00    0.2233310892E-01    0.7657305914E-02    0.1948306954E-01    0.3659492322E+00
    0.2500000000E+03    0.2777045189E+00    0.2278006259E-01    0.7749372069E-02    0.2045094172E-01    0.3734416609E+00
    0.2700000000E+03    0.2800059141E+00    0.2318468680E-01    0.7827323082E-02    0.2137734784E-01    0.3802371176E+00
    0.2900000000E+03    0.2819003863E+00    0.2355358699E-01    0.7893743976E-02    0.2226725026E-01    0.3864436497E+00
    0.3100000000E+03    0.2834610769E+00    0.2389198630E-01    0.7950643923E-02    0.2312475250E-01    0.3921467709E+00
    0.3300000000E+03    0.2847454654E+00    0.2420407860E-01    0.7999606487E-02    0.2395328587E-01    0.3974152039E+00
    0.3500000000E+03    0.2857992785E+00    0.2449327708E-01    0.8041895325E-02    0.2475574846E-01    0.4023049274E+00
    0.3700000000E+03    0.2866592915E+00    0.2476239304E-01    0.8078530021E-02    0.2553461011E-01    0.4068620874E+00
    0.3900000000E+03    0.2873553711E+00    0.2501376694E-01    0.8110341434E-02    0.2629199294E-01    0.4111251333E+00
    0.4100000000E+03    0.2879119876E+00    0.2524936604E-01    0.8138012732E-02    0.2702973385E-01    0.4151264094E+00
    0.4300000000E+03    0.2883493507E+00    0.2547085834E-01    0.8162110240E-02    0.2774943367E-01    0.4188933615E+00
    0.4500000000E+03    0.2886842728E+00    0.2567966922E-01    0.8183106920E-02    0.2845249617E-01    0.4224494618E+00
    0.4700000000E+03    0.2889308331E+00    0.2587702554E-01    0.8201400466E-02    0.2914015935E-01    0.4258149283E+00
    0.4900000000E+03    0.2891008941E+00    0.2606399019E-01    0.8217327375E-02    0.2981352077E-01    0.4290072902E+00
    0.1000000000E+03    0.2296887069E+00    0.1740681465E-01    0.6313028352E-02    0.1156383702E-01    0.2841256597E+00
    0.3000000000E+03    0.2827185470E+00    0.2372631634E-01    0.7923276533E-02    0.2269982301E-01    0.3893535020E+00
    0.5000000000E+03    0.2891604396E+00    0.2615386983E-01    0.8224494535E-02    0.3014514808E-01    0.4305434121E+00
    0.7000000000E+03    0.2881127599E+00    0.2757897285E-01    0.8294695495E-02    0.3621673393E-01    0.4550381363E+00
    0.9000000000E+03    0.2851183284E+00    0.2855699370E-01    0.8294055117E-02    0.4153501492E-01    0.4720222108E+00
    0.1100000000E+04    0.2815956143E+00    0.2928635610E-01    0.8266465188E-02    0.4636341897E-01    0.4847995427E+00
    0.1300000000E+04    0.2780040077E+00    0.2985933922E-01    0.8227663025E-02    0.5084105495E-01    0.4949153077E+00
    0.1500000000E+04    0.2745069351E+00    0.3032589083E-01    0.8184215283E-02    0.5505153891E-01    0.5032099374E+00
    0.1700000000E+04    0.2711609473E+00    0.3071588376E-01    0.8139125166E-02    0.5904964635E-01    0.5101882586E+00
    0.1900000000E+04    0.2679804616E+00    0.3104849964E-01    0.8093840010E-02    0.6287352807E-01    0.5161757007E+00
    0.2100000000E+04    0.2649627155E+00    0.3133672941E-01    0.8049070620E-02    0.6655100264E-01    0.5213934607E+00
    0.2300000000E+04    0.2620981578E+00    0.3158974450E-01    0.8005158848E-02    0.7010308899E-01    0.5259982262E+00
    0.2500000000E+04    0.2593749787E+00    0.3181423936E-01    0.7962254591E-02    0.7354612545E-01    0.5301047268E+00
    0.2700000000E+04    0.2567811141E+00    0.3201523603E-01    0.7920405741E-02    0.7689310935E-01    0.5337992856E+00
    0.2900000000E+04    0.2543051085E+00    0.3219658915E-01    0.7879605792E-02    0.8015458091E-01    0.5371483466E+00
    0.3100000000E+04    0.2519364484E+00    0.3236131546E-01    0.7839819812E-02    0.8333922757E-01    0.5402040493E+00
    0.3300000000E+04    0.2496656479E+00    0.3251181572E-01    0.7800998902E-02    0.8645430960E-01    0.5430079939E+00
    0.3500000000E+04    0.2474842203E+00    0.3265002848E-01    0.7763088332E-02    0.8950596771E-01    0.5455938540E+00
    0.3700000000E+04    0.2453846021E+00    0.3277753919E-01    0.7726032106E-02    0.9249945029E-01    0.5479892346E+00
    0.3900000000E+04    0.2433600599E+00    0.3289565925E-01    0.7689775493E-02    0.9543928452E-01    0.5502170213E+00
    0.4100000000E+04    0.2414045968E+00    0.3300548436E-01    0.7654266363E-02    0.9832940750E-01    0.5522963780E+00
    0.4300000000E+04    0.2395128642E+00    0.3310793831E-01    0.7619455824E-02    0.1011732682E+00    0.5542434962E+00
    0.4500000000E+04    0.2376800817E+00    0.3320380634E-01    0.7585298465E-02    0.1039739077E+00    0.5560721676E+00
    0.4700000000E+04    0.2359019676E+00    0.3329376089E-01    0.7551752354E-02    0.1067340236E+00    0.5577942265E+00
    0.4900000000E+04    0.2341746764E+00    0.3337838166E-01    0.7518778912E-02    0.1094560212E+00    0.5594198955E+00
    0.1000000000E+04    0.2833835101E+00    0.2894557952E-01    0.8282317915E-02    0.4399997468E-01    0.4788167052E+00
    0.3000000000E+04    0.2531079772E+00    0.3228086824E-01    0.7859588903E-02    0.8175602421E-01    0.5387100558E+00
    0.5000000000E+04    0.2333289938E+00    0.3341885167E-01    0.7502495756E-02    0.1108034080E+00    0.5601994062E+00
    0.7000000000E+04    0.2184020166E+00    0.3404137939E-01    0.7199748298E-02    0.1361733089E+00    0.5723806211E+00
    0.9000000000E+04    0.2061075255E+00    0.3444620198E-01    0.6928123011E-02    0.1592595947E+00    0.5805407746E+00
    0.1100000000E+05    0.1954843197E+00    0.3473515744E-01    0.6677052775E-02    0.1806822140E+00    0.5865201306E+00
    0.1300000000E+05    0.1860368637E+00    0.3495390932E-01    0.6441172149E-02    0.2007776654E+00    0.5911558131E+00
    0.1500000000E+05    0.1774777757E+00    0.3512639510E-01    0.6217476293E-02    0.2197515158E+00    0.5948922306E+00
    0.1700000000E+05    0.1696257701E+00    0.3526652933E-01    0.6004149423E-02    0.2377402201E+00    0.5979906914E+00
    0.1900000000E+05    0.1623589395E+00    0.3538302109E-01    0.5800023173E-02    0.2548404661E+00    0.6006164995E+00
    0.2100000000E+05    0.1555910006E+00    0.3548163377E-01    0.5604301979E-02    0.2711246498E+00    0.6028801530E+00
    0.2300000000E+05    0.1492582239E+00    0.3556635141E-01    0.5416413598E-02    0.2866496646E+00    0.6048587721E+00
    0.2500000000E+05    0.1433117862E+00    0.3564002635E-01    0.5235923257E-02    0.3014621675E+00    0.6066080849E+00
    0.2700000000E+05    0.1377130739E+00    0.3570476054E-01    0.5062482325E-02    0.3156018607E+00    0.6081695302E+00
    0.2900000000E+05    0.1324306830E+00    0.3576214089E-01    0.4895796741E-02    0.3291035943E+00    0.6095746696E+00
    0.3100000000E+05    0.1274384412E+00    0.3581339036E-01    0.4735607242E-02    0.3419987409E+00    0.6108480379E+00
    0.3300000000E+05    0.1227140667E+00    0.3585946828E-01    0.4581676864E-02    0.3543161065E+00    0.6120090462E+00
    0.3500000000E+05    0.1182382401E+00    0.3590113886E-01    0.4433783047E-02    0.3660825378E+00    0.6130732882E+00
    0.3700000000E+05    0.1139939481E+00    0.3593901919E-01    0.4291712716E-02    0.3773233296E+00    0.6140534614E+00
    0.3900000000E+05    0.1099660110E+00    0.3597361359E-01    0.4155259288E-02    0.3880624971E+00    0.6149600285E+00
    0.4100000000E+05    0.1061407382E+00    0.3600533860E-01    0.4024220950E-02    0.3983229582E+00    0.6158017025E+00
    0.4300000000E+05    0.1025056720E+00    0.3603454164E-01    0.3898399751E-02    0.4081266549E+00    0.6165858093E+00
    0.4500000000E+05    0.9904939425E-01    0.3606151494E-01    0.3777601226E-02    0.4174946338E+00    0.6173185607E+00
    0.4700000000E+05    0.9576137936E-01    0.3608650630E-01    0.3661634351E-02    0.4264471005E+00    0.6180052656E+00
    0.4900000000E+05    0.9263187908E-01    0.3610972731E-01    0.3550311682E-02    0.4350034563E+00    0.6186504928E+00
    0.1000000000E+05    0.2006247013E+00    0.3460157784E-01    0.6800430124E-02    0.1701536643E+00    0.5837375659E+00
    0.3000000000E+05    0.1298997648E+00    0.3578846678E-01    0.4814905204E-02    0.3356251387E+00    0.6102265095E+00
    0.5000000000E+05    0.9112371549E-01    0.3612073180E-01    0.3496334388E-02    0.4391389421E+00    0.6189588100E+00
    0.7000000000E+05    0.6737956562E-01    0.3628104030E-01    0.2618351303E-02    0.5051782262E+00    0.6236791814E+00
    0.9000000000E+05    0.5215665133E-01    0.3637484528E-01    0.2027132329E-02    0.5482917031E+00    0.6267269063E+00
    0.1100000000E+06    0.4196340184E-01    0.3643556376E-01    0.1618386439E-02    0.5773942167E+00    0.6288954131E+00
    0.1300000000E+06    0.3485227280E-01    0.3647735171E-01    0.1326962472E-02    0.5977455899E+00    0.6305376057E+00
    0.1500000000E+06    0.2970540998E-01    0.3650728936E-01    0.1112866849E-02    0.6124562309E+00    0.6318365414E+00
    0.1700000000E+06    0.2585860927E-01    0.3652932690E-01    0.9512376506E-03    0.6234080543E+00    0.6328974190E+00
    0.1900000000E+06    0.2290255103E-01    0.3654584673E-01    0.8262414836E-03    0.6317746413E+00    0.6337853658E+00
    0.2100000000E+06    0.2057594521E-01    0.3655837225E-01    0.7275137989E-03    0.6383112148E+00    0.6345430648E+00
    0.2300000000E+06    0.1870647444E-01    0.3656792306E-01    0.6480822439E-03    0.6435185943E+00    0.6351997792E+00
    0.2500000000E+06    0.1717709456E-01    0.3657520700E-01    0.5831344243E-03    0.6477382188E+00    0.6357763194E+00
    0.2700000000E+06    0.1590617075E-01    0.3658073049E-01    0.5292694856E-03    0.6512087893E+00    0.6362879386E+00
    0.2900000000E+06    0.1483539881E-01    0.3658486502E-01    0.4840320164E-03    0.6541010031E+00    0.6367461048E+00
    0.3100000000E+06    0.1392224383E-01    0.3658788895E-01    0.4456144973E-03    0.6565394386E+00    0.6371596287E+00
    0.3300000000E+06    0.1313507837E-01    0.3659001473E-01    0.4126628142E-03    0.6586166970E+00    0.6375354062E+00
    0.3500000000E+06    0.1244997891E-01    0.3659140706E-01    0.3841463044E-03    0.6604027570E+00    0.6378789231E+00
    0.3700000000E+06    0.1184856719E-01    0.3659219540E-01    0.3592691309E-03    0.6619512980E+00    0.6381946058E+00
    0.3900000000E+06    0.1131652568E-01    0.3659248278E-01    0.3374086925E-03    0.6633040582E+00    0.6384860708E+00
    0.4100000000E+06    0.1084255738E-01    0.3659235208E-01    0.3180720748E-03    0.6644938938E+00    0.6387563064E+00
    0.4300000000E+06    0.1041764450E-01    0.3659187060E-01    0.3008647606E-03    0.6655469617E+00    0.6390078063E+00
    0.4500000000E+06    0.1003451166E-01    0.3659109347E-01    0.2854678165E-03    0.6664843016E+00    0.6392426706E+00
    0.4700000000E+06    0.9687231778E-02    0.3659006623E-01    0.2716210321E-03    0.6673229980E+00    0.6394626825E+00
    0.4900000000E+06    0.9370932580E-02    0.3658882672E-01    0.2591103012E-03    0.6680770451E+00    0.6396693669E+00
    0.1000000000E+06    0.4657866544E-01    0.3640821359E-01    0.1804761455E-02    0.5642007448E+00    0.6278932790E+00
    0.3000000000E+06    0.1436130775E-01    0.3658650123E-01    0.4640642526E-03    0.6553705339E+00    0.6369579780E+00
    0.5000000000E+06    0.9223111044E-02    0.3658813747E-01    0.2532992540E-03    0.6684260173E+00    0.6397681290E+00
    0.7000000000E+06    0.7199615984E-02    0.3656869971E-01    0.1767474769E-03    0.6729312378E+00    0.6412841459E+00
    0.9000000000E+06    0.6093231649E-02    0.3654529799E-01    0.1381939113E-03    0.6751116305E+00    0.6422734674E+00
    0.1100000000E+07    0.5380155169E-02    0.3652182032E-01    0.1151035713E-03    0.6763736199E+00    0.6429866440E+00
    0.1300000000E+07    0.4873806857E-02    0.3649934566E-01    0.9971549786E-04    0.6771893988E+00    0.6435334629E+00
    0.1500000000E+07    0.4490838577E-02    0.3647814864E-01    0.8869469704E-04    0.6777577117E+00    0.6439707519E+00
    0.1700000000E+07    0.4188155276E-02    0.3645824021E-01    0.8038402312E-04    0.6781755420E+00    0.6443313123E+00
    0.1900000000E+07    0.3941075865E-02    0.3643954298E-01    0.7387059340E-04    0.6784954454E+00    0.6446355999E+00
    0.2100000000E+07    0.3734357814E-02    0.3642195421E-01    0.6861119196E-04    0.6787482223E+00    0.6448971327E+00
    0.2300000000E+07    0.3558027118E-02    0.3640536955E-01    0.6426261662E-04    0.6789530552E+00    0.6451252564E+00
    0.2500000000E+07    0.3405252088E-02    0.3638969170E-01    0.6059740016E-04    0.6791224859E+00    0.6453266701E+00
    0.2700000000E+07    0.3271177131E-02    0.3637483310E-01    0.5745876770E-04    0.6792650468E+00    0.6455063204E+00
    0.2900000000E+07    0.3152244298E-02    0.3636071618E-01    0.5473509199E-04    0.6793867377E+00    0.6456679518E+00
    0.3100000000E+07    0.3045778990E-02    0.3634727259E-01    0.5234467648E-04    0.6794918975E+00    0.6458144585E+00
    0.3300000000E+07    0.2949726489E-02    0.3633444226E-01    0.5022630718E-04    0.6795837398E+00    0.6459481189E+00
    0.3500000000E+07    0.2862478528E-02    0.3632217234E-01    0.4833317505E-04    0.6796646949E+00    0.6460707545E+00
    0.3700000000E+07    0.2782755692E-02    0.3631041620E-01    0.4662884521E-04    0.6797366338E+00    0.6461838420E+00
    0.3900000000E+07    0.2709525591E-02    0.3629913259E-01    0.4508451118E-04    0.6798010209E+00    0.6462885930E+00
    0.4100000000E+07    0.2641944636E-02    0.3628828493E-01    0.4367708007E-04    0.6798590181E+00    0.6463860126E+00
    0.4300000000E+07    0.2579315754E-02    0.3627784060E-01    0.4238780918E-04    0.6799115591E+00    0.6464769425E+00
    0.4500000000E+07    0.2521057149E-02    0.3626777047E-01    0.4120131685E-04    0.6799594033E+00    0.6465620940E+00
    0.4700000000E+07    0.2466678841E-02    0.3625804842E-01    0.4010485277E-04    0.6800031741E+00    0.6466420728E+00
    0.4900000000E+07    0.2415764793E-02    0.3624865094E-01    0.3908775156E-04    0.6800433884E+00    0.6467173987E+00
    0.1000000000E+07    0.5702899552E-02    0.3653347115E-01    0.1253612532E-03    0.6758179428E+00    0.6426559166E+00
    0.3000000000E+07    0.3097593783E-02    0.3635391415E-01    0.5350244899E-04    0.6794411615E+00    0.6457429410E+00
    0.5000000000E+07    0.2391493615E-02    0.3624406720E-01    0.3860609500E-04    0.6800622999E+00    0.6467534594E+00
    0.7000000000E+07    0.2023462056E-02    0.3616522480E-01    0.3154676724E-04    0.6803292270E+00    0.6473129043E+00
    0.9000000000E+07    0.1787786488E-02    0.3610356541E-01    0.2725323356E-04    0.6804816390E+00    0.6476848582E+00
    0.1100000000E+08    0.1620125660E-02    0.3605285169E-01    0.2429873690E-04    0.6805819159E+00    0.6479570933E+00
    0.1300000000E+08    0.1492904254E-02    0.3600973644E-01    0.2210944561E-04    0.6806537542E+00    0.6481685674E+00
    0.1500000000E+08    0.1392050681E-02    0.3597221213E-01    0.2040497838E-04    0.6807082257E+00    0.6483396471E+00
    0.1700000000E+08    0.1309525831E-02    0.3593897826E-01    0.1903019451E-04    0.6807512367E+00    0.6484821858E+00
    0.1900000000E+08    0.1240356185E-02    0.3590914325E-01    0.1789146106E-04    0.6807862452E+00    0.6486036300E+00
    0.2100000000E+08    0.1181276440E-02    0.3588206878E-01    0.1692851423E-04    0.6808154195E+00    0.6487089327E+00
    0.2300000000E+08    0.1130041604E-02    0.3585728185E-01    0.1610059490E-04    0.6808401936E+00    0.6488015387E+00
    0.2500000000E+08    0.1085050176E-02    0.3583442209E-01    0.1537902632E-04    0.6808615567E+00    0.6488839312E+00
    0.2700000000E+08    0.1045124668E-02    0.3581320847E-01    0.1474297298E-04    0.6808802152E+00    0.6489579531E+00
