  Pressure (Pa) 2mC6-400 (mol/kg) 3mC6-400 (mol/kg) 33mC5-400 (mol/kg) 23mC5-400 (mol/kg) C7-400 (mol/kg)
    0.1000000000E+01    0.7104689956E-02    0.2617420823E-02    0.6427824927E-04    0.2785744322E-03    0.3397933654E-02
    0.3000000000E+01    0.2058172245E-01    0.7588442823E-02    0.1862383032E-03    0.8236352214E-03    0.9852777993E-02
    0.5000000000E+01    0.3316405812E-01    0.1223818847E-01    0.3001400254E-03    0.1353333892E-02    0.1589227738E-01
    0.7000000000E+01    0.4493845009E-01    0.1659888644E-01    0.4067651898E-03    0.1868515648E-02    0.2155804132E-01
    0.9000000000E+01    0.5598056195E-01    0.2069853170E-01    0.5067955448E-03    0.2369961839E-02    0.2688621714E-01
    0.1100000000E+02    0.6635671064E-01    0.2456156203E-01    0.6008285473E-03    0.2858395996E-02    0.3190836238E-01
    0.1300000000E+02    0.7612528765E-01    0.2820940852E-01    0.6893901897E-03    0.3334489179E-02    0.3665215479E-01
    0.1500000000E+02    0.8533792606E-01    0.3166094675E-01    0.7729455325E-03    0.3798864742E-02    0.4114197423E-01
    0.1700000000E+02    0.9404046530E-01    0.3493286880E-01    0.8519074095E-03    0.4252102580E-02    0.4539938254E-01
    0.1900000000E+02    0.1022737536E+00    0.3803999207E-01    0.9266436670E-03    0.4694742931E-02    0.4944352190E-01
    0.2100000000E+02    0.1100743191E+00    0.4099551689E-01    0.9974832197E-03    0.5127289774E-02    0.5329144715E-01
    0.2300000000E+02    0.1174749349E+00    0.4381124276E-01    0.1064721144E-02    0.5550213884E-02    0.5695840477E-01
    0.2500000000E+02    0.1245050961E+00    0.4649775062E-01    0.1128622982E-02    0.5963955581E-02    0.6045806806E-01
    0.2700000000E+02    0.1311914259E+00    0.4906455735E-01    0.1189428403E-02    0.6368927208E-02    0.6380273650E-01
    0.2900000000E+02    0.1375580213E+00    0.5152024722E-01    0.1247354321E-02    0.6765515361E-02    0.6700350536E-01
    0.3100000000E+02    0.1436267503E+00    0.5387258431E-01    0.1302597572E-02    0.7154082917E-02    0.7007041078E-01
    0.3300000000E+02    0.1494175069E+00    0.5612860898E-01    0.1355337217E-02    0.7534970864E-02    0.7301255425E-01
    0.3500000000E+02    0.1549484326E+00    0.5829472096E-01    0.1405736530E-02    0.7908499966E-02    0.7583820990E-01
    0.3700000000E+02    0.1602361069E+00    0.6037675123E-01    0.1453944724E-02    0.8274972274E-02    0.7855491723E-01
    0.3900000000E+02    0.1652957147E+00    0.6238002440E-01    0.1500098455E-02    0.8634672503E-02    0.8116956169E-01
    0.4100000000E+02    0.1701411914E+00    0.6430941302E-01    0.1544323127E-02    0.8987869287E-02    0.8368844470E-01
    0.4300000000E+02    0.1747853504E+00    0.6616938499E-01    0.1586734047E-02    0.9334816330E-02    0.8611734496E-01
    0.4500000000E+02    0.1792399954E+00    0.6796404518E-01    0.1627437430E-02    0.9675753448E-02    0.8846157208E-01
    0.4700000000E+02    0.1835160187E+00    0.6969717187E-01    0.1666531288E-02    0.1001090754E-01    0.9072601372E-01
    0.4900000000E+02    0.1876234887E+00    0.7137224899E-01    0.1704106218E-02    0.1034049344E-01    0.9291517718E-01
    0.1000000000E+02    0.6124806125E-01    0.2265821953E-01    0.5545272990E-03    0.2615762310E-02    0.2943373016E-01
    0.3000000000E+02    0.1406283322E+00    0.5270887891E-01    0.1275299697E-02    0.6960779909E-02    0.6855310158E-01
    0.5000000000E+02    0.1896169565E+00    0.7218903425E-01    0.1722350543E-02    0.1050326238E-01    0.9398284321E-01
    0.7000000000E+02    0.2225701400E+00    0.8614140894E-01    0.2024885031E-02    0.1351055428E-01    0.1122436971E+00
    0.9000000000E+02    0.2460093837E+00    0.9679987685E-01    0.2241583900E-02    0.1613851274E-01    0.1262270766E+00
    0.1100000000E+03    0.2633452881E+00    0.1053153912E+00    0.2403139735E-02    0.1848496368E-01    0.1374240781E+00
    0.1300000000E+03    0.2765399604E+00    0.1123457767E+00    0.2527216287E-02    0.2061487846E-01    0.1466876792E+00
    0.1500000000E+03    0.2868031361E+00    0.1182966839E+00    0.2624710034E-02    0.2257337935E-01    0.1545443170E+00
    0.1700000000E+03    0.2949211130E+00    0.1234332330E+00    0.2702708315E-02    0.2439295926E-01    0.1613383348E+00
    0.1900000000E+03    0.3014267282E+00    0.1279368484E+00    0.2766017818E-02    0.2609772818E-01    0.1673055580E+00
    0.2100000000E+03    0.3066934868E+00    0.1319363942E+00    0.2818011065E-02    0.2770603222E-01    0.1726136207E+00
    0.2300000000E+03    0.3109906520E+00    0.1355262663E+00    0.2861121879E-02    0.2923213447E-01    0.1773854120E+00
    0.2500000000E+03    0.3145169821E+00    0.1387774269E+00    0.2897148861E-02    0.3068733089E-01    0.1817133815E+00
    0.2700000000E+03    0.3174221870E+00    0.1417444124E+00    0.2927448464E-02    0.3208071292E-01    0.1856686312E+00
    0.2900000000E+03    0.3198210219E+00    0.1444699414E+00    0.2953061827E-02    0.3341970204E-01    0.1893068940E+00
    0.3100000000E+03    0.3218028023E+00    0.1469880338E+00    0.2974800462E-02    0.3471043287E-01    0.1926725854E+00
    0.3300000000E+03    0.3234379866E+00    0.1493261799E+00    0.2993305534E-02    0.3595803330E-01    0.1958016197E+00
    0.3500000000E+03    0.3247828261E+00    0.1515068810E+00    0.3009089765E-02    0.3716683270E-01    0.1987234129E+00
    0.3700000000E+03    0.3258827119E+00    0.1535487672E+00    0.3022567614E-02    0.3834051946E-01    0.2014623362E+00
    0.3900000000E+03    0.3267746259E+00    0.1554674229E+00    0.3034077374E-02    0.3948226154E-01    0.2040387890E+00
    0.4100000000E+03    0.3274889609E+00    0.1572760059E+00    0.3043897610E-02    0.4059480024E-01    0.2064700053E+00
    0.4300000000E+03    0.3280508925E+00    0.1589857185E+00    0.3052259540E-02    0.4168052377E-01    0.2087706665E+00
    0.4500000000E+03    0.3284814249E+00    0.1606061713E+00    0.3059356487E-02    0.4274152566E-01    0.2109533757E+00
    0.4700000000E+03    0.3287981977E+00    0.1621456667E+00    0.3065351178E-02    0.4377965164E-01    0.2130290266E+00
    0.4900000000E+03    0.3290161147E+00    0.1636114230E+00    0.3070381422E-02    0.4479653758E-01    0.2150070959E+00
    0.1000000000E+03    0.2552944250E+00    0.1012765759E+00    0.2327942073E-02    0.1734228658E-01    0.1321104487E+00
    0.3000000000E+03    0.3208592603E+00    0.1457530665E+00    0.2964371980E-02    0.3407075838E-01    0.1910213939E+00
    0.5000000000E+03    0.3290920354E+00    0.1643186528E+00    0.3072572252E-02    0.4529747709E-01    0.2159621696E+00
    0.7000000000E+03    0.3276712369E+00    0.1757783320E+00    0.3086726227E-02    0.5448392068E-01    0.2315006793E+00
    0.9000000000E+03    0.3236255813E+00    0.1839491031E+00    0.3072528458E-02    0.6255360913E-01    0.2426589620E+00
    0.1100000000E+04    0.3188095559E+00    0.1902349494E+00    0.3048012763E-02    0.6989752414E-01    0.2512938141E+00
    0.1300000000E+04    0.3138450920E+00    0.1953044010E+00    0.3019602367E-02    0.7672159587E-01    0.2582931194E+00
    0.1500000000E+04    0.3089643634E+00    0.1995269462E+00    0.2989934413E-02    0.8314929731E-01    0.2641493729E+00
    0.1700000000E+04    0.3042548256E+00    0.2031277968E+00    0.2960179627E-02    0.8926131402E-01    0.2691637139E+00
    0.1900000000E+04    0.2997448552E+00    0.2062541003E+00    0.2930873645E-02    0.9511370300E-01    0.2735334576E+00
    0.2100000000E+04    0.2954375291E+00    0.2090071272E+00    0.2902255721E-02    0.1007472358E+00    0.2773947513E+00
    0.2300000000E+04    0.2913250834E+00    0.2114594467E+00    0.2874419984E-02    0.1061926382E+00    0.2808453873E+00
    0.2500000000E+04    0.2873954407E+00    0.2136647692E+00    0.2847387687E-02    0.1114737304E+00    0.2839579028E+00
    0.2700000000E+04    0.2836352403E+00    0.2156639134E+00    0.2821143462E-02    0.1166094097E+00    0.2867875375E+00
    0.2900000000E+04    0.2800312466E+00    0.2174885933E+00    0.2795654168E-02    0.1216149584E+00    0.2893772924E+00
    0.3100000000E+04    0.2765709763E+00    0.2191639144E+00    0.2770878899E-02    0.1265029368E+00    0.2917612699E+00
    0.3300000000E+04    0.2732429432E+00    0.2207100734E+00    0.2746774354E-02    0.1312838112E+00    0.2939669514E+00
    0.3500000000E+04    0.2700367152E+00    0.2221435455E+00    0.2723297683E-02    0.1359664086E+00    0.2960167917E+00
    0.3700000000E+04    0.2669428810E+00    0.2234779364E+00    0.2700407952E-02    0.1405582508E+00    0.2979293632E+00
    0.3900000000E+04    0.2639529769E+00    0.2247246034E+00    0.2678066828E-02    0.1450658071E+00    0.2997201931E+00
    0.4100000000E+04    0.2610593993E+00    0.2258931195E+00    0.2656238839E-02    0.1494946870E+00    0.3014023875E+00
    0.4300000000E+04    0.2582553147E+00    0.2269916234E+00    0.2634891388E-02    0.1538497904E+00    0.3029871044E+00
    0.4500000000E+04    0.2555345747E+00    0.2280270881E+00    0.2613994642E-02    0.1581354251E+00    0.3044839169E+00
    0.4700000000E+04    0.2528916385E+00    0.2290055310E+00    0.2593521361E-02    0.1623554018E+00    0.3059010963E+00
    0.4900000000E+04    0.2503215029E+00    0.2299321775E+00    0.2573446695E-02    0.1665131091E+00    0.3072458349E+00
    0.1000000000E+04    0.3212609095E+00    0.1872759607E+00    0.3061023699E-02    0.6630076732E-01    0.2472232529E+00
    0.3000000000E+04    0.2782838886E+00    0.2183435623E+00    0.2783179972E-02    0.1240729467E+00    0.2905931519E+00
    0.5000000000E+04    0.2490623034E+00    0.2303775265E+00    0.2563551678E-02    0.1685695708E+00    0.3078930358E+00
    0.7000000000E+04    0.2268014296E+00    0.2374212537E+00    0.2382037736E-02    0.2070218007E+00    0.3182161892E+00
    0.9000000000E+04    0.2085603661E+00    0.2422242226E+00    0.2223849001E-02    0.2413765106E+00    0.3253639473E+00
    0.1100000000E+05    0.1930192443E+00    0.2457819695E+00    0.2082304199E-02    0.2724966861E+00    0.3307276226E+00
    0.1300000000E+05    0.1794751127E+00    0.2485594830E+00    0.1953909849E-02    0.3008693165E+00    0.3349627178E+00
    0.1500000000E+05    0.1675036579E+00    0.2508084354E+00    0.1836578986E-02    0.3268193615E+00    0.3384267005E+00
    0.1700000000E+05    0.1568232010E+00    0.2526790249E+00    0.1728910882E-02    0.3505921935E+00    0.3413343660E+00
    0.1900000000E+05    0.1472323559E+00    0.2542673918E+00    0.1629867751E-02    0.3723896947E+00    0.3438240747E+00
    0.2100000000E+05    0.1385785929E+00    0.2556384153E+00    0.1538618652E-02    0.3923872147E+00    0.3459897548E+00
    0.2300000000E+05    0.1307411856E+00    0.2568377286E+00    0.1454460323E-02    0.4107418602E+00    0.3478978464E+00
    0.2500000000E+05    0.1236213906E+00    0.2578985168E+00    0.1376775620E-02    0.4275966603E+00    0.3495969273E+00
    0.2700000000E+05    0.1171364837E+00    0.2588455847E+00    0.1305011034E-02    0.4430827399E+00    0.3511234958E+00
    0.2900000000E+05    0.1112159550E+00    0.2596979053E+00    0.1238664108E-02    0.4573205444E+00    0.3525056068E+00
    0.3100000000E+05    0.1057989595E+00    0.2604702778E+00    0.1177275992E-02    0.4704206347E+00    0.3537652470E+00
    0.3300000000E+05    0.1008325280E+00    0.2611744429E+00    0.1120426665E-02    0.4824843047E+00    0.3549199373E+00
    0.3500000000E+05    0.9627025352E-01    0.2618198526E+00    0.1067731513E-02    0.4936041408E+00    0.3559838432E+00
    0.3700000000E+05    0.9207128827E-01    0.2624142153E+00    0.1018838575E-02    0.5038645720E+00    0.3569685644E+00
    0.3900000000E+05    0.8819955072E-01    0.2629638903E+00    0.9734261369E-03    0.5133424233E+00    0.3578837065E+00
    0.4100000000E+05    0.8462308144E-01    0.2634741772E+00    0.9312004921E-03    0.5221074731E+00    0.3587373042E+00
    0.4300000000E+05    0.8131350821E-01    0.2639495339E+00    0.8918938144E-03    0.5302230057E+00    0.3595361388E+00
    0.4500000000E+05    0.7824559465E-01    0.2643937407E+00    0.8552621193E-03    0.5377463508E+00    0.3602859801E+00
    0.4700000000E+05    0.7539685490E-01    0.2648100283E+00    0.8210833145E-03    0.5447294021E+00    0.3609917739E+00
    0.4900000000E+05    0.7274722171E-01    0.2652011761E+00    0.7891553462E-03    0.5512191086E+00    0.3616577877E+00
    0.1000000000E+05    0.2005052217E+00    0.2441225930E+00    0.2151260411E-02    0.2573051754E+00    0.3282179389E+00
    0.3000000000E+05    0.1084479935E+00    0.2600932899E+00    0.1207377315E-02    0.4640062625E+00    0.3531495509E+00
    0.5000000000E+05    0.7149138887E-01    0.2653880874E+00    0.7739773311E-03    0.5542923911E+00    0.3619770544E+00
    0.7000000000E+05    0.5336793132E-01    0.2682507718E+00    0.5521310146E-03    0.5981942632E+00    0.3669612844E+00
    0.9000000000E+05    0.4310204531E-01    0.2701001910E+00    0.4250749892E-03    0.6222239623E+00    0.3703005315E+00
    0.1100000000E+06    0.3662174493E-01    0.2714147151E+00    0.3452236294E-03    0.6367192090E+00    0.3727524147E+00
    0.1300000000E+06    0.3218956214E-01    0.2724069192E+00    0.2912996774E-03    0.6461434778E+00    0.3746591271E+00
    0.1500000000E+06    0.2897047938E-01    0.2731875425E+00    0.2528069236E-03    0.6526355320E+00    0.3762014789E+00
    0.1700000000E+06    0.2652261531E-01    0.2738206583E+00    0.2241087601E-03    0.6573151913E+00    0.3774854728E+00
    0.1900000000E+06    0.2459332884E-01    0.2743462269E+00    0.2019582420E-03    0.6608129865E+00    0.3785780495E+00
    0.2100000000E+06    0.2302884373E-01    0.2747906178E+00    0.1843738154E-03    0.6635057324E+00    0.3795239137E+00
    0.2300000000E+06    0.2173063202E-01    0.2751720171E+00    0.1700868942E-03    0.6656299812E+00    0.3803542524E+00
    0.2500000000E+06    0.2063281599E-01    0.2755034198E+00    0.1582521139E-03    0.6673404724E+00    0.3810915992E+00
    0.2700000000E+06    0.1968974131E-01    0.2757943871E+00    0.1482866816E-03    0.6687420142E+00    0.3817527109E+00
    0.2900000000E+06    0.1886878962E-01    0.2760521269E+00    0.1397769717E-03    0.6699077419E+00    0.3823503520E+00
    0.3100000000E+06    0.1814603807E-01    0.2762821879E+00    0.1324219551E-03    0.6708900189E+00    0.3828944469E+00
    0.3300000000E+06    0.1750353847E-01    0.2764889178E+00    0.1259976970E-03    0.6717271871E+00    0.3833928486E+00
    0.3500000000E+06    0.1692755541E-01    0.2766757770E+00    0.1203343763E-03    0.6724478801E+00    0.3838518666E+00
    0.3700000000E+06    0.1640739233E-01    0.2768455573E+00    0.1153009970E-03    0.6730738578E+00    0.3842766385E+00
    0.3900000000E+06    0.1593458934E-01    0.2770005389E+00    0.1107949670E-03    0.6736219157E+00    0.3846713978E+00
    0.4100000000E+06    0.1550236264E-01    0.2771426036E+00    0.1067348398E-03    0.6741051992E+00    0.3850396700E+00
    0.4300000000E+06    0.1510520486E-01    0.2772733202E+00    0.1030551603E-03    0.6745341271E+00    0.3853844186E+00
    0.4500000000E+06    0.1473859486E-01    0.2773940076E+00    0.9970273859E-04    0.6749170514E+00    0.3857081563E+00
    0.4700000000E+06    0.1439878358E-01    0.2775057835E+00    0.9663391464E-04    0.6752607373E+00    0.3860130300E+00
    0.4900000000E+06    0.1408263366E-01    0.2776096021E+00    0.9381251997E-04    0.6755707161E+00    0.3863008872E+00
    0.1000000000E+06    0.3952812377E-01    0.2708075919E+00    0.3809414841E-03    0.6303053137E+00    0.3716105831E+00
    0.3000000000E+06    0.1849637641E-01    0.2761703216E+00    0.1359706137E-03    0.6704191463E+00    0.3826285605E+00
    0.5000000000E+06    0.1393258795E-01    0.2776587881E+00    0.9248496786E-04    0.6757145232E+00    0.3864389430E+00
    0.7000000000E+06    0.1170453544E-01    0.2783741039E+00    0.7366118533E-04    0.6775985000E+00    0.3886023853E+00
    0.9000000000E+06    0.1031614507E-01    0.2787912044E+00    0.6278184226E-04    0.6785379194E+00    0.3900647885E+00
    0.1100000000E+07    0.9341860923E-02    0.2790601805E+00    0.5552981638E-04    0.6790947821E+00    0.3911483727E+00
    0.1300000000E+07    0.8608189241E-02    0.2792445157E+00    0.5026941562E-04    0.6794615043E+00    0.3919983643E+00
    0.1500000000E+07    0.8029205576E-02    0.2793759282E+00    0.4623521034E-04    0.6797206966E+00    0.3926915708E+00
    0.1700000000E+07    0.7556763251E-02    0.2794720996E+00    0.4301719011E-04    0.6799134096E+00    0.3932731156E+00
    0.1900000000E+07    0.7161467753E-02    0.2795436860E+00    0.4037403090E-04    0.6800622510E+00    0.3937715669E+00
    0.2100000000E+07    0.6824201571E-02    0.2795974968E+00    0.3815346987E-04    0.6801806606E+00    0.3942060560E+00
    0.2300000000E+07    0.6531911381E-02    0.2796380867E+00    0.3625416630E-04    0.6802771144E+00    0.3945899671E+00
    0.2500000000E+07    0.6275333525E-02    0.2796686155E+00    0.3460575519E-04    0.6803572158E+00    0.3949329983E+00
    0.2700000000E+07    0.6047683891E-02    0.2796913426E+00    0.3315767098E-04    0.6804248147E+00    0.3952423822E+00
    0.2900000000E+07    0.5843862896E-02    0.2797079242E+00    0.3187252749E-04    0.6804826416E+00    0.3955236437E+00
    0.3100000000E+07    0.5659951884E-02    0.2797196005E+00    0.3072201284E-04    0.6805326865E+00    0.3957810906E+00
    0.3300000000E+07    0.5492882412E-02    0.2797273173E+00    0.2968424445E-04    0.6805764334E+00    0.3960181407E+00
    0.3500000000E+07    0.5340212307E-02    0.2797318072E+00    0.2874200811E-04    0.6806150114E+00    0.3962375477E+00
    0.3700000000E+07    0.5199969959E-02    0.2797336458E+00    0.2788155220E-04    0.6806492944E+00    0.3964415598E+00
    0.3900000000E+07    0.5070543541E-02    0.2797332906E+00    0.2709174168E-04    0.6806799699E+00    0.3966320344E+00
    0.4100000000E+07    0.4950600569E-02    0.2797311095E+00    0.2636345146E-04    0.6807075855E+00    0.3968105222E+00
    0.4300000000E+07    0.4839028449E-02    0.2797274007E+00    0.2568912320E-04    0.6807325832E+00    0.3969783300E+00
    0.4500000000E+07    0.4734889806E-02    0.2797224085E+00    0.2506243585E-04    0.6807553235E+00    0.3971365688E+00
    0.4700000000E+07    0.4637388458E-02    0.2797163344E+00    0.2447805710E-04    0.6807761035E+00    0.3972861900E+00
    0.4900000000E+07    0.4545843131E-02    0.2797093456E+00    0.2393145315E-04    0.6807951700E+00    0.3974280141E+00
    0.1000000000E+07    0.9791114371E-02    0.2789391534E+00    0.5883538647E-04    0.6788481620E+00    0.3906425553E+00
    0.3000000000E+07    0.5749627316E-02    0.2797143106E+00    0.3128193594E-04    0.6805085343E+00    0.3956551125E+00
    0.5000000000E+07    0.4502117354E-02    0.2797055529E+00    0.2367108132E-04    0.6808041267E+00    0.3974962286E+00
    0.7000000000E+07    0.3832790016E-02    0.2796058626E+00    0.1974243944E-04    0.6809295319E+00    0.3985834152E+00
    0.9000000000E+07    0.3398589332E-02    0.2794905115E+00    0.1725127093E-04    0.6809997292E+00    0.3993405461E+00
    0.1100000000E+08    0.3087392512E-02    0.2793762515E+00    0.1549413641E-04    0.6810449801E+00    0.3999152600E+00
    0.1300000000E+08    0.2850100569E-02    0.2792675356E+00    0.1417062967E-04    0.6810767723E+00    0.4003753307E+00
    0.1500000000E+08    0.2661332568E-02    0.2791653528E+00    0.1312817131E-04    0.6811004444E+00    0.4007571735E+00
    0.1700000000E+08    0.2506462110E-02    0.2790695885E+00    0.1228000873E-04    0.6811188237E+00    0.4010824829E+00
    0.1900000000E+08    0.2376383676E-02    0.2789797792E+00    0.1157271682E-04    0.6811335515E+00    0.4013651676E+00
    0.2100000000E+08    0.2265090814E-02    0.2788953780E+00    0.1097137086E-04    0.6811456480E+00    0.4016146483E+00
    0.2300000000E+08    0.2168438539E-02    0.2788158512E+00    0.1045205554E-04    0.6811557822E+00    0.4018375853E+00
    0.2500000000E+08    0.2083461056E-02    0.2787407110E+00    0.9997774383E-05    0.6811644115E+00    0.4020388516E+00
    0.2700000000E+08    0.2007972357E-02    0.2786695238E+00    0.9596074617E-05    0.6811718596E+00    0.4022221138E+00
