  Pressure (Pa) 2mC6-400 (mol/kg) 3mC6-400 (mol/kg) 33mC5-400 (mol/kg) 23mC5-400 (mol/kg) C7-400 (mol/kg)
    0.1000000000E+01    0.7905471714E-02    0.2098607431E-02    0.1287372919E-03    0.2783435467E-03    0.1702736109E-02
    0.3000000000E+01    0.2296349696E-01    0.6110146771E-02    0.3739839630E-03    0.8216402796E-03    0.4958180593E-02
    0.5000000000E+01    0.3709411730E-01    0.9893332171E-02    0.6041691704E-03    0.1348008799E-02    0.8029093455E-02
    0.7000000000E+01    0.5037953232E-01    0.1346874709E-01    0.8206280805E-03    0.1858477045E-02    0.1093208700E-01
    0.9000000000E+01    0.6289242955E-01    0.1685452953E-01    0.1024541296E-02    0.2353987397E-02    0.1368180119E-01
    0.1100000000E+02    0.7469733337E-01    0.2006672699E-01    0.1216956781E-02    0.2835405559E-02    0.1629118985E-01
    0.1300000000E+02    0.8585172911E-01    0.2311959121E-01    0.1398808137E-02    0.3303528346E-02    0.1877175822E-01
    0.1500000000E+02    0.9640700497E-01    0.2602582419E-01    0.1570929908E-02    0.3759090541E-02    0.2113376142E-01
    0.1700000000E+02    0.1064092457E+00    0.2879678484E-01    0.1734070482E-02    0.4202770935E-02    0.2338637096E-01
    0.1900000000E+02    0.1158999047E+00    0.3144266317E-01    0.1888903012E-02    0.4635197662E-02    0.2553781527E-01
    0.2100000000E+02    0.1249163755E+00    0.3397262807E-01    0.2036034705E-02    0.5056952943E-02    0.2759549888E-01
    0.2300000000E+02    0.1334924803E+00    0.3639495311E-01    0.2176014758E-02    0.5468577290E-02    0.2956610385E-01
    0.2500000000E+02    0.1416588891E+00    0.3871712412E-01    0.2309341173E-02    0.5870573253E-02    0.3145567653E-01
    0.2700000000E+02    0.1494434811E+00    0.4094593154E-01    0.2436466620E-02    0.6263408770E-02    0.3326970208E-01
    0.2900000000E+02    0.1568716565E+00    0.4308755009E-01    0.2557803512E-02    0.6647520164E-02    0.3501316869E-01
    0.3100000000E+02    0.1639666080E+00    0.4514760762E-01    0.2673728410E-02    0.7023314824E-02    0.3669062314E-01
    0.3300000000E+02    0.1707495566E+00    0.4713124491E-01    0.2784585854E-02    0.7391173623E-02    0.3830621908E-01
    0.3500000000E+02    0.1772399578E+00    0.4904316777E-01    0.2890691717E-02    0.7751453090E-02    0.3986375898E-01
    0.3700000000E+02    0.1834556823E+00    0.5088769254E-01    0.2992336136E-02    0.8104487369E-02    0.4136673092E-01
    0.3900000000E+02    0.1894131750E+00    0.5266878599E-01    0.3089786096E-02    0.8450589993E-02    0.4281834072E-01
    0.4100000000E+02    0.1951275949E+00    0.5439010037E-01    0.3183287702E-02    0.8790055486E-02    0.4422154027E-01
    0.4300000000E+02    0.2006129391E+00    0.5605500433E-01    0.3273068192E-02    0.9123160819E-02    0.4557905244E-01
    0.4500000000E+02    0.2058821519E+00    0.5766661021E-01    0.3359337714E-02    0.9450166733E-02    0.4689339315E-01
    0.4700000000E+02    0.2109472231E+00    0.5922779824E-01    0.3442290911E-02    0.9771318936E-02    0.4816689086E-01
    0.4900000000E+02    0.2158192738E+00    0.6074123805E-01    0.3522108332E-02    0.1008684920E-01    0.4940170396E-01
    0.1000000000E+02    0.6887963466E-01    0.1848139666E-01    0.1122125417E-02    0.2596406671E-02    0.1500328568E-01
    0.3000000000E+02    0.1604594153E+00    0.4412744192E-01    0.2616420217E-02    0.6836432686E-02    0.3585987914E-01
    0.5000000000E+02    0.2181861737E+00    0.6148083381E-01    0.3560894004E-02    0.1024257498E-01    0.5000523559E-01
    0.7000000000E+02    0.2575456691E+00    0.7428247285E-01    0.4206964889E-02    0.1310913181E-01    0.6046261653E-01
    0.9000000000E+02    0.2858410961E+00    0.8428297278E-01    0.4673195240E-02    0.1560114269E-01    0.6864795276E-01
    0.1100000000E+03    0.3069716072E+00    0.9241826592E-01    0.5022888458E-02    0.1781933560E-01    0.7531882113E-01
    0.1300000000E+03    0.3232083650E+00    0.9923780041E-01    0.5292922503E-02    0.1982922037E-01    0.8092028684E-01
    0.1500000000E+03    0.3359629081E+00    0.1050873710E+00    0.5506222150E-02    0.2167556473E-01    0.8573264626E-01
    0.1700000000E+03    0.3461578038E+00    0.1101966416E+00    0.5677774990E-02    0.2339020024E-01    0.8994218658E-01
    0.1900000000E+03    0.3544208172E+00    0.1147248388E+00    0.5817782848E-02    0.2499650850E-01    0.9367814541E-01
    0.2100000000E+03    0.3611934483E+00    0.1187862941E+00    0.5933423379E-02    0.2651213671E-01    0.9703337927E-01
    0.2300000000E+03    0.3667948761E+00    0.1224655320E+00    0.6029887930E-02    0.2795071353E-01    0.1000765784E+00
    0.2500000000E+03    0.3714613045E+00    0.1258265992E+00    0.6111020208E-02    0.2932297357E-01    0.1028598227E+00
    0.2700000000E+03    0.3753710787E+00    0.1289190607E+00    0.6179723986E-02    0.3063751748E-01    0.1054234395E+00
    0.2900000000E+03    0.3786612255E+00    0.1317819798E+00    0.6238231648E-02    0.3190133980E-01    0.1077992297E+00
    0.3100000000E+03    0.3814386480E+00    0.1344466382E+00    0.6288285947E-02    0.3312020418E-01    0.1100126735E+00
    0.3300000000E+03    0.3837878818E+00    0.1369384398E+00    0.6331265967E-02    0.3429891584E-01    0.1120844746E+00
    0.3500000000E+03    0.3857765835E+00    0.1392782739E+00    0.6368276269E-02    0.3544152292E-01    0.1140316662E+00
    0.3700000000E+03    0.3874594878E+00    0.1414835092E+00    0.6400211164E-02    0.3655146788E-01    0.1158684182E+00
    0.3900000000E+03    0.3888813063E+00    0.1435687321E+00    0.6427801828E-02    0.3763170304E-01    0.1176066367E+00
    0.4100000000E+03    0.3900788859E+00    0.1455463035E+00    0.6451651366E-02    0.3868477984E-01    0.1192564160E+00
    0.4300000000E+03    0.3910828352E+00    0.1474267838E+00    0.6472261258E-02    0.3971291876E-01    0.1208263843E+00
    0.4500000000E+03    0.3919187666E+00    0.1492192629E+00    0.6490051561E-02    0.4071806463E-01    0.1223239718E+00
    0.4700000000E+03    0.3926082561E+00    0.1509316183E+00    0.6505376502E-02    0.4170193090E-01    0.1237556208E+00
    0.4900000000E+03    0.3931695909E+00    0.1525707193E+00    0.6518536656E-02    0.4266603533E-01    0.1251269516E+00
    0.1000000000E+03    0.2971336501E+00    0.8854318393E-01    0.4859876116E-02    0.1673976092E-01    0.7213982675E-01
    0.3000000000E+03    0.3801082929E+00    0.1331373842E+00    0.6264221941E-02    0.3251607159E-01    0.1089248537E+00
    0.5000000000E+03    0.3934071635E+00    0.1533647114E+00    0.6524386599E-02    0.4314110490E-01    0.1257915625E+00
    0.7000000000E+03    0.3942196023E+00    0.1665369988E+00    0.6573743225E-02    0.5186710347E-01    0.1368495595E+00
    0.9000000000E+03    0.3912871238E+00    0.1763260100E+00    0.6556719094E-02    0.5955050443E-01    0.1451080826E+00
    0.1100000000E+04    0.3870277943E+00    0.1841175885E+00    0.6514020731E-02    0.6655404876E-01    0.1517074663E+00
    0.1300000000E+04    0.3823068877E+00    0.1905860148E+00    0.6460618545E-02    0.7306929833E-01    0.1572043203E+00
    0.1500000000E+04    0.3774794966E+00    0.1961113050E+00    0.6402906750E-02    0.7921144809E-01    0.1619131879E+00
    0.1700000000E+04    0.3727018483E+00    0.2009293229E+00    0.6343873087E-02    0.8505598165E-01    0.1660297498E+00
    0.1900000000E+04    0.3680436533E+00    0.2051968115E+00    0.6284985812E-02    0.9065547183E-01    0.1696843121E+00
    0.2100000000E+04    0.3635341739E+00    0.2090233801E+00    0.6226978601E-02    0.9604824017E-01    0.1729681638E+00
    0.2300000000E+04    0.3591829111E+00    0.2124887644E+00    0.6170209393E-02    0.1012632226E+00    0.1759478239E+00
    0.2500000000E+04    0.3549895293E+00    0.2156528250E+00    0.6114836463E-02    0.1063228905E+00    0.1786733066E+00
    0.2700000000E+04    0.3509488498E+00    0.2185616725E+00    0.6060909618E-02    0.1112450992E+00    0.1811831919E+00
    0.2900000000E+04    0.3470534492E+00    0.2212515942E+00    0.6008419417E-02    0.1160443084E+00    0.1835078807E+00
    0.3100000000E+04    0.3432950344E+00    0.2237516687E+00    0.5957324563E-02    0.1207324174E+00    0.1856717642E+00
    0.3300000000E+04    0.3396651752E+00    0.2260855618E+00    0.5907567489E-02    0.1253193533E+00    0.1876947160E+00
    0.3500000000E+04    0.3361556863E+00    0.2282727943E+00    0.5859083332E-02    0.1298134966E+00    0.1895931467E+00
    0.3700000000E+04    0.3327588168E+00    0.2303296585E+00    0.5811805119E-02    0.1342219960E+00    0.1913807670E+00
    0.3900000000E+04    0.3294673325E+00    0.2322698936E+00    0.5765666730E-02    0.1385510050E+00    0.1930691504E+00
    0.4100000000E+04    0.3262745383E+00    0.2341051933E+00    0.5720604545E-02    0.1428058634E+00    0.1946681564E+00
    0.4300000000E+04    0.3231742692E+00    0.2358455926E+00    0.5676558297E-02    0.1469912387E+00    0.1961862535E+00
    0.4500000000E+04    0.3201608628E+00    0.2374997672E+00    0.5633471453E-02    0.1511112374E+00    0.1976307696E+00
    0.4700000000E+04    0.3172291254E+00    0.2390752687E+00    0.5591291310E-02    0.1551694936E+00    0.1990080880E+00
    0.4900000000E+04    0.3143742944E+00    0.2405787097E+00    0.5549968931E-02    0.1591692410E+00    0.2003238033E+00
    0.1000000000E+04    0.3892510596E+00    0.1804196519E+00    0.6537339665E-02    0.6312283320E-01    0.1485724200E+00
    0.3000000000E+04    0.3451576479E+00    0.2225237733E+00    0.5982700917E-02    0.1184015894E+00    0.1846085892E+00
    0.5000000000E+04    0.3129743392E+00    0.2413052548E+00    0.5529615099E-02    0.1611480894E+00    0.2009601236E+00
    0.7000000000E+04    0.2881261975E+00    0.2531609839E+00    0.5158258201E-02    0.1982188719E+00    0.2113917556E+00
    0.9000000000E+04    0.2676858227E+00    0.2616742029E+00    0.4837943928E-02    0.2314722999E+00    0.2189437047E+00
    0.1100000000E+05    0.2502424723E+00    0.2682317478E+00    0.4553625989E-02    0.2617290798E+00    0.2248003272E+00
    0.1300000000E+05    0.2350182255E+00    0.2735139359E+00    0.4297103634E-02    0.2894464049E+00    0.2295455695E+00
    0.1500000000E+05    0.2215353812E+00    0.2779035825E+00    0.4063402107E-02    0.3149235267E+00    0.2335094344E+00
    0.1700000000E+05    0.2094750941E+00    0.2816366142E+00    0.3849209543E-02    0.3383819152E+00    0.2368960766E+00
    0.1900000000E+05    0.1986100211E+00    0.2848682307E+00    0.3652136893E-02    0.3600009269E+00    0.2398402620E+00
    0.2100000000E+05    0.1887692925E+00    0.2877056805E+00    0.3470341051E-02    0.3799348926E+00    0.2424354182E+00
    0.2300000000E+05    0.1798190110E+00    0.2902259916E+00    0.3302322264E-02    0.3983216416E+00    0.2447488494E+00
    0.2500000000E+05    0.1716507798E+00    0.2924862351E+00    0.3146810610E-02    0.4152868457E+00    0.2468305644E+00
    0.2700000000E+05    0.1641746251E+00    0.2945297938E+00    0.3002700140E-02    0.4309462720E+00    0.2487186797E+00
    0.2900000000E+05    0.1573144368E+00    0.2963903619E+00    0.2869009369E-02    0.4454069921E+00    0.2504428755E+00
    0.3100000000E+05    0.1510049104E+00    0.2980945923E+00    0.2744856653E-02    0.4587680865E+00    0.2520266868E+00
    0.3300000000E+05    0.1451894134E+00    0.2996639040E+00    0.2629444109E-02    0.4711211218E+00    0.2534890703E+00
    0.3500000000E+05    0.1398184390E+00    0.3011157479E+00    0.2522046502E-02    0.4825505409E+00    0.2548455048E+00
    0.3700000000E+05    0.1348484468E+00    0.3024645153E+00    0.2422003058E-02    0.4931340317E+00    0.2561087818E+00
    0.3900000000E+05    0.1302409648E+00    0.3037222022E+00    0.2328711020E-02    0.5029429007E+00    0.2572895847E+00
    0.4100000000E+05    0.1259618737E+00    0.3048989040E+00    0.2241620303E-02    0.5120424588E+00    0.2583969214E+00
    0.4300000000E+05    0.1219808251E+00    0.3060031903E+00    0.2160228843E-02    0.5204924161E+00    0.2594384517E+00
    0.4500000000E+05    0.1182707568E+00    0.3070423922E+00    0.2084078444E-02    0.5283472800E+00    0.2604207393E+00
    0.4700000000E+05    0.1148074860E+00    0.3080228256E+00    0.2012751000E-02    0.5356567492E+00    0.2613494483E+00
    0.4900000000E+05    0.1115693613E+00    0.3089499670E+00    0.1945865021E-02    0.5424660975E+00    0.2622294973E+00
    0.1000000000E+05    0.2586476681E+00    0.2651451664E+00    0.4691901100E-02    0.2469415394E+00    0.2220391262E+00
    0.3000000000E+05    0.1540945633E+00    0.2972605749E+00    0.2805792437E-02    0.4522190983E+00    0.2512510518E+00
    0.5000000000E+05    0.1100285805E+00    0.3093950700E+00    0.1913977586E-02    0.5456962554E+00    0.2626526384E+00
    0.7000000000E+05    0.8725970142E-01    0.3163925008E+00    0.1439857233E-02    0.5922275038E+00    0.2693662062E+00
    0.9000000000E+05    0.7374621366E-01    0.3211174360E+00    0.1159188463E-02    0.6179941982E+00    0.2739772022E+00
    0.1100000000E+06    0.6485604384E-01    0.3245927968E+00    0.9775528402E-03    0.6336243993E+00    0.2774194607E+00
    0.1300000000E+06    0.5854893565E-01    0.3272913830E+00    0.8515847283E-03    0.6438116917E+00    0.2801282640E+00
    0.1500000000E+06    0.5381714258E-01    0.3294670163E+00    0.7594305969E-03    0.6508347407E+00    0.2823389904E+00
    0.1700000000E+06    0.5011416018E-01    0.3312701869E+00    0.6891426273E-03    0.6558960948E+00    0.2841921182E+00
    0.1900000000E+06    0.4712041446E-01    0.3327967019E+00    0.6337284955E-03    0.6596762019E+00    0.2857776324E+00
    0.2100000000E+06    0.4463725236E-01    0.3341109208E+00    0.5888586549E-03    0.6625829623E+00    0.2871563329E+00
    0.2300000000E+06    0.4253484407E-01    0.3352579338E+00    0.5517235333E-03    0.6648729299E+00    0.2883710521E+00
    0.2500000000E+06    0.4072474033E-01    0.3362704199E+00    0.5204266617E-03    0.6667141152E+00    0.2894529956E+00
    0.2700000000E+06    0.3914454652E-01    0.3371727319E+00    0.4936444400E-03    0.6682203813E+00    0.2904255359E+00
    0.2900000000E+06    0.3774892786E-01    0.3379834474E+00    0.4704262903E-03    0.6694711972E+00    0.2913065889E+00
    0.3100000000E+06    0.3650410098E-01    0.3387170226E+00    0.4500724536E-03    0.6705234569E+00    0.2921101608E+00
    0.3300000000E+06    0.3538433436E-01    0.3393849010E+00    0.4320565996E-03    0.6714188078E+00    0.2928473886E+00
    0.3500000000E+06    0.3436965260E-01    0.3399962773E+00    0.4159752932E-03    0.6721883389E+00    0.2935272593E+00
    0.3700000000E+06    0.3344428765E-01    0.3405586366E+00    0.4015140899E-03    0.6728556633E+00    0.2941571199E+00
    0.3900000000E+06    0.3259560770E-01    0.3410781436E+00    0.3884242390E-03    0.6734389956E+00    0.2947430457E+00
    0.4100000000E+06    0.3181335984E-01    0.3415599279E+00    0.3765063256E-03    0.6739525820E+00    0.2952901120E+00
    0.4300000000E+06    0.3108912399E-01    0.3420082981E+00    0.3655985646E-03    0.6744077056E+00    0.2958025981E+00
    0.4500000000E+06    0.3041591214E-01    0.3424269035E+00    0.3555682752E-03    0.6748134045E+00    0.2962841418E+00
    0.4700000000E+06    0.2978786941E-01    0.3428188583E+00    0.3463055740E-03    0.6751769933E+00    0.2967378593E+00
    0.4900000000E+06    0.2920004794E-01    0.3431868392E+00    0.3377186425E-03    0.6755044482E+00    0.2971664377E+00
    0.1000000000E+06    0.6888567371E-01    0.3229744577E+00    0.1059419850E-02    0.6267014222E+00    0.2758105646E+00
    0.3000000000E+06    0.3710943098E-01    0.3383591020E+00    0.4599276007E-03    0.6700192510E+00    0.2917173064E+00
    0.5000000000E+06    0.2891987844E-01    0.3433625751E+00    0.3336539330E-03    0.6756561992E+00    0.2973720409E+00
    0.7000000000E+06    0.2466945829E-01    0.3460452394E+00    0.2741723044E-03    0.6776322082E+00    0.3005968167E+00
    0.9000000000E+06    0.2193665973E-01    0.3477687562E+00    0.2380147536E-03    0.6786058561E+00    0.3027759832E+00
    0.1100000000E+07    0.1998199621E-01    0.3489885369E+00    0.2130927963E-03    0.6791773516E+00    0.3043875318E+00
    0.1300000000E+07    0.1849090009E-01    0.3499059209E+00    0.1945805432E-03    0.6795505678E+00    0.3056483793E+00
    0.1500000000E+07    0.1730307855E-01    0.3506254019E+00    0.1801294437E-03    0.6798124316E+00    0.3066736966E+00
    0.1700000000E+07    0.1632685615E-01    0.3512072611E+00    0.1684424795E-03    0.6800058759E+00    0.3075312988E+00
    0.1900000000E+07    0.1550539154E-01    0.3516890020E+00    0.1587373557E-03    0.6801544165E+00    0.3082641759E+00
    0.2100000000E+07    0.1480126631E-01    0.3520953209E+00    0.1505105035E-03    0.6802719644E+00    0.3089011352E+00
    0.2300000000E+07    0.1418868102E-01    0.3524432186E+00    0.1434211251E-03    0.6803672535E+00    0.3094623345E+00
    0.2500000000E+07    0.1364917859E-01    0.3527448237E+00    0.1372292249E-03    0.6804460340E+00    0.3099623784E+00
    0.2700000000E+07    0.1316915068E-01    0.3530090458E+00    0.1317602375E-03    0.6805122415E+00    0.3104121547E+00
    0.2900000000E+07    0.1273830890E-01    0.3532425932E+00    0.1268837353E-03    0.6805686574E+00    0.3108199768E+00
    0.3100000000E+07    0.1234870793E-01    0.3534506228E+00    0.1225000372E-03    0.6806173023E+00    0.3111923221E+00
    0.3300000000E+07    0.1199409920E-01    0.3536371709E+00    0.1185314724E-03    0.6806596779E+00    0.3115343267E+00
    0.3500000000E+07    0.1166949033E-01    0.3538054462E+00    0.1149164987E-03    0.6806969238E+00    0.3118501249E+00
    0.3700000000E+07    0.1137083710E-01    0.3539580351E+00    0.1116056356E-03    0.6807299196E+00    0.3121430897E+00
    0.3900000000E+07    0.1109482315E-01    0.3540970472E+00    0.1085585842E-03    0.6807593551E+00    0.3124160049E+00
    0.4100000000E+07    0.1083869926E-01    0.3542242226E+00    0.1057421465E-03    0.6807857786E+00    0.3126711929E+00
    0.4300000000E+07    0.1060016414E-01    0.3543410100E+00    0.1031286928E-03    0.6808096317E+00    0.3129106089E+00
    0.4500000000E+07    0.1037727447E-01    0.3544486267E+00    0.1006950154E-03    0.6808312736E+00    0.3131359133E+00
    0.4700000000E+07    0.1016837616E-01    0.3545481031E+00    0.9842145851E-04    0.6808509995E+00    0.3133485269E+00
    0.4900000000E+07    0.9972051112E-02    0.3546403182E+00    0.9629124797E-04    0.6808690545E+00    0.3135496740E+00
    0.1000000000E+07    0.2088699746E-01    0.3484257563E+00    0.2245372061E-03    0.6789248808E+00    0.3036357380E+00
    0.3000000000E+07    0.1253877767E-01    0.3533495231E+00    0.1246355763E-03    0.6805938474E+00    0.3110102362E+00
    0.5000000000E+07    0.9878214477E-02    0.3546839428E+00    0.9527531298E-04    0.6808775208E+00    0.3136462851E+00
    0.7000000000E+07    0.8436758437E-02    0.3553125001E+00    0.7985320408E-04    0.6809948759E+00    0.3151732400E+00
    0.9000000000E+07    0.7496692280E-02    0.3556715187E+00    0.6998708976E-04    0.6810593638E+00    0.3162210434E+00
    0.1100000000E+08    0.6820577439E-02    0.3558978508E+00    0.6298958484E-04    0.6811003170E+00    0.3170069338E+00
    0.1300000000E+08    0.6303720597E-02    0.3560490136E+00    0.5769866828E-04    0.6811287259E+00    0.3176297672E+00
    0.1500000000E+08    0.5891750286E-02    0.3561535770E+00    0.5351934863E-04    0.6811496446E+00    0.3181422508E+00
    0.1700000000E+08    0.5553225989E-02    0.3562273786E+00    0.5011137258E-04    0.6811657251E+00    0.3185755687E+00
    0.1900000000E+08    0.5268522303E-02    0.3562799114E+00    0.4726428353E-04    0.6811784950E+00    0.3189495885E+00
    0.2100000000E+08    0.5024665247E-02    0.3563172088E+00    0.4484002774E-04    0.6811888971E+00    0.3192776908E+00
    0.2300000000E+08    0.4812685429E-02    0.3563432844E+00    0.4274380460E-04    0.6811975453E+00    0.3195692857E+00
    0.2500000000E+08    0.4626155246E-02    0.3563609078E+00    0.4090808194E-04    0.6812048570E+00    0.3198312245E+00
    0.2700000000E+08    0.4460330765E-02    0.3563720479E+00    0.3928328256E-04    0.6812111261E+00    0.3200686396E+00
