  Pressure (Pa) 2mC6-400 (mol/kg) 3mC6-400 (mol/kg) 33mC5-400 (mol/kg) 23mC5-400 (mol/kg) C7-400 (mol/kg)
    0.1000000000E+01    0.7890107713E-02    0.2093559298E-02    0.6424518198E-04    0.2783610323E-03    0.3397320779E-02
    0.3000000000E+01    0.2283477195E-01    0.6067666274E-02    0.1859580574E-03    0.8217911027E-03    0.9847760994E-02
    0.5000000000E+01    0.3676040602E-01    0.9782730738E-02    0.2994054851E-03    0.1348410733E-02    0.1587956775E-01
    0.7000000000E+01    0.4976766451E-01    0.1326510131E-01    0.4054041668E-03    0.1859233577E-02    0.2153526667E-01
    0.9000000000E+01    0.6194416303E-01    0.1653761469E-01    0.5046649322E-03    0.2355189492E-02    0.2685171919E-01
    0.1100000000E+02    0.7336655013E-01    0.1962016505E-01    0.5978095747E-03    0.2837133187E-02    0.3186104048E-01
    0.1300000000E+02    0.8410219294E-01    0.2253016580E-01    0.6853845446E-03    0.3305851804E-02    0.3659134397E-01
    0.1500000000E+02    0.9421055825E-01    0.2528292698E-01    0.7678721680E-03    0.3762071598E-02    0.4106734975E-01
    0.1700000000E+02    0.1037443520E+00    0.2789196541E-01    0.8456999015E-03    0.4206463827E-02    0.4531088482E-01
    0.1900000000E+02    0.1127504651E+00    0.3036926157E-01    0.9192480137E-03    0.4639649966E-02    0.4934129721E-01
    0.2100000000E+02    0.1212707636E+00    0.3272547331E-01    0.9888560000E-03    0.5062206332E-02    0.5317580070E-01
    0.2300000000E+02    0.1293427519E+00    0.3497011480E-01    0.1054827969E-02    0.5474668201E-02    0.5682976337E-01
    0.2500000000E+02    0.1370001330E+00    0.3711170703E-01    0.1117437189E-02    0.5877533474E-02    0.6031695046E-01
    0.2700000000E+02    0.1442732834E+00    0.3915790520E-01    0.1176929946E-02    0.6271265953E-02    0.6364972973E-01
    0.2900000000E+02    0.1511896583E+00    0.4111560676E-01    0.1233528828E-02    0.6656298275E-02    0.6683924585E-01
    0.3100000000E+02    0.1577741378E+00    0.4299104377E-01    0.1287435540E-02    0.7033034549E-02    0.6989556930E-01
    0.3300000000E+02    0.1640493257E+00    0.4478986189E-01    0.1338833324E-02    0.7401852717E-02    0.7282782391E-01
    0.3500000000E+02    0.1700358059E+00    0.4651718842E-01    0.1387889041E-02    0.7763106693E-02    0.7564429656E-01
    0.3700000000E+02    0.1757523656E+00    0.4817769100E-01    0.1434754986E-02    0.8117128286E-02    0.7835253195E-01
    0.3900000000E+02    0.1812161889E+00    0.4977562848E-01    0.1479570451E-02    0.8464228939E-02    0.8095941467E-01
    0.4100000000E+02    0.1864430257E+00    0.5131489519E-01    0.1522463102E-02    0.8804701306E-02    0.8347124061E-01
    0.4300000000E+02    0.1914473395E+00    0.5279905948E-01    0.1563550176E-02    0.9138820688E-02    0.8589377924E-01
    0.4500000000E+02    0.1962424374E+00    0.5423139751E-01    0.1602939533E-02    0.9466846325E-02    0.8823232808E-01
    0.4700000000E+02    0.2008405840E+00    0.5561492290E-01    0.1640730582E-02    0.9789022587E-02    0.9049176055E-01
    0.4900000000E+02    0.2052531025E+00    0.5695241278E-01    0.1677015104E-02    0.1010558005E-01    0.9267656805E-01
    0.1000000000E+02    0.6774521003E-01    0.1810149355E-01    0.5519659920E-03    0.2597862169E-02    0.2939292808E-01
    0.3000000000E+02    0.1545219221E+00    0.4206324258E-01    0.1260806846E-02    0.6845679209E-02    0.6838346560E-01
    0.5000000000E+02    0.2073930546E+00    0.5760470330E-01    0.1694619190E-02    0.1026182026E-01    0.9374229578E-01
    0.7000000000E+02    0.2426125122E+00    0.6876229419E-01    0.1985163207E-02    0.1313862383E-01    0.1119942517E+00
    0.9000000000E+02    0.2674715374E+00    0.7731246055E-01    0.2191537815E-02    0.1564049247E-01    0.1260136969E+00
    0.1100000000E+03    0.2857428665E+00    0.8416714392E-01    0.2344327339E-02    0.1786796706E-01    0.1372775219E+00
    0.1300000000E+03    0.2995771819E+00    0.8984647955E-01    0.2460972427E-02    0.1988653333E-01    0.1466288112E+00
    0.1500000000E+03    0.3102900625E+00    0.9467084810E-01    0.2552146634E-02    0.2174099348E-01    0.1545872977E+00
    0.1700000000E+03    0.3187307740E+00    0.9884953101E-01    0.2624744321E-02    0.2346323190E-01    0.1614927568E+00
    0.1900000000E+03    0.3254714055E+00    0.1025257268E+00    0.2683412984E-02    0.2507668549E-01    0.1675778564E+00
    0.2100000000E+03    0.3309108909E+00    0.1058011676E+00    0.2731396051E-02    0.2659905317E-01    0.1730080146E+00
    0.2300000000E+03    0.3353355082E+00    0.1087504048E+00    0.2771023119E-02    0.2804400983E-01    0.1779045420E+00
    0.2500000000E+03    0.3389557188E+00    0.1114295139E+00    0.2804008518E-02    0.2942233052E-01    0.1823587506E+00
    0.2700000000E+03    0.3419294772E+00    0.1138816202E+00    0.2831640266E-02    0.3074265096E-01    0.1864409131E+00
    0.2900000000E+03    0.3443774679E+00    0.1161405298E+00    0.2854903621E-02    0.3201199597E-01    0.1902061542E+00
    0.3100000000E+03    0.3463933511E+00    0.1182331879E+00    0.2874564176E-02    0.3323615540E-01    0.1936984404E+00
    0.3300000000E+03    0.3480508201E+00    0.1201813876E+00    0.2891225124E-02    0.3441995711E-01    0.1969533541E+00
    0.3500000000E+03    0.3494085708E+00    0.1220029835E+00    0.2905367593E-02    0.3556746895E-01    0.2000000660E+00
    0.3700000000E+03    0.3505138663E+00    0.1237127731E+00    0.2917379588E-02    0.3668215054E-01    0.2028627669E+00
    0.3900000000E+03    0.3514051383E+00    0.1253231469E+00    0.2927577129E-02    0.3776696919E-01    0.2055617250E+00
    0.4100000000E+03    0.3521139159E+00    0.1268445769E+00    0.2936219916E-02    0.3882448952E-01    0.2081140800E+00
    0.4300000000E+03    0.3526662731E+00    0.1282859877E+00    0.2943523112E-02    0.3985694363E-01    0.2105344480E+00
    0.4500000000E+03    0.3530839316E+00    0.1296550440E+00    0.2949666301E-02    0.4086628662E-01    0.2128353884E+00
    0.4700000000E+03    0.3533851081E+00    0.1309583741E+00    0.2954800399E-02    0.4185424108E-01    0.2150277682E+00
    0.4900000000E+03    0.3535851747E+00    0.1322017467E+00    0.2959053021E-02    0.4282233290E-01    0.2171210507E+00
    0.1000000000E+03    0.2772704141E+00    0.8091303416E-01    0.2273331353E-02    0.1678382719E-01    0.1319273436E+00
    0.3000000000E+03    0.3454344156E+00    0.1172061736E+00    0.2865143282E-02    0.3262940225E-01    0.1919840225E+00
    0.5000000000E+03    0.3536514472E+00    0.1328025519E+00    0.2960883344E-02    0.4329936067E-01    0.2181331612E+00
    0.7000000000E+03    0.3519830739E+00    0.1426219634E+00    0.2970557468E-02    0.5206064939E-01    0.2347352675E+00
    0.9000000000E+03    0.3476575008E+00    0.1497281793E+00    0.2954751512E-02    0.5977430891E-01    0.2468264156E+00
    0.1100000000E+04    0.3425661439E+00    0.1552603583E+00    0.2929899608E-02    0.6680500456E-01    0.2562881627E+00
    0.1300000000E+04    0.3373397580E+00    0.1597661546E+00    0.2901795292E-02    0.7334527391E-01    0.2640286053E+00
    0.1500000000E+04    0.3322123185E+00    0.1635508518E+00    0.2872788560E-02    0.7951087259E-01    0.2705556236E+00
    0.1700000000E+04    0.3272709798E+00    0.1668019676E+00    0.2843904931E-02    0.8537763561E-01    0.2761820759E+00
    0.1900000000E+04    0.3225431623E+00    0.1696428811E+00    0.2815600699E-02    0.9099837042E-01    0.2811143374E+00
    0.2100000000E+04    0.3180308220E+00    0.1721590496E+00    0.2788069053E-02    0.9641156296E-01    0.2854956821E+00
    0.2300000000E+04    0.3137250858E+00    0.1744120719E+00    0.2761376015E-02    0.1016462687E+00    0.2894296017E+00
    0.2500000000E+04    0.3096128419E+00    0.1764477872E+00    0.2735524958E-02    0.1067250487E+00    0.2929932607E+00
    0.2700000000E+04    0.3056797892E+00    0.1783012088E+00    0.2710488717E-02    0.1116658271E+00    0.2962457060E+00
    0.2900000000E+04    0.3019118461E+00    0.1799996684E+00    0.2686226110E-02    0.1164831177E+00    0.2992331088E+00
    0.3100000000E+04    0.2982957715E+00    0.1815648986E+00    0.2662690590E-02    0.1211888626E+00    0.3019922400E+00
    0.3300000000E+04    0.2948194010E+00    0.1830144545E+00    0.2639834784E-02    0.1257930238E+00    0.3045528475E+00
    0.3500000000E+04    0.2914716952E+00    0.1843627131E+00    0.2617612828E-02    0.1303040106E+00    0.3069393287E+00
    0.3700000000E+04    0.2882426979E+00    0.1856215908E+00    0.2595981502E-02    0.1347289950E+00    0.3091719328E+00
    0.3900000000E+04    0.2851234558E+00    0.1868010700E+00    0.2574900699E-02    0.1390741505E+00    0.3112676451E+00
    0.4100000000E+04    0.2821059234E+00    0.1879095924E+00    0.2554333538E-02    0.1433448335E+00    0.3132408475E+00
    0.4300000000E+04    0.2791828684E+00    0.1889543577E+00    0.2534246282E-02    0.1475457258E+00    0.3151038204E+00
    0.4500000000E+04    0.2763477808E+00    0.1899415533E+00    0.2514608156E-02    0.1516809459E+00    0.3168671299E+00
    0.4700000000E+04    0.2735947916E+00    0.1908765335E+00    0.2495391129E-02    0.1557541387E+00    0.3185399298E+00
    0.4900000000E+04    0.2709185983E+00    0.1917639611E+00    0.2476569674E-02    0.1597685466E+00    0.3201302004E+00
    0.1000000000E+04    0.3451537675E+00    0.1526487943E+00    0.2942970958E-02    0.6336052729E-01    0.2518160116E+00
    0.3000000000E+04    0.3000856119E+00    0.1807977555E+00    0.2674370441E-02    0.1188492699E+00    0.3006392069E+00
    0.5000000000E+04    0.2696077821E+00    0.1921911390E+00    0.2467299937E-02    0.1617546243E+00    0.3208966077E+00
    0.7000000000E+04    0.2464692350E+00    0.1990076300E+00    0.2298020990E-02    0.1989570039E+00    0.3332127485E+00
    0.9000000000E+04    0.2275467086E+00    0.2037233765E+00    0.2151369303E-02    0.2323196506E+00    0.3418421052E+00
    0.1100000000E+05    0.2114343660E+00    0.2072539920E+00    0.2020511090E-02    0.2626653969E+00    0.3483723880E+00
    0.1300000000E+05    0.1973840805E+00    0.2100335257E+00    0.1901886566E-02    0.2904530414E+00    0.3535617853E+00
    0.1500000000E+05    0.1849465076E+00    0.2122996051E+00    0.1793395505E-02    0.3159834322E+00    0.3578280073E+00
    0.1700000000E+05    0.1738258658E+00    0.2141953648E+00    0.1693659180E-02    0.3394797241E+00    0.3614240927E+00
    0.1900000000E+05    0.1638129194E+00    0.2158131358E+00    0.1601684784E-02    0.3611230201E+00    0.3645141249E+00
    0.2100000000E+05    0.1547509525E+00    0.2172156405E+00    0.1516700338E-02    0.3810694026E+00    0.3672101177E+00
    0.2300000000E+05    0.1465171986E+00    0.2184472505E+00    0.1438068890E-02    0.3994583992E+00    0.3695916830E+00
    0.2500000000E+05    0.1390121008E+00    0.2195403984E+00    0.1365242174E-02    0.4164172818E+00    0.3717172702E+00
    0.2700000000E+05    0.1321527851E+00    0.2205194372E+00    0.1297734819E-02    0.4320632880E+00    0.3736309545E+00
    0.2900000000E+05    0.1258689109E+00    0.2214030707E+00    0.1235109561E-02    0.4465048134E+00    0.3753667245E+00
    0.3100000000E+05    0.1200999159E+00    0.2222059430E+00    0.1176968463E-02    0.4598421095E+00    0.3769512951E+00
    0.3300000000E+05    0.1147931089E+00    0.2229397111E+00    0.1122947422E-02    0.4721677625E+00    0.3784060109E+00
    0.3500000000E+05    0.1099022934E+00    0.2236137894E+00    0.1072712463E-02    0.4835670918E+00    0.3797481707E+00
    0.3700000000E+05    0.1053867372E+00    0.2242358781E+00    0.1025957022E-02    0.4941185290E+00    0.3809919715E+00
    0.3900000000E+05    0.1012103719E+00    0.2248123466E+00    0.9823997511E-03    0.5038940050E+00    0.3821491941E+00
    0.4100000000E+05    0.9734115382E-01    0.2253485167E+00    0.9417826165E-03    0.5129593493E+00    0.3832297117E+00
    0.4300000000E+05    0.9375054020E-01    0.2258488753E+00    0.9038691689E-03    0.5213746980E+00    0.3842418722E+00
    0.4500000000E+05    0.9041305160E-01    0.2263172358E+00    0.8684429200E-03    0.5291949048E+00    0.3851927908E+00
    0.4700000000E+05    0.8730590087E-01    0.2267568641E+00    0.8353058075E-03    0.5364699464E+00    0.3860885761E+00
    0.4900000000E+05    0.8440867487E-01    0.2271705754E+00    0.8042767369E-03    0.5432453170E+00    0.3869345070E+00
    0.1000000000E+05    0.2191956275E+00    0.2056031946E+00    0.2084235969E-02    0.2478358016E+00    0.3453109951E+00
    0.3000000000E+05    0.1229235130E+00    0.2218138134E+00    0.1205501992E-02    0.4533055287E+00    0.3761764676E+00
    0.5000000000E+05    0.8303298521E-01    0.2273684881E+00    0.7895004237E-03    0.5464587100E+00    0.3873402351E+00
    0.7000000000E+05    0.6298194734E-01    0.2304184012E+00    0.5715120898E-03    0.5927020547E+00    0.3936910164E+00
    0.9000000000E+05    0.5143327507E-01    0.2324093190E+00    0.4447843190E-03    0.6182736021E+00    0.3979608458E+00
    0.1100000000E+06    0.4405455564E-01    0.2338357202E+00    0.3643150457E-03    0.6337755747E+00    0.4011015216E+00
    0.1300000000E+06    0.3896012526E-01    0.2349194499E+00    0.3095506472E-03    0.6438772127E+00    0.4035458742E+00
    0.1500000000E+06    0.3523140322E-01    0.2357769103E+00    0.2702120787E-03    0.6508415536E+00    0.4055236714E+00
    0.1700000000E+06    0.3237746990E-01    0.2364758409E+00    0.2407268377E-03    0.6558616436E+00    0.4071700696E+00
    0.1900000000E+06    0.3011548531E-01    0.2370586927E+00    0.2178623779E-03    0.6596121042E+00    0.4085706332E+00
    0.2100000000E+06    0.2827220587E-01    0.2375535949E+00    0.1996351230E-03    0.6624971722E+00    0.4097826126E+00
    0.2300000000E+06    0.2673603384E-01    0.2379800180E+00    0.1847695015E-03    0.6647710326E+00    0.4108460060E+00
    0.2500000000E+06    0.2543200102E-01    0.2383519202E+00    0.1724122611E-03    0.6666001213E+00    0.4117897469E+00
    0.2700000000E+06    0.2430793386E-01    0.2386796012E+00    0.1619732152E-03    0.6680972274E+00    0.4126353708E+00
    0.2900000000E+06    0.2332641325E-01    0.2389708473E+00    0.1530322461E-03    0.6693410708E+00    0.4133992943E+00
    0.3100000000E+06    0.2245989856E-01    0.2392316666E+00    0.1452827716E-03    0.6703880120E+00    0.4140942889E+00
    0.3300000000E+06    0.2168765989E-01    0.2394667781E+00    0.1384961566E-03    0.6712793115E+00    0.4147304648E+00
    0.3500000000E+06    0.2099378477E-01    0.2396799456E+00    0.1324986111E-03    0.6720457730E+00    0.4153159477E+00
    0.3700000000E+06    0.2036584592E-01    0.2398742122E+00    0.1271557834E-03    0.6727107963E+00    0.4158573565E+00
    0.3900000000E+06    0.1979398837E-01    0.2400520677E+00    0.1223622347E-03    0.6732924339E+00    0.4163601461E+00
    0.4100000000E+06    0.1927028976E-01    0.2402155710E+00    0.1180340931E-03    0.6738048080E+00    0.4168288594E+00
    0.4300000000E+06    0.1878830309E-01    0.2403664412E+00    0.1141038266E-03    0.6742591054E+00    0.4172673162E+00
    0.4500000000E+06    0.1834272399E-01    0.2405061264E+00    0.1105164580E-03    0.6746642887E+00    0.4176787550E+00
    0.4700000000E+06    0.1792914459E-01    0.2406358553E+00    0.1072267818E-03    0.6750276131E+00    0.4180659431E+00
    0.4900000000E+06    0.1754386876E-01    0.2407566787E+00    0.1041972859E-03    0.6753550074E+00    0.4184312615E+00
    0.1000000000E+06    0.4737336462E-01    0.2331756700E+00    0.4003954583E-03    0.6269100893E+00    0.3996384662E+00
    0.3000000000E+06    0.2288020805E-01    0.2391047397E+00    0.1490243713E-03    0.6698862856E+00    0.4137547226E+00
    0.5000000000E+06    0.1736084897E-01    0.2408140383E+00    0.1027700924E-03    0.6755067923E+00    0.4186063749E+00
    0.7000000000E+06    0.1463064912E-01    0.2416588380E+00    0.8240375305E-04    0.6774880354E+00    0.4213415322E+00
    0.9000000000E+06    0.1291786999E-01    0.2421647140E+00    0.7050954659E-04    0.6784692986E+00    0.4231787830E+00
    0.1100000000E+07    0.1171103793E-01    0.2424999460E+00    0.6252515370E-04    0.6790479934E+00    0.4245325588E+00
    0.1300000000E+07    0.1079975740E-01    0.2427364536E+00    0.5670427210E-04    0.6794275649E+00    0.4255892302E+00
    0.1500000000E+07    0.1007919592E-01    0.2429104988E+00    0.5222332780E-04    0.6796949709E+00    0.4264471337E+00
    0.1700000000E+07    0.9490354928E-02    0.2430424657E+00    0.4863843894E-04    0.6798932605E+00    0.4271639067E+00
    0.1900000000E+07    0.8997095489E-02    0.2431447373E+00    0.4568703611E-04    0.6800460662E+00    0.4277759576E+00
    0.2100000000E+07    0.8575852887E-02    0.2432252872E+00    0.4320276516E-04    0.6801673978E+00    0.4283076148E+00
    0.2300000000E+07    0.8210503810E-02    0.2432894886E+00    0.4107452115E-04    0.6802660692E+00    0.4287758628E+00
    0.2500000000E+07    0.7889586344E-02    0.2433410973E+00    0.3922493068E-04    0.6803478951E+00    0.4291929842E+00
    0.2700000000E+07    0.7604694513E-02    0.2433828180E+00    0.3759824986E-04    0.6804168623E+00    0.4295681207E+00
    0.2900000000E+07    0.7349501915E-02    0.2434166481E+00    0.3615317233E-04    0.6804757939E+00    0.4299082433E+00
    0.3100000000E+07    0.7119142097E-02    0.2434440946E+00    0.3485835660E-04    0.6805267442E+00    0.4302187771E+00
    0.3300000000E+07    0.6909800993E-02    0.2434663150E+00    0.3368953676E-04    0.6805712427E+00    0.4305040193E+00
    0.3500000000E+07    0.6718440568E-02    0.2434842130E+00    0.3262759442E-04    0.6806104519E+00    0.4307674263E+00
    0.3700000000E+07    0.6542606430E-02    0.2434985038E+00    0.3165723587E-04    0.6806452704E+00    0.4310118155E+00
    0.3900000000E+07    0.6380290802E-02    0.2435097604E+00    0.3076606204E-04    0.6806764043E+00    0.4312395110E+00
    0.4100000000E+07    0.6229832935E-02    0.2435184470E+00    0.2994390065E-04    0.6807044156E+00    0.4314524502E+00
    0.4300000000E+07    0.6089845426E-02    0.2435249435E+00    0.2918231734E-04    0.6807297572E+00    0.4316522637E+00
    0.4500000000E+07    0.5959158835E-02    0.2435295631E+00    0.2847425194E-04    0.6807527986E+00    0.4318403351E+00
    0.4700000000E+07    0.5836779442E-02    0.2435325666E+00    0.2781374352E-04    0.6807738436E+00    0.4320178484E+00
    0.4900000000E+07    0.5721856617E-02    0.2435341724E+00    0.2719571984E-04    0.6807931448E+00    0.4321858232E+00
    0.1000000000E+07    0.1226800523E-01    0.2423479489E+00    0.6617027190E-04    0.6787920211E+00    0.4239014948E+00
    0.3000000000E+07    0.7231477215E-02    0.2434310901E+00    0.3548863797E-04    0.6805021610E+00    0.4300669176E+00
    0.5000000000E+07    0.5666958330E-02    0.2435345099E+00    0.2690125675E-04    0.6808022089E+00    0.4322665145E+00
    0.7000000000E+07    0.4826111470E-02    0.2435002993E+00    0.2245293528E-04    0.6809289238E+00    0.4335432835E+00
    0.9000000000E+07    0.4280178948E-02    0.2434301113E+00    0.1962747198E-04    0.6809996920E+00    0.4344214813E+00
    0.1100000000E+08    0.3888698355E-02    0.2433498601E+00    0.1763255235E-04    0.6810452493E+00    0.4350816451E+00
    0.1300000000E+08    0.3590082773E-02    0.2432681860E+00    0.1612894665E-04    0.6810772288E+00    0.4356059213E+00
    0.1500000000E+08    0.3352469754E-02    0.2431883176E+00    0.1494407598E-04    0.6811010262E+00    0.4360381255E+00
    0.1700000000E+08    0.3157487074E-02    0.2431114688E+00    0.1397970514E-04    0.6811194951E+00    0.4364041973E+00
    0.1900000000E+08    0.2993692263E-02    0.2430380238E+00    0.1317528684E-04    0.6811342902E+00    0.4367206752E+00
    0.2100000000E+08    0.2853534699E-02    0.2429680080E+00    0.1249121482E-04    0.6811464395E+00    0.4369987063E+00
    0.2300000000E+08    0.2731802327E-02    0.2429012907E+00    0.1190035399E-04    0.6811566164E+00    0.4372461362E+00
    0.2500000000E+08    0.2624764986E-02    0.2428376780E+00    0.1138341150E-04    0.6811652810E+00    0.4374686820E+00
    0.2700000000E+08    0.2529672734E-02    0.2427769566E+00    0.1092624710E-04    0.6811727592E+00    0.4376706294E+00
