  Pressure (Pa) 2mC6-400 (mol/kg) 3mC6-400 (mol/kg) 33mC5-400 (mol/kg) 23mC5-400 (mol/kg) C7-400 (mol/kg)
    0.1000000000E+01    0.7905450057E-02    0.2098446926E-02    0.1931056984E-03    0.1855757371E-03    0.1702606420E-02
    0.3000000000E+01    0.2296343868E-01    0.6108795981E-02    0.5609770413E-03    0.5478756159E-03    0.4957089058E-02
    0.5000000000E+01    0.3709428176E-01    0.9889815746E-02    0.9062645493E-03    0.8989803330E-03    0.8026251698E-02
    0.7000000000E+01    0.5038040538E-01    0.1346227460E-01    0.1230976314E-02    0.1239564341E-02    0.1092685591E-01
    0.9000000000E+01    0.6289465725E-01    0.1684446212E-01    0.1536886983E-02    0.1570246337E-02    0.1367366404E-01
    0.1100000000E+02    0.7470167149E-01    0.2005255054E-01    0.1825571035E-02    0.1891595014E-02    0.1627973061E-01
    0.1300000000E+02    0.8585900475E-01    0.2310089451E-01    0.2098430478E-02    0.2204134115E-02    0.1875664399E-01
    0.1500000000E+02    0.9641808745E-01    0.2600228125E-01    0.2356718039E-02    0.2508346872E-02    0.2111472811E-01
    0.1700000000E+02    0.1064250246E+00    0.2876814029E-01    0.2601556689E-02    0.2804679932E-02    0.2336321155E-01
    0.1900000000E+02    0.1159212730E+00    0.3140872039E-01    0.2833956146E-02    0.3093546821E-02    0.2551037023E-01
    0.2100000000E+02    0.1249442175E+00    0.3393323934E-01    0.3054826921E-02    0.3375331026E-02    0.2756364817E-01
    0.2300000000E+02    0.1335276625E+00    0.3635001144E-01    0.3264992297E-02    0.3650388735E-02    0.2952976037E-01
    0.2500000000E+02    0.1417022536E+00    0.3866655649E-01    0.3465198608E-02    0.3919051269E-02    0.3141478064E-01
    0.2700000000E+02    0.1494958409E+00    0.4088969327E-01    0.3656124087E-02    0.4181627270E-02    0.3322421708E-01
    0.2900000000E+02    0.1569337926E+00    0.4302562011E-01    0.3838386511E-02    0.4438404649E-02    0.3496307696E-01
    0.3100000000E+02    0.1640392672E+00    0.4507998454E-01    0.4012549834E-02    0.4689652338E-02    0.3663592302E-01
    0.3300000000E+02    0.1708334504E+00    0.4705794370E-01    0.4179129961E-02    0.4935621868E-02    0.3824692212E-01
    0.3500000000E+02    0.1773357623E+00    0.4896421696E-01    0.4338599788E-02    0.5176548782E-02    0.3979988775E-01
    0.3700000000E+02    0.1835640381E+00    0.5080313191E-01    0.4491393615E-02    0.5412653921E-02    0.4129831706E-01
    0.3900000000E+02    0.1895346877E+00    0.5257866453E-01    0.4637911029E-02    0.5644144579E-02    0.4274542338E-01
    0.4100000000E+02    0.1952628362E+00    0.5429447466E-01    0.4778520323E-02    0.5871215552E-02    0.4414416474E-01
    0.4300000000E+02    0.2007624472E+00    0.5595393707E-01    0.4913561509E-02    0.6094050092E-02    0.4549726898E-01
    0.4500000000E+02    0.2060464333E+00    0.5756016904E-01    0.5043349002E-02    0.6312820767E-02    0.4680725605E-01
    0.4700000000E+02    0.2111267532E+00    0.5911605474E-01    0.5168173989E-02    0.6527690254E-02    0.4807645760E-01
    0.4900000000E+02    0.2160144987E+00    0.6062426686E-01    0.5288306544E-02    0.6738812051E-02    0.4930703449E-01
    0.1000000000E+02    0.6888281786E-01    0.1846933210E-01    0.1683290960E-02    0.1732053608E-02    0.1499353392E-01
    0.3000000000E+02    0.1605267217E+00    0.4406266446E-01    0.3926447252E-02    0.4564703594E-02    0.3580748254E-01
    0.5000000000E+02    0.2183894044E+00    0.6136127750E-01    0.5346692255E-02    0.6843013189E-02    0.4990847113E-01
    0.7000000000E+02    0.2579262892E+00    0.7411541064E-01    0.6320377928E-02    0.8761566774E-02    0.6032732998E-01
    0.9000000000E+02    0.2864194427E+00    0.8407605669E-01    0.7024816798E-02    0.1042983976E-01    0.6848031178E-01
    0.1100000000E+03    0.3077559873E+00    0.9217796519E-01    0.7554662861E-02    0.1191481442E-01    0.7512404670E-01
    0.1300000000E+03    0.3242004715E+00    0.9896932825E-01    0.7965067702E-02    0.1326014026E-01    0.8070259009E-01
    0.1500000000E+03    0.3371608434E+00    0.1047948961E+00    0.8290328667E-02    0.1449569490E-01    0.8549539718E-01
    0.1700000000E+03    0.3475577652E+00    0.1098835145E+00    0.8552879392E-02    0.1564275162E-01    0.8968809564E-01
    0.1900000000E+03    0.3560180471E+00    0.1143937780E+00    0.8767998565E-02    0.1671695485E-01    0.9340941323E-01
    0.2100000000E+03    0.3629827758E+00    0.1184395290E+00    0.8946442123E-02    0.1773012416E-01    0.9675181162E-01
    0.2300000000E+03    0.3687710256E+00    0.1221049103E+00    0.9095994259E-02    0.1869139583E-01    0.9978367289E-01
    0.2500000000E+03    0.3736190721E+00    0.1254536681E+00    0.9222422096E-02    0.1960797174E-01    0.1025568341E+00
    0.2700000000E+03    0.3777054279E+00    0.1285351279E+00    0.9330085278E-02    0.2048562623E-01    0.1051114288E+00
    0.2900000000E+03    0.3811673382E+00    0.1313881602E+00    0.9422337635E-02    0.2132905834E-01    0.1074791023E+00
    0.3100000000E+03    0.3841119462E+00    0.1340438900E+00    0.9501799118E-02    0.2214214247E-01    0.1096852078E+00
    0.3300000000E+03    0.3866240340E+00    0.1365275926E+00    0.9570544342E-02    0.2292811050E-01    0.1117503448E+00
    0.3500000000E+03    0.3887715013E+00    0.1388600506E+00    0.9630236057E-02    0.2368968647E-01    0.1136914604E+00
    0.3700000000E+03    0.3906093162E+00    0.1410585438E+00    0.9682221424E-02    0.2442918794E-01    0.1155226523E+00
    0.3900000000E+03    0.3921824124E+00    0.1431375839E+00    0.9727602612E-02    0.2514860335E-01    0.1172557659E+00
    0.4100000000E+03    0.3935278451E+00    0.1451094680E+00    0.9767289362E-02    0.2584965184E-01    0.1189008440E+00
    0.4300000000E+03    0.3946764177E+00    0.1469847025E+00    0.9802038650E-02    0.2653383014E-01    0.1204664711E+00
    0.4500000000E+03    0.3956539242E+00    0.1487723308E+00    0.9832484983E-02    0.2720244965E-01    0.1219600396E+00
    0.4700000000E+03    0.3964821091E+00    0.1504801901E+00    0.9859163815E-02    0.2785666616E-01    0.1233879590E+00
    0.4900000000E+03    0.3971794161E+00    0.1521151152E+00    0.9882529825E-02    0.2849750378E-01    0.1247558215E+00
    0.1000000000E+03    0.2978144809E+00    0.8831884926E-01    0.7307477266E-02    0.1119210587E-01    0.7195803262E-01
    0.3000000000E+03    0.3826985551E+00    0.1327389891E+00    0.9463526572E-02    0.2173917862E-01    0.1086009668E+00
    0.5000000000E+03    0.3974839993E+00    0.1529071297E+00    0.9893094130E-02    0.2881319442E-01    0.1254187885E+00
    0.7000000000E+03    0.3995236988E+00    0.1660509999E+00    0.1000020234E-01    0.3460163285E-01    0.1364530188E+00
    0.9000000000E+03    0.3976594932E+00    0.1758243224E+00    0.1000393575E-01    0.3968311121E-01    0.1446982272E+00
    0.1100000000E+04    0.3943609843E+00    0.1836067083E+00    0.9966605460E-02    0.4430336477E-01    0.1512896620E+00
    0.1300000000E+04    0.3905228406E+00    0.1900696883E+00    0.9911378013E-02    0.4859246137E-01    0.1567816806E+00
    0.1500000000E+04    0.3865184615E+00    0.1955918714E+00    0.9848285656E-02    0.5262878617E-01    0.1614876698E+00
    0.1700000000E+04    0.3825162589E+00    0.2004083246E+00    0.9782102199E-02    0.5646381352E-01    0.1656026533E+00
    0.1900000000E+04    0.3785944771E+00    0.2046753069E+00    0.9715233737E-02    0.6013347342E-01    0.1692565363E+00
    0.2100000000E+04    0.3747885979E+00    0.2085021164E+00    0.9648928545E-02    0.6366401568E-01    0.1725403497E+00
    0.2300000000E+04    0.3711128024E+00    0.2119682807E+00    0.9583834148E-02    0.6707530768E-01    0.1755204388E+00
    0.2500000000E+04    0.3675703694E+00    0.2151335162E+00    0.9520272935E-02    0.7038281587E-01    0.1782466975E+00
    0.2700000000E+04    0.3641589736E+00    0.2180438310E+00    0.9458386303E-02    0.7359886045E-01    0.1807576196E+00
    0.2900000000E+04    0.3608734843E+00    0.2207354378E+00    0.9398213367E-02    0.7673344451E-01    0.1830835432E+00
    0.3100000000E+04    0.3577074813E+00    0.2232373600E+00    0.9339735396E-02    0.7979482169E-01    0.1852488125E+00
    0.3300000000E+04    0.3546540837E+00    0.2255732216E+00    0.9282901556E-02    0.8278989645E-01    0.1872732658E+00
    0.3500000000E+04    0.3517064038E+00    0.2277625117E+00    0.9227644069E-02    0.8572451381E-01    0.1891732868E+00
    0.3700000000E+04    0.3488577885E+00    0.2298214982E+00    0.9173887253E-02    0.8860367354E-01    0.1909625650E+00
    0.3900000000E+04    0.3461019410E+00    0.2317639012E+00    0.9121552909E-02    0.9143169161E-01    0.1926526575E+00
    0.4100000000E+04    0.3434329735E+00    0.2336013995E+00    0.9070563507E-02    0.9421232411E-01    0.1942534108E+00
    0.4300000000E+04    0.3408454209E+00    0.2353440163E+00    0.9020844026E-02    0.9694886354E-01    0.1957732832E+00
    0.4500000000E+04    0.3383342322E+00    0.2370004180E+00    0.8972322964E-02    0.9964421492E-01    0.1972195943E+00
    0.4700000000E+04    0.3358947509E+00    0.2385781486E+00    0.8924932826E-02    0.1023009564E+00    0.1985987209E+00
    0.4900000000E+04    0.3335226889E+00    0.2400838151E+00    0.8878610302E-02    0.1049213883E+00    0.1999162522E+00
    0.1000000000E+04    0.3961150880E+00    0.1799127731E+00    0.9988491421E-02    0.4204110271E-01    0.1481580971E+00
    0.3000000000E+04    0.3592759729E+00    0.2220085233E+00    0.9368765151E-02    0.7827282464E-01    0.1841849281E+00
    0.5000000000E+04    0.3323606941E+00    0.2408114699E+00    0.8855830753E-02    0.1062186411E+00    0.2005534820E+00
    0.7000000000E+04    0.3118552020E+00    0.2526884571E+00    0.8443990292E-02    0.1306628905E+00    0.2110030311E+00
    0.9000000000E+04    0.2950988413E+00    0.2612205897E+00    0.8092549037E-02    0.1529410829E+00    0.2185717710E+00
    0.1100000000E+05    0.2807959375E+00    0.2677947780E+00    0.7780889924E-02    0.1736492430E+00    0.2244439763E+00
    0.1300000000E+05    0.2682355083E+00    0.2730916855E+00    0.7497707499E-02    0.1931113384E+00    0.2292037751E+00
    0.1500000000E+05    0.2569882666E+00    0.2774944562E+00    0.7236255027E-02    0.2115251393E+00    0.2331813529E+00
    0.1700000000E+05    0.2467758386E+00    0.2812392869E+00    0.6992228282E-02    0.2290215012E+00    0.2365810068E+00
    0.1900000000E+05    0.2374075202E+00    0.2844815922E+00    0.6762731822E-02    0.2456925865E+00    0.2395376056E+00
    0.2100000000E+05    0.2287468085E+00    0.2873287907E+00    0.6545730791E-02    0.2616067989E+00    0.2421446487E+00
    0.2300000000E+05    0.2206923952E+00    0.2898580470E+00    0.6339740209E-02    0.2768173048E+00    0.2444694901E+00
    0.2500000000E+05    0.2131667483E+00    0.2921265421E+00    0.6143639243E-02    0.2913671688E+00    0.2465621729E+00
    0.2700000000E+05    0.2061089352E+00    0.2941777484E+00    0.5956555317E-02    0.3052925776E+00    0.2484608374E+00
    0.2900000000E+05    0.1994699389E+00    0.2960454343E+00    0.5777789257E-02    0.3186249250E+00    0.2501951811E+00
    0.3100000000E+05    0.1932095059E+00    0.2977563144E+00    0.5606765576E-02    0.3313921889E+00    0.2517887518E+00
    0.3300000000E+05    0.1872939675E+00    0.2993318596E+00    0.5442998687E-02    0.3436198558E+00    0.2532605170E+00
    0.3500000000E+05    0.1816947009E+00    0.3007895646E+00    0.5286069524E-02    0.3553315453E+00    0.2546259649E+00
    0.3700000000E+05    0.1763870195E+00    0.3021438584E+00    0.5135609118E-02    0.3665494354E+00    0.2558978957E+00
    0.3900000000E+05    0.1713493597E+00    0.3034067693E+00    0.4991286926E-02    0.3772945511E+00    0.2570870019E+00
    0.4100000000E+05    0.1665626755E+00    0.3045884207E+00    0.4852802441E-02    0.3875869604E+00    0.2582023002E+00
    0.4300000000E+05    0.1620099806E+00    0.3056974066E+00    0.4719879133E-02    0.3974459062E+00    0.2592514600E+00
    0.4500000000E+05    0.1576759992E+00    0.3067410795E+00    0.4592260018E-02    0.4068898938E+00    0.2602410549E+00
    0.4700000000E+05    0.1535468943E+00    0.3077257742E+00    0.4469704413E-02    0.4159367497E+00    0.2611767590E+00
    0.4900000000E+05    0.1496100550E+00    0.3086569837E+00    0.4351985534E-02    0.4246036595E+00    0.2620635013E+00
    0.1000000000E+05    0.2876940375E+00    0.2647001379E+00    0.7932596960E-02    0.1634671590E+00    0.2216751248E+00
    0.3000000000E+05    0.1962946401E+00    0.2969190272E+00    0.5691341761E-02    0.3250775496E+00    0.2510082850E+00
    0.5000000000E+05    0.1477100869E+00    0.3091040532E+00    0.4294872349E-02    0.4287998362E+00    0.2624898793E+00
    0.7000000000E+05    0.1174336892E+00    0.3161335393E+00    0.3359578671E-02    0.4964879565E+00    0.2692549624E+00
    0.9000000000E+05    0.9742069326E-01    0.3208813427E+00    0.2717883954E-02    0.5414134432E+00    0.2738988433E+00
    0.1100000000E+06    0.8355404041E-01    0.3243741608E+00    0.2264815251E-02    0.5720781490E+00    0.2773625818E+00
    0.1300000000E+06    0.7353541188E-01    0.3270866803E+00    0.1934940186E-02    0.5936766676E+00    0.2800858957E+00
    0.1500000000E+06    0.6602668503E-01    0.3292737915E+00    0.1687583476E-02    0.6093587872E+00    0.2823067714E+00
    0.1700000000E+06    0.6021857702E-01    0.3310866442E+00    0.1497083561E-02    0.6210644082E+00    0.2841672315E+00
    0.1900000000E+06    0.5560314081E-01    0.3326214786E+00    0.1346865023E-02    0.6300187181E+00    0.2857581988E+00
    0.2100000000E+06    0.5185018202E-01    0.3339429521E+00    0.1225934909E-02    0.6370174081E+00    0.2871410601E+00
    0.2300000000E+06    0.4873801934E-01    0.3350963685E+00    0.1126808312E-02    0.6425916740E+00    0.2883590260E+00
    0.2500000000E+06    0.4611341440E-01    0.3361145640E+00    0.1044260482E-02    0.6471054482E+00    0.2894435535E+00
    0.2700000000E+06    0.4386762623E-01    0.3370220104E+00    0.9745595861E-03    0.6508140801E+00    0.2904181863E+00
    0.2900000000E+06    0.4192165672E-01    0.3378373773E+00    0.9149836499E-03    0.6539006593E+00    0.2913009599E+00
    0.3100000000E+06    0.4021689592E-01    0.3385751935E+00    0.8635091357E-03    0.6564990667E+00    0.2921059660E+00
    0.3300000000E+06    0.3870903248E-01    0.3392469603E+00    0.8186055540E-03    0.6587089559E+00    0.2928444037E+00
    0.3500000000E+06    0.3736399266E-01    0.3398619195E+00    0.7790970806E-03    0.6606057061E+00    0.2935253062E+00
    0.3700000000E+06    0.3615517160E-01    0.3404275947E+00    0.7440674458E-03    0.6622471744E+00    0.2941560553E+00
    0.3900000000E+06    0.3506150717E-01    0.3409501827E+00    0.7127933494E-03    0.6636783622E+00    0.2947427528E+00
    0.4100000000E+06    0.3406611486E-01    0.3414348400E+00    0.6846970462E-03    0.6649346984E+00    0.2952904947E+00
    0.4300000000E+06    0.3315530396E-01    0.3418858979E+00    0.6593120486E-03    0.6660443864E+00    0.2958035765E+00
    0.4500000000E+06    0.3231785722E-01    0.3423070250E+00    0.6362579554E-03    0.6670301071E+00    0.2962856488E+00
    0.4700000000E+06    0.3154449605E-01    0.3427013522E+00    0.6152217282E-03    0.6679102716E+00    0.2967398381E+00
    0.4900000000E+06    0.3082747797E-01    0.3430715704E+00    0.5959435918E-03    0.6686999542E+00    0.2971688400E+00
    0.1000000000E+06    0.8989236270E-01    0.3227476248E+00    0.2472587953E-02    0.5581430837E+00    0.2757440399E+00
    0.3000000000E+06    0.4104217450E-01    0.3382151998E+00    0.8883390477E-03    0.6552539897E+00    0.2917124259E+00
    0.5000000000E+06    0.3048802115E-01    0.3432483784E+00    0.5868944945E-03    0.6690648401E+00    0.2973746390E+00
    0.7000000000E+06    0.2550955885E-01    0.3459477181E+00    0.4603708987E-03    0.6737306326E+00    0.3006019400E+00
    0.9000000000E+06    0.2246069241E-01    0.3476823061E+00    0.3890611877E-03    0.6759417298E+00    0.3027823358E+00
    0.1100000000E+07    0.2034054221E-01    0.3489101352E+00    0.3423704091E-03    0.6771963551E+00    0.3043945976E+00
    0.1300000000E+07    0.1875193301E-01    0.3498337153E+00    0.3089341567E-03    0.6779924449E+00    0.3056559019E+00
    0.1500000000E+07    0.1750177629E-01    0.3505581591E+00    0.2835322398E-03    0.6785374679E+00    0.3066815300E+00
    0.1700000000E+07    0.1648325966E-01    0.3511441107E+00    0.2634124888E-03    0.6789316729E+00    0.3075393522E+00
    0.1900000000E+07    0.1563176253E-01    0.3516293023E+00    0.2469764825E-03    0.6792288711E+00    0.3082723890E+00
    0.2100000000E+07    0.1490553214E-01    0.3520385826E+00    0.2332268988E-03    0.6794603109E+00    0.3089094662E+00
    0.2300000000E+07    0.1427619698E-01    0.3523890585E+00    0.2215061600E-03    0.6796452824E+00    0.3094707532E+00
    0.2500000000E+07    0.1372369439E-01    0.3526929347E+00    0.2113612981E-03    0.6797962908E+00    0.3099708625E+00
    0.2700000000E+07    0.1323337120E-01    0.3529591776E+00    0.2024689995E-03    0.6799217735E+00    0.3104206872E+00
    0.2900000000E+07    0.1279423508E-01    0.3531945384E+00    0.1945916036E-03    0.6800276169E+00    0.3108285446E+00
    0.3100000000E+07    0.1239785218E-01    0.3534042073E+00    0.1875500356E-03    0.6801180448E+00    0.3112009150E+00
    0.3300000000E+07    0.1203762621E-01    0.3535922467E+00    0.1812064881E-03    0.6801961626E+00    0.3115429365E+00
    0.3500000000E+07    0.1170831178E-01    0.3537618866E+00    0.1754529650E-03    0.6802643014E+00    0.3118587451E+00
    0.3700000000E+07    0.1140567695E-01    0.3539157302E+00    0.1702034815E-03    0.6803242439E+00    0.3121517150E+00
    0.3900000000E+07    0.1112626368E-01    0.3540559013E+00    0.1653886183E-03    0.6803773753E+00    0.3124246310E+00
    0.4100000000E+07    0.1086721420E-01    0.3541841514E+00    0.1609516352E-03    0.6804247876E+00    0.3126798162E+00
    0.4300000000E+07    0.1062614287E-01    0.3543019392E+00    0.1568456434E-03    0.6804673529E+00    0.3129192265E+00
    0.4500000000E+07    0.1040104003E-01    0.3544104900E+00    0.1530315108E-03    0.6805057758E+00    0.3131445228E+00
    0.4700000000E+07    0.1019019886E-01    0.3545108413E+00    0.1494762878E-03    0.6805406313E+00    0.3133571263E+00
    0.4900000000E+07    0.9992158847E-02    0.3546038781E+00    0.1461520058E-03    0.6805723933E+00    0.3135582616E+00
    0.1000000000E+07    0.2131647180E-01    0.3483436166E+00    0.3635669713E-03    0.6766468616E+00    0.3036424901E+00
    0.3000000000E+07    0.1259114822E-01    0.3533023080E+00    0.1909757651E-03    0.6800745423E+00    0.3110188177E+00
    0.5000000000E+07    0.9897539193E-02    0.3546478952E+00    0.1445688567E-03    0.6805872400E+00    0.3136548662E+00
    0.7000000000E+07    0.8446686705E-02    0.3552824643E+00    0.1207013034E-03    0.6807898274E+00    0.3151816513E+00
    0.9000000000E+07    0.7502689052E-02    0.3556453809E+00    0.1055749931E-03    0.6808984844E+00    0.3162292626E+00
    0.1100000000E+08    0.6824565290E-02    0.3558745031E+00    0.9490294508E-04    0.6809664666E+00    0.3170149678E+00
    0.1300000000E+08    0.6306547088E-02    0.3560277902E+00    0.8686049310E-04    0.6810131581E+00    0.3176376293E+00
    0.1500000000E+08    0.5893846487E-02    0.3561340410E+00    0.8052223545E-04    0.6810472983E+00    0.3181499551E+00
    0.1700000000E+08    0.5554834042E-02    0.3562092253E+00    0.7536234872E-04    0.6810734077E+00    0.3185831282E+00
    0.1900000000E+08    0.5269788560E-02    0.3562629180E+00    0.7105708346E-04    0.6810940618E+00    0.3189570148E+00
    0.2100000000E+08    0.5025683290E-02    0.3563012068E+00    0.6739479726E-04    0.6811108363E+00    0.3192849941E+00
    0.2300000000E+08    0.4813517833E-02    0.3563281426E+00    0.6423054346E-04    0.6811247505E+00    0.3195764750E+00
    0.2500000000E+08    0.4626845404E-02    0.3563465217E+00    0.6146128693E-04    0.6811364930E+00    0.3198383078E+00
    0.2700000000E+08    0.4460909691E-02    0.3563583327E+00    0.5901151743E-04    0.6811465466E+00    0.3200756239E+00
