  Pressure (Pa) 23mC5-500 (mol/kg) 24mC5-500 (mol/kg) 2mC6-500 (mol/kg) 3mC6-500 (mol/kg) C7-500 (mol/kg)
    0.1000000000E+01    0.7135035539E-06    0.6964578769E-01    0.1289080862E-04    0.2095174499E-05    0.4254090410E-02
    0.3000000000E+01    0.1708554495E-05    0.1740536932E+00    0.2989277523E-04    0.5452588789E-05    0.4390616524E-02
    0.5000000000E+01    0.2360438621E-05    0.2485868084E+00    0.4032858279E-04    0.8562121723E-05    0.4488205790E-02
    0.7000000000E+01    0.2811052662E-05    0.3044630945E+00    0.4714083987E-04    0.1155021633E-04    0.4562046389E-02
    0.9000000000E+01    0.3135568421E-05    0.3479087589E+00    0.5182489188E-04    0.1446007064E-04    0.4620037085E-02
    0.1100000000E+02    0.3377203582E-05    0.3826568498E+00    0.5520496190E-04    0.1731345323E-04    0.4666887840E-02
    0.1300000000E+02    0.3562323041E-05    0.4110816288E+00    0.5776188740E-04    0.2012338593E-04    0.4705597071E-02
    0.1500000000E+02    0.3707771241E-05    0.4347652424E+00    0.5978859695E-04    0.2289848286E-04    0.4738168089E-02
    0.1700000000E+02    0.3824717564E-05    0.4548026328E+00    0.6146972243E-04    0.2564483691E-04    0.4765991805E-02
    0.1900000000E+02    0.3920798116E-05    0.4719756722E+00    0.6292483314E-04    0.2836696937E-04    0.4790064940E-02
    0.2100000000E+02    0.4001368475E-05    0.4868575927E+00    0.6423305497E-04    0.3106835887E-04    0.4811120916E-02
    0.2300000000E+02    0.4070266865E-05    0.4998782290E+00    0.6544765070E-04    0.3375175858E-04    0.4829711744E-02
    0.2500000000E+02    0.4130295395E-05    0.5113662197E+00    0.6660494519E-04    0.3641939757E-04    0.4846261068E-02
    0.2700000000E+02    0.4183532632E-05    0.5215771334E+00    0.6772994501E-04    0.3907311466E-04    0.4861099593E-02
    0.2900000000E+02    0.4231541906E-05    0.5307127078E+00    0.6883996375E-04    0.4171445067E-04    0.4874489361E-02
    0.3100000000E+02    0.4275513277E-05    0.5389343140E+00    0.6994701055E-04    0.4434471397E-04    0.4886640782E-02
    0.3300000000E+02    0.4316362255E-05    0.5463725724E+00    0.7105939295E-04    0.4696502836E-04    0.4897724822E-02
    0.3500000000E+02    0.4354799653E-05    0.5531343443E+00    0.7218280990E-04    0.4957636873E-04    0.4907881882E-02
    0.3700000000E+02    0.4391381811E-05    0.5593078991E+00    0.7332110770E-04    0.5217958828E-04    0.4917228379E-02
    0.3900000000E+02    0.4426547230E-05    0.5649667894E+00    0.7447680936E-04    0.5477543944E-04    0.4925861689E-02
    0.4100000000E+02    0.4460643630E-05    0.5701727952E+00    0.7565148917E-04    0.5736459043E-04    0.4933863912E-02
    0.4300000000E+02    0.4493948176E-05    0.5749781887E+00    0.7684604038E-04    0.5994763836E-04    0.4941304777E-02
    0.4500000000E+02    0.4526682757E-05    0.5794274956E+00    0.7806086790E-04    0.6252511975E-04    0.4948243906E-02
    0.4700000000E+02    0.4559025648E-05    0.5835588791E+00    0.7929602804E-04    0.6509751920E-04    0.4954732591E-02
    0.4900000000E+02    0.4591120472E-05    0.5874052367E+00    0.8055133034E-04    0.6766527641E-04    0.4960815215E-02
    0.1000000000E+02    0.3264812711E-05    0.3661981534E+00    0.5364216089E-04    0.1589287112E-04    0.4644638082E-02
    0.3000000000E+02    0.4253969608E-05    0.5349289649E+00    0.6939326746E-04    0.4303089232E-04    0.4880708372E-02
    0.5000000000E+02    0.4607112016E-05    0.5892305913E+00    0.8118642658E-04    0.6894754076E-04    0.4963716518E-02
    0.7000000000E+02    0.4932444603E-05    0.6160303562E+00    0.9481669798E-04    0.9443035064E-04    0.5007593458E-02
    0.9000000000E+02    0.5284865650E-05    0.6319987508E+00    0.1098171791E-03    0.1197531938E-03    0.5035162438E-02
    0.1100000000E+03    0.5667433726E-05    0.6425977515E+00    0.1257499134E-03    0.1450567792E-03    0.5054200713E-02
    0.1300000000E+03    0.6076352668E-05    0.6501454129E+00    0.1423548326E-03    0.1704275438E-03    0.5068132963E-02
    0.1500000000E+03    0.6507637265E-05    0.6557933590E+00    0.1594801777E-03    0.1959247260E-03    0.5078721437E-02
    0.1700000000E+03    0.6958112426E-05    0.6601784724E+00    0.1770352937E-03    0.2215921433E-03    0.5086974063E-02
    0.1900000000E+03    0.7425397822E-05    0.6636815778E+00    0.1949647927E-03    0.2474641196E-03    0.5093513304E-02
    0.2100000000E+03    0.7907735863E-05    0.6665443716E+00    0.2132344344E-03    0.2735687827E-03    0.5098746649E-02
    0.2300000000E+03    0.8403832118E-05    0.6689276386E+00    0.2318231553E-03    0.2999300406E-03    0.5102953351E-02
    0.2500000000E+03    0.8912733602E-05    0.6709424947E+00    0.2507183987E-03    0.3265688353E-03    0.5106331966E-02
    0.2700000000E+03    0.9433740618E-05    0.6726681903E+00    0.2699132792E-03    0.3535039769E-03    0.5109028010E-02
    0.2900000000E+03    0.9966343615E-05    0.6741627689E+00    0.2894048065E-03    0.3807527180E-03    0.5111150855E-02
    0.3100000000E+03    0.1051017784E-04    0.6754697154E+00    0.3091927407E-03    0.4083311651E-03    0.5112784473E-02
    0.3300000000E+03    0.1106499049E-04    0.6766222511E+00    0.3292788368E-03    0.4362545783E-03    0.5113994520E-02
    0.3500000000E+03    0.1163061666E-04    0.6776461928E+00    0.3496663355E-03    0.4645375987E-03    0.5114833133E-02
    0.3700000000E+03    0.1220696149E-04    0.6785619071E+00    0.3703596140E-03    0.4931944215E-03    0.5115342278E-02
    0.3900000000E+03    0.1279398690E-04    0.6793856760E+00    0.3913639431E-03    0.5222389329E-03    0.5115556128E-02
    0.4100000000E+03    0.1339170142E-04    0.6801306723E+00    0.4126853161E-03    0.5516848194E-03    0.5115502790E-02
    0.4300000000E+03    0.1400015257E-04    0.6808076676E+00    0.4343303276E-03    0.5815456572E-03    0.5115205590E-02
    0.4500000000E+03    0.1461942090E-04    0.6814255556E+00    0.4563060865E-03    0.6118349860E-03    0.5114684029E-02
    0.4700000000E+03    0.1524961541E-04    0.6819917444E+00    0.4786201548E-03    0.6425663717E-03    0.5113954512E-02
    0.4900000000E+03    0.1589087000E-04    0.6825124541E+00    0.5012805041E-03    0.6737534602E-03    0.5113030921E-02
    0.1000000000E+03    0.5472586431E-05    0.6377846667E+00    0.1176865588E-03    0.1324011503E-03    0.5045477594E-02
    0.3000000000E+03    0.1023687493E-04    0.6748374182E+00    0.2992616529E-03    0.3944997577E-03    0.5112024349E-02
    0.5000000000E+03    0.1621569278E-04    0.6827574306E+00    0.5127431294E-03    0.6895221909E-03    0.5112500105E-02
    0.7000000000E+03    0.2334162494E-04    0.6862028147E+00    0.7624283934E-03    0.1032331619E-02    0.5093769631E-02
    0.9000000000E+03    0.3186405406E-04    0.6881284622E+00    0.1058757933E-02    0.1438595192E-02    0.5062023435E-02
    0.1100000000E+04    0.4218467662E-04    0.6893572115E+00    0.1416329803E-02    0.1928800849E-02    0.5017803794E-02
    0.1300000000E+04    0.5488858401E-04    0.6902088348E+00    0.1855737295E-02    0.2531491650E-02    0.4959390443E-02
    0.1500000000E+04    0.7083164888E-04    0.6908334886E+00    0.2406824463E-02    0.3287925342E-02    0.4883239087E-02
    0.1700000000E+04    0.9129292770E-04    0.6913109928E+00    0.3114073442E-02    0.4259593593E-02    0.4783574987E-02
    0.1900000000E+04    0.1182311926E-03    0.6916876900E+00    0.4045590982E-02    0.5540730598E-02    0.4651379541E-02
    0.2100000000E+04    0.1547076123E-03    0.6919923263E+00    0.5307919823E-02    0.7278972047E-02    0.4472663638E-02
    0.2300000000E+04    0.2055242880E-03    0.6922436772E+00    0.7068526529E-02    0.9706897736E-02    0.4226037784E-02
    0.2500000000E+04    0.2778887073E-03    0.6924545236E+00    0.9579655516E-02    0.1317613944E-01    0.3880985414E-02
    0.2700000000E+04    0.3807349512E-03    0.6926338666E+00    0.1315651464E-01    0.1812974630E-01    0.3404136226E-02
    0.2900000000E+04    0.5181881764E-03    0.6927882280E+00    0.1795290795E-01    0.2479564582E-01    0.2794187860E-02
    0.3100000000E+04    0.6740576780E-03    0.6929224484E+00    0.2342131099E-01    0.3243797049E-01    0.2150805131E-02
    0.3300000000E+04    0.8112880358E-03    0.6930401958E+00    0.2828100617E-01    0.3929460263E-01    0.1652954416E-02
    0.3500000000E+04    0.9086791856E-03    0.6931443002E+00    0.3178556912E-01    0.4431888144E-01    0.1375377473E-02
    0.3700000000E+04    0.9744338526E-03    0.6932369798E+00    0.3420703970E-01    0.4786879252E-01    0.1253357060E-02
    0.3900000000E+04    0.1023180352E-02    0.6933199977E+00    0.3604731087E-01    0.5062977680E-01    0.1206839544E-02
    0.4100000000E+04    0.1063900993E-02    0.6933947729E+00    0.3761660616E-01    0.5302850653E-01    0.1191177772E-02
    0.4300000000E+04    0.1100701584E-02    0.6934624602E+00    0.3905714651E-01    0.5526123775E-01    0.1187255999E-02
    0.4500000000E+04    0.1135280617E-02    0.6935240089E+00    0.4042774882E-01    0.5740915579E-01    0.1187652093E-02
    0.4700000000E+04    0.1168328351E-02    0.6935802064E+00    0.4175216135E-01    0.5950486085E-01    0.1189582601E-02
    0.4900000000E+04    0.1200135494E-02    0.6936317115E+00    0.4304019390E-01    0.6156157931E-01    0.1192016566E-02
    0.1000000000E+04    0.3676808945E-04    0.6888040172E+00    0.1228772309E-02    0.1671654668E-02    0.5041538050E-02
    0.3000000000E+04    0.5959634430E-03    0.6928576037E+00    0.2067672227E-01    0.2859540843E-01    0.2465501760E-02
    0.5000000000E+04    0.1215618943E-02    0.6936558814E+00    0.4367203479E-01    0.6257722554E-01    0.1193292038E-02
    0.7000000000E+04    0.1476416051E-02    0.6939909119E+00    0.5488704353E-01    0.8142146433E-01    0.1216009328E-02
    0.9000000000E+04    0.1663429975E-02    0.6941728906E+00    0.6389255242E-01    0.9793240863E-01    0.1233289042E-02
    0.1100000000E+05    0.1797010520E-02    0.6942859864E+00    0.7121641137E-01    0.1125954161E+00    0.1247225848E-02
    0.1300000000E+05    0.1891217277E-02    0.6943623765E+00    0.7723386873E-01    0.1257640115E+00    0.1258927918E-02
    0.1500000000E+05    0.1956009503E-02    0.6944169801E+00    0.8221913127E-01    0.1377032464E+00    0.1269027239E-02
    0.1700000000E+05    0.1998581614E-02    0.6944576423E+00    0.8637688388E-01    0.1486160983E+00    0.1277919159E-02
    0.1900000000E+05    0.2024219057E-02    0.6944888736E+00    0.8986276831E-01    0.1586609003E+00    0.1285867817E-02
    0.2100000000E+05    0.2036861833E-02    0.6945134465E+00    0.9279706811E-01    0.1679631763E+00    0.1293058620E-02
    0.2300000000E+05    0.2039484409E-02    0.6945331559E+00    0.9527408165E-01    0.1766238748E+00    0.1299626811E-02
    0.2500000000E+05    0.2034357233E-02    0.6945492135E+00    0.9736868324E-01    0.1847252230E+00    0.1305674136E-02
    0.2700000000E+05    0.2023230135E-02    0.6945624655E+00    0.9914100550E-01    0.1923349695E+00    0.1311279101E-02
    0.2900000000E+05    0.2007463058E-02    0.6945735203E+00    0.1006398395E+00    0.1995095131E+00    0.1316503571E-02
    0.3100000000E+05    0.1988120668E-02    0.6945828254E+00    0.1019051424E+00    0.2062962447E+00    0.1321397185E-02
    0.3300000000E+05    0.1966041720E-02    0.6945907176E+00    0.1029699140E+00    0.2127353267E+00    0.1326000387E-02
    0.3500000000E+05    0.1941890547E-02    0.6945974543E+00    0.1038616173E+00    0.2188610612E+00    0.1330346577E-02
    0.3700000000E+05    0.1916195707E-02    0.6946032359E+00    0.1046032696E+00    0.2247029551E+00    0.1334463658E-02
    0.3900000000E+05    0.1889379269E-02    0.6946082203E+00    0.1052142859E+00    0.2302865578E+00    0.1338375189E-02
    0.4100000000E+05    0.1861779227E-02    0.6946125336E+00    0.1057111410E+00    0.2356341261E+00    0.1342101243E-02
    0.4300000000E+05    0.1833666785E-02    0.6946162775E+00    0.1061078910E+00    0.2407651586E+00    0.1345659066E-02
    0.4500000000E+05    0.1805259801E-02    0.6946195349E+00    0.1064165898E+00    0.2456968259E+00    0.1349063586E-02
    0.4700000000E+05    0.1776733316E-02    0.6946223742E+00    0.1066476227E+00    0.2504443231E+00    0.1352327813E-02
    0.4900000000E+05    0.1748227845E-02    0.6946248520E+00    0.1068099769E+00    0.2550211574E+00    0.1355463153E-02
    0.1000000000E+05    0.1735904484E-02    0.6942354302E+00    0.6773839540E-01    0.1054703439E+00    0.1240590473E-02
    0.3000000000E+05    0.1998181737E-02    0.6945783684E+00    0.1012994753E+00    0.2029486936E+00    0.1318989020E-02
    0.5000000000E+05    0.1734019110E-02    0.6946259705E+00    0.1068678806E+00    0.2572493951E+00    0.1356985681E-02
    0.7000000000E+05    0.1468357099E-02    0.6946375839E+00    0.1058601266E+00    0.2952002772E+00    0.1382588850E-02
    0.9000000000E+05    0.1250115401E-02    0.6946391228E+00    0.1027947886E+00    0.3244460774E+00    0.1402019556E-02
    0.1100000000E+06    0.1075568227E-02    0.6946369471E+00    0.9907641395E-01    0.3482162723E+00    0.1417727192E-02
    0.1300000000E+06    0.9353652788E-03    0.6946332374E+00    0.9522936366E-01    0.3681896941E+00    0.1430935751E-02
    0.1500000000E+06    0.8214435886E-03    0.6946288882E+00    0.9146662790E-01    0.3853590573E+00    0.1442347060E-02
    0.1700000000E+06    0.7276918092E-03    0.6946243080E+00    0.8787513286E-01    0.4003649229E+00    0.1452401790E-02
    0.1900000000E+06    0.6495948034E-03    0.6946196954E+00    0.8448634805E-01    0.4136473474E+00    0.1461395157E-02
    0.2100000000E+06    0.5838109250E-03    0.6946151498E+00    0.8130622095E-01    0.4255231485E+00    0.1469534809E-02
    0.2300000000E+06    0.5278409659E-03    0.6946107208E+00    0.7832885069E-01    0.4362288251E+00    0.1476972457E-02
    0.2500000000E+06    0.4797910349E-03    0.6946064316E+00    0.7554306057E-01    0.4459460585E+00    0.1483822386E-02
    0.2700000000E+06    0.4382063760E-03    0.6946022910E+00    0.7293565698E-01    0.4548176994E+00    0.1490172868E-02
    0.2900000000E+06    0.4019548629E-03    0.6945983002E+00    0.7049306317E-01    0.4629582423E+00    0.1496093530E-02
    0.3100000000E+06    0.3701446026E-03    0.6945944559E+00    0.6820212625E-01    0.4704609414E+00    0.1501640280E-02
    0.3300000000E+06    0.3420649575E-03    0.6945907526E+00    0.6605049360E-01    0.4774027961E+00    0.1506858701E-02
    0.3500000000E+06    0.3171437762E-03    0.6945871838E+00    0.6402676203E-01    0.4838481366E+00    0.1511786453E-02
    0.3700000000E+06    0.2949159707E-03    0.6945837423E+00    0.6212050755E-01    0.4898512611E+00    0.1516455020E-02
    0.3900000000E+06    0.2750001371E-03    0.6945804213E+00    0.6032225402E-01    0.4954584136E+00    0.1520890992E-02
    0.4100000000E+06    0.2570809514E-03    0.6945772136E+00    0.5862341224E-01    0.5007092936E+00    0.1525117035E-02
    0.4300000000E+06    0.2408957628E-03    0.6945741129E+00    0.5701620717E-01    0.5056382247E+00    0.1529152630E-02
    0.4500000000E+06    0.2262242768E-03    0.6945711130E+00    0.5549360241E-01    0.5102750732E+00    0.1533014643E-02
    0.4700000000E+06    0.2128805368E-03    0.6945682078E+00    0.5404922722E-01    0.5146459764E+00    0.1536717777E-02
    0.4900000000E+06    0.2007066344E-03    0.6945653922E+00    0.5267730819E-01    0.5187739295E+00    0.1540274929E-02
    0.1000000000E+06    0.1157969500E-02    0.6946383166E+00    0.1009735538E+00    0.3368885593E+00    0.1410245227E-02
    0.3000000000E+06    0.3855426727E-03    0.6945963601E+00    0.6932943091E-01    0.4667841764E+00    0.1498910585E-02
    0.5000000000E+06    0.1950154492E-03    0.6945640164E+00    0.5201686342E-01    0.5207532450E+00    0.1542002369E-02
    0.7000000000E+06    0.1184069537E-03    0.6945401514E+00    0.4157011396E-01    0.5514690553E+00    0.1571058005E-02
    0.9000000000E+06    0.7975925818E-04    0.6945213033E+00    0.3460016617E-01    0.5714524998E+00    0.1593115384E-02
    0.1100000000E+07    0.5747845686E-04    0.6945057203E+00    0.2962196699E-01    0.5855286351E+00    0.1610949358E-02
    0.1300000000E+07    0.4344039445E-04    0.6944924259E+00    0.2588952509E-01    0.5959906567E+00    0.1625947525E-02
    0.1500000000E+07    0.3401420411E-04    0.6944808243E+00    0.2298777573E-01    0.6040760031E+00    0.1638905860E-02
    0.1700000000E+07    0.2737344920E-04    0.6944705260E+00    0.2066751968E-01    0.6105134040E+00    0.1650324292E-02
    0.1900000000E+07    0.2251598109E-04    0.6944612623E+00    0.1877012505E-01    0.6157606476E+00    0.1660537802E-02
    0.2100000000E+07    0.1885393935E-04    0.6944528403E+00    0.1718982062E-01    0.6201200594E+00    0.1669782046E-02
    0.2300000000E+07    0.1602367747E-04    0.6944451165E+00    0.1585337596E-01    0.6237994410E+00    0.1678229219E-02
    0.2500000000E+07    0.1379029286E-04    0.6944379816E+00    0.1470848423E-01    0.6269463822E+00    0.1686009046E-02
    0.2700000000E+07    0.1199648247E-04    0.6944313503E+00    0.1371678961E-01    0.6296686192E+00    0.1693221737E-02
    0.2900000000E+07    0.1053365096E-04    0.6944251543E+00    0.1284952832E-01    0.6320466466E+00    0.1699946337E-02
    0.3100000000E+07    0.9324846358E-05    0.6944193389E+00    0.1208470762E-01    0.6341418216E+00    0.1706246321E-02
    0.3300000000E+07    0.8314291713E-05    0.6944138589E+00    0.1140522490E-01    0.6360017350E+00    0.1712173443E-02
    0.3500000000E+07    0.7460749414E-05    0.6944086767E+00    0.1079758067E-01    0.6376638683E+00    0.1717770465E-02
    0.3700000000E+07    0.6733193211E-05    0.6944037609E+00    0.1025097757E-01    0.6391581435E+00    0.1723073135E-02
    0.3900000000E+07    0.6107913520E-05    0.6943990847E+00    0.9756676813E-02    0.6405087377E+00    0.1728111648E-02
    0.4100000000E+07    0.5566537691E-05    0.6943946253E+00    0.9307530133E-02    0.6417353991E+00    0.1732911742E-02
    0.4300000000E+07    0.5094648807E-05    0.6943903630E+00    0.8897633875E-02    0.6428544164E+00    0.1737495537E-02
    0.4500000000E+07    0.4680804614E-05    0.6943862807E+00    0.8522069544E-02    0.6438793449E+00    0.1741882188E-02
    0.4700000000E+07    0.4315829307E-05    0.6943823633E+00    0.8176706652E-02    0.6448215564E+00    0.1746088391E-02
    0.4900000000E+07    0.3992294685E-05    0.6943785978E+00    0.7858051073E-02    0.6456906622E+00    0.1750128793E-02
    0.1000000000E+07    0.6723965939E-04    0.6945131767E+00    0.3191944746E-01    0.5790508132E+00    0.1602454279E-02
    0.3000000000E+07    0.9901385801E-05    0.6944222021E+00    0.1245547905E-01    0.6331263430E+00    0.1703145933E-02
    0.5000000000E+07    0.3844127283E-05    0.6943767683E+00    0.7707791043E-02    0.6461004047E+00    0.1752090915E-02
    0.7000000000E+07    0.2040451305E-05    0.6943459201E+00    0.5571140511E-02    0.6519219226E+00    0.1785094223E-02
    0.9000000000E+07    0.1267276140E-05    0.6943224247E+00    0.4357788651E-02    0.6552245546E+00    0.1810148690E-02
    0.1100000000E+08    0.8653630642E-06    0.6943033909E+00    0.3576226052E-02    0.6573511441E+00    0.1830405951E-02
    0.1300000000E+08    0.6296930511E-06    0.6942873628E+00    0.3031070413E-02    0.6588343540E+00    0.1847442082E-02
    0.1500000000E+08    0.4795862533E-06    0.6942735016E+00    0.2629301999E-02    0.6599274942E+00    0.1862161195E-02
    0.1700000000E+08    0.3780232019E-06    0.6942612789E+00    0.2321012054E-02    0.6607663867E+00    0.1875131143E-02
    0.1900000000E+08    0.3060622228E-06    0.6942503398E+00    0.2077029719E-02    0.6614303862E+00    0.1886732427E-02
    0.2100000000E+08    0.2531867946E-06    0.6942404342E+00    0.1879168722E-02    0.6619689541E+00    0.1897232725E-02
    0.2300000000E+08    0.2131745092E-06    0.6942313792E+00    0.1715503998E-02    0.6624145185E+00    0.1906827633E-02
    0.2500000000E+08    0.1821508892E-06    0.6942230369E+00    0.1577891920E-02    0.6627892231E+00    0.1915664505E-02
    0.2700000000E+08    0.1576002065E-06    0.6942153005E+00    0.1460582239E-02    0.6631087032E+00    0.1923857167E-02
