  Pressure (Pa) 23mC5-500 (mol/kg) 24mC5-500 (mol/kg) 2mC6-500 (mol/kg) 3mC6-500 (mol/kg) C7-500 (mol/kg)
    0.1000000000E+01    0.5565269132E-06    0.1949946108E+00    0.1484503770E-04    0.1600267358E-05    0.4189034025E-02
    0.3000000000E+01    0.9828313773E-06    0.3748875468E+00    0.2496287420E-04    0.4091446490E-05    0.4220301500E-02
    0.5000000000E+01    0.1149272422E-05    0.4597110606E+00    0.2889782588E-04    0.6381537996E-05    0.4234011304E-02
    0.7000000000E+01    0.1239301944E-05    0.5090774946E+00    0.3150278861E-04    0.8574254961E-05    0.4241934575E-02
    0.9000000000E+01    0.1300988490E-05    0.5413759176E+00    0.3381645046E-04    0.1070462582E-04    0.4247105244E-02
    0.1100000000E+02    0.1350997033E-05    0.5641534539E+00    0.3611648338E-04    0.1279019169E-04    0.4250733724E-02
    0.1300000000E+02    0.1396091090E-05    0.5810791996E+00    0.3847946114E-04    0.1484139932E-04    0.4253405370E-02
    0.1500000000E+02    0.1439291620E-05    0.5941515508E+00    0.4092098208E-04    0.1686513600E-04    0.4255439696E-02
    0.1700000000E+02    0.1482025407E-05    0.6045519515E+00    0.4343745736E-04    0.1886625977E-04    0.4257026627E-02
    0.1900000000E+02    0.1524981649E-05    0.6130236529E+00    0.4601988167E-04    0.2084836727E-04    0.4258286485E-02
    0.2100000000E+02    0.1568488033E-05    0.6200576309E+00    0.4865855067E-04    0.2281422023E-04    0.4259299384E-02
    0.2300000000E+02    0.1612688146E-05    0.6259912491E+00    0.5134461274E-04    0.2476600061E-04    0.4260120833E-02
    0.2500000000E+02    0.1657629847E-05    0.6310639772E+00    0.5407047069E-04    0.2670547229E-04    0.4260790579E-02
    0.2700000000E+02    0.1703311128E-05    0.6354504972E+00    0.5682977006E-04    0.2863408832E-04    0.4261337868E-02
    0.2900000000E+02    0.1749704619E-05    0.6392812254E+00    0.5961725348E-04    0.3055306475E-04    0.4261784730E-02
    0.3100000000E+02    0.1796770943E-05    0.6426554989E+00    0.6242858742E-04    0.3246343298E-04    0.4262148094E-02
    0.3300000000E+02    0.1844466055E-05    0.6456503132E+00    0.6526020010E-04    0.3436607800E-04    0.4262441194E-02
    0.3500000000E+02    0.1892745247E-05    0.6483262684E+00    0.6810914206E-04    0.3626176680E-04    0.4262674542E-02
    0.3700000000E+02    0.1941565288E-05    0.6507317130E+00    0.7097297079E-04    0.3815117000E-04    0.4262856592E-02
    0.3900000000E+02    0.1990885495E-05    0.6529056912E+00    0.7384965689E-04    0.4003487855E-04    0.4262994234E-02
    0.4100000000E+02    0.2040668203E-05    0.6548800779E+00    0.7673750841E-04    0.4191341686E-04    0.4263093138E-02
    0.4300000000E+02    0.2090878882E-05    0.6566811525E+00    0.7963510991E-04    0.4378725317E-04    0.4263158017E-02
    0.4500000000E+02    0.2141486077E-05    0.6583307749E+00    0.8254127345E-04    0.4565680797E-04    0.4263192826E-02
    0.4700000000E+02    0.2192461242E-05    0.6598472769E+00    0.8545499900E-04    0.4752246079E-04    0.4263200906E-02
    0.4900000000E+02    0.2243778524E-05    0.6612461468E+00    0.8837544246E-04    0.4938455581E-04    0.4263185103E-02
    0.1000000000E+02    0.1326901143E-05    0.5536707442E+00    0.3496110430E-04    0.1175224653E-04    0.4249066945E-02
    0.3000000000E+02    0.1773156379E-05    0.6410201635E+00    0.6102017847E-04    0.3150926652E-04    0.4261975949E-02
    0.5000000000E+02    0.2269558061E-05    0.6619056652E+00    0.8983795574E-04    0.5031436818E-04    0.4263169022E-02
    0.7000000000E+02    0.2798519913E-05    0.6712788630E+00    0.1193165552E-03    0.6878732568E-04    0.4262036510E-02
    0.9000000000E+02    0.3345451930E-05    0.6766015796E+00    0.1490827630E-03    0.8714207328E-04    0.4259986142E-02
    0.1100000000E+03    0.3904607966E-05    0.6800327561E+00    0.1790719195E-03    0.1054882076E-03    0.4257456297E-02
    0.1300000000E+03    0.4473525432E-05    0.6824285071E+00    0.2092898456E-03    0.1238930174E-03    0.4254631130E-02
    0.1500000000E+03    0.5051109477E-05    0.6841960402E+00    0.2397603860E-03    0.1424026777E-03    0.4251602249E-02
    0.1700000000E+03    0.5636900876E-05    0.6855537878E+00    0.2705111995E-03    0.1610514387E-03    0.4248420441E-02
    0.1900000000E+03    0.6230761703E-05    0.6866294361E+00    0.3015695931E-03    0.1798662397E-03    0.4245116024E-02
    0.2100000000E+03    0.6832727389E-05    0.6875026163E+00    0.3329613950E-03    0.1988692698E-03    0.4241708054E-02
    0.2300000000E+03    0.7442932010E-05    0.6882255668E+00    0.3647108107E-03    0.2180795013E-03    0.4238208948E-02
    0.2500000000E+03    0.8061568455E-05    0.6888339792E+00    0.3968405907E-03    0.2375136605E-03    0.4234626978E-02
    0.2700000000E+03    0.8688866314E-05    0.6893530692E+00    0.4293722783E-03    0.2571868734E-03    0.4230967709E-02
    0.2900000000E+03    0.9325079229E-05    0.6898011572E+00    0.4623264561E-03    0.2771131111E-03    0.4227234876E-02
    0.3100000000E+03    0.9970477523E-05    0.6901918743E+00    0.4957229668E-03    0.2973055071E-03    0.4223430928E-02
    0.3300000000E+03    0.1062534388E-04    0.6905355725E+00    0.5295811035E-03    0.3177765914E-03    0.4219557389E-02
    0.3500000000E+03    0.1128997085E-04    0.6908402547E+00    0.5639197702E-03    0.3385384660E-03    0.4215615096E-02
    0.3700000000E+03    0.1196465943E-04    0.6911122053E+00    0.5987576182E-03    0.3596029406E-03    0.4211604363E-02
    0.3900000000E+03    0.1264971835E-04    0.6913564278E+00    0.6341131613E-03    0.3809816398E-03    0.4207525104E-02
    0.4100000000E+03    0.1334546381E-04    0.6915769556E+00    0.6700048752E-03    0.4026860892E-03    0.4203376909E-02
    0.4300000000E+03    0.1405221946E-04    0.6917770759E+00    0.7064512833E-03    0.4247277865E-03    0.4199159106E-02
    0.4500000000E+03    0.1477031660E-04    0.6919594949E+00    0.7434710315E-03    0.4471182606E-03    0.4194870809E-02
    0.4700000000E+03    0.1550009448E-04    0.6921264605E+00    0.7810829552E-03    0.4698691230E-03    0.4190510946E-02
    0.4900000000E+03    0.1624190070E-04    0.6922798556E+00    0.8193061395E-03    0.4929921110E-03    0.4186078287E-02
    0.1000000000E+03    0.3623701421E-05    0.6784844531E+00    0.1640498311E-03    0.9631135758E-04    0.4258766474E-02
    0.3000000000E+03    0.9646612789E-05    0.6900029759E+00    0.4789682031E-03    0.2871752443E-03    0.4225341678E-02
    0.5000000000E+03    0.1661742546E-04    0.6923519707E+00    0.8386530002E-03    0.5046968644E-03    0.4183834236E-02
    0.7000000000E+03    0.2485284907E-04    0.6933627949E+00    0.1262690201E-02    0.7613957262E-03    0.4134727360E-02
    0.9000000000E+03    0.3478135229E-04    0.6939251910E+00    0.1773804798E-02    0.1071172790E-02    0.4076032738E-02
    0.1100000000E+04    0.4699637467E-04    0.6942832639E+00    0.2402898911E-02    0.1452897271E-02    0.4004681674E-02
    0.1300000000E+04    0.6235610527E-04    0.6945311729E+00    0.3194513448E-02    0.1933788305E-02    0.3916194836E-02
    0.1500000000E+04    0.8214401070E-04    0.6947129339E+00    0.4215252500E-02    0.2554594723E-02    0.3803939358E-02
    0.1700000000E+04    0.1083356189E-03    0.6948518748E+00    0.5567724682E-02    0.3378178995E-02    0.3657885188E-02
    0.1900000000E+04    0.1440370218E-03    0.6949615111E+00    0.7413504066E-02    0.4503700363E-02    0.3462650965E-02
    0.2100000000E+04    0.1941379603E-03    0.6950502137E+00    0.1000753563E-01    0.6088005319E-02    0.3194894881E-02
    0.2300000000E+04    0.2659241575E-03    0.6951234437E+00    0.1373119537E-01    0.8366688150E-02    0.2821974815E-02
    0.2500000000E+04    0.3679996722E-03    0.6951849154E+00    0.1903916263E-01    0.1162335494E-01    0.2311187287E-02
    0.2700000000E+04    0.5025896866E-03    0.6952372431E+00    0.2606347880E-01    0.1594946808E-01    0.1673041437E-02
    0.2900000000E+04    0.6502169097E-03    0.6952823198E+00    0.3381383074E-01    0.2075189178E-01    0.1030878877E-02
    0.3100000000E+04    0.7752220515E-03    0.6953215504E+00    0.4044387898E-01    0.2490308966E-01    0.5638728679E-03
    0.3300000000E+04    0.8627307492E-03    0.6953559987E+00    0.4516456972E-01    0.2790920704E-01    0.3165588634E-03
    0.3500000000E+04    0.9231385545E-03    0.6953864858E+00    0.4849878066E-01    0.3007989498E-01    0.2102568001E-03
    0.3700000000E+04    0.9695203989E-03    0.6954136549E+00    0.5111813394E-01    0.3182202147E-01    0.1690298503E-03
    0.3900000000E+04    0.1009268620E-02    0.6954380172E+00    0.5340448663E-01    0.3336831093E-01    0.1537852087E-03
    0.4100000000E+04    0.1045659037E-02    0.6954599844E+00    0.5552741999E-01    0.3482238002E-01    0.1483583029E-03
    0.4300000000E+04    0.1080035440E-02    0.6954798913E+00    0.5755637328E-01    0.3622660625E-01    0.1465732860E-03
    0.4500000000E+04    0.1112948185E-02    0.6954980131E+00    0.5951951022E-01    0.3759802752E-01    0.1461306189E-03
    0.4700000000E+04    0.1144635631E-02    0.6955145784E+00    0.6142872346E-01    0.3894366413E-01    0.1461791213E-03
    0.4900000000E+04    0.1175214518E-02    0.6955297781E+00    0.6328955972E-01    0.4026662498E-01    0.1464034190E-03
    0.1000000000E+04    0.4055711288E-04    0.6941221215E+00    0.2071219226E-02    0.1251584657E-02    0.4042179438E-02
    0.3000000000E+04    0.7173064352E-03    0.6953025927E+00    0.3736098736E-01    0.2296577664E-01    0.7681976576E-03
    0.5000000000E+04    0.1190110692E-02    0.6955369172E+00    0.6420283966E-01    0.4092012444E-01    0.1465412669E-03
    0.7000000000E+04    0.1440952214E-02    0.6956364455E+00    0.8039025128E-01    0.5301555904E-01    0.1492725587E-03
    0.9000000000E+04    0.1621288251E-02    0.6956912223E+00    0.9337085471E-01    0.6356954721E-01    0.1513778974E-03
    0.1100000000E+05    0.1751427553E-02    0.6957257447E+00    0.1039537090E+00    0.7292467310E-01    0.1530791810E-03
    0.1300000000E+05    0.1845038601E-02    0.6957494094E+00    0.1126997578E+00    0.8132477220E-01    0.1545094440E-03
    0.1500000000E+05    0.1911591605E-02    0.6957665888E+00    0.1200099805E+00    0.8894877661E-01    0.1557448932E-03
    0.1700000000E+05    0.1957806792E-02    0.6957795912E+00    0.1261783131E+00    0.9593128958E-01    0.1568333457E-03
    0.1900000000E+05    0.1988551050E-02    0.6957897490E+00    0.1314249252E+00    0.1023757463E+00    0.1578068196E-03
    0.2100000000E+05    0.2007411294E-02    0.6957978847E+00    0.1359178488E+00    0.1083631123E+00    0.1586878273E-03
    0.2300000000E+05    0.2017071476E-02    0.6958045328E+00    0.1397874440E+00    0.1139577981E+00    0.1594928123E-03
    0.2500000000E+05    0.2019566597E-02    0.6958100559E+00    0.1431363187E+00    0.1192117806E+00    0.1602341585E-03
    0.2700000000E+05    0.2016457562E-02    0.6958147082E+00    0.1460462820E+00    0.1241675393E+00    0.1609214296E-03
    0.2900000000E+05    0.2008953836E-02    0.6958186734E+00    0.1485833162E+00    0.1288601886E+00    0.1615621679E-03
    0.3100000000E+05    0.1998000968E-02    0.6958220872E+00    0.1508011919E+00    0.1333190527E+00    0.1621624288E-03
    0.3300000000E+05    0.1984343999E-02    0.6958250521E+00    0.1527441416E+00    0.1375688484E+00    0.1627271488E-03
    0.3500000000E+05    0.1968574023E-02    0.6958276470E+00    0.1544488624E+00    0.1416305849E+00    0.1632604063E-03
    0.3700000000E+05    0.1951162821E-02    0.6958299335E+00    0.1559460376E+00    0.1455222575E+00    0.1637656102E-03
    0.3900000000E+05    0.1932488899E-02    0.6958319603E+00    0.1572615056E+00    0.1492593887E+00    0.1642456395E-03
    0.4100000000E+05    0.1912857282E-02    0.6958337666E+00    0.1584171678E+00    0.1528554550E+00    0.1647029483E-03
    0.4300000000E+05    0.1892514690E-02    0.6958353843E+00    0.1594317010E+00    0.1563222267E+00    0.1651396454E-03
    0.4500000000E+05    0.1871661285E-02    0.6958368392E+00    0.1603211216E+00    0.1596700403E+00    0.1655575568E-03
    0.4700000000E+05    0.1850459834E-02    0.6958381530E+00    0.1610992358E+00    0.1629080206E+00    0.1659582741E-03
    0.4900000000E+05    0.1829042904E-02    0.6958393436E+00    0.1617780021E+00    0.1660442603E+00    0.1663431933E-03
    0.1000000000E+05    0.1691657592E-02    0.6957102513E+00    0.9892238628E-01    0.6837989636E-01    0.1522688770E-03
    0.3000000000E+05    0.2003857894E-02    0.6958204422E+00    0.1497291870E+00    0.1311172027E+00    0.1618670268E-03
    0.5000000000E+05    0.1818288232E-02    0.6958398975E+00    0.1620834351E+00    0.1675765115E+00    0.1665301190E-03
    0.7000000000E+05    0.1609350383E-02    0.6958471545E+00    0.1649031578E+00    0.1942781887E+00    0.1696742028E-03
    0.9000000000E+05    0.1427952222E-02    0.6958505819E+00    0.1642733870E+00    0.2157729841E+00    0.1720610248E-03
    0.1100000000E+06    0.1276325877E-02    0.6958523748E+00    0.1621755118E+00    0.2339614687E+00    0.1739908647E-03
    0.1300000000E+06    0.1149672011E-02    0.6958533450E+00    0.1594133131E+00    0.2498265124E+00    0.1756138685E-03
    0.1500000000E+06    0.1042997668E-02    0.6958538561E+00    0.1563584782E+00    0.2639480317E+00    0.1770161621E-03
    0.1700000000E+06    0.9522278076E-03    0.6958540926E+00    0.1531977033E+00    0.2767002368E+00    0.1782518371E-03
    0.1900000000E+06    0.8742086369E-03    0.6958541567E+00    0.1500296661E+00    0.2883407169E+00    0.1793571383E-03
    0.2100000000E+06    0.8065214518E-03    0.6958541087E+00    0.1469078719E+00    0.2990556298E+00    0.1803575629E-03
    0.2300000000E+06    0.7473019073E-03    0.6958539861E+00    0.1438613196E+00    0.3089847040E+00    0.1812717420E-03
    0.2500000000E+06    0.6950985652E-03    0.6958538131E+00    0.1409051638E+00    0.3182360361E+00    0.1821137116E-03
    0.2700000000E+06    0.6487684265E-03    0.6958536059E+00    0.1380465126E+00    0.3268953354E+00    0.1828943142E-03
    0.2900000000E+06    0.6074009265E-03    0.6958533754E+00    0.1352877148E+00    0.3350319594E+00    0.1836221025E-03
    0.3100000000E+06    0.5702625860E-03    0.6958531292E+00    0.1326282860E+00    0.3427030024E+00    0.1843039443E-03
    0.3300000000E+06    0.5367564038E-03    0.6958528730E+00    0.1300660682E+00    0.3499561532E+00    0.1849454394E-03
    0.3500000000E+06    0.5063917605E-03    0.6958526104E+00    0.1275979401E+00    0.3568317459E+00    0.1855512148E-03
    0.3700000000E+06    0.4787618630E-03    0.6958523444E+00    0.1252202595E+00    0.3633642660E+00    0.1861251384E-03
    0.3900000000E+06    0.4535266499E-03    0.6958520771E+00    0.1229291411E+00    0.3695834803E+00    0.1866704773E-03
    0.4100000000E+06    0.4303996928E-03    0.6958518100E+00    0.1207206302E+00    0.3755152978E+00    0.1871900164E-03
    0.4300000000E+06    0.4091380546E-03    0.6958515441E+00    0.1185908117E+00    0.3811824382E+00    0.1876861494E-03
    0.4500000000E+06    0.3895343578E-03    0.6958512803E+00    0.1165358762E+00    0.3866049562E+00    0.1881609486E-03
    0.4700000000E+06    0.3714105248E-03    0.6958510192E+00    0.1145521594E+00    0.3918006602E+00    0.1886162210E-03
    0.4900000000E+06    0.3546127933E-03    0.6958507613E+00    0.1126361632E+00    0.3967854485E+00    0.1890535510E-03
    0.1000000000E+06    0.1348682946E-02    0.6958516160E+00    0.1633428346E+00    0.2252060541E+00    0.1730715957E-03
    0.3000000000E+06    0.5883432269E-03    0.6958532539E+00    0.1339456849E+00    0.3389225047E+00    0.1839683909E-03
    0.5000000000E+06    0.3466688125E-03    0.6958506336E+00    0.1117025153E+00    0.3992032638E+00    0.1892659310E-03
    0.7000000000E+06    0.2327567109E-03    0.6958482791E+00    0.9587247208E-01    0.4392930826E+00    0.1928383427E-03
    0.9000000000E+06    0.1684773679E-03    0.6958462827E+00    0.8403912455E-01    0.4684373380E+00    0.1955505131E-03
    0.1100000000E+07    0.1281751933E-03    0.6958445702E+00    0.7484056579E-01    0.4907569641E+00    0.1977434925E-03
    0.1300000000E+07    0.1010651574E-03    0.6958430759E+00    0.6747417925E-01    0.5084676023E+00    0.1995878413E-03
    0.1500000000E+07    0.8187905911E-04    0.6958417519E+00    0.6143634200E-01    0.5228947767E+00    0.2011814046E-03
    0.1700000000E+07    0.6776601339E-04    0.6958405636E+00    0.5639421889E-01    0.5348897684E+00    0.2025856391E-03
    0.1900000000E+07    0.5706311343E-04    0.6958394858E+00    0.5211850179E-01    0.5450281258E+00    0.2038417259E-03
    0.2100000000E+07    0.4874285024E-04    0.6958384996E+00    0.4844577886E-01    0.5537146235E+00    0.2049786361E-03
    0.2300000000E+07    0.4214053177E-04    0.6958375904E+00    0.4525629802E-01    0.5612430295E+00    0.2060175400E-03
    0.2500000000E+07    0.3680975294E-04    0.6958367469E+00    0.4246021500E-01    0.5678321247E+00    0.2069743865E-03
    0.2700000000E+07    0.3244118968E-04    0.6958359602E+00    0.3998875776E-01    0.5736484127E+00    0.2078614961E-03
    0.2900000000E+07    0.2881474469E-04    0.6958352228E+00    0.3778836309E-01    0.5788209763E+00    0.2086885876E-03
    0.3100000000E+07    0.2577019640E-04    0.6958345290E+00    0.3581667603E-01    0.5834515023E+00    0.2094634652E-03
    0.3300000000E+07    0.2318857262E-04    0.6958338737E+00    0.3403975373E-01    0.5876212263E+00    0.2101924923E-03
    0.3500000000E+07    0.2097997680E-04    0.6958332528E+00    0.3243006944E-01    0.5913958541E+00    0.2108809269E-03
    0.3700000000E+07    0.1907542443E-04    0.6958326627E+00    0.3096506086E-01    0.5948291207E+00    0.2115331645E-03
    0.3900000000E+07    0.1742124301E-04    0.6958321006E+00    0.2962605652E-01    0.5979654082E+00    0.2121529176E-03
    0.4100000000E+07    0.1597515244E-04    0.6958315638E+00    0.2839747003E-01    0.6008417033E+00    0.2127433511E-03
    0.4300000000E+07    0.1470347159E-04    0.6958310500E+00    0.2726618697E-01    0.6034890810E+00    0.2133071850E-03
    0.4500000000E+07    0.1357909495E-04    0.6958305574E+00    0.2622109274E-01    0.6059338432E+00    0.2138467745E-03
    0.4700000000E+07    0.1258000522E-04    0.6958300842E+00    0.2525270479E-01    0.6081984041E+00    0.2143641728E-03
    0.4900000000E+07    0.1168816524E-04    0.6958296289E+00    0.2435288331E-01    0.6103019839E+00    0.2148611809E-03
    0.1000000000E+07    0.1461921046E-03    0.6958453955E+00    0.7916981539E-01    0.4802835254E+00    0.1966988706E-03
    0.3000000000E+07    0.2722796918E-04    0.6958348708E+00    0.3677622314E-01    0.5811985031E+00    0.2090821261E-03
    0.5000000000E+07    0.1127770560E-04    0.6958294075E+00    0.2392645091E-01    0.6112986769E+00    0.2151025422E-03
    0.7000000000E+07    0.6163276521E-05    0.6958256624E+00    0.1770993443E-01    0.6258143990E+00    0.2191624544E-03
    0.9000000000E+07    0.3888375964E-05    0.6958227970E+00    0.1404641691E-01    0.6343581713E+00    0.2222447411E-03
    0.1100000000E+08    0.2679377390E-05    0.6958204695E+00    0.1163247970E-01    0.6399843901E+00    0.2247369873E-03
    0.1300000000E+08    0.1960018841E-05    0.6958185059E+00    0.9922676852E-02    0.6439682071E+00    0.2268330271E-03
    0.1500000000E+08    0.1497110060E-05    0.6958168056E+00    0.8648548915E-02    0.6469364036E+00    0.2286440578E-03
    0.1700000000E+08    0.1181549815E-05    0.6958153047E+00    0.7662642369E-02    0.6492329630E+00    0.2302399223E-03
    0.1900000000E+08    0.9567061993E-06    0.6958139604E+00    0.6877255043E-02    0.6510623685E+00    0.2316674217E-03
    0.2100000000E+08    0.7907876404E-06    0.6958127422E+00    0.6236964607E-02    0.6525537922E+00    0.2329594807E-03
    0.2300000000E+08    0.6648186335E-06    0.6958116281E+00    0.5705034390E-02    0.6537928331E+00    0.2341401585E-03
    0.2500000000E+08    0.5668999786E-06    0.6958106011E+00    0.5256153988E-02    0.6548384549E+00    0.2352275807E-03
    0.2700000000E+08    0.4892603482E-06    0.6958096484E+00    0.4872319356E-02    0.6557325943E+00    0.2362357490E-03
