  Pressure (Pa) 23mC5-500 (mol/kg) 24mC5-500 (mol/kg) 2mC6-500 (mol/kg) 3mC6-500 (mol/kg) C7-500 (mol/kg)
    0.1000000000E+01    0.6072411719E-06    0.1513967450E+00    0.5403468868E-05    0.2883148778E-05    0.4226395043E-02
    0.3000000000E+01    0.1177627369E-05    0.3164600570E+00    0.9965831456E-05    0.7473252759E-05    0.4297692940E-02
    0.5000000000E+01    0.1432979565E-05    0.4047087115E+00    0.1183602804E-04    0.1171698320E-04    0.4335959976E-02
    0.7000000000E+01    0.1572176383E-05    0.4596416845E+00    0.1288459299E-04    0.1579139707E-04    0.4360238335E-02
    0.9000000000E+01    0.1660124940E-05    0.4971293338E+00    0.1364992009E-04    0.1975682642E-04    0.4377136144E-02
    0.1100000000E+02    0.1723015120E-05    0.5243431836E+00    0.1431978295E-04    0.2364362997E-04    0.4389637304E-02
    0.1300000000E+02    0.1772904154E-05    0.5449976526E+00    0.1496665307E-04    0.2746994968E-04    0.4399295960E-02
    0.1500000000E+02    0.1815860831E-05    0.5612091734E+00    0.1561959007E-04    0.3124777759E-04    0.4407004274E-02
    0.1700000000E+02    0.1855137567E-05    0.5742720850E+00    0.1628984953E-04    0.3498559057E-04    0.4413312348E-02
    0.1900000000E+02    0.1892556511E-05    0.5850224639E+00    0.1698101631E-04    0.3868967588E-04    0.4418578559E-02
    0.2100000000E+02    0.1929169801E-05    0.5940244431E+00    0.1769332090E-04    0.4236486878E-04    0.4423046826E-02
    0.2300000000E+02    0.1965595860E-05    0.6016724641E+00    0.1842557200E-04    0.4601499470E-04    0.4426889193E-02
    0.2500000000E+02    0.2002200077E-05    0.6082506182E+00    0.1917604725E-04    0.4964314990E-04    0.4430230663E-02
    0.2700000000E+02    0.2039196174E-05    0.6139687140E+00    0.1994290640E-04    0.5325188782E-04    0.4433164363E-02
    0.2900000000E+02    0.2076705112E-05    0.6189850666E+00    0.2072437817E-04    0.5684334749E-04    0.4435761180E-02
    0.3100000000E+02    0.2114790343E-05    0.6234213818E+00    0.2151883773E-04    0.6041934483E-04    0.4438076083E-02
    0.3300000000E+02    0.2153479409E-05    0.6273727598E+00    0.2232483128E-04    0.6398143924E-04    0.4440152394E-02
    0.3500000000E+02    0.2192777441E-05    0.6309145888E+00    0.2314107550E-04    0.6753098322E-04    0.4442024754E-02
    0.3700000000E+02    0.2232675717E-05    0.6341074007E+00    0.2396644574E-04    0.7106916019E-04    0.4443721213E-02
    0.3900000000E+02    0.2273157159E-05    0.6370003585E+00    0.2479996001E-04    0.7459701364E-04    0.4445264746E-02
    0.4100000000E+02    0.2314199884E-05    0.6396338061E+00    0.2564076206E-04    0.7811547008E-04    0.4446674365E-02
    0.4300000000E+02    0.2355779504E-05    0.6420411604E+00    0.2648810537E-04    0.8162535728E-04    0.4447965950E-02
    0.4500000000E+02    0.2397870625E-05    0.6442503374E+00    0.2734133853E-04    0.8512741894E-04    0.4449152877E-02
    0.4700000000E+02    0.2440447797E-05    0.6462848389E+00    0.2819989236E-04    0.8862232665E-04    0.4450246497E-02
    0.4900000000E+02    0.2483486123E-05    0.6481645922E+00    0.2906326872E-04    0.9211068969E-04    0.4451256516E-02
    0.1000000000E+02    0.1693750379E-05    0.5117371056E+00    0.1399075068E-04    0.2170873284E-04    0.4383817978E-02
    0.3000000000E+02    0.2095673316E-05    0.6212692543E+00    0.2112007942E-04    0.5863317613E-04    0.4436950930E-02
    0.5000000000E+02    0.2505170682E-05    0.6490518521E+00    0.2949662668E-04    0.9385259235E-04    0.4451732831E-02
    0.7000000000E+02    0.2957921807E-05    0.6617328912E+00    0.3833558948E-04    0.1284595730E-03    0.4458394737E-02
    0.9000000000E+02    0.3437091056E-05    0.6689935366E+00    0.4738372844E-04    0.1628333491E-03    0.4461789092E-02
    0.1100000000E+03    0.3933965930E-05    0.6736969105E+00    0.5656232206E-04    0.1971684817E-03    0.4463473052E-02
    0.1300000000E+03    0.4444102218E-05    0.6769916029E+00    0.6584472543E-04    0.2315843173E-03    0.4464117961E-02
    0.1500000000E+03    0.4965108896E-05    0.6794279455E+00    0.7522282064E-04    0.2661625222E-03    0.4464067076E-02
    0.1700000000E+03    0.5495648411E-05    0.6813026444E+00    0.8469589913E-04    0.3009634025E-03    0.4463516732E-02
    0.1900000000E+03    0.6034961844E-05    0.6827897906E+00    0.9426642925E-04    0.3360341134E-03    0.4462588504E-02
    0.2100000000E+03    0.6582627291E-05    0.6839982672E+00    0.1039382832E-03    0.3714132254E-03    0.4461362256E-02
    0.2300000000E+03    0.7138429092E-05    0.6849996649E+00    0.1137159459E-03    0.4071334596E-03    0.4459892887E-02
    0.2500000000E+03    0.7702283286E-05    0.6858429883E+00    0.1236041488E-03    0.4432234233E-03    0.4458219506E-02
    0.2700000000E+03    0.8274193236E-05    0.6865629117E+00    0.1336077000E-03    0.4797087626E-03    0.4456370786E-02
    0.2900000000E+03    0.8854222254E-05    0.6871846598E+00    0.1437314080E-03    0.5166129581E-03    0.4454368232E-02
    0.3100000000E+03    0.9442476194E-05    0.6877270219E+00    0.1539800524E-03    0.5539578924E-03    0.4452228285E-02
    0.3300000000E+03    0.1003909211E-04    0.6882042807E+00    0.1643583773E-03    0.5917642654E-03    0.4449963696E-02
    0.3500000000E+03    0.1064423072E-04    0.6886274869E+00    0.1748710966E-03    0.6300519072E-03    0.4447584481E-02
    0.3700000000E+03    0.1125807131E-04    0.6890053246E+00    0.1855229044E-03    0.6688400174E-03    0.4445098570E-02
    0.3900000000E+03    0.1188080829E-04    0.6893447124E+00    0.1963184878E-03    0.7081473541E-03    0.4442512290E-02
    0.4100000000E+03    0.1251264875E-04    0.6896512306E+00    0.2072625411E-03    0.7479923844E-03    0.4439830699E-02
    0.4300000000E+03    0.1315381091E-04    0.6899294296E+00    0.2183597783E-03    0.7883934069E-03    0.4437057853E-02
    0.4500000000E+03    0.1380452294E-04    0.6901830570E+00    0.2296149470E-03    0.8293686537E-03    0.4434196987E-02
    0.4700000000E+03    0.1446502224E-04    0.6904152274E+00    0.2410328403E-03    0.8709363759E-03    0.4431250675E-02
    0.4900000000E+03    0.1513555499E-04    0.6906285503E+00    0.2526183085E-03    0.9131149180E-03    0.4428220932E-02
    0.1000000000E+03    0.3683658692E-05    0.6715723063E+00    0.5195903388E-04    0.1799971213E-03    0.4462791733E-02
    0.3000000000E+03    0.9147313171E-05    0.6874647832E+00    0.1488398159E-03    0.5352290155E-03    0.4453314562E-02
    0.5000000000E+03    0.1547466317E-04    0.6907288461E+00    0.2584754175E-03    0.9344390205E-03    0.4426675276E-02
    0.7000000000E+03    0.2285106608E-04    0.6921350336E+00    0.3856774916E-03    0.1397697731E-02    0.4391572648E-02
    0.9000000000E+03    0.3158579702E-04    0.6929174801E+00    0.5360975014E-03    0.1945984530E-02    0.4348166657E-02
    0.1100000000E+04    0.4210259742E-04    0.6934155177E+00    0.7171666136E-03    0.2606632396E-02    0.4294982957E-02
    0.1300000000E+04    0.5499596411E-04    0.6937601685E+00    0.9392174102E-03    0.3417618654E-02    0.4229421025E-02
    0.1500000000E+04    0.7112428504E-04    0.6940127121E+00    0.1217138468E-02    0.4433699935E-02    0.4147522477E-02
    0.1700000000E+04    0.9176237688E-04    0.6942056351E+00    0.1573041055E-02    0.5736276317E-02    0.4043358388E-02
    0.1900000000E+04    0.1188546752E-03    0.6943577617E+00    0.2040678583E-02    0.7449761872E-02    0.3907961462E-02
    0.2100000000E+04    0.1554310484E-03    0.6944807513E+00    0.2672720038E-02    0.9768605424E-02    0.3727618027E-02
    0.2300000000E+04    0.2062378448E-03    0.6945822103E+00    0.3551847111E-02    0.1299874874E-01    0.3481483838E-02
    0.2500000000E+04    0.2784188327E-03    0.6946673116E+00    0.4802941875E-02    0.1760396968E-01    0.3139766228E-02
    0.2700000000E+04    0.3809855993E-03    0.6947396959E+00    0.6584746463E-02    0.2417841068E-01    0.2669125741E-02
    0.2900000000E+04    0.5187722250E-03    0.6948019992E+00    0.8986275395E-02    0.3306988027E-01    0.2064788093E-02
    0.3100000000E+04    0.6771438462E-03    0.6948561770E+00    0.1176104022E-01    0.4339877287E-01    0.1418029195E-02
    0.3300000000E+04    0.8192032946E-03    0.6949037106E+00    0.1427245681E-01    0.5283345156E-01    0.9057731636E-03
    0.3500000000E+04    0.9213753623E-03    0.6949457424E+00    0.1610676448E-01    0.5983152785E-01    0.6130394168E-03
    0.3700000000E+04    0.9904911709E-03    0.6949831674E+00    0.1737589808E-01    0.6478051318E-01    0.4812412478E-03
    0.3900000000E+04    0.1041489961E-02    0.6950166971E+00    0.1833577336E-01    0.6861104085E-01    0.4291703737E-03
    0.4100000000E+04    0.1083904310E-02    0.6950469037E+00    0.1915084635E-01    0.7192568218E-01    0.4100347143E-03
    0.4300000000E+04    0.1122154531E-02    0.6950742530E+00    0.1989762019E-01    0.7500575481E-01    0.4035301407E-03
    0.4500000000E+04    0.1158076255E-02    0.6950991277E+00    0.2060786776E-01    0.7796817813E-01    0.4017300132E-03
    0.4700000000E+04    0.1192412976E-02    0.6951218453E+00    0.2129438473E-01    0.8085982354E-01    0.4016546929E-03
    0.4900000000E+04    0.1225474259E-02    0.6951426713E+00    0.2196240296E-01    0.8369954700E-01    0.4021979876E-03
    0.1000000000E+04    0.3658915921E-04    0.6931914119E+00    0.6222389388E-03    0.2260198024E-02    0.4322932389E-02
    0.3000000000E+04    0.5974411400E-03    0.6948300020E+00    0.1036225965E-01    0.3818293715E-01    0.1736032771E-02
    0.5000000000E+04    0.1241573721E-02    0.6951524463E+00    0.2229024322E-01    0.8510261233E-01    0.4025610479E-03
    0.7000000000E+04    0.1513051740E-02    0.6952881285E+00    0.2812246819E-01    0.1112191252E+00    0.4100520279E-03
    0.9000000000E+04    0.1707124235E-02    0.6953620757E+00    0.3281103654E-01    0.1341962008E+00    0.4158410952E-03
    0.1100000000E+05    0.1844069689E-02    0.6954082064E+00    0.3661120211E-01    0.1546311906E+00    0.4205177639E-03
    0.1300000000E+05    0.1938346486E-02    0.6954394936E+00    0.3971024654E-01    0.1729729237E+00    0.4244486756E-03
    0.1500000000E+05    0.2000462822E-02    0.6954619564E+00    0.4224868161E-01    0.1895669785E+00    0.4278437108E-03
    0.1700000000E+05    0.2038169086E-02    0.6954787629E+00    0.4433372604E-01    0.2046840458E+00    0.4308345003E-03
    0.1900000000E+05    0.2057254806E-02    0.6954917361E+00    0.4604842084E-01    0.2185394027E+00    0.4335091537E-03
    0.2100000000E+05    0.2062092708E-02    0.6955019979E+00    0.4745793564E-01    0.2313065880E+00    0.4359296063E-03
    0.2300000000E+05    0.2056017181E-02    0.6955102753E+00    0.4861402032E-01    0.2431272006E+00    0.4381410875E-03
    0.2500000000E+05    0.2041591973E-02    0.6955170597E+00    0.4955820433E-01    0.2541180462E+00    0.4401776547E-03
    0.2700000000E+05    0.2020802397E-02    0.6955226946E+00    0.5032413348E-01    0.2643764366E+00    0.4420656057E-03
    0.2900000000E+05    0.1995195202E-02    0.6955274273E+00    0.5093930188E-01    0.2739841746E+00    0.4438256779E-03
    0.3100000000E+05    0.1965981595E-02    0.6955314401E+00    0.5142635270E-01    0.2830105935E+00    0.4454745186E-03
    0.3300000000E+05    0.1934113980E-02    0.6955348700E+00    0.5180406714E-01    0.2915149012E+00    0.4470256983E-03
    0.3500000000E+05    0.1900343676E-02    0.6955378223E+00    0.5208812458E-01    0.2995480105E+00    0.4484904275E-03
    0.3700000000E+05    0.1865264741E-02    0.6955403787E+00    0.5229169296E-01    0.3071539812E+00    0.4498780759E-03
    0.3900000000E+05    0.1829347518E-02    0.6955426039E+00    0.5242589158E-01    0.3143711685E+00    0.4511965564E-03
    0.4100000000E+05    0.1792964516E-02    0.6955445495E+00    0.5250015711E-01    0.3212331448E+00    0.4524526132E-03
    0.4300000000E+05    0.1756410515E-02    0.6955462573E+00    0.5252253533E-01    0.3277694461E+00    0.4536520421E-03
    0.4500000000E+05    0.1719918283E-02    0.6955477613E+00    0.5249991549E-01    0.3340061808E+00    0.4547998608E-03
    0.4700000000E+05    0.1683670944E-02    0.6955490898E+00    0.5243821984E-01    0.3399665300E+00    0.4559004432E-03
    0.4900000000E+05    0.1647811756E-02    0.6955502659E+00    0.5234255800E-01    0.3456711607E+00    0.4569576250E-03
    0.1000000000E+05    0.1781724065E-02    0.6953875625E+00    0.3480917121E-01    0.1447005728E+00    0.4182904470E-03
    0.3000000000E+05    0.1980974364E-02    0.6955295142E+00    0.5119758750E-01    0.2785661347E+00    0.4446630915E-03
    0.5000000000E+05    0.1630063531E-02    0.6955508031E+00    0.5228339587E-01    0.3484334386E+00    0.4574710136E-03
    0.7000000000E+05    0.1311245503E-02    0.6955569571E+00    0.5012438982E-01    0.3938658556E+00    0.4661058849E-03
    0.9000000000E+05    0.1065739507E-02    0.6955587159E+00    0.4722446544E-01    0.4266334832E+00    0.4726607011E-03
    0.1100000000E+06    0.8797934247E-03    0.6955587692E+00    0.4428780935E-01    0.4517344323E+00    0.4779603686E-03
    0.1300000000E+06    0.7374475830E-03    0.6955580616E+00    0.4153056870E-01    0.4717398493E+00    0.4824173184E-03
    0.1500000000E+06    0.6266656934E-03    0.6955569924E+00    0.3901053668E-01    0.4881410463E+00    0.4862681123E-03
    0.1700000000E+06    0.5389812931E-03    0.6955557510E+00    0.3672983619E-01    0.5018768764E+00    0.4896613181E-03
    0.1900000000E+06    0.4684789841E-03    0.6955544341E+00    0.3467124604E-01    0.5135745662E+00    0.4926964819E-03
    0.2100000000E+06    0.4109808447E-03    0.6955530939E+00    0.3281200108E-01    0.5236724451E+00    0.4954436302E-03
    0.2300000000E+06    0.3634884119E-03    0.6955517591E+00    0.3112914862E-01    0.5324878443E+00    0.4979539315E-03
    0.2500000000E+06    0.3238126209E-03    0.6955504456E+00    0.2960153294E-01    0.5402571319E+00    0.5002659334E-03
    0.2700000000E+06    0.2903285442E-03    0.6955491622E+00    0.2821038909E-01    0.5471605517E+00    0.5024094125E-03
    0.2900000000E+06    0.2618110622E-03    0.6955479134E+00    0.2693936538E-01    0.5533382871E+00    0.5044078570E-03
    0.3100000000E+06    0.2373230932E-03    0.6955467012E+00    0.2577432544E-01    0.5589012141E+00    0.5062801278E-03
    0.3300000000E+06    0.2161383341E-03    0.6955455262E+00    0.2470308222E-01    0.5639383126E+00    0.5080416030E-03
    0.3500000000E+06    0.1976869887E-03    0.6955443879E+00    0.2371512875E-01    0.5685219042E+00    0.5097049891E-03
    0.3700000000E+06    0.1815170530E-03    0.6955432853E+00    0.2280139160E-01    0.5727114333E+00    0.5112809086E-03
    0.3900000000E+06    0.1672662933E-03    0.6955422171E+00    0.2195401517E-01    0.5765562504E+00    0.5127783330E-03
    0.4100000000E+06    0.1546416849E-03    0.6955411820E+00    0.2116617727E-01    0.5800976943E+00    0.5142049104E-03
    0.4300000000E+06    0.1434041339E-03    0.6955401785E+00    0.2043193325E-01    0.5833706729E+00    0.5155672137E-03
    0.4500000000E+06    0.1333569889E-03    0.6955392051E+00    0.1974608519E-01    0.5864048811E+00    0.5168709346E-03
    0.4700000000E+06    0.1243373076E-03    0.6955382603E+00    0.1910407222E-01    0.5892257480E+00    0.5181210343E-03
    0.4900000000E+06    0.1162091493E-03    0.6955373427E+00    0.1850187865E-01    0.5918551839E+00    0.5193218647E-03
    0.1000000000E+06    0.9663999040E-03    0.6955588771E+00    0.4574146262E-01    0.4399467567E+00    0.4754359163E-03
    0.3000000000E+06    0.2491129959E-03    0.6955473027E+00    0.2634440159E-01    0.5561905971E+00    0.5053587322E-03
    0.5000000000E+06    0.1124429888E-03    0.6955368937E+00    0.1821458907E-01    0.5931041486E+00    0.5199050211E-03
    0.7000000000E+06    0.6399623130E-04    0.6955290516E+00    0.1388511167E-01    0.6115356670E+00    0.5297141090E-03
    0.9000000000E+06    0.4134427603E-04    0.6955228053E+00    0.1120669384E-01    0.6226146367E+00    0.5371610349E-03
    0.1100000000E+07    0.2893623166E-04    0.6955176169E+00    0.9388699428E-02    0.6300137339E+00    0.5431823220E-03
    0.1300000000E+07    0.2140139151E-04    0.6955131776E+00    0.8074865061E-02    0.6353061549E+00    0.5482463205E-03
    0.1500000000E+07    0.1648092604E-04    0.6955092956E+00    0.7081467373E-02    0.6392796013E+00    0.5526217058E-03
    0.1700000000E+07    0.1308922673E-04    0.6955058446E+00    0.6304267368E-02    0.6423724356E+00    0.5564772309E-03
    0.1900000000E+07    0.1065146094E-04    0.6955027367E+00    0.5679761301E-02    0.6448480997E+00    0.5599259740E-03
    0.2100000000E+07    0.8839940629E-05    0.6954999087E+00    0.5167069596E-02    0.6468744758E+00    0.5630474856E-03
    0.2300000000E+07    0.7456670456E-05    0.6954973132E+00    0.4738693295E-02    0.6485636210E+00    0.5658998955E-03
    0.2500000000E+07    0.6376244887E-05    0.6954949141E+00    0.4375457515E-02    0.6499931931E+00    0.5685269971E-03
    0.2700000000E+07    0.5516078298E-05    0.6954926831E+00    0.4063585591E-02    0.6512187100E+00    0.5709626198E-03
    0.2900000000E+07    0.4819971419E-05    0.6954905977E+00    0.3792925630E-02    0.6522809149E+00    0.5732334496E-03
    0.3100000000E+07    0.4248595911E-05    0.6954886397E+00    0.3555832765E-02    0.6532103843E+00    0.5753609154E-03
    0.3300000000E+07    0.3773756826E-05    0.6954867939E+00    0.3346440788E-02    0.6540305124E+00    0.5773624894E-03
    0.3500000000E+07    0.3374810376E-05    0.6954850479E+00    0.3160173650E-02    0.6547595031E+00    0.5792526088E-03
    0.3700000000E+07    0.3036358587E-05    0.6954833912E+00    0.2993409507E-02    0.6554117334E+00    0.5810433425E-03
    0.3900000000E+07    0.2746725715E-05    0.6954818149E+00    0.2843244492E-02    0.6559987084E+00    0.5827448846E-03
    0.4100000000E+07    0.2496927358E-05    0.6954803113E+00    0.2707323325E-02    0.6565297446E+00    0.5843659246E-03
    0.4300000000E+07    0.2279958148E-05    0.6954788739E+00    0.2583715699E-02    0.6570124664E+00    0.5859139311E-03
    0.4500000000E+07    0.2090290227E-05    0.6954774970E+00    0.2470824629E-02    0.6574531733E+00    0.5873953710E-03
    0.4700000000E+07    0.1923514076E-05    0.6954761754E+00    0.2367317533E-02    0.6578571159E+00    0.5888158818E-03
    0.4900000000E+07    0.1776077308E-05    0.6954749049E+00    0.2272073724E-02    0.6582287053E+00    0.5901804080E-03
    0.1000000000E+07    0.3430809537E-04    0.6955201018E+00    0.1021820378E-01    0.6266490664E+00    0.5403141004E-03
    0.3000000000E+07    0.4520665549E-05    0.6954896038E+00    0.3670585000E-02    0.6527606382E+00    0.5743139306E-03
    0.5000000000E+07    0.1708686969E-05    0.6954742875E+00    0.2227248122E-02    0.6584035570E+00    0.5908430600E-03
    0.7000000000E+07    0.8956387245E-06    0.6954638719E+00    0.1595759594E-02    0.6608649282E+00    0.6019893454E-03
    0.9000000000E+07    0.5520121467E-06    0.6954559322E+00    0.1242022709E-02    0.6622427284E+00    0.6104514721E-03
    0.1100000000E+08    0.3748989279E-06    0.6954494967E+00    0.1016013189E-02    0.6631230322E+00    0.6172936119E-03
    0.1300000000E+08    0.2716408090E-06    0.6954440753E+00    0.8592163659E-03    0.6637339182E+00    0.6230479585E-03
    0.1500000000E+08    0.2061486382E-06    0.6954393852E+00    0.7441048787E-03    0.6641825681E+00    0.6280198132E-03
    0.1700000000E+08    0.1619808549E-06    0.6954352485E+00    0.6560309547E-03    0.6645259859E+00    0.6324009347E-03
    0.1900000000E+08    0.1307690663E-06    0.6954315453E+00    0.5864852279E-03    0.6647972792E+00    0.6363198172E-03
    0.2100000000E+08    0.1078859962E-06    0.6954281914E+00    0.5301874156E-03    0.6650169911E+00    0.6398668561E-03
    0.2300000000E+08    0.9060269875E-07    0.6954251249E+00    0.4836879894E-03    0.6651985427E+00    0.6431081063E-03
    0.2500000000E+08    0.7722450554E-07    0.6954222993E+00    0.4446383796E-03    0.6653510725E+00    0.6460933316E-03
    0.2700000000E+08    0.6665353235E-07    0.6954196785E+00    0.4113844076E-03    0.6654810181E+00    0.6488609736E-03
