  Pressure (Pa) 23mC5-500 (mol/kg) 24mC5-500 (mol/kg) 2mC6-500 (mol/kg) 3mC6-500 (mol/kg) C7-500 (mol/kg)
    0.1000000000E+01    0.6521679632E-06    0.1266305771E+00    0.2370703503E-04    0.4492059909E-05    0.4168652145E-02
    0.3000000000E+01    0.1344398883E-05    0.2785167441E+00    0.4679355077E-04    0.1131045152E-04    0.4196227429E-02
    0.5000000000E+01    0.1694125912E-05    0.3664187366E+00    0.5765444106E-04    0.1754896022E-04    0.4208455155E-02
    0.7000000000E+01    0.1899636195E-05    0.4237350978E+00    0.6402961605E-04    0.2351402865E-04    0.4215809045E-02
    0.9000000000E+01    0.2034833938E-05    0.4640643842E+00    0.6854730491E-04    0.2930794323E-04    0.4220675934E-02
    0.1100000000E+02    0.2132482620E-05    0.4939841245E+00    0.7225882816E-04    0.3498157674E-04    0.4224065983E-02
    0.1300000000E+02    0.2208847472E-05    0.5170641182E+00    0.7562882725E-04    0.4056507601E-04    0.4226499377E-02
    0.1500000000E+02    0.2272675809E-05    0.5354092836E+00    0.7887568189E-04    0.4607823827E-04    0.4228275040E-02
    0.1700000000E+02    0.2328958365E-05    0.5503411580E+00    0.8210536591E-04    0.5153498356E-04    0.4229578013E-02
    0.1900000000E+02    0.2380673136E-05    0.5627313195E+00    0.8536941025E-04    0.5694559103E-04    0.4230529330E-02
    0.2100000000E+02    0.2429659264E-05    0.5731778717E+00    0.8869187863E-04    0.6231793711E-04    0.4231211644E-02
    0.2300000000E+02    0.2477082792E-05    0.5821049044E+00    0.9208263001E-04    0.6765823446E-04    0.4231683388E-02
    0.2500000000E+02    0.2523697600E-05    0.5898214889E+00    0.9554411675E-04    0.7297149903E-04    0.4231987081E-02
    0.2700000000E+02    0.2569997755E-05    0.5965581958E+00    0.9907497807E-04    0.7826185914E-04    0.4232154414E-02
    0.2900000000E+02    0.2616309590E-05    0.6024905305E+00    0.1026719797E-03    0.8353276783E-04    0.4232209504E-02
    0.3100000000E+02    0.2662848998E-05    0.6077544458E+00    0.1063310719E-03    0.8878715326E-04    0.4232171035E-02
    0.3300000000E+02    0.2709757996E-05    0.6124568899E+00    0.1100479661E-03    0.9402752817E-04    0.4232053711E-02
    0.3500000000E+02    0.2757128552E-05    0.6166831497E+00    0.1138184428E-03    0.9925607125E-04    0.4231869260E-02
    0.3700000000E+02    0.2805018405E-05    0.6205020711E+00    0.1176385098E-03    0.1044746889E-03    0.4231627157E-02
    0.3900000000E+02    0.2853461735E-05    0.6239698382E+00    0.1215044739E-03    0.1096850628E-03    0.4231335138E-02
    0.4100000000E+02    0.2902476458E-05    0.6271327565E+00    0.1254129658E-03    0.1148886875E-03    0.4230999583E-02
    0.4300000000E+02    0.2952069266E-05    0.6300293327E+00    0.1293609380E-03    0.1200868994E-03    0.4230625799E-02
    0.4500000000E+02    0.3002239148E-05    0.6326918500E+00    0.1333456490E-03    0.1252809015E-03    0.4230218239E-02
    0.4700000000E+02    0.3052979866E-05    0.6351475768E+00    0.1373646409E-03    0.1304717816E-03    0.4229780662E-02
    0.4900000000E+02    0.3104281705E-05    0.6374197040E+00    0.1414157145E-03    0.1356605292E-03    0.4229316271E-02
    0.1000000000E+02    0.2087092221E-05    0.4800561587E+00    0.7046657631E-04    0.3215759079E-04    0.4222515944E-02
    0.3000000000E+02    0.2639540567E-05    0.6051987751E+00    0.1044940315E-03    0.8616186023E-04    0.4232200966E-02
    0.5000000000E+02    0.3130139370E-05    0.6384932342E+00    0.1434526591E-03    0.1382543888E-03    0.4229074892E-02
    0.7000000000E+02    0.3673469171E-05    0.6539118725E+00    0.1854993742E-03    0.1902041092E-03    0.4223334368E-02
    0.9000000000E+02    0.4258365906E-05    0.6628042128E+00    0.2294636085E-03    0.2426398252E-03    0.4216542340E-02
    0.1100000000E+03    0.4876550598E-05    0.6685900679E+00    0.2749554498E-03    0.2959045486E-03    0.4209162633E-02
    0.1300000000E+03    0.5523610664E-05    0.6726551986E+00    0.3218541941E-03    0.3502289049E-03    0.4201375184E-02
    0.1500000000E+03    0.6197346796E-05    0.6756678342E+00    0.3701450907E-03    0.4057899414E-03    0.4193259485E-02
    0.1700000000E+03    0.6896811797E-05    0.6779898590E+00    0.4198610354E-03    0.4627365690E-03    0.4184852086E-02
    0.1900000000E+03    0.7621806374E-05    0.6798343129E+00    0.4710592072E-03    0.5212023950E-03    0.4176168596E-02
    0.2100000000E+03    0.8372608794E-05    0.6813347818E+00    0.5238109036E-03    0.5813129560E-03    0.4167213330E-02
    0.2300000000E+03    0.9149824570E-05    0.6825792791E+00    0.5781969011E-03    0.6431901770E-03    0.4157983951E-02
    0.2500000000E+03    0.9954300243E-05    0.6836281523E+00    0.6343053314E-03    0.7069553408E-03    0.4148473877E-02
    0.2700000000E+03    0.1078707304E-04    0.6845241615E+00    0.6922307851E-03    0.7727312131E-03    0.4138673593E-02
    0.2900000000E+03    0.1164934152E-04    0.6852984510E+00    0.7520740547E-03    0.8406436701E-03    0.4128571383E-02
    0.3100000000E+03    0.1254244908E-04    0.6859742432E+00    0.8139422315E-03    0.9108230271E-03    0.4118153750E-02
    0.3300000000E+03    0.1346787569E-04    0.6865692063E+00    0.8779490152E-03    0.9834051892E-03    0.4107405648E-02
    0.3500000000E+03    0.1442723517E-04    0.6870970214E+00    0.9442151621E-03    0.1058532700E-02    0.4096310607E-02
    0.3700000000E+03    0.1542227632E-04    0.6875684470E+00    0.1012869036E-02    0.1136355743E-02    0.4084850773E-02
    0.3900000000E+03    0.1645488704E-04    0.6879920599E+00    0.1084047240E-02    0.1217033124E-02    0.4073006911E-02
    0.4100000000E+03    0.1752710076E-04    0.6883747816E+00    0.1157895331E-02    0.1300733274E-02    0.4060758368E-02
    0.4300000000E+03    0.1864110481E-04    0.6887222592E+00    0.1234568599E-02    0.1387635281E-02    0.4048083011E-02
    0.4500000000E+03    0.1979925062E-04    0.6890391455E+00    0.1314232929E-02    0.1477929980E-02    0.4034957141E-02
    0.4700000000E+03    0.2100406553E-04    0.6893293093E+00    0.1397065750E-02    0.1571821109E-02    0.4021355391E-02
    0.4900000000E+03    0.2225826633E-04    0.6895959931E+00    0.1483257059E-02    0.1669526549E-02    0.4007250608E-02
    0.1000000000E+03    0.4563640720E-05    0.6659739776E+00    0.2520297115E-03    0.2691524508E-03    0.4212911222E-02
    0.3000000000E+03    0.1209195106E-04    0.6856474462E+00    0.7827480830E-03    0.8754416357E-03    0.4123402900E-02
    0.5000000000E+03    0.2290479095E-04    0.6897214027E+00    0.1527675235E-02    0.1719881919E-02    0.4000000571E-02
    0.7000000000E+03    0.3929830394E-04    0.6914816639E+00    0.2652763772E-02    0.2996360328E-02    0.3820030295E-02
    0.9000000000E+03    0.6624617235E-04    0.6924631284E+00    0.4502327651E-02    0.5098901450E-02    0.3535664375E-02
    0.1100000000E+04    0.1148465861E-03    0.6930889190E+00    0.7844023290E-02    0.8907874447E-02    0.3046281889E-02
    0.1300000000E+04    0.2067086756E-03    0.6935226582E+00    0.1418296520E-01    0.1616263594E-01    0.2180765083E-02
    0.1500000000E+04    0.3453834116E-03    0.6938409563E+00    0.2382201388E-01    0.2727903235E-01    0.1021872082E-02
    0.1700000000E+04    0.4553913829E-03    0.6940844628E+00    0.3160228065E-01    0.3641194656E-01    0.3322869576E-03
    0.1900000000E+04    0.5156239094E-03    0.6942767494E+00    0.3601454464E-01    0.4177227342E-01    0.1559754737E-03
    0.2100000000E+04    0.5580941537E-03    0.6944324257E+00    0.3923504904E-01    0.4581266302E-01    0.1247666987E-03
    0.2300000000E+04    0.5951898657E-03    0.6945610285E+00    0.4211353025E-01    0.4950024375E-01    0.1200110736E-03
    0.2500000000E+04    0.6295755935E-03    0.6946690477E+00    0.4483180984E-01    0.5304114146E-01    0.1196680152E-03
    0.2700000000E+04    0.6618480746E-03    0.6947610527E+00    0.4742879065E-01    0.5647754929E-01    0.1200340502E-03
    0.2900000000E+04    0.6922165699E-03    0.6948403541E+00    0.4991660363E-01    0.5982092046E-01    0.1204925355E-03
    0.3100000000E+04    0.7208130595E-03    0.6949094091E+00    0.5230217578E-01    0.6307685823E-01    0.1209422015E-03
    0.3300000000E+04    0.7477486476E-03    0.6949700797E+00    0.5459116123E-01    0.6624966774E-01    0.1213685118E-03
    0.3500000000E+04    0.7731243299E-03    0.6950238028E+00    0.5678868215E-01    0.6934320594E-01    0.1217713914E-03
    0.3700000000E+04    0.7970334918E-03    0.6950717047E+00    0.5889948925E-01    0.7236105493E-01    0.1221529056E-03
    0.3900000000E+04    0.8195628511E-03    0.6951146809E+00    0.6092801378E-01    0.7530656934E-01    0.1225151822E-03
    0.4100000000E+04    0.8407930678E-03    0.6951534523E+00    0.6287839730E-01    0.7818289875E-01    0.1228601027E-03
    0.4300000000E+04    0.8607992505E-03    0.6951886058E+00    0.6475451537E-01    0.8099300417E-01    0.1231892942E-03
    0.4500000000E+04    0.8796514076E-03    0.6952206238E+00    0.6655999850E-01    0.8373967233E-01    0.1235041660E-03
    0.4700000000E+04    0.8974148529E-03    0.6952499068E+00    0.6829825099E-01    0.8642552853E-01    0.1238059445E-03
    0.4900000000E+04    0.9141505760E-03    0.6952767898E+00    0.6997246806E-01    0.8905304833E-01    0.1240957041E-03
    0.1000000000E+04    0.8674706814E-04    0.6928072021E+00    0.5910931632E-02    0.6703033303E-02    0.3326093942E-02
    0.3000000000E+04    0.7067290813E-03    0.6948760344E+00    0.5112180040E-01    0.6145953495E-01    0.1207200275E-03
    0.5000000000E+04    0.9221510014E-03    0.6952894214E+00    0.7078650853E-01    0.9034566741E-01    0.1242363769E-03
    0.7000000000E+04    0.1040220194E-02    0.6954659475E+00    0.8434559843E-01    0.1136387282E+00    0.1265990186E-03
    0.9000000000E+04    0.1101880322E-02    0.6955636120E+00    0.9400922384E-01    0.1330962145E+00    0.1283891422E-03
    0.1100000000E+05    0.1129480334E-02    0.6956254903E+00    0.1010560784E+00    0.1497836312E+00    0.1298349253E-03
    0.1300000000E+05    0.1135941504E-02    0.6956681353E+00    0.1062736862E+00    0.1643883094E+00    0.1310499671E-03
    0.1500000000E+05    0.1129071309E-02    0.6956992635E+00    0.1101714908E+00    0.1773758353E+00    0.1320992553E-03
    0.1700000000E+05    0.1113752077E-02    0.6957229549E+00    0.1130923668E+00    0.1890743032E+00    0.1330235316E-03
    0.1900000000E+05    0.1093119906E-02    0.6957415689E+00    0.1152747334E+00    0.1997225877E+00    0.1338500592E-03
    0.2100000000E+05    0.1069231405E-02    0.6957565641E+00    0.1168889645E+00    0.2094994373E+00    0.1345979981E-03
    0.2300000000E+05    0.1043456335E-02    0.6957688904E+00    0.1180596625E+00    0.2185417663E+00    0.1352813376E-03
    0.2500000000E+05    0.1016716811E-02    0.6957791928E+00    0.1188797849E+00    0.2269565756E+00    0.1359106101E-03
    0.2700000000E+05    0.9896372985E-03    0.6957879248E+00    0.1194198863E+00    0.2348289644E+00    0.1364939476E-03
    0.2900000000E+05    0.9626410303E-03    0.6957954139E+00    0.1197343293E+00    0.2422276610E+00    0.1370377617E-03
    0.3100000000E+05    0.9360133185E-03    0.6958019032E+00    0.1198655592E+00    0.2492089316E+00    0.1375471993E-03
    0.3300000000E+05    0.9099439033E-03    0.6958075762E+00    0.1198471071E+00    0.2558194007E+00    0.1380264555E-03
    0.3500000000E+05    0.8845557385E-03    0.6958125745E+00    0.1197057393E+00    0.2620981247E+00    0.1384789958E-03
    0.3700000000E+05    0.8599248309E-03    0.6958170089E+00    0.1194630222E+00    0.2680781409E+00    0.1389077165E-03
    0.3900000000E+05    0.8360940785E-03    0.6958209672E+00    0.1191364781E+00    0.2737876436E+00    0.1393150633E-03
    0.4100000000E+05    0.8130830224E-03    0.6958245201E+00    0.1187404505E+00    0.2792508875E+00    0.1397031209E-03
    0.4300000000E+05    0.7908947796E-03    0.6958277250E+00    0.1182867609E+00    0.2844888920E+00    0.1400736804E-03
    0.4500000000E+05    0.7695210046E-03    0.6958306290E+00    0.1177852111E+00    0.2895199950E+00    0.1404282927E-03
    0.4700000000E+05    0.7489454621E-03    0.6958332712E+00    0.1172439738E+00    0.2943602939E+00    0.1407683095E-03
    0.4900000000E+05    0.7291466083E-03    0.6958356842E+00    0.1166698970E+00    0.2990239998E+00    0.1410949162E-03
    0.1000000000E+05    0.1118974320E-02    0.6955976792E+00    0.9780219847E-01    0.1417366761E+00    0.1291463889E-03
    0.3000000000E+05    0.9492673962E-03    0.6957987709E+00    0.1198205699E+00    0.2457673619E+00    0.1372964960E-03
    0.5000000000E+05    0.7195307272E-03    0.6958368135E+00    0.1163723818E+00    0.3012936273E+00    0.1412535223E-03
    0.7000000000E+05    0.5613415135E-03    0.6958522018E+00    0.1097003952E+00    0.3398491063E+00    0.1439211300E-03
    0.9000000000E+05    0.4513330239E-03    0.6958602381E+00    0.1028775492E+00    0.3693735281E+00    0.1459460964E-03
    0.1100000000E+06    0.3718695721E-03    0.6958650226E+00    0.9654634552E-01    0.3931726176E+00    0.1475832981E-03
    0.1300000000E+06    0.3124447935E-03    0.6958681047E+00    0.9082122676E-01    0.4129796916E+00    0.1489601582E-03
    0.1500000000E+06    0.2667082337E-03    0.6958701946E+00    0.8567763104E-01    0.4298328339E+00    0.1501497606E-03
    0.1700000000E+06    0.2306630706E-03    0.6958716615E+00    0.8105554177E-01    0.4444095430E+00    0.1511980036E-03
    0.1900000000E+06    0.2016909105E-03    0.6958727153E+00    0.7689066322E-01    0.4571792250E+00    0.1521356396E-03
    0.2100000000E+06    0.1780145874E-03    0.6958734834E+00    0.7312388726E-01    0.4684816916E+00    0.1529843020E-03
    0.2300000000E+06    0.1583905551E-03    0.6958740474E+00    0.6970362268E-01    0.4785713247E+00    0.1537597978E-03
    0.2500000000E+06    0.1419255547E-03    0.6958744616E+00    0.6658572159E-01    0.4876436602E+00    0.1544740352E-03
    0.2700000000E+06    0.1279632516E-03    0.6958747634E+00    0.6373265953E-01    0.4958522594E+00    0.1551362128E-03
    0.2900000000E+06    0.1160117991E-03    0.6958749794E+00    0.6111256618E-01    0.5033198804E+00    0.1557535867E-03
    0.3100000000E+06    0.1056961913E-03    0.6958751290E+00    0.5869831528E-01    0.5101461388E+00    0.1563319832E-03
    0.3300000000E+06    0.9672610844E-04    0.6958752263E+00    0.5646673573E-01    0.5164129145E+00    0.1568761529E-03
    0.3500000000E+06    0.8887371902E-04    0.6958752823E+00    0.5439795055E-01    0.5221882631E+00    0.1573900212E-03
    0.3700000000E+06    0.8195804163E-04    0.6958753051E+00    0.5247483131E-01    0.5275293051E+00    0.1578768694E-03
    0.3900000000E+06    0.7583372712E-04    0.6958753012E+00    0.5068255047E-01    0.5324843999E+00    0.1583394691E-03
    0.4100000000E+06    0.7038287916E-04    0.6958752755E+00    0.4900821444E-01    0.5370948074E+00    0.1587801827E-03
    0.4300000000E+06    0.6550900160E-04    0.6958752322E+00    0.4744056246E-01    0.5413959764E+00    0.1592010409E-03
    0.4500000000E+06    0.6113245933E-04    0.6958751744E+00    0.4596971856E-01    0.5454185554E+00    0.1596038018E-03
    0.4700000000E+06    0.5718703234E-04    0.6958751046E+00    0.4458698670E-01    0.5491891954E+00    0.1599899982E-03
    0.4900000000E+06    0.5361727006E-04    0.6958750251E+00    0.4328468059E-01    0.5527311936E+00    0.1603609742E-03
    0.1000000000E+06    0.4085663539E-03    0.6958629104E+00    0.9963789921E-01    0.3818580368E+00    0.1468034318E-03
    0.3000000000E+06    0.1106693457E-03    0.6958750615E+00    0.5988124296E-01    0.5068076985E+00    0.1560473383E-03
    0.5000000000E+06    0.5195836505E-04    0.6958749822E+00    0.4266152595E-01    0.5544229456E+00    0.1605411307E-03
    0.7000000000E+06    0.3028747614E-04    0.6958738983E+00    0.3311392738E-01    0.5801181035E+00    0.1635715075E-03
    0.9000000000E+06    0.1987822342E-04    0.6958727087E+00    0.2704571678E-01    0.5962610791E+00    0.1658721586E-03
    0.1100000000E+07    0.1406851724E-04    0.6958715743E+00    0.2284869895E-01    0.6073556874E+00    0.1677323931E-03
    0.1300000000E+07    0.1049187593E-04    0.6958705251E+00    0.1977357522E-01    0.6154526570E+00    0.1692968942E-03
    0.1500000000E+07    0.8131725624E-05    0.6958695606E+00    0.1742397913E-01    0.6216228706E+00    0.1706486617E-03
    0.1700000000E+07    0.6491456341E-05    0.6958686727E+00    0.1557054653E-01    0.6264809371E+00    0.1718398276E-03
    0.1900000000E+07    0.5304688365E-05    0.6958678522E+00    0.1407134127E-01    0.6304050421E+00    0.1729053246E-03
    0.2100000000E+07    0.4417967957E-05    0.6958670905E+00    0.1283382597E-01    0.6336407346E+00    0.1738697281E-03
    0.2300000000E+07    0.3737767255E-05    0.6958663805E+00    0.1179509505E-01    0.6363544148E+00    0.1747509960E-03
    0.2500000000E+07    0.3204414151E-05    0.6958657157E+00    0.1091089587E-01    0.6386628565E+00    0.1755626575E-03
    0.2700000000E+07    0.2778366534E-05    0.6958650909E+00    0.1014919411E-01    0.6406504273E+00    0.1763151636E-03
    0.2900000000E+07    0.2432571412E-05    0.6958645017E+00    0.9486230582E-02    0.6423796017E+00    0.1770167583E-03
    0.3100000000E+07    0.2148008376E-05    0.6958639442E+00    0.8904012236E-02    0.6438976300E+00    0.1776740618E-03
    0.3300000000E+07    0.1910985341E-05    0.6958634152E+00    0.8388663741E-02    0.6452409091E+00    0.1782924719E-03
    0.3500000000E+07    0.1711440670E-05    0.6958629118E+00    0.7929313814E-02    0.6464379293E+00    0.1788764488E-03
    0.3700000000E+07    0.1541845084E-05    0.6958624318E+00    0.7517324367E-02    0.6475113101E+00    0.1794297209E-03
    0.3900000000E+07    0.1396472724E-05    0.6958619730E+00    0.7145745364E-02    0.6484792382E+00    0.1799554376E-03
    0.4100000000E+07    0.1270905966E-05    0.6958615336E+00    0.6808921896E-02    0.6493565023E+00    0.1804562834E-03
    0.4300000000E+07    0.1161692039E-05    0.6958611120E+00    0.6502206086E-02    0.6501552510E+00    0.1809345658E-03
    0.4500000000E+07    0.1066100456E-05    0.6958607068E+00    0.6221742600E-02    0.6508855568E+00    0.1813922824E-03
    0.4700000000E+07    0.9819487907E-06    0.6958603168E+00    0.5964306724E-02    0.6515558411E+00    0.1818311751E-03
    0.4900000000E+07    0.9074756159E-06    0.6958599407E+00    0.5727180561E-02    0.6521731992E+00    0.1822527713E-03
    0.1000000000E+07    0.1659482752E-04    0.6958721315E+00    0.2477186430E-01    0.6022784750E+00    0.1668462738E-03
    0.3000000000E+07    0.2283592951E-05    0.6958642192E+00    0.9185976887E-02    0.6431625199E+00    0.1773505842E-03
    0.5000000000E+07    0.8734094992E-06    0.6958597577E+00    0.5615498847E-02    0.6524639485E+00    0.1824575106E-03
    0.7000000000E+07    0.4609367070E-06    0.6958566390E+00    0.4036644645E-02    0.6565736426E+00    0.1859014082E-03
    0.9000000000E+07    0.2855827384E-06    0.6958542303E+00    0.3147679911E-02    0.6588874959E+00    0.1885160189E-03
    0.1100000000E+08    0.1948560185E-06    0.6958522627E+00    0.2577973127E-02    0.6603706242E+00    0.1906301176E-03
    0.1300000000E+08    0.1418111413E-06    0.6958505962E+00    0.2181934549E-02    0.6614018909E+00    0.1924081272E-03
    0.1500000000E+08    0.1080888419E-06    0.6958491488E+00    0.1890767327E-02    0.6621602788E+00    0.1939443726E-03
    0.1700000000E+08    0.8530066117E-07    0.6958478683E+00    0.1667750314E-02    0.6627413150E+00    0.1952980993E-03
    0.1900000000E+08    0.6916756372E-07    0.6958467192E+00    0.1491502513E-02    0.6632006218E+00    0.1965090071E-03
    0.2100000000E+08    0.5731923193E-07    0.6958456762E+00    0.1348733304E-02    0.6635727768E+00    0.1976050250E-03
    0.2300000000E+08    0.4835566769E-07    0.6958447210E+00    0.1230748110E-02    0.6638804025E+00    0.1986065616E-03
    0.2500000000E+08    0.4140634773E-07    0.6958438394E+00    0.1131620677E-02    0.6641389204E+00    0.1995289922E-03
    0.2700000000E+08    0.3590665839E-07    0.6958430207E+00    0.1047173047E-02    0.6643592037E+00    0.2003841942E-03
