  Pressure (Pa) 23mC5-500 (mol/kg) 24mC5-500 (mol/kg) 2mC6-500 (mol/kg) 3mC6-500 (mol/kg) C7-500 (mol/kg)
    0.1000000000E+01    0.7188297424E-06    0.6965013442E-01    0.1306473065E-04    0.6186683790E-05    0.4205833716E-02
    0.3000000000E+01    0.1720899505E-05    0.1740809446E+00    0.3029348275E-04    0.1590940054E-04    0.4275770992E-02
    0.5000000000E+01    0.2379072527E-05    0.2486425874E+00    0.4093137853E-04    0.2488404766E-04    0.4324152015E-02
    0.7000000000E+01    0.2835661213E-05    0.3045470317E+00    0.4793558365E-04    0.3350281364E-04    0.4360413278E-02
    0.9000000000E+01    0.3165973921E-05    0.3480186808E+00    0.5280622763E-04    0.4189827326E-04    0.4388688955E-02
    0.1100000000E+02    0.3413301377E-05    0.3827901882E+00    0.5637001311E-04    0.5013681315E-04    0.4411378152E-02
    0.1300000000E+02    0.3604055099E-05    0.4112359062E+00    0.5910930787E-04    0.5825796084E-04    0.4429994334E-02
    0.1500000000E+02    0.3755111903E-05    0.4349382247E+00    0.6131807309E-04    0.6628776932E-04    0.4445544406E-02
    0.1700000000E+02    0.3877664786E-05    0.4549923593E+00    0.6318167680E-04    0.7424461247E-04    0.4458725790E-02
    0.1900000000E+02    0.3979367679E-05    0.4721804399E+00    0.6482023381E-04    0.8214209327E-04    0.4470037465E-02
    0.2100000000E+02    0.4065589967E-05    0.4870759270E+00    0.6631328656E-04    0.8999065864E-04    0.4479846183E-02
    0.2300000000E+02    0.4140180800E-05    0.5001088517E+00    0.6771442380E-04    0.9779856553E-04    0.4488427726E-02
    0.2500000000E+02    0.4205951100E-05    0.5116080202E+00    0.6906023089E-04    0.1055724929E-03    0.4495993588E-02
    0.2700000000E+02    0.4264986654E-05    0.5218291427E+00    0.7037592645E-04    0.1133179473E-03    0.4502708754E-02
    0.2900000000E+02    0.4318856790E-05    0.5309740770E+00    0.7167899959E-04    0.1210395425E-03    0.4508703875E-02
    0.3100000000E+02    0.4368756628E-05    0.5392042963E+00    0.7298160693E-04    0.1287411968E-03    0.4514083799E-02
    0.3300000000E+02    0.4415605991E-05    0.5466505078E+00    0.7429218159E-04    0.1364262780E-03    0.4518933671E-02
    0.3500000000E+02    0.4460119412E-05    0.5534196470E+00    0.7561653090E-04    0.1440977105E-03    0.4523323380E-02
    0.3700000000E+02    0.4502856478E-05    0.5596000472E+00    0.7695859579E-04    0.1517580570E-03    0.4527310841E-02
    0.3900000000E+02    0.4544258547E-05    0.5652653158E+00    0.7832098276E-04    0.1594095815E-03    0.4530944476E-02
    0.4100000000E+02    0.4584675877E-05    0.5704772805E+00    0.7970534059E-04    0.1670542987E-03    0.4534265087E-02
    0.4300000000E+02    0.4624387912E-05    0.5752882550E+00    0.8111262957E-04    0.1746940134E-03    0.4537307311E-02
    0.4500000000E+02    0.4663618601E-05    0.5797428010E+00    0.8254331553E-04    0.1823303516E-03    0.4540100747E-02
    0.4700000000E+02    0.4702548093E-05    0.5838791135E+00    0.8399751057E-04    0.1899647868E-03    0.4542670848E-02
    0.4900000000E+02    0.4741321737E-05    0.5877301180E+00    0.8547507572E-04    0.1975986607E-03    0.4545039625E-02
    0.1000000000E+02    0.3298074101E-05    0.3663201048E+00    0.5471560319E-04    0.4603427154E-04    0.4400622208E-02
    0.3000000000E+02    0.4344239990E-05    0.5351947282E+00    0.7232976200E-04    0.1248926403E-03    0.4511465012E-02
    0.5000000000E+02    0.4760687773E-05    0.5895576980E+00    0.8622252897E-04    0.2014157747E-03    0.4546154597E-02
    0.7000000000E+02    0.5158688748E-05    0.6163918466E+00    0.1022796859E-03    0.2779799602E-03    0.4561434182E-02
    0.9000000000E+02    0.5594363183E-05    0.6323826542E+00    0.1200721488E-03    0.3554450086E-03    0.4568596013E-02
    0.1100000000E+03    0.6071647083E-05    0.6429976687E+00    0.1391905502E-03    0.4342885298E-03    0.4571461048E-02
    0.1300000000E+03    0.6587541444E-05    0.6505574941E+00    0.1594015207E-03    0.5148379235E-03    0.4571697046E-02
    0.1500000000E+03    0.7138855717E-05    0.6562150913E+00    0.1805802671E-03    0.5973494247E-03    0.4570152319E-02
    0.1700000000E+03    0.7723237985E-05    0.6606081149E+00    0.2026642446E-03    0.6820424563E-03    0.4567304571E-02
    0.1900000000E+03    0.8339175389E-05    0.6641178682E+00    0.2256277847E-03    0.7691170506E-03    0.4563442611E-02
    0.2100000000E+03    0.8985832155E-05    0.6669863611E+00    0.2494682837E-03    0.8587637467E-03    0.4558750046E-02
    0.2300000000E+03    0.9662897741E-05    0.6693745935E+00    0.2741984806E-03    0.9511697581E-03    0.4553347693E-02
    0.2500000000E+03    0.1037047201E-04    0.6713938334E+00    0.2998420136E-03    0.1046523146E-02    0.4547316725E-02
    0.2700000000E+03    0.1110898377E-04    0.6731234430E+00    0.3264308103E-03    0.1145015867E-02    0.4540712056E-02
    0.2900000000E+03    0.1187913450E-04    0.6746215493E+00    0.3540035456E-03    0.1246846164E-02    0.4533570463E-02
    0.3100000000E+03    0.1268186029E-04    0.6759317011E+00    0.3826047461E-03    0.1352220577E-02    0.4525915709E-02
    0.3300000000E+03    0.1351830682E-04    0.6770871699E+00    0.4122843039E-03    0.1461355735E-02    0.4517761867E-02
    0.3500000000E+03    0.1438981380E-04    0.6781138122E+00    0.4430972609E-03    0.1574480029E-02    0.4509115544E-02
    0.3700000000E+03    0.1529790645E-04    0.6790320264E+00    0.4751037797E-03    0.1691835258E-02    0.4499977385E-02
    0.3900000000E+03    0.1624429236E-04    0.6798581207E+00    0.5083692528E-03    0.1813678287E-02    0.4490343102E-02
    0.4100000000E+03    0.1723086256E-04    0.6806052893E+00    0.5429645178E-03    0.1940282752E-02    0.4480204192E-02
    0.4300000000E+03    0.1825969618E-04    0.6812843215E+00    0.5789661623E-03    0.2071940868E-02    0.4469548414E-02
    0.4500000000E+03    0.1933306805E-04    0.6819041264E+00    0.6164569065E-03    0.2208965349E-02    0.4458360116E-02
    0.4700000000E+03    0.2045345916E-04    0.6824721246E+00    0.6555260601E-03    0.2351691479E-02    0.4446620426E-02
    0.4900000000E+03    0.2162356957E-04    0.6829945471E+00    0.6962700503E-03    0.2500479361E-02    0.4434307364E-02
    0.1000000000E+03    0.5827958643E-05    0.6381771769E+00    0.1294834737E-03    0.3946717364E-03    0.4570433622E-02
    0.3000000000E+03    0.1227635860E-04    0.6752978381E+00    0.3681725915E-03    0.1299077073E-02    0.4529806155E-02
    0.5000000000E+03    0.2222817694E-04    0.6832403469E+00    0.7173023357E-03    0.2577266377E-02    0.4427928107E-02
    0.7000000000E+03    0.3782550682E-04    0.6866988388E+00    0.1257316831E-02    0.4547504490E-02    0.4262098057E-02
    0.9000000000E+03    0.6436970868E-04    0.6886336803E+00    0.2173144709E-02    0.7891444438E-02    0.3982725920E-02
    0.1100000000E+04    0.1146283942E-03    0.6898695022E+00    0.3907922759E-02    0.1424073173E-01    0.3471053890E-02
    0.1300000000E+04    0.2151064058E-03    0.6907268736E+00    0.7387886316E-02    0.2703250174E-01    0.2509902690E-02
    0.1500000000E+04    0.3626233723E-03    0.6913563715E+00    0.1254097902E-01    0.4614756027E-01    0.1272418518E-02
    0.1700000000E+04    0.4622167861E-03    0.6918380641E+00    0.1610111425E-01    0.5966415454E-01    0.6924407758E-03
    0.1900000000E+04    0.5146965436E-03    0.6922184523E+00    0.1806090490E-01    0.6742191776E-01    0.5835836608E-03
    0.2100000000E+04    0.5543810774E-03    0.6925263898E+00    0.1959540753E-01    0.7369170353E-01    0.5706695451E-03
    0.2300000000E+04    0.5900431895E-03    0.6927807275E+00    0.2100665859E-01    0.7957835287E-01    0.5714324353E-03
    0.2500000000E+04    0.6232183913E-03    0.6929943023E+00    0.2234659775E-01    0.8526897904E-01    0.5738843975E-03
    0.2700000000E+04    0.6542542179E-03    0.6931761573E+00    0.2362590421E-01    0.9079840581E-01    0.5763969740E-03
    0.2900000000E+04    0.6833116140E-03    0.6933328467E+00    0.2484883137E-01    0.9617787036E-01    0.5787681599E-03
    0.3100000000E+04    0.7105160437E-03    0.6934692368E+00    0.2601849317E-01    0.1014146760E+00    0.5809892554E-03
    0.3300000000E+04    0.7359806074E-03    0.6935890162E+00    0.2713767079E-01    0.1065151895E+00    0.5830751291E-03
    0.3500000000E+04    0.7598100654E-03    0.6936950318E+00    0.2820894690E-01    0.1114853218E+00    0.5850411920E-03
    0.3700000000E+04    0.7821019562E-03    0.6937895156E+00    0.2923473753E-01    0.1163306254E+00    0.5869007280E-03
    0.3900000000E+04    0.8029472309E-03    0.6938742425E+00    0.3021730727E-01    0.1210563302E+00    0.5886649700E-03
    0.4100000000E+04    0.8224307727E-03    0.6939506411E+00    0.3115878106E-01    0.1256673683E+00    0.5903434584E-03
    0.4300000000E+04    0.8406318627E-03    0.6940198746E+00    0.3206115456E-01    0.1301683951E+00    0.5919443595E-03
    0.4500000000E+04    0.8576246037E-03    0.6940828995E+00    0.3292630363E-01    0.1345638087E+00    0.5934747168E-03
    0.4700000000E+04    0.8734783076E-03    0.6941405095E+00    0.3375599293E-01    0.1388577680E+00    0.5949406489E-03
    0.4900000000E+04    0.8882578505E-03    0.6941933689E+00    0.3455188389E-01    0.1430542083E+00    0.5963475047E-03
    0.1000000000E+04    0.8522379912E-04    0.6893129742E+00    0.2892603476E-02    0.1052232132E-01    0.3767716845E-02
    0.3000000000E+04    0.6971381647E-03    0.6934033256E+00    0.2544014132E-01    0.9881369484E-01    0.5798966321E-03
    0.5000000000E+04    0.8952639528E-03    0.6942181955E+00    0.3493764775E-01    0.1451170313E+00    0.5970302713E-03
    0.7000000000E+04    0.9918501172E-03    0.6945641959E+00    0.4121423086E-01    0.1820621593E+00    0.6084776062E-03
    0.9000000000E+04    0.1030790638E-02    0.6947544257E+00    0.4543439856E-01    0.2124900726E+00    0.6171309169E-03
    0.1100000000E+05    0.1036206608E-02    0.6948741570E+00    0.4828425370E-01    0.2381665016E+00    0.6241103137E-03
    0.1300000000E+05    0.1021962409E-02    0.6949561080E+00    0.5019037632E-01    0.2602510376E+00    0.6299706812E-03
    0.1500000000E+05    0.9962996770E-03    0.6950155043E+00    0.5142958168E-01    0.2795396152E+00    0.6350284700E-03
    0.1700000000E+05    0.9642397695E-03    0.6950603821E+00    0.5218784569E-01    0.2965987177E+00    0.6394816431E-03
    0.1900000000E+05    0.9288939563E-03    0.6950953788E+00    0.5259374360E-01    0.3118439025E+00    0.6434624648E-03
    0.2100000000E+05    0.8922081605E-03    0.6951233559E+00    0.5273831747E-01    0.3255879178E+00    0.6470637756E-03
    0.2300000000E+05    0.8554010939E-03    0.6951461733E+00    0.5268734562E-01    0.3380713588E+00    0.6503532992E-03
    0.2500000000E+05    0.8192295344E-03    0.6951650912E+00    0.5248917401E-01    0.3494828632E+00    0.6533819846E-03
    0.2700000000E+05    0.7841528763E-03    0.6951809934E+00    0.5217985915E-01    0.3599728053E+00    0.6561891434E-03
    0.2900000000E+05    0.7504372981E-03    0.6951945176E+00    0.5178663024E-01    0.3696628199E+00    0.6588057563E-03
    0.3100000000E+05    0.7182228376E-03    0.6952061352E+00    0.5133027118E-01    0.3786525756E+00    0.6612566803E-03
    0.3300000000E+05    0.6875671941E-03    0.6952162021E+00    0.5082679127E-01    0.3870246883E+00    0.6635621685E-03
    0.3500000000E+05    0.6584746578E-03    0.6952249917E+00    0.5028861723E-01    0.3948483500E+00    0.6657389460E-03
    0.3700000000E+05    0.6309153822E-03    0.6952327177E+00    0.4972545685E-01    0.4021820512E+00    0.6678009865E-03
    0.3900000000E+05    0.6048382996E-03    0.6952395490E+00    0.4914493343E-01    0.4090756532E+00    0.6697600874E-03
    0.4100000000E+05    0.5801798026E-03    0.6952456214E+00    0.4855305761E-01    0.4155719878E+00    0.6716263010E-03
    0.4300000000E+05    0.5568695773E-03    0.6952510447E+00    0.4795458228E-01    0.4217081045E+00    0.6734082637E-03
    0.4500000000E+05    0.5348345060E-03    0.6952559091E+00    0.4735327228E-01    0.4275162560E+00    0.6751134513E-03
    0.4700000000E+05    0.5140012515E-03    0.6952602889E+00    0.4675211126E-01    0.4330246838E+00    0.6767483785E-03
    0.4900000000E+05    0.4942979394E-03    0.6952642462E+00    0.4615346170E-01    0.4382582502E+00    0.6783187579E-03
    0.1000000000E+05    0.1036651583E-02    0.6948204435E+00    0.4699949663E-01    0.2258390989E+00    0.6207873755E-03
    0.3000000000E+05    0.7341372885E-03    0.6952005403E+00    0.5156524536E-01    0.3742397146E+00    0.6600505700E-03
    0.5000000000E+05    0.4848482217E-03    0.6952660831E+00    0.4585567842E-01    0.4407789341E+00    0.6790813398E-03
    0.7000000000E+05    0.3402378487E-03    0.6952897730E+00    0.4031263603E-01    0.4809765117E+00    0.6919053134E-03
    0.9000000000E+05    0.2514668969E-03    0.6953004722E+00    0.3572262944E-01    0.5084688502E+00    0.7016379407E-03
    0.1100000000E+06    0.1934162270E-03    0.6953056992E+00    0.3198375030E-01    0.5286443053E+00    0.7095059017E-03
    0.1300000000E+06    0.1534380685E-03    0.6953082130E+00    0.2891451111E-01    0.5441537285E+00    0.7161221971E-03
    0.1500000000E+06    0.1247439902E-03    0.6953092396E+00    0.2636273650E-01    0.5564804757E+00    0.7218383229E-03
    0.1700000000E+06    0.1034502469E-03    0.6953093953E+00    0.2421335112E-01    0.5665289527E+00    0.7268749836E-03
    0.1900000000E+06    0.8720984192E-04    0.6953090182E+00    0.2238087245E-01    0.5748857318E+00    0.7313800367E-03
    0.2100000000E+06    0.7453781514E-04    0.6953083057E+00    0.2080148848E-01    0.5819495389E+00    0.7354574822E-03
    0.2300000000E+06    0.6445764298E-04    0.6953073789E+00    0.1942699088E-01    0.5880016504E+00    0.7391833062E-03
    0.2500000000E+06    0.5630577592E-04    0.6953063149E+00    0.1822045005E-01    0.5932465619E+00    0.7426147484E-03
    0.2700000000E+06    0.4961849716E-04    0.6953051641E+00    0.1715317940E-01    0.5978367207E+00    0.7457960217E-03
    0.2900000000E+06    0.4406377322E-04    0.6953039606E+00    0.1620259806E-01    0.6018882088E+00    0.7487620003E-03
    0.3100000000E+06    0.3939876134E-04    0.6953027273E+00    0.1535071065E-01    0.6054910429E+00    0.7515406865E-03
    0.3300000000E+06    0.3544250144E-04    0.6953014804E+00    0.1458301206E-01    0.6087161410E+00    0.7541549114E-03
    0.3500000000E+06    0.3205789286E-04    0.6953002310E+00    0.1388768785E-01    0.6116201569E+00    0.7566235388E-03
    0.3700000000E+06    0.2913951491E-04    0.6952989869E+00    0.1325502255E-01    0.6142489105E+00    0.7589623380E-03
    0.3900000000E+06    0.2660522104E-04    0.6952977535E+00    0.1267695623E-01    0.6166398692E+00    0.7611846278E-03
    0.4100000000E+06    0.2439022673E-04    0.6952965348E+00    0.1214674814E-01    0.6188239747E+00    0.7633017611E-03
    0.4300000000E+06    0.2244287948E-04    0.6952953332E+00    0.1165871871E-01    0.6208270091E+00    0.7653234954E-03
    0.4500000000E+06    0.2072158520E-04    0.6952941506E+00    0.1120804948E-01    0.6226706303E+00    0.7672582792E-03
    0.4700000000E+06    0.1919254304E-04    0.6952929881E+00    0.1079062644E-01    0.6243731671E+00    0.7691134774E-03
    0.4900000000E+06    0.1782805431E-04    0.6952918462E+00    0.1040291629E-01    0.6259502365E+00    0.7708955494E-03
    0.1000000000E+06    0.2195815773E-03    0.6953035428E+00    0.3375846886E-01    0.5192673596E+00    0.7057581627E-03
    0.3000000000E+06    0.4163256739E-04    0.6953033465E+00    0.1576529542E-01    0.6037408925E+00    0.7501732229E-03
    0.5000000000E+06    0.1720020923E-04    0.6952912832E+00    0.1021923349E-01    0.6266959813E+00    0.7717609699E-03
    0.7000000000E+06    0.9387467541E-05    0.6952810875E+00    0.7546309541E-02    0.6374511998E+00    0.7863176789E-03
    0.9000000000E+06    0.5921069930E-05    0.6952726135E+00    0.5976089185E-02    0.6436921989E+00    0.7973686592E-03
    0.1100000000E+07    0.4081996032E-05    0.6952654163E+00    0.4943816702E-02    0.6477676007E+00    0.8063038956E-03
    0.1300000000E+07    0.2988963895E-05    0.6952591729E+00    0.4213882747E-02    0.6506374920E+00    0.8138184829E-03
    0.1500000000E+07    0.2286091572E-05    0.6952536623E+00    0.3670637604E-02    0.6527675510E+00    0.8203111607E-03
    0.1700000000E+07    0.1807147100E-05    0.6952487303E+00    0.3250699661E-02    0.6544110082E+00    0.8260323693E-03
    0.1900000000E+07    0.1465953916E-05    0.6952442660E+00    0.2916438342E-02    0.6557173892E+00    0.8311499220E-03
    0.2100000000E+07    0.1214183661E-05    0.6952401873E+00    0.2644108358E-02    0.6567806671E+00    0.8357818735E-03
    0.2300000000E+07    0.1023013459E-05    0.6952364319E+00    0.2417989363E-02    0.6576628654E+00    0.8400144896E-03
    0.2500000000E+07    0.8743804039E-06    0.6952329514E+00    0.2227261661E-02    0.6584065701E+00    0.8439127594E-03
    0.2700000000E+07    0.7564935632E-06    0.6952297077E+00    0.2064235627E-02    0.6590419898E+00    0.8475268858E-03
    0.2900000000E+07    0.6613885839E-06    0.6952266698E+00    0.1923296763E-02    0.6595911465E+00    0.8508964702E-03
    0.3100000000E+07    0.5835271724E-06    0.6952238128E+00    0.1800250332E-02    0.6600704725E+00    0.8540533124E-03
    0.3300000000E+07    0.5189604623E-06    0.6952211158E+00    0.1691899518E-02    0.6604924778E+00    0.8570233409E-03
    0.3500000000E+07    0.4648108495E-06    0.6952185613E+00    0.1595765501E-02    0.6608668537E+00    0.8598279797E-03
    0.3700000000E+07    0.4189408569E-06    0.6952161349E+00    0.1509896713E-02    0.6612012247E+00    0.8624851388E-03
    0.3900000000E+07    0.3797356336E-06    0.6952138239E+00    0.1432735816E-02    0.6615016710E+00    0.8650099455E-03
    0.4100000000E+07    0.3459565895E-06    0.6952116176E+00    0.1363024999E-02    0.6617731008E+00    0.8674152946E-03
    0.4300000000E+07    0.3166407521E-06    0.6952095066E+00    0.1299737315E-02    0.6620195195E+00    0.8697122692E-03
    0.4500000000E+07    0.2910302123E-06    0.6952074830E+00    0.1242026072E-02    0.6622442281E+00    0.8719104657E-03
    0.4700000000E+07    0.2685217950E-06    0.6952055394E+00    0.1189186967E-02    0.6624499715E+00    0.8740182497E-03
    0.4900000000E+07    0.2486305865E-06    0.6952036698E+00    0.1140629383E-02    0.6626390509E+00    0.8760429587E-03
    0.1000000000E+07    0.4872528808E-05    0.6952688783E+00    0.5411557225E-02    0.6459235060E+00    0.8020476382E-03
    0.3000000000E+07    0.6205792644E-06    0.6952252201E+00    0.1859756368E-02    0.6598386796E+00    0.8524997441E-03
    0.5000000000E+07    0.2395404886E-06    0.6952027609E+00    0.1117797149E-02    0.6627279609E+00    0.8770262125E-03
    0.7000000000E+07    0.1298376066E-06    0.6951873933E+00    0.7975617659E-03    0.6639753893E+00    0.8935651150E-03
    0.9000000000E+07    0.8325320514E-07    0.6951756431E+00    0.6193278263E-03    0.6646703065E+00    0.9061210825E-03
    0.1100000000E+08    0.5903418011E-07    0.6951661012E+00    0.5058803873E-03    0.6651130633E+00    0.9162732336E-03
    0.1300000000E+08    0.4475891620E-07    0.6951580522E+00    0.4273710785E-03    0.6654197578E+00    0.9248112780E-03
    0.1500000000E+08    0.3559054823E-07    0.6951510823E+00    0.3698360425E-03    0.6656447196E+00    0.9321882421E-03
    0.1700000000E+08    0.2932201850E-07    0.6951449299E+00    0.3258732424E-03    0.6658167596E+00    0.9386886671E-03
    0.1900000000E+08    0.2482690561E-07    0.6951394187E+00    0.2911946361E-03    0.6659525760E+00    0.9445032189E-03
    0.2100000000E+08    0.2148013871E-07    0.6951344245E+00    0.2631450929E-03    0.6660625130E+00    0.9497660294E-03
    0.2300000000E+08    0.1891153708E-07    0.6951298562E+00    0.2399930043E-03    0.6661533200E+00    0.9545751130E-03
    0.2500000000E+08    0.1689014243E-07    0.6951256449E+00    0.2205610530E-03    0.6662295879E+00    0.9590043102E-03
    0.2700000000E+08    0.1526556706E-07    0.6951217375E+00    0.2040209627E-03    0.6662945481E+00    0.9631106614E-03
