  Pressure (Pa) 23mC5-500 (mol/kg) 24mC5-500 (mol/kg) 2mC6-500 (mol/kg) 3mC6-500 (mol/kg) C7-500 (mol/kg)
    0.1000000000E+01    0.6879581386E-06    0.9949834464E-01    0.2512399902E-04    0.5391242152E-05    0.4169248562E-02
    0.3000000000E+01    0.1518102304E-05    0.2321059309E+00    0.5332122809E-04    0.1357779391E-04    0.4199779493E-02
    0.5000000000E+01    0.1990695762E-05    0.3164613303E+00    0.6827494896E-04    0.2107169696E-04    0.4214978456E-02
    0.7000000000E+01    0.2288217280E-05    0.3748486082E+00    0.7734254850E-04    0.2824038370E-04    0.4224829827E-02
    0.9000000000E+01    0.2490227128E-05    0.4176602422E+00    0.8352738927E-04    0.3520644837E-04    0.4231738449E-02
    0.1100000000E+02    0.2636221232E-05    0.4503957729E+00    0.8821987595E-04    0.4203084594E-04    0.4236801128E-02
    0.1300000000E+02    0.2747632124E-05    0.4762381936E+00    0.9211930241E-04    0.4874968978E-04    0.4240617944E-02
    0.1500000000E+02    0.2836880658E-05    0.4971575035E+00    0.9559850664E-04    0.5538669162E-04    0.4243550486E-02
    0.1700000000E+02    0.2911538324E-05    0.5144382792E+00    0.9886467031E-04    0.6195852249E-04    0.4245831169E-02
    0.1900000000E+02    0.2976408505E-05    0.5289539275E+00    0.1020362010E-03    0.6847749285E-04    0.4247616724E-02
    0.2100000000E+02    0.3034637939E-05    0.5413190113E+00    0.1051818782E-03    0.7495303626E-04    0.4249016900E-02
    0.2300000000E+02    0.3088342735E-05    0.5519785271E+00    0.1083418122E-03    0.8139259461E-04    0.4250110945E-02
    0.2500000000E+02    0.3138976792E-05    0.5612626153E+00    0.1115391312E-03    0.8780217766E-04    0.4250957561E-02
    0.2700000000E+02    0.3187556791E-05    0.5694213716E+00    0.1147867195E-03    0.9418673323E-04    0.4251601189E-02
    0.2900000000E+02    0.3234803973E-05    0.5766477200E+00    0.1180912101E-03    0.1005504014E-03    0.4252076106E-02
    0.3100000000E+02    0.3281235940E-05    0.5830928677E+00    0.1214554036E-03    0.1068966947E-03    0.4252409184E-02
    0.3300000000E+02    0.3327227501E-05    0.5888770021E+00    0.1248797596E-03    0.1132286289E-03    0.4252621793E-02
    0.3500000000E+02    0.3373051847E-05    0.5940968581E+00    0.1283633294E-03    0.1195488207E-03    0.4252731146E-02
    0.3700000000E+02    0.3418908922E-05    0.5988311725E+00    0.1319043445E-03    0.1258595615E-03    0.4252751263E-02
    0.3900000000E+02    0.3464945286E-05    0.6031446837E+00    0.1355005895E-03    0.1321628744E-03    0.4252693682E-02
    0.4100000000E+02    0.3511268223E-05    0.6070911104E+00    0.1391496395E-03    0.1384605587E-03    0.4252567986E-02
    0.4300000000E+02    0.3557955890E-05    0.6107154009E+00    0.1428490087E-03    0.1447542255E-03    0.4252382200E-02
    0.4500000000E+02    0.3605064698E-05    0.6140554525E+00    0.1465962436E-03    0.1510453262E-03    0.4252143096E-02
    0.4700000000E+02    0.3652634737E-05    0.6171434422E+00    0.1503889785E-03    0.1573351755E-03    0.4251856428E-02
    0.4900000000E+02    0.3700693800E-05    0.6200068667E+00    0.1542249680E-03    0.1636249701E-03    0.4251527119E-02
    0.1000000000E+02    0.2568604035E-05    0.4350512651E+00    0.8600600894E-04    0.3863371480E-04    0.4234455526E-02
    0.3000000000E+02    0.3258095645E-05    0.5799598062E+00    0.1197657734E-03    0.1037255210E-03    0.4252258928E-02
    0.5000000000E+02    0.3724912796E-05    0.6213618856E+00    0.1561585185E-03    0.1667701927E-03    0.4251347820E-02
    0.7000000000E+02    0.4236620358E-05    0.6409744444E+00    0.1966654855E-03    0.2298960812E-03    0.4246294362E-02
    0.9000000000E+02    0.4796845805E-05    0.6524155213E+00    0.2399052445E-03    0.2938713077E-03    0.4239538302E-02
    0.1100000000E+03    0.5398714611E-05    0.6599115577E+00    0.2852783214E-03    0.3591252619E-03    0.4231833842E-02
    0.1300000000E+03    0.6037330732E-05    0.6652029305E+00    0.3325439007E-03    0.4259556927E-03    0.4223484014E-02
    0.1500000000E+03    0.6709882354E-05    0.6691375489E+00    0.3816229047E-03    0.4945989702E-03    0.4214628303E-02
    0.1700000000E+03    0.7414977558E-05    0.6721779236E+00    0.4325164894E-03    0.5652605803E-03    0.4205334832E-02
    0.1900000000E+03    0.8152163132E-05    0.6745977930E+00    0.4852700315E-03    0.6381306204E-03    0.4195636271E-02
    0.2100000000E+03    0.8921627889E-05    0.6765695144E+00    0.5399561119E-03    0.7133926626E-03    0.4185545793E-02
    0.2300000000E+03    0.9724023753E-05    0.6782070212E+00    0.5966660852E-03    0.7912293486E-03    0.4175064892E-02
    0.2500000000E+03    0.1056035758E-04    0.6795886435E+00    0.6555058236E-03    0.8718262521E-03    0.4164187473E-02
    0.2700000000E+03    0.1143192580E-04    0.6807700079E+00    0.7165936316E-03    0.9553747789E-03    0.4152902119E-02
    0.2900000000E+03    0.1234027559E-04    0.6817917070E+00    0.7800593628E-03    0.1042074521E-02    0.4141193377E-02
    0.3100000000E+03    0.1328718331E-04    0.6826840571E+00    0.8460442469E-03    0.1132135311E-02    0.4129042499E-02
    0.3300000000E+03    0.1427464430E-04    0.6834701564E+00    0.9147011691E-03    0.1225779112E-02    0.4116427859E-02
    0.3500000000E+03    0.1530487087E-04    0.6841679128E+00    0.9861952627E-03    0.1323241869E-02    0.4103325168E-02
    0.3700000000E+03    0.1638029636E-04    0.6847914238E+00    0.1060704738E-02    0.1424775355E-02    0.4089707557E-02
    0.3900000000E+03    0.1750358384E-04    0.6853519391E+00    0.1138421912E-02    0.1530649096E-02    0.4075545569E-02
    0.4100000000E+03    0.1867763893E-04    0.6858585449E+00    0.1219554414E-02    0.1641152395E-02    0.4060807080E-02
    0.4300000000E+03    0.1990562618E-04    0.6863186603E+00    0.1304326572E-02    0.1756596509E-02    0.4045457174E-02
    0.4500000000E+03    0.2119098875E-04    0.6867384027E+00    0.1392980979E-02    0.1877316996E-02    0.4029457965E-02
    0.4700000000E+03    0.2253747157E-04    0.6871228615E+00    0.1485780241E-02    0.2003676285E-02    0.4012768384E-02
    0.4900000000E+03    0.2394914775E-04    0.6874763051E+00    0.1583008942E-02    0.2136066482E-02    0.3995343925E-02
    0.1000000000E+03    0.5092937754E-05    0.6565171126E+00    0.2623454351E-03    0.3263178694E-03    0.4235780060E-02
    0.3000000000E+03    0.1280879008E-04    0.6822524655E+00    0.8127276342E-03    0.1086671218E-02    0.4135174492E-02
    0.5000000000E+03    0.2468080328E-04    0.6876425456E+00    0.1633379805E-02    0.2204654576E-02    0.3986341199E-02
    0.7000000000E+03    0.4410173818E-04    0.6899780457E+00    0.2968051930E-02    0.4023189486E-02    0.3753036545E-02
    0.9000000000E+03    0.7935260242E-04    0.6912819826E+00    0.5390057256E-02    0.7330336497E-02    0.3348841000E-02
    0.1100000000E+04    0.1500795358E-03    0.6921140394E+00    0.1026172477E-01    0.1400609212E-01    0.2586491159E-02
    0.1300000000E+04    0.2782265235E-03    0.6926910446E+00    0.1914197775E-01    0.2625557096E-01    0.1344030885E-02
    0.1500000000E+04    0.3997255495E-03    0.6931146366E+00    0.2769046265E-01    0.3823321133E-01    0.4263595381E-03
    0.1700000000E+04    0.4638164095E-03    0.6934387873E+00    0.3236415862E-01    0.4501641409E-01    0.1943523580E-03
    0.1900000000E+04    0.5065855339E-03    0.6936948118E+00    0.3560622843E-01    0.4989502161E-01    0.1599533559E-03
    0.2100000000E+04    0.5436147641E-03    0.6939021278E+00    0.3848465765E-01    0.5432642520E-01    0.1559495655E-03
    0.2300000000E+04    0.5777944047E-03    0.6940734150E+00    0.4119627810E-01    0.5857789168E-01    0.1560808857E-03
    0.2500000000E+04    0.6096981717E-03    0.6942173045E+00    0.4377784244E-01    0.6269638663E-01    0.1567294604E-03
    0.2700000000E+04    0.6395371246E-03    0.6943398752E+00    0.4624111033E-01    0.6669450927E-01    0.1574045369E-03
    0.2900000000E+04    0.6674583039E-03    0.6944455316E+00    0.4859362341E-01    0.7057927973E-01    0.1580436742E-03
    0.3100000000E+04    0.6935900641E-03    0.6945375439E+00    0.5084185889E-01    0.7435651545E-01    0.1586431138E-03
    0.3300000000E+04    0.7180496899E-03    0.6946183903E+00    0.5299174307E-01    0.7803152587E-01    0.1592065316E-03
    0.3500000000E+04    0.7409452979E-03    0.6946899833E+00    0.5504876394E-01    0.8160924663E-01    0.1597379538E-03
    0.3700000000E+04    0.7623767964E-03    0.6947538227E+00    0.5701801934E-01    0.8509428504E-01    0.1602408855E-03
    0.3900000000E+04    0.7824366329E-03    0.6948111006E+00    0.5890425192E-01    0.8849094934E-01    0.1607183004E-03
    0.4100000000E+04    0.8012104474E-03    0.6948627770E+00    0.6071187934E-01    0.9180327320E-01    0.1611727292E-03
    0.4300000000E+04    0.8187776591E-03    0.6949096333E+00    0.6244502135E-01    0.9503503761E-01    0.1616063415E-03
    0.4500000000E+04    0.8352119932E-03    0.6949523121E+00    0.6410752407E-01    0.9818979063E-01    0.1620210109E-03
    0.4700000000E+04    0.8505819578E-03    0.6949913468E+00    0.6570298211E-01    0.1012708653E+00    0.1624183669E-03
    0.4900000000E+04    0.8649512740E-03    0.6950271836E+00    0.6723475842E-01    0.1042813960E+00    0.1627998358E-03
    0.1000000000E+04    0.1084113703E-03    0.6917394026E+00    0.7389445734E-02    0.1006657300E-01    0.3028784001E-02
    0.3000000000E+04    0.6807403022E-03    0.6944930729E+00    0.4973039444E-01    0.7248099806E-01    0.1583481599E-03
    0.5000000000E+04    0.8717793895E-03    0.6950440228E+00    0.6797775802E-01    0.1057611361E+00    0.1629850108E-03
    0.7000000000E+04    0.9682146715E-03    0.6952793810E+00    0.8016181582E-01    0.1322845430E+00    0.1660933091E-03
    0.9000000000E+04    0.1011999048E-02    0.6954096241E+00    0.8857269248E-01    0.1542471871E+00    0.1684466199E-03
    0.1100000000E+05    0.1025257589E-02    0.6954921574E+00    0.9450200117E-01    0.1729536357E+00    0.1703464278E-03
    0.1300000000E+05    0.1020388400E-02    0.6955490453E+00    0.9872888923E-01    0.1892326256E+00    0.1719425809E-03
    0.1500000000E+05    0.1004662759E-02    0.6955905750E+00    0.1017486241E+00    0.2036389155E+00    0.1733207163E-03
    0.1700000000E+05    0.9824946637E-03    0.6956221867E+00    0.1038894857E+00    0.2165598130E+00    0.1745344834E-03
    0.1900000000E+05    0.9566335159E-03    0.6956470264E+00    0.1053766442E+00    0.2282752214E+00    0.1756197642E-03
    0.2100000000E+05    0.9288236756E-03    0.6956670390E+00    0.1063690035E+00    0.2389933482E+00    0.1766017662E-03
    0.2300000000E+05    0.9001847964E-03    0.6956834914E+00    0.1069814262E+00    0.2488729091E+00    0.1774988884E-03
    0.2500000000E+05    0.8714389480E-03    0.6956972439E+00    0.1072986558E+00    0.2580374629E+00    0.1783249800E-03
    0.2700000000E+05    0.8430502915E-03    0.6957089012E+00    0.1073843257E+00    0.2665849694E+00    0.1790907313E-03
    0.2900000000E+05    0.8153131463E-03    0.6957189004E+00    0.1072869543E+00    0.2745943430E+00    0.1798045699E-03
    0.3100000000E+05    0.7884087066E-03    0.6957275654E+00    0.1070440316E+00    0.2821300574E+00    0.1804732599E-03
    0.3300000000E+05    0.7624422333E-03    0.6957351414E+00    0.1066848681E+00    0.2892454510E+00    0.1811023139E-03
    0.3500000000E+05    0.7374678166E-03    0.6957418170E+00    0.1062326168E+00    0.2959851462E+00    0.1816962851E-03
    0.3700000000E+05    0.7135050764E-03    0.6957477400E+00    0.1057057344E+00    0.3023868506E+00    0.1822589788E-03
    0.3900000000E+05    0.6905505427E-03    0.6957530277E+00    0.1051190531E+00    0.3084827184E+00    0.1827936079E-03
    0.4100000000E+05    0.6685854756E-03    0.6957577743E+00    0.1044845781E+00    0.3143003950E+00    0.1833029106E-03
    0.4300000000E+05    0.6475812710E-03    0.6957620565E+00    0.1038120877E+00    0.3198638272E+00    0.1837892396E-03
    0.4500000000E+05    0.6275032104E-03    0.6957659370E+00    0.1031095910E+00    0.3251939008E+00    0.1842546319E-03
    0.4700000000E+05    0.6083130661E-03    0.6957694681E+00    0.1023836805E+00    0.3303089459E+00    0.1847008627E-03
    0.4900000000E+05    0.5899709065E-03    0.6957726931E+00    0.1016398053E+00    0.3352251428E+00    0.1851294888E-03
    0.1000000000E+05    0.1021511127E-02    0.6954550614E+00    0.9179027525E-01    0.1639474965E+00    0.1694417482E-03
    0.3000000000E+05    0.8017488178E-03    0.6957233828E+00    0.1071816902E+00    0.2784178449E+00    0.1801441885E-03
    0.5000000000E+05    0.5811051911E-03    0.6957742026E+00    0.1012625750E+00    0.3376132237E+00    0.1853376356E-03
    0.7000000000E+05    0.4390256922E-03    0.6957947826E+00    0.9353783658E-01    0.3777066669E+00    0.1888383097E-03
    0.9000000000E+05    0.3442516393E-03    0.6958055436E+00    0.8630797026E-01    0.4077404052E+00    0.1914954924E-03
    0.1100000000E+06    0.2778938929E-03    0.6958119594E+00    0.7990918505E-01    0.4314782546E+00    0.1936437722E-03
    0.1300000000E+06    0.2295033168E-03    0.6958160990E+00    0.7430836976E-01    0.4508885643E+00    0.1954504001E-03
    0.1500000000E+06    0.1930389514E-03    0.6958189113E+00    0.6940119415E-01    0.4671435823E+00    0.1970112963E-03
    0.1700000000E+06    0.1648203837E-03    0.6958208897E+00    0.6508124600E-01    0.4810023226E+00    0.1983866965E-03
    0.1900000000E+06    0.1424985255E-03    0.6958223148E+00    0.6125590804E-01    0.4929857016E+00    0.1996169585E-03
    0.2100000000E+06    0.1245136612E-03    0.6958233570E+00    0.5784821810E-01    0.5034669091E+00    0.2007304711E-03
    0.2300000000E+06    0.1097950800E-03    0.6958241253E+00    0.5479509673E-01    0.5127222828E+00    0.2017479776E-03
    0.2500000000E+06    0.9758662598E-04    0.6958246925E+00    0.5204492334E-01    0.5209618967E+00    0.2026851043E-03
    0.2700000000E+06    0.8734113529E-04    0.6958251088E+00    0.4955530489E-01    0.5283489200E+00    0.2035539216E-03
    0.2900000000E+06    0.7865423645E-04    0.6958254098E+00    0.4729122713E-01    0.5350123868E+00    0.2043639508E-03
    0.3100000000E+06    0.7122152497E-04    0.6958256212E+00    0.4522358020E-01    0.5410559065E+00    0.2051228373E-03
    0.3300000000E+06    0.6481009379E-04    0.6958257623E+00    0.4332799871E-01    0.5465637767E+00    0.2058368146E-03
    0.3500000000E+06    0.5923914725E-04    0.6958258476E+00    0.4158395215E-01    0.5516053761E+00    0.2065110334E-03
    0.3700000000E+06    0.5436651627E-04    0.6958258880E+00    0.3997402989E-01    0.5562383877E+00    0.2071497993E-03
    0.3900000000E+06    0.5007909806E-04    0.6958258923E+00    0.3848337670E-01    0.5605112064E+00    0.2077567489E-03
    0.4100000000E+06    0.4628596161E-04    0.6958258672E+00    0.3709924447E-01    0.5644647651E+00    0.2083349823E-03
    0.4300000000E+06    0.4291329809E-04    0.6958258181E+00    0.3581063374E-01    0.5681339402E+00    0.2088871637E-03
    0.4500000000E+06    0.3990067061E-04    0.6958257493E+00    0.3460800536E-01    0.5715486468E+00    0.2094156001E-03
    0.4700000000E+06    0.3719819293E-04    0.6958256642E+00    0.3348304689E-01    0.5747347009E+00    0.2099223025E-03
    0.4900000000E+06    0.3476438233E-04    0.6958255657E+00    0.3242848214E-01    0.5777145062E+00    0.2104090348E-03
    0.1000000000E+06    0.3083117995E-03    0.6958091258E+00    0.8300354015E-01    0.4202476972E+00    0.1926204656E-03
    0.3000000000E+06    0.7479707757E-04    0.6958255253E+00    0.4623447211E-01    0.5381059771E+00    0.2047493686E-03
    0.5000000000E+06    0.3363714716E-04    0.6958255122E+00    0.3192556795E-01    0.5791332717E+00    0.2106454056E-03
    0.7000000000E+06    0.1915629739E-04    0.6958241285E+00    0.2435582333E-01    0.6003258127E+00    0.2146213362E-03
    0.9000000000E+06    0.1239076256E-04    0.6958225888E+00    0.1967493364E-01    0.6132969014E+00    0.2176398303E-03
    0.1100000000E+07    0.8682756017E-05    0.6958211135E+00    0.1649561197E-01    0.6220578020E+00    0.2200804812E-03
    0.1300000000E+07    0.6429184392E-05    0.6958197458E+00    0.1419600475E-01    0.6283725977E+00    0.2221331206E-03
    0.1500000000E+07    0.4956298767E-05    0.6958184866E+00    0.1245584103E-01    0.6331400318E+00    0.2239066480E-03
    0.1700000000E+07    0.3940234862E-05    0.6958173263E+00    0.1109340947E-01    0.6368664790E+00    0.2254694624E-03
    0.1900000000E+07    0.3209422054E-05    0.6958162534E+00    0.9997957867E-02    0.6398590835E+00    0.2268673969E-03
    0.2100000000E+07    0.2665997581E-05    0.6958152569E+00    0.9098146746E-02    0.6423149906E+00    0.2281326948E-03
    0.2300000000E+07    0.2250795275E-05    0.6958143275E+00    0.8345955729E-02    0.6443665484E+00    0.2292889177E-03
    0.2500000000E+07    0.1926318868E-05    0.6958134571E+00    0.7707878960E-02    0.6461059085E+00    0.2303538160E-03
    0.2700000000E+07    0.1667861705E-05    0.6958126388E+00    0.7159828781E-02    0.6475992088E+00    0.2313411016E-03
    0.2900000000E+07    0.1458602385E-05    0.6958118669E+00    0.6684045287E-02    0.6488951464E+00    0.2322615911E-03
    0.3100000000E+07    0.1286763680E-05    0.6958111364E+00    0.6267147518E-02    0.6500303703E+00    0.2331239700E-03
    0.3300000000E+07    0.1143898647E-05    0.6958104431E+00    0.5898862883E-02    0.6510329893E+00    0.2339353205E-03
    0.3500000000E+07    0.1023820073E-05    0.6958097833E+00    0.5571174584E-02    0.6519249224E+00    0.2347014942E-03
    0.3700000000E+07    0.9219112303E-06    0.6958091541E+00    0.5277734979E-02    0.6527235129E+00    0.2354273832E-03
    0.3900000000E+07    0.8346701762E-06    0.6958085526E+00    0.5013452897E-02    0.6534426629E+00    0.2361171193E-03
    0.4100000000E+07    0.7594012959E-06    0.6958079765E+00    0.4774197591E-02    0.6540936464E+00    0.2367742247E-03
    0.4300000000E+07    0.6940020948E-06    0.6958074236E+00    0.4556582591E-02    0.6546857018E+00    0.2374017267E-03
    0.4500000000E+07    0.6368130298E-06    0.6958068922E+00    0.4357805399E-02    0.6552264715E+00    0.2380022465E-03
    0.4700000000E+07    0.5865099325E-06    0.6958063806E+00    0.4175526893E-02    0.6557223321E+00    0.2385780691E-03
    0.4900000000E+07    0.5420257479E-06    0.6958058874E+00    0.4007779412E-02    0.6561786458E+00    0.2391311987E-03
    0.1000000000E+07    0.1028843117E-04    0.6958218387E+00    0.1794658411E-01    0.6180641033E+00    0.2189178826E-03
    0.3000000000E+07    0.1368596557E-05    0.6958114967E+00    0.6468938998E-02    0.6494809225E+00    0.2326995691E-03
    0.5000000000E+07    0.5216880703E-06    0.6958056473E+00    0.3928823703E-02    0.6563934197E+00    0.2393998143E-03
    0.7000000000E+07    0.2759862761E-06    0.6958015553E+00    0.2816043360E-02    0.6594203159E+00    0.2439181613E-03
    0.9000000000E+07    0.1718270337E-06    0.6957983938E+00    0.2192308469E-02    0.6611172737E+00    0.2473484856E-03
    0.1100000000E+08    0.1179766079E-06    0.6957958104E+00    0.1793640947E-02    0.6622022750E+00    0.2501221410E-03
    0.1300000000E+08    0.8648173373E-07    0.6957936220E+00    0.1516991062E-02    0.6629554808E+00    0.2524548500E-03
    0.1500000000E+08    0.6643951029E-07    0.6957917211E+00    0.1313853846E-02    0.6635087500E+00    0.2544703669E-03
    0.1700000000E+08    0.5287608478E-07    0.6957900391E+00    0.1158409070E-02    0.6639322775E+00    0.2562464213E-03
    0.1900000000E+08    0.4325652013E-07    0.6957885295E+00    0.1035652676E-02    0.6642668584E+00    0.2578350992E-03
    0.2100000000E+08    0.3617726633E-07    0.6957871592E+00    0.9362722275E-03    0.6645378167E+00    0.2592730431E-03
    0.2300000000E+08    0.3080946031E-07    0.6957859042E+00    0.8541829992E-03    0.6647617018E+00    0.2605870291E-03
    0.2500000000E+08    0.2663767241E-07    0.6957847458E+00    0.7852416990E-03    0.6649497848E+00    0.2617972294E-03
    0.2700000000E+08    0.2332751422E-07    0.6957836698E+00    0.7265297239E-03    0.6651100067E+00    0.2629192269E-03
