  Pressure (Pa) 23mC5-500 (mol/kg) 24mC5-500 (mol/kg) 2mC6-500 (mol/kg) 3mC6-500 (mol/kg) C7-500 (mol/kg)
    0.1000000000E+01    0.5346272192E-06    0.2142810883E+00    0.4756388197E-05    0.5030047552E-05    0.4178372652E-02
    0.3000000000E+01    0.9098125255E-06    0.3978499365E+00    0.7735025742E-05    0.1278319842E-04    0.4201920880E-02
    0.5000000000E+01    0.1050813479E-05    0.4801099567E+00    0.8925767006E-05    0.1989738073E-04    0.4210860106E-02
    0.7000000000E+01    0.1129548560E-05    0.5267901799E+00    0.9795609384E-05    0.2670556213E-04    0.4215644861E-02
    0.9000000000E+01    0.1187042615E-05    0.5568700136E+00    0.1061772594E-04    0.3331966302E-04    0.4218559215E-02
    0.1100000000E+02    0.1236613793E-05    0.5778677712E+00    0.1145499466E-04    0.3979557233E-04    0.4220458440E-02
    0.1300000000E+02    0.1283357473E-05    0.5933571969E+00    0.1232039092E-04    0.4616650636E-04    0.4221741419E-02
    0.1500000000E+02    0.1329410273E-05    0.6052544509E+00    0.1321361796E-04    0.5245432777E-04    0.4222620653E-02
    0.1700000000E+02    0.1375704948E-05    0.6146792844E+00    0.1413106652E-04    0.5867443680E-04    0.4223220217E-02
    0.1900000000E+02    0.1422643045E-05    0.6223298561E+00    0.1506873455E-04    0.6483822221E-04    0.4223617625E-02
    0.2100000000E+02    0.1470379394E-05    0.6286640779E+00    0.1602305301E-04    0.7095442069E-04    0.4223863899E-02
    0.2300000000E+02    0.1518951303E-05    0.6339947697E+00    0.1699105294E-04    0.7702992951E-04    0.4223994049E-02
    0.2500000000E+02    0.1568340322E-05    0.6385429078E+00    0.1797032925E-04    0.8307032083E-04    0.4224032928E-02
    0.2700000000E+02    0.1618502800E-05    0.6424690268E+00    0.1895895228E-04    0.8908018258E-04    0.4223998687E-02
    0.2900000000E+02    0.1669385314E-05    0.6458925617E+00    0.1995537700E-04    0.9506335288E-04    0.4223904900E-02
    0.3100000000E+02    0.1720932450E-05    0.6489042097E+00    0.2095836446E-04    0.1010230863E-03    0.4223761931E-02
    0.3300000000E+02    0.1773090661E-05    0.6515740833E+00    0.2196691798E-04    0.1069621750E-03    0.4223577834E-02
    0.3500000000E+02    0.1825810035E-05    0.6539572364E+00    0.2298023261E-04    0.1128830386E-03    0.4223358965E-02
    0.3700000000E+02    0.1879044981E-05    0.6560975011E+00    0.2399765563E-04    0.1187877932E-03    0.4223110411E-02
    0.3900000000E+02    0.1932754337E-05    0.6580302085E+00    0.2501865571E-04    0.1246783038E-03    0.4222836292E-02
    0.4100000000E+02    0.1986901191E-05    0.6597841540E+00    0.2604279878E-04    0.1305562256E-03    0.4222539981E-02
    0.4300000000E+02    0.2041452572E-05    0.6613830421E+00    0.2706972914E-04    0.1364230376E-03    0.4222224267E-02
    0.4500000000E+02    0.2096379085E-05    0.6628465634E+00    0.2809915455E-04    0.1422800682E-03    0.4221891478E-02
    0.4700000000E+02    0.2151654545E-05    0.6641912102E+00    0.2913083447E-04    0.1481285174E-03    0.4221543571E-02
    0.4900000000E+02    0.2207255624E-05    0.6654309001E+00    0.3016457064E-04    0.1539694743E-03    0.4221182203E-02
    0.1000000000E+02    0.1212396761E-05    0.5682260836E+00    0.1103313373E-04    0.3657246474E-04    0.4219604597E-02
    0.3000000000E+02    0.1695079222E-05    0.6474450819E+00    0.2045611771E-04    0.9804596504E-04    0.4223839014E-02
    0.5000000000E+02    0.2235171682E-05    0.6660151528E+00    0.3068215755E-04    0.1568874568E-03    0.4220996921E-02
    0.7000000000E+02    0.2806606526E-05    0.6743036033E+00    0.4111497564E-04    0.2150552964E-03    0.4216838683E-02
    0.9000000000E+02    0.3396879556E-05    0.6789978569E+00    0.5167745052E-04    0.2732310088E-03    0.4212167900E-02
    0.1100000000E+03    0.4001635633E-05    0.6820191510E+00    0.6236852645E-04    0.3317708779E-03    0.4207219169E-02
    0.1300000000E+03    0.4619300220E-05    0.6841265133E+00    0.7320160492E-04    0.3909005926E-03    0.4202083683E-02
    0.1500000000E+03    0.5249404573E-05    0.6856801305E+00    0.8419251587E-04    0.4507815010E-03    0.4196802407E-02
    0.1700000000E+03    0.5891977684E-05    0.6868728993E+00    0.9535679310E-04    0.5115392716E-03    0.4191395002E-02
    0.1900000000E+03    0.6547295554E-05    0.6878174449E+00    0.1067091482E-03    0.5732782661E-03    0.4185870856E-02
    0.2100000000E+03    0.7215767752E-05    0.6885839414E+00    0.1182635114E-03    0.6360895298E-03    0.4180233914E-02
    0.2300000000E+03    0.7897882621E-05    0.6892183900E+00    0.1300332064E-03    0.7000555909E-03    0.4174485016E-02
    0.2500000000E+03    0.8594179677E-05    0.6897522021E+00    0.1420311356E-03    0.7652535270E-03    0.4168623116E-02
    0.2700000000E+03    0.9305235452E-05    0.6902075587E+00    0.1542699453E-03    0.8317570278E-03    0.4162645947E-02
    0.2900000000E+03    0.1003165634E-04    0.6906005687E+00    0.1667621656E-03    0.8996378480E-03    0.4156550417E-02
    0.3100000000E+03    0.1077407528E-04    0.6909432135E+00    0.1795203271E-03    0.9689668728E-03    0.4150332827E-02
    0.3300000000E+03    0.1153315056E-04    0.6912445896E+00    0.1925570600E-03    0.1039814932E-02    0.4143989019E-02
    0.3500000000E+03    0.1230956590E-04    0.6915117273E+00    0.2058851789E-03    0.1112253442E-02    0.4137514457E-02
    0.3700000000E+03    0.1310403134E-04    0.6917501461E+00    0.2195177575E-03    0.1186354936E-02    0.4130904279E-02
    0.3900000000E+03    0.1391728457E-04    0.6919642395E+00    0.2334681950E-03    0.1262193516E-02    0.4124153326E-02
    0.4100000000E+03    0.1475009263E-04    0.6921575485E+00    0.2477502777E-03    0.1339845242E-02    0.4117256159E-02
    0.4300000000E+03    0.1560325383E-04    0.6923329586E+00    0.2623782362E-03    0.1419388491E-02    0.4110207066E-02
    0.4500000000E+03    0.1647759987E-04    0.6924928449E+00    0.2773668011E-03    0.1500904296E-02    0.4103000059E-02
    0.4700000000E+03    0.1737399811E-04    0.6926391801E+00    0.2927312560E-03    0.1584476654E-02    0.4095628872E-02
    0.4900000000E+03    0.1829335406E-04    0.6927736162E+00    0.3084874916E-03    0.1670192843E-02    0.4088086946E-02
    0.1000000000E+03    0.3697582959E-05    0.6806562656E+00    0.5700619526E-04    0.3024393137E-03    0.4209720834E-02
    0.3000000000E+03    0.1040082551E-04    0.6907775618E+00    0.1731072177E-03    0.9341169149E-03    0.4153457130E-02
    0.5000000000E+03    0.1876193521E-04    0.6928368164E+00    0.3165176719E-03    0.1713883121E-02    0.4084249826E-02
    0.7000000000E+03    0.2959987337E-04    0.6937225866E+00    0.5022325422E-03    0.2725168464E-02    0.3996655289E-02
    0.9000000000E+03    0.4421965841E-04    0.6942153607E+00    0.7528865260E-03    0.4092208879E-02    0.3881313314E-02
    0.1100000000E+04    0.6484586828E-04    0.6945291152E+00    0.1106901805E-02    0.6026083880E-02    0.3722610054E-02
    0.1300000000E+04    0.9549491384E-04    0.6947463603E+00    0.1633701381E-02    0.8908887995E-02    0.3493181095E-02
    0.1500000000E+04    0.1436604062E-03    0.6949056592E+00    0.2463120244E-02    0.1345717162E-01    0.3144121023E-02
    0.1700000000E+04    0.2225283784E-03    0.6950274476E+00    0.3824727852E-02    0.2094434041E-01    0.2596090639E-02
    0.1900000000E+04    0.3464212441E-03    0.6951235647E+00    0.5972188509E-02    0.3280209857E-01    0.1787264785E-02
    0.2100000000E+04    0.4972070476E-03    0.6952013428E+00    0.8604769352E-02    0.4744785569E-01    0.9055684843E-03
    0.2300000000E+04    0.6146105929E-03    0.6952655656E+00    0.1068530901E-01    0.5919924981E-01    0.3621295958E-03
    0.2500000000E+04    0.6857439466E-03    0.6953194865E+00    0.1198067927E-01    0.6671434580E-01    0.1660035785E-03
    0.2700000000E+04    0.7347153288E-03    0.6953653954E+00    0.1290064967E-01    0.7221003052E-01    0.1120347175E-03
    0.2900000000E+04    0.7756378615E-03    0.6954049507E+00    0.1368762996E-01    0.7701259377E-01    0.9857567285E-04
    0.3100000000E+04    0.8131317417E-03    0.6954393827E+00    0.1442117887E-01    0.8155874317E-01    0.9546872801E-04
    0.3300000000E+04    0.8485271751E-03    0.6954696238E+00    0.1512403189E-01    0.8597254914E-01    0.9493373006E-04
    0.3500000000E+04    0.8822286894E-03    0.6954963929E+00    0.1580286535E-01    0.9028929275E-01    0.9502769693E-04
    0.3700000000E+04    0.9143918775E-03    0.6955202536E+00    0.1646003088E-01    0.9452028722E-01    0.9526778582E-04
    0.3900000000E+04    0.9451044724E-03    0.6955416539E+00    0.1709671050E-01    0.9867039744E-01    0.9553424062E-04
    0.4100000000E+04    0.9744341068E-03    0.6955609544E+00    0.1771375213E-01    0.1027426996E+00    0.9579785505E-04
    0.4300000000E+04    0.1002440972E-02    0.6955784485E+00    0.1831189128E-01    0.1067397202E+00    0.9605207052E-04
    0.4500000000E+04    0.1029181266E-02    0.6955943773E+00    0.1889181087E-01    0.1106637688E+00    0.9629596015E-04
    0.4700000000E+04    0.1054708214E-02    0.6956089411E+00    0.1945415838E-01    0.1145170304E+00    0.9652994312E-04
    0.4900000000E+04    0.1079072446E-02    0.6956223074E+00    0.1999955151E-01    0.1183015936E+00    0.9675470645E-04
    0.1000000000E+04    0.5358766178E-04    0.6943879146E+00    0.9136179991E-03    0.4969838995E-02    0.3808725946E-02
    0.3000000000E+04    0.7946939159E-03    0.6954227430E+00    0.1405903271E-01    0.7930648845E-01    0.9644824912E-04
    0.5000000000E+04    0.1090833705E-02    0.6956285864E+00    0.2026607573E-01    0.1201687424E+00    0.9686384826E-04
    0.7000000000E+04    0.1275600653E-02    0.6957162165E+00    0.2483716566E-01    0.1543518974E+00    0.9869847727E-04
    0.9000000000E+04    0.1386945407E-02    0.6957645591E+00    0.2824836767E-01    0.1835158981E+00    0.1000900544E-03
    0.1100000000E+05    0.1448857261E-02    0.6957951009E+00    0.3081235834E-01    0.2087805515E+00    0.1012146577E-03
    0.1300000000E+05    0.1477096321E-02    0.6958160895E+00    0.3274458224E-01    0.2309469030E+00    0.1021601617E-03
    0.1500000000E+05    0.1482249092E-02    0.6958313656E+00    0.3419752400E-01    0.2506040687E+00    0.1029769129E-03
    0.1700000000E+05    0.1471557216E-02    0.6958429581E+00    0.3528159475E-01    0.2681956954E+00    0.1036965063E-03
    0.1900000000E+05    0.1450048023E-02    0.6958520391E+00    0.3607831999E-01    0.2840628010E+00    0.1043401001E-03
    0.2100000000E+05    0.1421253111E-02    0.6958593326E+00    0.3664892450E-01    0.2984722510E+00    0.1049225722E-03
    0.2300000000E+05    0.1387676138E-02    0.6958653095E+00    0.3704007140E-01    0.3116361993E+00    0.1054547902E-03
    0.2500000000E+05    0.1351103758E-02    0.6958702896E+00    0.3728778914E-01    0.3237256777E+00    0.1059449391E-03
    0.2700000000E+05    0.1312816098E-02    0.6958744970E+00    0.3742021478E-01    0.3348802957E+00    0.1063993403E-03
    0.2900000000E+05    0.1273731541E-02    0.6958780941E+00    0.3745954579E-01    0.3452152939E+00    0.1068229792E-03
    0.3100000000E+05    0.1234507736E-02    0.6958812006E+00    0.3742345188E-01    0.3548267617E+00    0.1072198584E-03
    0.3300000000E+05    0.1195612958E-02    0.6958839074E+00    0.3732611147E-01    0.3637955534E+00    0.1075932413E-03
    0.3500000000E+05    0.1157377099E-02    0.6958862841E+00    0.3717898287E-01    0.3721902712E+00    0.1079458237E-03
    0.3700000000E+05    0.1120028440E-02    0.6958883855E+00    0.3699138519E-01    0.3800695636E+00    0.1082798591E-03
    0.3900000000E+05    0.1083720421E-02    0.6958902546E+00    0.3677094067E-01    0.3874839188E+00    0.1085972509E-03
    0.4100000000E+05    0.1048551270E-02    0.6958919264E+00    0.3652391513E-01    0.3944770774E+00    0.1088996212E-03
    0.4300000000E+05    0.1014578489E-02    0.6958934289E+00    0.3625548233E-01    0.4010871577E+00    0.1091883642E-03
    0.4500000000E+05    0.9818296110E-03    0.6958947853E+00    0.3596993102E-01    0.4073475586E+00    0.1094646871E-03
    0.4700000000E+05    0.9503102210E-03    0.6958960148E+00    0.3567082849E-01    0.4132876915E+00    0.1097296421E-03
    0.4900000000E+05    0.9200099603E-03    0.6958971334E+00    0.3536115065E-01    0.4189335772E+00    0.1099841519E-03
    0.1000000000E+05    0.1422946141E-02    0.6957813846E+00    0.2962100630E-01    0.1965796117E+00    0.1006790111E-03
    0.3000000000E+05    0.1254104018E-02    0.6958797024E+00    0.3744996909E-01    0.3501060975E+00    0.1070245448E-03
    0.5000000000E+05    0.9053105407E-03    0.6958976554E+00    0.3520314031E-01    0.4216535046E+00    0.1101077481E-03
    0.7000000000E+05    0.6671154234E-03    0.6959046331E+00    0.3191191753E-01    0.4650619663E+00    0.1121866521E-03
    0.9000000000E+05    0.5086191512E-03    0.6959081090E+00    0.2884411921E-01    0.4947624171E+00    0.1137648670E-03
    0.1100000000E+06    0.3997305473E-03    0.6959100635E+00    0.2618856658E-01    0.5165594697E+00    0.1150409264E-03
    0.1300000000E+06    0.3221777566E-03    0.6959112368E+00    0.2392396500E-01    0.5333188247E+00    0.1161141038E-03
    0.1500000000E+06    0.2651346844E-03    0.6959119642E+00    0.2199060666E-01    0.5466439029E+00    0.1170413449E-03
    0.1700000000E+06    0.2220048201E-03    0.6959124181E+00    0.2032978670E-01    0.5575114312E+00    0.1178584150E-03
    0.1900000000E+06    0.1886214784E-03    0.6959126950E+00    0.1889208867E-01    0.5665543181E+00    0.1185892793E-03
    0.2100000000E+06    0.1622599008E-03    0.6959128529E+00    0.1763773990E-01    0.5742024949E+00    0.1192507968E-03
    0.2300000000E+06    0.1410816608E-03    0.6959129282E+00    0.1653511854E-01    0.5807591185E+00    0.1198552867E-03
    0.2500000000E+06    0.1238115483E-03    0.6959129450E+00    0.1555908027E-01    0.5864445428E+00    0.1204120298E-03
    0.2700000000E+06    0.1095431862E-03    0.6959129195E+00    0.1468952603E-01    0.5914230274E+00    0.1209281953E-03
    0.2900000000E+06    0.9761832642E-04    0.6959128631E+00    0.1391027039E-01    0.5958196583E+00    0.1214094384E-03
    0.3100000000E+06    0.8754970624E-04    0.6959127838E+00    0.1320817250E-01    0.5997314505E+00    0.1218603004E-03
    0.3300000000E+06    0.7897044433E-04    0.6959126876E+00    0.1257247455E-01    0.6032348544E+00    0.1222844838E-03
    0.3500000000E+06    0.7160005862E-04    0.6959125787E+00    0.1199429804E-01    0.6063909609E+00    0.1226850482E-03
    0.3700000000E+06    0.6522115917E-04    0.6959124605E+00    0.1146625859E-01    0.6092491947E+00    0.1230645511E-03
    0.3900000000E+06    0.5966315407E-04    0.6959123353E+00    0.1098216933E-01    0.6118499854E+00    0.1234251529E-03
    0.4100000000E+06    0.5479065910E-04    0.6959122051E+00    0.1053681087E-01    0.6142267329E+00    0.1237686950E-03
    0.4300000000E+06    0.5049512229E-04    0.6959120714E+00    0.1012575147E-01    0.6164072784E+00    0.1240967601E-03
    0.4500000000E+06    0.4668868366E-04    0.6959119353E+00    0.9745205337E-02    0.6184150180E+00    0.1244107185E-03
    0.4700000000E+06    0.4329961396E-04    0.6959117976E+00    0.9391920093E-02    0.6202697592E+00    0.1247117651E-03
    0.4900000000E+06    0.4026888484E-04    0.6959116590E+00    0.9063086734E-02    0.6219883854E+00    0.1250009476E-03
    0.1000000000E+06    0.4493406357E-03    0.6959092158E+00    0.2746434507E-01    0.5064285556E+00    0.1144330813E-03
    0.3000000000E+06    0.9237727613E-04    0.6959128259E+00    0.1355029838E-01    0.5978309690E+00    0.1216384186E-03
    0.5000000000E+06    0.3887226961E-04    0.6959115896E+00    0.8907064787E-02    0.6228012627E+00    0.1251413829E-03
    0.7000000000E+06    0.2137294767E-04    0.6959102406E+00    0.6619958112E-02    0.6345396655E+00    0.1275036295E-03
    0.9000000000E+06    0.1352663684E-04    0.6959090329E+00    0.5262068594E-02    0.6413654304E+00    0.1292970500E-03
    0.1100000000E+07    0.9338711222E-05    0.6959079699E+00    0.4363715394E-02    0.6458291000E+00    0.1307471592E-03
    0.1300000000E+07    0.6840186661E-05    0.6959070282E+00    0.3725789883E-02    0.6489757357E+00    0.1319667385E-03
    0.1500000000E+07    0.5229435942E-05    0.6959061853E+00    0.3249584065E-02    0.6513131055E+00    0.1330204871E-03
    0.1700000000E+07    0.4129945292E-05    0.6959054235E+00    0.2880631393E-02    0.6531176937E+00    0.1339490426E-03
    0.1900000000E+07    0.3345745686E-05    0.6959047289E+00    0.2586432579E-02    0.6545529296E+00    0.1347796359E-03
    0.2100000000E+07    0.2766606152E-05    0.6959040906E+00    0.2346401760E-02    0.6557216126E+00    0.1355314238E-03
    0.2300000000E+07    0.2326632179E-05    0.6959035001E+00    0.2146868994E-02    0.6566916411E+00    0.1362184052E-03
    0.2500000000E+07    0.1984452404E-05    0.6959029509E+00    0.1978402682E-02    0.6575096632E+00    0.1368511262E-03
    0.2700000000E+07    0.1713020730E-05    0.6959024373E+00    0.1834286077E-02    0.6582087864E+00    0.1374377336E-03
    0.2900000000E+07    0.1494046411E-05    0.6959019551E+00    0.1709606612E-02    0.6588131575E+00    0.1379846541E-03
    0.3100000000E+07    0.1314797713E-05    0.6959015006E+00    0.1600688602E-02    0.6593408012E+00    0.1384970480E-03
    0.3300000000E+07    0.1166189330E-05    0.6959010706E+00    0.1504727255E-02    0.6598054450E+00    0.1389791233E-03
    0.3500000000E+07    0.1041596167E-05    0.6959006627E+00    0.1419545322E-02    0.6602177271E+00    0.1394343567E-03
    0.3700000000E+07    0.9360943585E-06    0.6959002746E+00    0.1343426992E-02    0.6605860189E+00    0.1398656548E-03
    0.3900000000E+07    0.8459622351E-06    0.6958999045E+00    0.1275001877E-02    0.6609169984E+00    0.1402754724E-03
    0.4100000000E+07    0.7683441947E-06    0.6958995506E+00    0.1213162304E-02    0.6612160577E+00    0.1406659023E-03
    0.4300000000E+07    0.7010193955E-06    0.6958992117E+00    0.1157003279E-02    0.6614875978E+00    0.1410387431E-03
    0.4500000000E+07    0.6422394903E-06    0.6958988865E+00    0.1105778188E-02    0.6617352468E+00    0.1413955523E-03
    0.4700000000E+07    0.5906128062E-06    0.6958985738E+00    0.1058865622E-02    0.6619620220E+00    0.1417376875E-03
    0.4900000000E+07    0.5450203661E-06    0.6958982728E+00    0.1015744207E-02    0.6621704535E+00    0.1420663395E-03
    0.1000000000E+07    0.1114124723E-04    0.6959084847E+00    0.4771328298E-02    0.6438086531E+00    0.1300564018E-03
    0.3000000000E+07    0.1400093123E-05    0.6959017246E+00    0.1653369822E-02    0.6590856280E+00    0.1382448845E-03
    0.5000000000E+07    0.5241963278E-06    0.6958981264E+00    0.9954647510E-03    0.6622684713E+00    0.1422259424E-03
    0.7000000000E+07    0.2737967062E-06    0.6958956428E+00    0.7108068490E-03    0.6636442596E+00    0.1449106092E-03
    0.9000000000E+07    0.1685076035E-06    0.6958937355E+00    0.5521906351E-03    0.6644111960E+00    0.1469488149E-03
    0.1100000000E+08    0.1143934216E-06    0.6958921823E+00    0.4511614128E-03    0.6649000565E+00    0.1485968516E-03
    0.1300000000E+08    0.8289962323E-07    0.6958908696E+00    0.3812145668E-03    0.6652387954E+00    0.1499828931E-03
    0.1500000000E+08    0.6294691007E-07    0.6958897311E+00    0.3299381551E-03    0.6654873216E+00    0.1511804693E-03
    0.1700000000E+08    0.4950068342E-07    0.6958887249E+00    0.2907482758E-03    0.6656774176E+00    0.1522357645E-03
    0.1900000000E+08    0.4000314377E-07    0.6958878227E+00    0.2598289206E-03    0.6658275096E+00    0.1531797262E-03
    0.2100000000E+08    0.3304189933E-07    0.6958870043E+00    0.2348163302E-03    0.6659490155E+00    0.1540341262E-03
    0.2300000000E+08    0.2778486363E-07    0.6958862551E+00    0.2141684513E-03    0.6660493866E+00    0.1548148738E-03
    0.2500000000E+08    0.2371573758E-07    0.6958855640E+00    0.1968365857E-03    0.6661336927E+00    0.1555339548E-03
    0.2700000000E+08    0.2050025676E-07    0.6958849224E+00    0.1820827930E-03    0.6662055024E+00    0.1562006281E-03
