  Pressure (Pa) 23mC5-500 (mol/kg) 24mC5-500 (mol/kg) 2mC6-500 (mol/kg) 3mC6-500 (mol/kg) C7-500 (mol/kg)
    0.1000000000E+01    0.7207632277E-06    0.6965058469E-01    0.1641003120E-04    0.6405741008E-05    0.4195317578E-02
    0.3000000000E+01    0.1725233448E-05    0.1740839413E+00    0.3804389389E-04    0.1639812695E-04    0.4252497039E-02
    0.5000000000E+01    0.2385496509E-05    0.2486490364E+00    0.5142631467E-04    0.2560637602E-04    0.4291147994E-02
    0.7000000000E+01    0.2844039836E-05    0.3045571573E+00    0.6026105006E-04    0.3444352939E-04    0.4319941857E-02
    0.9000000000E+01    0.3176226972E-05    0.3480324328E+00    0.6642558048E-04    0.4304876822E-04    0.4342302650E-02
    0.1100000000E+02    0.3425375811E-05    0.3828074041E+00    0.7095442379E-04    0.5149166414E-04    0.4360178836E-02
    0.1300000000E+02    0.3617914062E-05    0.4112563820E+00    0.7445121492E-04    0.5981358958E-04    0.4374791230E-02
    0.1500000000E+02    0.3770729291E-05    0.4349617471E+00    0.7728384992E-04    0.6804178774E-04    0.4386949417E-02
    0.1700000000E+02    0.3895022126E-05    0.4550187204E+00    0.7968435206E-04    0.7619545773E-04    0.4397213117E-02
    0.1900000000E+02    0.3998452188E-05    0.4722094437E+00    0.8180309637E-04    0.8428880516E-04    0.4405982312E-02
    0.2100000000E+02    0.4086393251E-05    0.4871073918E+00    0.8373968819E-04    0.9233273479E-04    0.4413550740E-02
    0.2300000000E+02    0.4162697945E-05    0.5001426110E+00    0.8556125309E-04    0.1003358625E-03    0.4420139139E-02
    0.2500000000E+02    0.4230180012E-05    0.5116439214E+00    0.8731363528E-04    0.1083051558E-03    0.4425916698E-02
    0.2700000000E+02    0.4290927567E-05    0.5218670470E+00    0.8902845048E-04    0.1162463585E-03    0.4431015343E-02
    0.2900000000E+02    0.4346511893E-05    0.5310138577E+00    0.9072763728E-04    0.1241642822E-03    0.4435539501E-02
    0.3100000000E+02    0.4398129768E-05    0.5392458379E+00    0.9242645682E-04    0.1320630141E-03    0.4439572947E-02
    0.3300000000E+02    0.4446702444E-05    0.5466937049E+00    0.9413550668E-04    0.1399460668E-03    0.4443183690E-02
    0.3500000000E+02    0.4492945696E-05    0.5534644032E+00    0.9586209472E-04    0.1478164912E-03    0.4446427533E-02
    0.3700000000E+02    0.4537420203E-05    0.5596462743E+00    0.9761118986E-04    0.1556769616E-03    0.4449350707E-02
    0.3900000000E+02    0.4580568289E-05    0.5653129328E+00    0.9938608811E-04    0.1635298411E-03    0.4451991851E-02
    0.4100000000E+02    0.4622741077E-05    0.5705262130E+00    0.1011888843E-03    0.1713772336E-03    0.4454383515E-02
    0.4300000000E+02    0.4664218790E-05    0.5753384344E+00    0.1030208092E-03    0.1792210244E-03    0.4456553323E-02
    0.4500000000E+02    0.4705226080E-05    0.5797941643E+00    0.1048824728E-03    0.1870629134E-03    0.4458524873E-02
    0.4700000000E+02    0.4745943743E-05    0.5839316021E+00    0.1067740405E-03    0.1949044416E-03    0.4460318453E-02
    0.4900000000E+02    0.4786517717E-05    0.5877836779E+00    0.1086953619E-03    0.2027470130E-03    0.4461951600E-02
    0.1000000000E+02    0.3309243293E-05    0.3663356128E+00    0.6884957058E-04    0.4728748670E-04    0.4351712751E-02
    0.3000000000E+02    0.4372753536E-05    0.5352354032E+00    0.9157633990E-04    0.1281158156E-03    0.4437612990E-02
    0.5000000000E+02    0.4806788651E-05    0.5896117744E+00    0.1096670706E-03    0.2066690958E-03    0.4462712855E-02
    0.7000000000E+02    0.5223640947E-05    0.6164541920E+00    0.1305193133E-03    0.2854292996E-03    0.4472341110E-02
    0.9000000000E+02    0.5679840647E-05    0.6324506644E+00    0.1536130539E-03    0.3653011103E-03    0.4475483842E-02
    0.1100000000E+03    0.6179600410E-05    0.6430698407E+00    0.1784478971E-03    0.4467941284E-03    0.4475169856E-02
    0.1300000000E+03    0.6720158102E-05    0.6506328783E+00    0.2047420023E-03    0.5302640476E-03    0.4472714504E-02
    0.1500000000E+03    0.7298550799E-05    0.6562930468E+00    0.2323489707E-03    0.6159947780E-03    0.4468782213E-02
    0.1700000000E+03    0.7912658262E-05    0.6606881874E+00    0.2612004481E-03    0.7042341870E-03    0.4463743441E-02
    0.1900000000E+03    0.8561210622E-05    0.6641997225E+00    0.2912746940E-03    0.7952123105E-03    0.4457818951E-02
    0.2100000000E+03    0.9243631217E-05    0.6670697423E+00    0.3225795113E-03    0.8891517957E-03    0.4451146119E-02
    0.2300000000E+03    0.9959888528E-05    0.6694593026E+00    0.3551427484E-03    0.9862745133E-03    0.4443812469E-02
    0.2500000000E+03    0.1071038473E-04    0.6714797119E+00    0.3890068867E-03    0.1086806138E-02    0.4435873911E-02
    0.2700000000E+03    0.1149587751E-04    0.6732103620E+00    0.4242259175E-03    0.1190979602E-02    0.4427365259E-02
    0.2900000000E+03    0.1231742723E-04    0.6747094026E+00    0.4608635588E-03    0.1299037904E-02    0.4418306570E-02
    0.3100000000E+03    0.1317636244E-04    0.6760204000E+00    0.4989922912E-03    0.1411236577E-02    0.4408707116E-02
    0.3300000000E+03    0.1407425881E-04    0.6771766393E+00    0.5386929186E-03    0.1527845967E-02    0.4398567934E-02
    0.3500000000E+03    0.1501292792E-04    0.6782039880E+00    0.5800544845E-03    0.1649153459E-02    0.4387883496E-02
    0.3700000000E+03    0.1599441350E-04    0.6791228533E+00    0.6231744431E-03    0.1775465723E-02    0.4376642808E-02
    0.3900000000E+03    0.1702099364E-04    0.6799495506E+00    0.6681590254E-03    0.1907111045E-02    0.4364830138E-02
    0.4100000000E+03    0.1809518785E-04    0.6806972799E+00    0.7151237665E-03    0.2044441796E-02    0.4352425475E-02
    0.4300000000E+03    0.1921976843E-04    0.6813768359E+00    0.7641941757E-03    0.2187837081E-02    0.4339404801E-02
    0.4500000000E+03    0.2039777558E-04    0.6819971315E+00    0.8155065396E-03    0.2337705618E-02    0.4325740230E-02
    0.4700000000E+03    0.2163253627E-04    0.6825655910E+00    0.8692088575E-03    0.2494488875E-02    0.4311400031E-02
    0.4900000000E+03    0.2292768670E-04    0.6830884484E+00    0.9254619140E-03    0.2658664530E-02    0.4296348572E-02
    0.1000000000E+03    0.5924414965E-05    0.6382474134E+00    0.1658345387E-03    0.4058204386E-03    0.4475654654E-02
    0.3000000000E+03    0.1274212878E-04    0.6753861244E+00    0.4797366810E-03    0.1354603171E-02    0.4413574203E-02
    0.5000000000E+03    0.2359913530E-04    0.6833344565E+00    0.9545990061E-03    0.2743684612E-02    0.4288543886E-02
    0.7000000000E+03    0.4143131876E-04    0.6867962080E+00    0.1725099099E-02    0.4990988715E-02    0.4082519838E-02
    0.9000000000E+03    0.7381152028E-04    0.6887332661E+00    0.3120420715E-02    0.9065602334E-02    0.3718386447E-02
    0.1100000000E+04    0.1396941481E-03    0.6899707534E+00    0.5963348540E-02    0.1739331171E-01    0.3013083692E-02
    0.1300000000E+04    0.2668704470E-03    0.6908294537E+00    0.1148052151E-01    0.3365403880E-01    0.1771384843E-02
    0.1500000000E+04    0.3974469611E-03    0.6914600553E+00    0.1722738009E-01    0.5084555839E-01    0.7512628870E-03
    0.1700000000E+04    0.4644871644E-03    0.6919426908E+00    0.2028918925E-01    0.6034380245E-01    0.4913610263E-03
    0.1900000000E+04    0.5073502043E-03    0.6923239019E+00    0.2233244966E-01    0.6693901612E-01    0.4572093757E-03
    0.2100000000E+04    0.5441995301E-03    0.6926325690E+00    0.2413724987E-01    0.7290826444E-01    0.4551819631E-03
    0.2300000000E+04    0.5781565681E-03    0.6928875624E+00    0.2583687723E-01    0.7863899777E-01    0.4570049223E-03
    0.2500000000E+04    0.6097899781E-03    0.6931017324E+00    0.2745405548E-01    0.8419310964E-01    0.4591438871E-03
    0.2700000000E+04    0.6393043333E-03    0.6932841325E+00    0.2899577541E-01    0.8958618297E-01    0.4611806375E-03
    0.2900000000E+04    0.6668452126E-03    0.6934413246E+00    0.3046660234E-01    0.9482695700E-01    0.4630820675E-03
    0.3100000000E+04    0.6925413573E-03    0.6935781814E+00    0.3187051575E-01    0.9992279385E-01    0.4648600787E-03
    0.3300000000E+04    0.7165111627E-03    0.6936983962E+00    0.3321118290E-01    0.1048804690E+00    0.4665293780E-03
    0.3500000000E+04    0.7388642525E-03    0.6938048199E+00    0.3449201593E-01    0.1097063133E+00    0.4681027227E-03
    0.3700000000E+04    0.7597023126E-03    0.6938996878E+00    0.3571619710E-01    0.1144062612E+00    0.4695908086E-03
    0.3900000000E+04    0.7791197641E-03    0.6939847775E+00    0.3688669801E-01    0.1189858837E+00    0.4710026348E-03
    0.4100000000E+04    0.7972043620E-03    0.6940615199E+00    0.3800629643E-01    0.1234504158E+00    0.4723458376E-03
    0.4300000000E+04    0.8140377365E-03    0.6941310801E+00    0.3907759151E-01    0.1278047822E+00    0.4736269522E-03
    0.4500000000E+04    0.8296958845E-03    0.6941944163E+00    0.4010301762E-01    0.1320536201E+00    0.4748516151E-03
    0.4700000000E+04    0.8442496161E-03    0.6942523236E+00    0.4108485688E-01    0.1362012998E+00    0.4760247226E-03
    0.4900000000E+04    0.8577649613E-03    0.6943054674E+00    0.4202525064E-01    0.1402519443E+00    0.4771505551E-03
    0.1000000000E+04    0.1006550024E-03    0.6894134447E+00    0.4277769759E-02    0.1245175952E-01    0.3425728401E-02
    0.3000000000E+04    0.6799162596E-03    0.6935120410E+00    0.3117668767E-01    0.9739255787E-01    0.4639855467E-03
    0.5000000000E+04    0.8641526581E-03    0.6943304318E+00    0.4248053872E-01    0.1422421033E+00    0.4776969374E-03
    0.7000000000E+04    0.9503340501E-03    0.6946787187E+00    0.4983884991E-01    0.1777901095E+00    0.4868576607E-03
    0.9000000000E+04    0.9823464227E-03    0.6948706526E+00    0.5472849858E-01    0.2069681228E+00    0.4937824965E-03
    0.1100000000E+05    0.9836030882E-03    0.6949917466E+00    0.5799785989E-01    0.2315567664E+00    0.4993677971E-03
    0.1300000000E+05    0.9672408985E-03    0.6950748354E+00    0.6016425213E-01    0.2527053621E+00    0.5040576018E-03
    0.1500000000E+05    0.9409102122E-03    0.6951352096E+00    0.6155828248E-01    0.2711923712E+00    0.5081051469E-03
    0.1700000000E+05    0.9091874520E-03    0.6951809457E+00    0.6239936620E-01    0.2875661146E+00    0.5116688503E-03
    0.1900000000E+05    0.8748596803E-03    0.6952167079E+00    0.6283769788E-01    0.3022255410E+00    0.5148545552E-03
    0.2100000000E+05    0.8396401414E-03    0.6952453762E+00    0.6297876453E-01    0.3154689498E+00    0.5177365569E-03
    0.2300000000E+05    0.8045819157E-03    0.6952688239E+00    0.6289826877E-01    0.3275246338E+00    0.5203690507E-03
    0.2500000000E+05    0.7703245489E-03    0.6952883214E+00    0.6265153941E-01    0.3385708484E+00    0.5227928081E-03
    0.2700000000E+05    0.7372449352E-03    0.6953047602E+00    0.6227964784E-01    0.3487492285E+00    0.5250392884E-03
    0.2900000000E+05    0.7055516345E-03    0.6953187841E+00    0.6181348904E-01    0.3581740474E+00    0.5271332836E-03
    0.3100000000E+05    0.6753448900E-03    0.6953308694E+00    0.6127656780E-01    0.3669387577E+00    0.5290946853E-03
    0.3300000000E+05    0.6466553821E-03    0.6953413759E+00    0.6068693976E-01    0.3751207086E+00    0.5309397014E-03
    0.3500000000E+05    0.6194695396E-03    0.6953505803E+00    0.6005858827E-01    0.3827846124E+00    0.5326817158E-03
    0.3700000000E+05    0.5937462133E-03    0.6953586990E+00    0.5940241678E-01    0.3899851339E+00    0.5343319112E-03
    0.3900000000E+05    0.5694277192E-03    0.6953659032E+00    0.5872697451E-01    0.3967688545E+00    0.5358997284E-03
    0.4100000000E+05    0.5464471663E-03    0.6953723306E+00    0.5803899404E-01    0.4031757817E+00    0.5373932116E-03
    0.4300000000E+05    0.5247333093E-03    0.6953780929E+00    0.5734379416E-01    0.4092405249E+00    0.5388192724E-03
    0.4500000000E+05    0.5042137399E-03    0.6953832814E+00    0.5664558515E-01    0.4149932201E+00    0.5401838931E-03
    0.4700000000E+05    0.4848169536E-03    0.6953879719E+00    0.5594770216E-01    0.4204602667E+00    0.5414922872E-03
    0.4900000000E+05    0.4664736562E-03    0.6953922276E+00    0.5525278545E-01    0.4256649180E+00    0.5427490262E-03
    0.1000000000E+05    0.9858296210E-03    0.6949373854E+00    0.5652777935E-01    0.2197533387E+00    0.4967085954E-03
    0.3000000000E+05    0.6902592429E-03    0.6953250444E+00    0.6155263590E-01    0.3626337501E+00    0.5281294708E-03
    0.5000000000E+05    0.4576762179E-03    0.6953942093E+00    0.5490710965E-01    0.4281753719E+00    0.5433593035E-03
    0.7000000000E+05    0.3229097588E-03    0.6954203322E+00    0.4846337221E-01    0.4685598837E+00    0.5536220792E-03
    0.9000000000E+05    0.2398528837E-03    0.6954328751E+00    0.4310296324E-01    0.4965994371E+00    0.5614109550E-03
    0.1100000000E+06    0.1852799651E-03    0.6954395912E+00    0.3871397812E-01    0.5174190308E+00    0.5677075943E-03
    0.1300000000E+06    0.1475249330E-03    0.6954433564E+00    0.3509369046E-01    0.5335739784E+00    0.5730025593E-03
    0.1500000000E+06    0.1203141735E-03    0.6954454637E+00    0.3207080811E-01    0.5465121331E+00    0.5775771406E-03
    0.1700000000E+06    0.1000467098E-03    0.6954465714E+00    0.2951492803E-01    0.5571261438E+00    0.5816079610E-03
    0.1900000000E+06    0.8453851369E-04    0.6954470456E+00    0.2732859278E-01    0.5660006730E+00    0.5852133466E-03
    0.2100000000E+06    0.7240273947E-04    0.6954471034E+00    0.2543865166E-01    0.5735366001E+00    0.5884765257E-03
    0.2300000000E+06    0.6272424166E-04    0.6954468804E+00    0.2378956727E-01    0.5800188872E+00    0.5914583081E-03
    0.2500000000E+06    0.5487917374E-04    0.6954464644E+00    0.2233860514E-01    0.5856561156E+00    0.5942045013E-03
    0.2700000000E+06    0.4843026357E-04    0.6954459144E+00    0.2105243504E-01    0.5906047173E+00    0.5967504879E-03
    0.2900000000E+06    0.4306355001E-04    0.6954452709E+00    0.1990472438E-01    0.5949844529E+00    0.5991241770E-03
    0.3100000000E+06    0.3854882481E-04    0.6954445623E+00    0.1887441771E-01    0.5988886425E+00    0.6013479782E-03
    0.3300000000E+06    0.3471414099E-04    0.6954438089E+00    0.1794449158E-01    0.6023911294E+00    0.6034401627E-03
    0.3500000000E+06    0.3142894481E-04    0.6954430255E+00    0.1710104159E-01    0.6055511396E+00    0.6054158270E-03
    0.3700000000E+06    0.2859264901E-04    0.6954422229E+00    0.1633260423E-01    0.6084167466E+00    0.6072875910E-03
    0.3900000000E+06    0.2612672825E-04    0.6954414090E+00    0.1562964694E-01    0.6110273911E+00    0.6090661134E-03
    0.4100000000E+06    0.2396914738E-04    0.6954405899E+00    0.1498417996E-01    0.6134157437E+00    0.6107604798E-03
    0.4300000000E+06    0.2207036693E-04    0.6954397699E+00    0.1438945769E-01    0.6156091035E+00    0.6123784989E-03
    0.4500000000E+06    0.2039043494E-04    0.6954389524E+00    0.1383974651E-01    0.6176304618E+00    0.6139269321E-03
    0.4700000000E+06    0.1889683984E-04    0.6954381400E+00    0.1333014253E-01    0.6194993227E+00    0.6154116733E-03
    0.4900000000E+06    0.1756290479E-04    0.6954373345E+00    0.1285642714E-01    0.6212323416E+00    0.6168378919E-03
    0.1000000000E+06    0.2099096514E-03    0.6954367256E+00    0.4080003692E-01    0.5077159799E+00    0.5647083185E-03
    0.3000000000E+06    0.4071157077E-04    0.6954449233E+00    0.1937604197E-01    0.5969909844E+00    0.6002535875E-03
    0.5000000000E+06    0.1694876350E-04    0.6954369347E+00    0.1263186788E-01    0.6220524622E+00    0.6175305012E-03
    0.7000000000E+06    0.9285301884E-05    0.6954294857E+00    0.9354495689E-02    0.6339259352E+00    0.6291805045E-03
    0.9000000000E+06    0.5869842957E-05    0.6954230966E+00    0.7420629424E-02    0.6408553737E+00    0.6380248661E-03
    0.1100000000E+07    0.4052732328E-05    0.6954175848E+00    0.6145762569E-02    0.6453961541E+00    0.6451759842E-03
    0.1300000000E+07    0.2970693567E-05    0.6954127588E+00    0.5242571824E-02    0.6486012783E+00    0.6511901426E-03
    0.1500000000E+07    0.2273925478E-05    0.6954084729E+00    0.4569451067E-02    0.6509841549E+00    0.6563864536E-03
    0.1700000000E+07    0.1798639902E-05    0.6954046199E+00    0.4048568564E-02    0.6528249946E+00    0.6609653457E-03
    0.1900000000E+07    0.1459772630E-05    0.6954011207E+00    0.3633613911E-02    0.6542897063E+00    0.6650611214E-03
    0.2100000000E+07    0.1209551458E-05    0.6953979155E+00    0.3295315129E-02    0.6554827799E+00    0.6687682609E-03
    0.2300000000E+07    0.1019452778E-05    0.6953949584E+00    0.3014266558E-02    0.6564732961E+00    0.6721558036E-03
    0.2500000000E+07    0.8715845422E-06    0.6953922131E+00    0.2777097105E-02    0.6573087518E+00    0.6752757612E-03
    0.2700000000E+07    0.7542582316E-06    0.6953896509E+00    0.2574294955E-02    0.6580228771E+00    0.6781683119E-03
    0.2900000000E+07    0.6595734435E-06    0.6953872485E+00    0.2398909649E-02    0.6586402850E+00    0.6808651492E-03
    0.3100000000E+07    0.5820332271E-06    0.6953849867E+00    0.2245744775E-02    0.6591793561E+00    0.6833917231E-03
    0.3300000000E+07    0.5177162560E-06    0.6953828497E+00    0.2110837793E-02    0.6596540934E+00    0.6857687847E-03
    0.3500000000E+07    0.4637637561E-06    0.6953808242E+00    0.1991114541E-02    0.6600753518E+00    0.6880134800E-03
    0.3700000000E+07    0.4180514228E-06    0.6953788988E+00    0.1884153628E-02    0.6604516756E+00    0.6901401428E-03
    0.3900000000E+07    0.3789738091E-06    0.6953770639E+00    0.1788022010E-02    0.6607898819E+00    0.6921608796E-03
    0.4100000000E+07    0.3452991608E-06    0.6953753111E+00    0.1701157861E-02    0.6610954761E+00    0.6940860107E-03
    0.4300000000E+07    0.3160695559E-06    0.6953736333E+00    0.1622285597E-02    0.6613729526E+00    0.6959244060E-03
    0.4500000000E+07    0.2905308718E-06    0.6953720241E+00    0.1550353212E-02    0.6616260166E+00    0.6976837458E-03
    0.4700000000E+07    0.2680828106E-06    0.6953704780E+00    0.1484485385E-02    0.6618577503E+00    0.6993707252E-03
    0.4900000000E+07    0.2482426708E-06    0.6953689902E+00    0.1423947899E-02    0.6620707381E+00    0.7009912167E-03
    0.1000000000E+07    0.4834316588E-05    0.6954202440E+00    0.6723777073E-02    0.6433399267E+00    0.6417695790E-03
    0.3000000000E+07    0.6189351239E-06    0.6953861011E+00    0.2319821528E-02    0.6589186516E+00    0.6821483266E-03
    0.5000000000E+07    0.2391751778E-06    0.6953682667E+00    0.1395480321E-02    0.6621708981E+00    0.7017781720E-03
    0.7000000000E+07    0.1297045577E-06    0.6953560174E+00    0.9960518912E-03    0.6635766548E+00    0.7150152799E-03
    0.9000000000E+07    0.8319184580E-07    0.6953466346E+00    0.7736164987E-03    0.6643601310E+00    0.7250646729E-03
    0.1100000000E+08    0.5900185513E-07    0.6953390067E+00    0.6319878364E-03    0.6648594200E+00    0.7331901756E-03
    0.1300000000E+08    0.4474047867E-07    0.6953325674E+00    0.5339549431E-03    0.6652053113E+00    0.7400238244E-03
    0.1500000000E+08    0.3557954309E-07    0.6953269883E+00    0.4621011199E-03    0.6654590370E+00    0.7459281959E-03
    0.1700000000E+08    0.2931532544E-07    0.6953220613E+00    0.4071909581E-03    0.6656530779E+00    0.7511310219E-03
    0.1900000000E+08    0.2482287020E-07    0.6953176463E+00    0.3638730294E-03    0.6658062625E+00    0.7557849017E-03
    0.2100000000E+08    0.2147781949E-07    0.6953136443E+00    0.3288331425E-03    0.6659302564E+00    0.7599971879E-03
    0.2300000000E+08    0.1891036749E-07    0.6953099825E+00    0.2999095474E-03    0.6660326719E+00    0.7638463268E-03
    0.2500000000E+08    0.1688976581E-07    0.6953066062E+00    0.2756322986E-03    0.6661186871E+00    0.7673914172E-03
    0.2700000000E+08    0.1526575040E-07    0.6953034729E+00    0.2549671450E-03    0.6661919471E+00    0.7706781116E-03
