  Pressure (Pa) 23mC5-500 (mol/kg) 24mC5-500 (mol/kg) 2mC6-500 (mol/kg) 3mC6-500 (mol/kg) C7-500 (mol/kg)
    0.1000000000E+01    0.7234209643E-06    0.6964935844E-01    0.3303822927E-04    0.3354556088E-05    0.4184043892E-02
    0.3000000000E+01    0.1730993622E-05    0.1740771207E+00    0.7656230853E-04    0.8530202571E-05    0.4229321343E-02
    0.5000000000E+01    0.2393855279E-05    0.2486366479E+00    0.1035421477E-03    0.1328471224E-04    0.4258565775E-02
    0.7000000000E+01    0.2854769168E-05    0.3045406163E+00    0.1214072989E-03    0.1783959394E-04    0.4280130144E-02
    0.9000000000E+01    0.3189181407E-05    0.3480132255E+00    0.1339194539E-03    0.2226922826E-04    0.4296781918E-02
    0.1100000000E+02    0.3440446773E-05    0.3827867724E+00    0.1431507671E-03    0.2661072858E-04    0.4310034680E-02
    0.1300000000E+02    0.3635013142E-05    0.4112352884E+00    0.1503102752E-03    0.3088613764E-04    0.4320823122E-02
    0.1500000000E+02    0.3789780702E-05    0.4349409125E+00    0.1561349048E-03    0.3510995585E-04    0.4329762801E-02
    0.1700000000E+02    0.3915958773E-05    0.4549986742E+00    0.1610894948E-03    0.3929239316E-04    0.4337277615E-02
    0.1900000000E+02    0.4021213376E-05    0.4721905689E+00    0.1654753815E-03    0.4344099789E-04    0.4343669731E-02
    0.2100000000E+02    0.4110923228E-05    0.4870899607E+00    0.1694922271E-03    0.4756155980E-04    0.4349160666E-02
    0.2300000000E+02    0.4188944911E-05    0.5001268129E+00    0.1732746409E-03    0.5165864968E-04    0.4353916673E-02
    0.2500000000E+02    0.4258095400E-05    0.5116298837E+00    0.1769146019E-03    0.5573596075E-04    0.4358065052E-02
    0.2700000000E+02    0.4320465505E-05    0.5218548506E+00    0.1804755810E-03    0.5979653485E-04    0.4361704986E-02
    0.2900000000E+02    0.4377628788E-05    0.5310035489E+00    0.1840016556E-03    0.6384291786E-04    0.4364914930E-02
    0.3100000000E+02    0.4430783971E-05    0.5392374372E+00    0.1875235168E-03    0.6787726997E-04    0.4367757788E-02
    0.3300000000E+02    0.4480853981E-05    0.5466872135E+00    0.1910625037E-03    0.7190144588E-04    0.4370284595E-02
    0.3500000000E+02    0.4528556043E-05    0.5534598082E+00    0.1946333555E-03    0.7591705455E-04    0.4372537212E-02
    0.3700000000E+02    0.4574452099E-05    0.5596435523E+00    0.1982461165E-03    0.7992550450E-04    0.4374550301E-02
    0.3900000000E+02    0.4618985581E-05    0.5653120529E+00    0.2019074710E-03    0.8392803881E-04    0.4376352819E-02
    0.4100000000E+02    0.4662508584E-05    0.5705271390E+00    0.2056216890E-03    0.8792576252E-04    0.4377969155E-02
    0.4300000000E+02    0.4705302182E-05    0.5753411264E+00    0.2093913024E-03    0.9191966444E-04    0.4379419995E-02
    0.4500000000E+02    0.4747591787E-05    0.5797985799E+00    0.2132175924E-03    0.9591063461E-04    0.4380723006E-02
    0.4700000000E+02    0.4789558859E-05    0.5839376976E+00    0.2171009437E-03    0.9989947852E-04    0.4381893371E-02
    0.4900000000E+02    0.4831349927E-05    0.5877914087E+00    0.2210411028E-03    0.1038869288E-03    0.4382944211E-02
    0.1000000000E+02    0.3323268061E-05    0.3663155560E+00    0.1388553004E-03    0.2444938437E-04    0.4303765176E-02
    0.3000000000E+02    0.4404644181E-05    0.5352260472E+00    0.1857615972E-03    0.6586147548E-04    0.4366378812E-02
    0.5000000000E+02    0.4852217456E-05    0.5896203062E+00    0.2230322791E-03    0.1058803428E-03    0.4383428431E-02
    0.7000000000E+02    0.5279402893E-05    0.6164765347E+00    0.2655578587E-03    0.1458121955E-03    0.4388949900E-02
    0.9000000000E+02    0.5743020888E-05    0.6324833835E+00    0.3123206227E-03    0.1861232853E-03    0.4389657647E-02
    0.1100000000E+03    0.6247321458E-05    0.6431105453E+00    0.3623213744E-03    0.2270684785E-03    0.4387807202E-02
    0.1300000000E+03    0.6789462683E-05    0.6506799029E+00    0.4149885940E-03    0.2688193131E-03    0.4384374945E-02
    0.1500000000E+03    0.7366331694E-05    0.6563451998E+00    0.4700159617E-03    0.3115075138E-03    0.4379852538E-02
    0.1700000000E+03    0.7975607351E-05    0.6607445904E+00    0.5272490625E-03    0.3552438411E-03    0.4374513336E-02
    0.1900000000E+03    0.8615776226E-05    0.6642597109E+00    0.5866231553E-03    0.4001276070E-03    0.4368519859E-02
    0.2100000000E+03    0.9285978656E-05    0.6671328012E+00    0.6481292637E-03    0.4462520382E-03    0.4361973116E-02
    0.2300000000E+03    0.9985861210E-05    0.6695250249E+00    0.7117951995E-03    0.4937075819E-03    0.4354937500E-02
    0.2500000000E+03    0.1071546412E-04    0.6715477701E+00    0.7776746239E-03    0.5425841035E-03    0.4347454315E-02
    0.2700000000E+03    0.1147514086E-04    0.6732804884E+00    0.8458405960E-03    0.5929724564E-03    0.4339549570E-02
    0.2900000000E+03    0.1226550212E-04    0.6747813756E+00    0.9163817272E-03    0.6449656807E-03    0.4331238680E-02
    0.3100000000E+03    0.1308737740E-04    0.6760940339E+00    0.9893999070E-03    0.6986599772E-03    0.4322529407E-02
    0.3300000000E+03    0.1394178927E-04    0.6772517767E+00    0.1065009017E-02    0.7541555477E-03    0.4313423766E-02
    0.3500000000E+03    0.1482993664E-04    0.6782804945E+00    0.1143334287E-02    0.8115573579E-03    0.4303919279E-02
    0.3700000000E+03    0.1575318481E-04    0.6792006130E+00    0.1224512096E-02    0.8709758602E-03    0.4294009817E-02
    0.3900000000E+03    0.1671306052E-04    0.6800284628E+00    0.1308690088E-02    0.9325277046E-03    0.4283686164E-02
    0.4100000000E+03    0.1771125090E-04    0.6807772566E+00    0.1396027518E-02    0.9963364567E-03    0.4272936401E-02
    0.4300000000E+03    0.1874960566E-04    0.6814577995E+00    0.1486695807E-02    0.1062533338E-02    0.4261746154E-02
    0.4500000000E+03    0.1983014186E-04    0.6820790134E+00    0.1580879241E-02    0.1131258004E-02    0.4250098747E-02
    0.4700000000E+03    0.2095505105E-04    0.6826483301E+00    0.1678775836E-02    0.1202659369E-02    0.4237975288E-02
    0.4900000000E+03    0.2212670848E-04    0.6831719902E+00    0.1780598326E-02    0.1276896485E-02    0.4225354696E-02
    0.1000000000E+03    0.5990228292E-05    0.6382843716E+00    0.3369599816E-03    0.2065046386E-03    0.4388974722E-02
    0.3000000000E+03    0.1267244089E-04    0.6754589491E+00    0.9525743394E-03    0.6715940353E-03    0.4326933598E-02
    0.5000000000E+03    0.2273086301E-04    0.6834183809E+00    0.1833052564E-02    0.1315131161E-02    0.4218850786E-02
    0.7000000000E+03    0.3804057080E-04    0.6868859313E+00    0.3156167126E-02    0.2278925029E-02    0.4055499017E-02
    0.9000000000E+03    0.6303259322E-04    0.6888267080E+00    0.5308454989E-02    0.3847734723E-02    0.3795590996E-02
    0.1100000000E+04    0.1076636272E-03    0.6900668571E+00    0.9152588897E-02    0.6655683903E-02    0.3348739998E-02
    0.1300000000E+04    0.1923664690E-03    0.6909275972E+00    0.1646753014E-01    0.1201827879E-01    0.2548210090E-02
    0.1500000000E+04    0.3281454036E-03    0.6915598364E+00    0.2826770461E-01    0.2072856002E-01    0.1392163412E-02
    0.1700000000E+04    0.4460557092E-03    0.6920438312E+00    0.3867411592E-01    0.2853219925E-01    0.6063360061E-03
    0.1900000000E+04    0.5100554443E-03    0.6924261992E+00    0.4451675254E-01    0.3306102729E-01    0.3878885523E-03
    0.2100000000E+04    0.5527959315E-03    0.6927358704E+00    0.4856604689E-01    0.3631005405E-01    0.3492167227E-03
    0.2300000000E+04    0.5893633900E-03    0.6929917489E+00    0.5211681417E-01    0.3922328049E-01    0.3441472662E-03
    0.2500000000E+04    0.6230864371E-03    0.6932067089E+00    0.5545403372E-01    0.4200816154E-01    0.3446430085E-03
    0.2700000000E+04    0.6546895781E-03    0.6933898217E+00    0.5863752652E-01    0.4470674394E-01    0.3459773314E-03
    0.2900000000E+04    0.6844081491E-03    0.6935476625E+00    0.6168477897E-01    0.4732991215E-01    0.3473694012E-03
    0.3100000000E+04    0.7123811808E-03    0.6936851139E+00    0.6460511012E-01    0.4988263904E-01    0.3486971025E-03
    0.3300000000E+04    0.7387228394E-03    0.6938058775E+00    0.6740590351E-01    0.5236860880E-01    0.3499483456E-03
    0.3500000000E+04    0.7635360125E-03    0.6939128105E+00    0.7009378050E-01    0.5479108095E-01    0.3511285396E-03
    0.3700000000E+04    0.7869153955E-03    0.6940081535E+00    0.7267485168E-01    0.5715306605E-01    0.3522449442E-03
    0.3900000000E+04    0.8089485998E-03    0.6940936880E+00    0.7515479531E-01    0.5945737269E-01    0.3533041677E-03
    0.4100000000E+04    0.8297168421E-03    0.6941708487E+00    0.7753890044E-01    0.6170662894E-01    0.3543119118E-03
    0.4300000000E+04    0.8492955062E-03    0.6942408036E+00    0.7983210057E-01    0.6390329777E-01    0.3552730744E-03
    0.4500000000E+04    0.8677546390E-03    0.6943045133E+00    0.8203900292E-01    0.6604969016E-01    0.3561918835E-03
    0.4700000000E+04    0.8851593960E-03    0.6943627751E+00    0.8416391484E-01    0.6814797689E-01    0.3570720124E-03
    0.4900000000E+04    0.9015704430E-03    0.6944162561E+00    0.8621086755E-01    0.7020019920E-01    0.3579166725E-03
    0.1000000000E+04    0.8190557521E-04    0.6895083150E+00    0.6933396158E-02    0.5033757851E-02    0.3604203709E-02
    0.3000000000E+04    0.6986053910E-03    0.6936186824E+00    0.6316032475E-01    0.4861483649E-01    0.3480428585E-03
    0.5000000000E+04    0.9094211461E-03    0.6944413833E+00    0.8720629881E-01    0.7120964107E-01    0.3583265977E-03
    0.7000000000E+04    0.1026120072E-02    0.6947923120E+00    0.1038230517E+00    0.8939177361E-01    0.3651994511E-03
    0.9000000000E+04    0.1088910800E-02    0.6949861543E+00    0.1157625768E+00    0.1045914742E+00    0.3703948174E-03
    0.1100000000E+05    0.1119308811E-02    0.6951087447E+00    0.1245851985E+00    0.1176587945E+00    0.3745851957E-03
    0.1300000000E+05    0.1129588493E-02    0.6951930658E+00    0.1312382153E+00    0.1291342391E+00    0.3781037293E-03
    0.1500000000E+05    0.1127103243E-02    0.6952544887E+00    0.1363281556E+00    0.1393800144E+00    0.3811404092E-03
    0.1700000000E+05    0.1116429356E-02    0.6953011383E+00    0.1402602419E+00    0.1486492701E+00    0.3838140882E-03
    0.1900000000E+05    0.1100501429E-02    0.6953377102E+00    0.1433147975E+00    0.1571251358E+00    0.3862041752E-03
    0.2100000000E+05    0.1081246139E-02    0.6953671061E+00    0.1456914538E+00    0.1649439513E+00    0.3883664099E-03
    0.2300000000E+05    0.1059951722E-02    0.6953912146E+00    0.1475359106E+00    0.1722097216E+00    0.3903414521E-03
    0.2500000000E+05    0.1037491329E-02    0.6954113177E+00    0.1489567661E+00    0.1790034590E+00    0.3921598906E-03
    0.2700000000E+05    0.1014462283E-02    0.6954283155E+00    0.1500364516E+00    0.1853894178E+00    0.3938453274E-03
    0.2900000000E+05    0.9912752299E-03    0.6954428587E+00    0.1508385395E+00    0.1914193738E+00    0.3954163627E-03
    0.3100000000E+05    0.9682125194E-03    0.6954554290E+00    0.1514127489E+00    0.1971356338E+00    0.3968879201E-03
    0.3300000000E+05    0.9454672024E-03    0.6954663905E+00    0.1517984501E+00    0.2025731987E+00    0.3982721595E-03
    0.3500000000E+05    0.9231695355E-03    0.6954760235E+00    0.1520271654E+00    0.2077613471E+00    0.3995791220E-03
    0.3700000000E+05    0.9014052640E-03    0.6954845472E+00    0.1521243857E+00    0.2127248165E+00    0.4008171974E-03
    0.3900000000E+05    0.8802284010E-03    0.6954921357E+00    0.1521109087E+00    0.2174846957E+00    0.4019934686E-03
    0.4100000000E+05    0.8596702623E-03    0.6954989285E+00    0.1520038411E+00    0.2220591107E+00    0.4031139710E-03
    0.4300000000E+05    0.8397459159E-03    0.6955050391E+00    0.1518173570E+00    0.2264637569E+00    0.4041838896E-03
    0.4500000000E+05    0.8204588252E-03    0.6955105605E+00    0.1515632793E+00    0.2307123180E+00    0.4052077128E-03
    0.4700000000E+05    0.8018042149E-03    0.6955155698E+00    0.1512515297E+00    0.2348167982E+00    0.4061893520E-03
    0.4900000000E+05    0.7837715249E-03    0.6955201313E+00    0.1508904811E+00    0.2387877890E+00    0.4071322369E-03
    0.1000000000E+05    0.1107240740E-02    0.6950536753E+00    0.1204940222E+00    0.1113526022E+00    0.3725901263E-03
    0.3000000000E+05    0.9797145323E-03    0.6954493654E+00    0.1511514591E+00    0.1943143779E+00    0.3961637600E-03
    0.5000000000E+05    0.7749839707E-03    0.6955222614E+00    0.1506937322E+00    0.2407262034E+00    0.4075901057E-03
    0.7000000000E+05    0.6274453236E-03    0.6955508696E+00    0.1454267067E+00    0.2742981343E+00    0.4152899143E-03
    0.9000000000E+05    0.5209748877E-03    0.6955652884E+00    0.1392480425E+00    0.3009398744E+00    0.4211336700E-03
    0.1100000000E+06    0.4415252942E-03    0.6955735160E+00    0.1331230008E+00    0.3231084373E+00    0.4258578654E-03
    0.1300000000E+06    0.3803510087E-03    0.6955785498E+00    0.1273295284E+00    0.3420951221E+00    0.4298305458E-03
    0.1500000000E+06    0.3320039840E-03    0.6955817514E+00    0.1219377939E+00    0.3586775660E+00    0.4332627505E-03
    0.1700000000E+06    0.2929675450E-03    0.6955838224E+00    0.1169472409E+00    0.3733674961E+00    0.4362869916E-03
    0.1900000000E+06    0.2608848498E-03    0.6955851575E+00    0.1123328852E+00    0.3865231933E+00    0.4389920441E-03
    0.2100000000E+06    0.2341221802E-03    0.6955859941E+00    0.1080625492E+00    0.3984071958E+00    0.4414403507E-03
    0.2300000000E+06    0.2115134928E-03    0.6955864824E+00    0.1041035579E+00    0.4092186872E+00    0.4436775347E-03
    0.2500000000E+06    0.1922053377E-03    0.6955867213E+00    0.1004252900E+00    0.4191129690E+00    0.4457379635E-03
    0.2700000000E+06    0.1755593409E-03    0.6955867782E+00    0.9700001353E-01    0.4282138196E+00    0.4476481834E-03
    0.2900000000E+06    0.1610889052E-03    0.6955867004E+00    0.9380300457E-01    0.4366216913E+00    0.4494291335E-03
    0.3100000000E+06    0.1484169470E-03    0.6955865217E+00    0.9081237311E-01    0.4444193459E+00    0.4510976270E-03
    0.3300000000E+06    0.1372469634E-03    0.6955862668E+00    0.8800878532E-01    0.4516758487E+00    0.4526673720E-03
    0.3500000000E+06    0.1273427802E-03    0.6955859540E+00    0.8537516475E-01    0.4584494730E+00    0.4541496951E-03
    0.3700000000E+06    0.1185140932E-03    0.6955855972E+00    0.8289640790E-01    0.4647898582E+00    0.4555540644E-03
    0.3900000000E+06    0.1106059606E-03    0.6955852069E+00    0.8055912768E-01    0.4707396451E+00    0.4568884768E-03
    0.4100000000E+06    0.1034910444E-03    0.6955847912E+00    0.7835142798E-01    0.4763357357E+00    0.4581597490E-03
    0.4300000000E+06    0.9706379820E-04    0.6955843566E+00    0.7626270850E-01    0.4816102774E+00    0.4593737397E-03
    0.4500000000E+06    0.9123605699E-04    0.6955839078E+00    0.7428349679E-01    0.4865914431E+00    0.4605355216E-03
    0.4700000000E+06    0.8593364901E-04    0.6955834489E+00    0.7240530421E-01    0.4913040553E+00    0.4616495168E-03
    0.4900000000E+06    0.8109376582E-04    0.6955829830E+00    0.7062050256E-01    0.4957700919E+00    0.4627196037E-03
    0.1000000000E+06    0.4785178284E-03    0.6955699309E+00    0.1361537826E+00    0.3124860522E+00    0.4236075890E-03
    0.3000000000E+06    0.1545482652E-03    0.6955866219E+00    0.9228315641E-01    0.4405921965E+00    0.4502765174E-03
    0.5000000000E+06    0.7883023361E-04    0.6955827482E+00    0.6976094842E-01    0.4979168378E+00    0.4632392664E-03
    0.7000000000E+06    0.4826430372E-04    0.6955780732E+00    0.5611828984E-01    0.5316817938E+00    0.4719802648E-03
    0.9000000000E+06    0.3272731283E-04    0.6955737905E+00    0.4694569052E-01    0.5541179392E+00    0.4786162342E-03
    0.1100000000E+07    0.2370823145E-04    0.6955699825E+00    0.4034826363E-01    0.5701527624E+00    0.4839817824E-03
    0.1300000000E+07    0.1799284054E-04    0.6955665899E+00    0.3537276617E-01    0.5821979659E+00    0.4884942792E-03
    0.1500000000E+07    0.1413666155E-04    0.6955635429E+00    0.3148584493E-01    0.5915829043E+00    0.4923931494E-03
    0.1700000000E+07    0.1140907605E-04    0.6955607821E+00    0.2836529035E-01    0.5991032312E+00    0.4958287721E-03
    0.1900000000E+07    0.9407186493E-05    0.6955582602E+00    0.2580478703E-01    0.6052652173E+00    0.4989019130E-03
    0.2100000000E+07    0.7893597306E-05    0.6955559400E+00    0.2366603783E-01    0.6104066962E+00    0.5016834597E-03
    0.2300000000E+07    0.6720877804E-05    0.6955537917E+00    0.2185283963E-01    0.6147618807E+00    0.5042252121E-03
    0.2500000000E+07    0.5793461170E-05    0.6955517917E+00    0.2029618822E-01    0.6184983270E+00    0.5065661943E-03
    0.2700000000E+07    0.5047153245E-05    0.6955499206E+00    0.1894529522E-01    0.6217391038E+00    0.5087365517E-03
    0.2900000000E+07    0.4437515297E-05    0.6955481628E+00    0.1776194702E-01    0.6245766535E+00    0.5107600640E-03
    0.3100000000E+07    0.3932980094E-05    0.6955465052E+00    0.1671683884E-01    0.6270817687E+00    0.5126558263E-03
    0.3300000000E+07    0.3510616256E-05    0.6955449368E+00    0.1578712115E-01    0.6293095838E+00    0.5144394080E-03
    0.3500000000E+07    0.3153436086E-05    0.6955434483E+00    0.1495471491E-01    0.6313036795E+00    0.5161236739E-03
    0.3700000000E+07    0.2848635294E-05    0.6955420318E+00    0.1420512840E-01    0.6330989597E+00    0.5177193786E-03
    0.3900000000E+07    0.2586412981E-05    0.6955406806E+00    0.1352660955E-01    0.6347237088E+00    0.5192356058E-03
    0.4100000000E+07    0.2359162944E-05    0.6955393888E+00    0.1290952793E-01    0.6362010908E+00    0.5206800986E-03
    0.4300000000E+07    0.2160908368E-05    0.6955381513E+00    0.1234591668E-01    0.6375502573E+00    0.5220595124E-03
    0.4500000000E+07    0.1986899596E-05    0.6955369636E+00    0.1182912829E-01    0.6387871807E+00    0.5233796095E-03
    0.4700000000E+07    0.1833323277E-05    0.6955358217E+00    0.1135357242E-01    0.6399252872E+00    0.5246454136E-03
    0.4900000000E+07    0.1697088967E-05    0.6955347223E+00    0.1091451387E-01    0.6409759451E+00    0.5258613305E-03
    0.1000000000E+07    0.2766642701E-04    0.6955718300E+00    0.4339825868E-01    0.5627494051E+00    0.4814259228E-03
    0.3000000000E+07    0.4173708238E-05    0.6955473222E+00    0.1722366961E-01    0.6258670079E+00    0.5117228691E-03
    0.5000000000E+07    0.1634667068E-05    0.6955341875E+00    0.1070738569E-01    0.6414715658E+00    0.5264518139E-03
    0.7000000000E+07    0.8729331739E-06    0.6955251150E+00    0.7755575050E-02    0.6485328520E+00    0.5363841801E-03
    0.9000000000E+07    0.5450270624E-06    0.6955181488E+00    0.6073818085E-02    0.6525549504E+00    0.5439247285E-03
    0.1100000000E+08    0.3740649115E-06    0.6955124782E+00    0.4988397366E-02    0.6551508384E+00    0.5500217269E-03
    0.1300000000E+08    0.2735751939E-06    0.6955076875E+00    0.4230291834E-02    0.6569640802E+00    0.5551494051E-03
    0.1500000000E+08    0.2094337130E-06    0.6955035347E+00    0.3671053235E-02    0.6583018403E+00    0.5595798131E-03
    0.1700000000E+08    0.1659501053E-06    0.6954998661E+00    0.3241624842E-02    0.6593292270E+00    0.5634838245E-03
    0.1900000000E+08    0.1350827508E-06    0.6954965781E+00    0.2901583714E-02    0.6601428800E+00    0.5669759387E-03
    0.2100000000E+08    0.1123606571E-06    0.6954935972E+00    0.2625699468E-02    0.6608031165E+00    0.5701367060E-03
    0.2300000000E+08    0.9513520384E-07    0.6954908694E+00    0.2397412874E-02    0.6613495245E+00    0.5730249874E-03
    0.2500000000E+08    0.8175537822E-07    0.6954883542E+00    0.2205407152E-02    0.6618091598E+00    0.5756851267E-03
    0.2700000000E+08    0.7114808329E-07    0.6954860199E+00    0.2041686498E-02    0.6622011395E+00    0.5781513788E-03
