  Pressure (Pa) 23mC5-500 (mol/kg) 24mC5-500 (mol/kg) 2mC6-500 (mol/kg) 3mC6-500 (mol/kg) C7-500 (mol/kg)
    0.1000000000E+01    0.6197932495E-06    0.1514051231E+00    0.1121775333E-04    0.7188024311E-05    0.4167854738E-02
    0.3000000000E+01    0.1205534350E-05    0.3164979309E+00    0.2084427431E-04    0.1810180231E-04    0.4192803575E-02
    0.5000000000E+01    0.1474155241E-05    0.4047722750E+00    0.2501853739E-04    0.2809103811E-04    0.4202714392E-02
    0.7000000000E+01    0.1625732105E-05    0.4597253602E+00    0.2752099268E-04    0.3764577040E-04    0.4208239329E-02
    0.9000000000E+01    0.1725560210E-05    0.4972288469E+00    0.2944107108E-04    0.4692951200E-04    0.4211656885E-02
    0.1100000000E+02    0.1800018404E-05    0.5244554259E+00    0.3116043189E-04    0.5602356689E-04    0.4213874329E-02
    0.1300000000E+02    0.1861273473E-05    0.5451203414E+00    0.3282754663E-04    0.6497610665E-04    0.4215337911E-02
    0.1500000000E+02    0.1915464641E-05    0.5613405952E+00    0.3450279768E-04    0.7381876164E-04    0.4216295303E-02
    0.1700000000E+02    0.1965892880E-05    0.5744109251E+00    0.3621025470E-04    0.8257377093E-04    0.4216895707E-02
    0.1900000000E+02    0.2014415567E-05    0.5851676923E+00    0.3795821788E-04    0.9125755695E-04    0.4217234610E-02
    0.2100000000E+02    0.2062111413E-05    0.5941752383E+00    0.3974800132E-04    0.9988270429E-04    0.4217376052E-02
    0.2300000000E+02    0.2109619521E-05    0.6018281599E+00    0.4157788686E-04    0.1084591406E-03    0.4217364628E-02
    0.2500000000E+02    0.2157321792E-05    0.6084106669E+00    0.4344496076E-04    0.1169948826E-03    0.4217232368E-02
    0.2700000000E+02    0.2205445407E-05    0.6141326596E+00    0.4534597604E-04    0.1254965304E-03    0.4217002873E-02
    0.2900000000E+02    0.2254122505E-05    0.6191525250E+00    0.4727775052E-04    0.1339696061E-03    0.4216693927E-02
    0.3100000000E+02    0.2303425964E-05    0.6235920265E+00    0.4923733896E-04    0.1424187943E-03    0.4216319180E-02
    0.3300000000E+02    0.2353391388E-05    0.6275463108E+00    0.5122209447E-04    0.1508481169E-03    0.4215889287E-02
    0.3500000000E+02    0.2404030882E-05    0.6310908039E+00    0.5322967635E-04    0.1592610631E-03    0.4215412684E-02
    0.3700000000E+02    0.2455341828E-05    0.6342860688E+00    0.5525803332E-04    0.1676606877E-03    0.4214896137E-02
    0.3900000000E+02    0.2507312543E-05    0.6371812946E+00    0.5730537660E-04    0.1760496874E-03    0.4214345134E-02
    0.4100000000E+02    0.2559925948E-05    0.6398168470E+00    0.5937015015E-04    0.1844304604E-03    0.4213764172E-02
    0.4300000000E+02    0.2613161979E-05    0.6422261614E+00    0.6145100172E-04    0.1928051535E-03    0.4213156971E-02
    0.4500000000E+02    0.2666999150E-05    0.6444371694E+00    0.6354675619E-04    0.2011757001E-03    0.4212526633E-02
    0.4700000000E+02    0.2721415579E-05    0.6464733864E+00    0.6565639180E-04    0.2095438511E-03    0.4211875764E-02
    0.4900000000E+02    0.2776389639E-05    0.6483547511E+00    0.6777901938E-04    0.2179112001E-03    0.4211206569E-02
    0.1000000000E+02    0.1765000533E-05    0.5118433131E+00    0.3031351345E-04    0.5149672784E-04    0.4212881251E-02
    0.3000000000E+02    0.2278693033E-05    0.6214383436E+00    0.4825424068E-04    0.1381969209E-03    0.4216514053E-02
    0.5000000000E+02    0.2804079198E-05    0.6492427809E+00    0.6884495905E-04    0.2220950342E-03    0.4210865697E-02
    0.7000000000E+02    0.3382629526E-05    0.6619356225E+00    0.9070393609E-04    0.3060279666E-03    0.4203422015E-02
    0.9000000000E+02    0.3999763910E-05    0.6692039538E+00    0.1133991423E-03    0.3910164284E-03    0.4195239476E-02
    0.1100000000E+03    0.4648270111E-05    0.6739128770E+00    0.1368233134E-03    0.4776281435E-03    0.4186611851E-02
    0.1300000000E+03    0.5324964155E-05    0.6772118462E+00    0.1609656876E-03    0.5662543121E-03    0.4177643036E-02
    0.1500000000E+03    0.6028641719E-05    0.6796516356E+00    0.1858503015E-03    0.6572034095E-03    0.4168371710E-02
    0.1700000000E+03    0.6759149421E-05    0.6815292040E+00    0.2115160673E-03    0.7507418669E-03    0.4158809361E-02
    0.1900000000E+03    0.7516946916E-05    0.6830187983E+00    0.2380095164E-03    0.8471147127E-03    0.4148954434E-02
    0.2100000000E+03    0.8302887995E-05    0.6842294037E+00    0.2653820042E-03    0.9465573396E-03    0.4138798342E-02
    0.2300000000E+03    0.9118106092E-05    0.6852326811E+00    0.2936886687E-03    0.1049302894E-02    0.4128328253E-02
    0.2500000000E+03    0.9963953015E-05    0.6860776850E+00    0.3229881450E-03    0.1155587341E-02    0.4117528458E-02
    0.2700000000E+03    0.1084196654E-04    0.6867991262E+00    0.3533426301E-03    0.1265653226E-02    0.4106381058E-02
    0.2900000000E+03    0.1175385466E-04    0.6874222573E+00    0.3848181266E-03    0.1379752694E-02    0.4094866301E-02
    0.3100000000E+03    0.1270148994E-04    0.6879658889E+00    0.4174847862E-03    0.1498150093E-02    0.4082962726E-02
    0.3300000000E+03    0.1368691060E-04    0.6884443204E+00    0.4514173217E-03    0.1621124346E-02    0.4070647196E-02
    0.3500000000E+03    0.1471232613E-04    0.6888686159E+00    0.4866954709E-03    0.1748971232E-02    0.4057894857E-02
    0.3700000000E+03    0.1578012654E-04    0.6892474703E+00    0.5234045093E-03    0.1882005661E-02    0.4044679060E-02
    0.3900000000E+03    0.1689289444E-04    0.6895878112E+00    0.5616358124E-03    0.2020564015E-02    0.4030971231E-02
    0.4100000000E+03    0.1805341974E-04    0.6898952262E+00    0.6014874713E-03    0.2165006601E-02    0.4016740731E-02
    0.4300000000E+03    0.1926471677E-04    0.6901742720E+00    0.6430649669E-03    0.2315720263E-02    0.4001954675E-02
    0.4500000000E+03    0.2053004390E-04    0.6904287013E+00    0.6864819105E-03    0.2473121209E-02    0.3986577741E-02
    0.4700000000E+03    0.2185292563E-04    0.6906616333E+00    0.7318608573E-03    0.2637658072E-02    0.3970571943E-02
    0.4900000000E+03    0.2323717744E-04    0.6908756813E+00    0.7793342041E-03    0.2809815261E-02    0.3953896391E-02
    0.1000000000E+03    0.4320357219E-05    0.6717856969E+00    0.1250219874E-03    0.4340922875E-03    0.4190972526E-02
    0.3000000000E+03    0.1222308045E-04    0.6877030285E+00    0.4009980036E-03    0.1438397088E-02    0.4088964523E-02
    0.5000000000E+03    0.2395359579E-04    0.6909763270E+00    0.8039005838E-03    0.2898913535E-02    0.3945293816E-02
    0.7000000000E+03    0.4276622536E-04    0.6923882107E+00    0.1448820439E-02    0.5240528437E-02    0.3724816698E-02
    0.9000000000E+03    0.7623615321E-04    0.6931747885E+00    0.2597460311E-02    0.9421328898E-02    0.3350195209E-02
    0.1100000000E+04    0.1424004107E-03    0.6936760747E+00    0.4874528103E-02    0.1773808721E-01    0.2651867521E-02
    0.1300000000E+04    0.2665332075E-03    0.6940234067E+00    0.9170587661E-02    0.3352363218E-01    0.1461889320E-02
    0.1500000000E+04    0.3982514467E-03    0.6942782359E+00    0.1379006000E-01    0.5073155797E-01    0.4442427669E-03
    0.1700000000E+04    0.4700771399E-03    0.6944731526E+00    0.1639280272E-01    0.6074687037E-01    0.1492088758E-03
    0.1900000000E+04    0.5155005622E-03    0.6946270485E+00    0.1810672044E-01    0.6759750030E-01    0.1028906043E-03
    0.2100000000E+04    0.5540651837E-03    0.6947516294E+00    0.1960128980E-01    0.7371848084E-01    0.9690110669E-04
    0.2300000000E+04    0.5895770757E-03    0.6948545348E+00    0.2100657253E-01    0.7958241838E-01    0.9649283128E-04
    0.2500000000E+04    0.6227458739E-03    0.6949409627E+00    0.2234567996E-01    0.8526958932E-01    0.9682098337E-04
    0.2700000000E+04    0.6537950762E-03    0.6950145724E+00    0.2362491944E-01    0.9079848512E-01    0.9722390339E-04
    0.2900000000E+04    0.6828673835E-03    0.6950780145E+00    0.2484788820E-01    0.9617786659E-01    0.9761334191E-04
    0.3100000000E+04    0.7100857409E-03    0.6951332565E+00    0.2601760205E-01    0.1014146587E+00    0.9797992370E-04
    0.3300000000E+04    0.7355630459E-03    0.6951817888E+00    0.2713682818E-01    0.1065151695E+00    0.9832484151E-04
    0.3500000000E+04    0.7594041724E-03    0.6952247617E+00    0.2820814793E-01    0.1114853010E+00    0.9865036822E-04
    0.3700000000E+04    0.7817067945E-03    0.6952630768E+00    0.2923397776E-01    0.1163306040E+00    0.9895859163E-04
    0.3900000000E+04    0.8025619815E-03    0.6952974508E+00    0.3021658290E-01    0.1210563084E+00    0.9925130070E-04
    0.4100000000E+04    0.8220547157E-03    0.6953284606E+00    0.3115808880E-01    0.1256673460E+00    0.9953002206E-04
    0.4300000000E+04    0.8402643617E-03    0.6953565758E+00    0.3206049158E-01    0.1301683723E+00    0.9979606631E-04
    0.4500000000E+04    0.8572650924E-03    0.6953821826E+00    0.3292566744E-01    0.1345637856E+00    0.1000505667E-03
    0.4700000000E+04    0.8731262799E-03    0.6954056014E+00    0.3375538137E-01    0.1388577444E+00    0.1002945097E-03
    0.4900000000E+04    0.8879128516E-03    0.6954271003E+00    0.3455129503E-01    0.1430541843E+00    0.1005287596E-03
    0.1000000000E+04    0.1034675921E-03    0.6934504304E+00    0.3533625269E-02    0.1283639110E-01    0.3056940056E-02
    0.3000000000E+04    0.6967010489E-03    0.6951065581E+00    0.2543922433E-01    0.9881368148E-01    0.9779947532E-04
    0.5000000000E+04    0.8949223119E-03    0.6954372019E+00    0.3493706959E-01    0.1451170071E+00    0.1006424911E-03
    0.7000000000E+04    0.9915599148E-03    0.6955783570E+00    0.4121380506E-01    0.1820621314E+00    0.1025532866E-03
    0.9000000000E+04    0.1030533809E-02    0.6956564391E+00    0.4543405983E-01    0.2124900415E+00    0.1040017007E-03
    0.1100000000E+05    0.1035973680E-02    0.6957059038E+00    0.4828397157E-01    0.2381664677E+00    0.1051718041E-03
    0.1300000000E+05    0.1021747689E-02    0.6957399898E+00    0.5019013405E-01    0.2602510012E+00    0.1061553271E-03
    0.1500000000E+05    0.9960994265E-03    0.6957648677E+00    0.5142936905E-01    0.2795395765E+00    0.1070047786E-03
    0.1700000000E+05    0.9640513790E-03    0.6957838003E+00    0.5218765600E-01    0.2965986769E+00    0.1077530907E-03
    0.1900000000E+05    0.9287155179E-03    0.6957986738E+00    0.5259357221E-01    0.3118438597E+00    0.1084223075E-03
    0.2100000000E+05    0.8920382297E-03    0.6958106546E+00    0.5273816104E-01    0.3255878731E+00    0.1090279245E-03
    0.2300000000E+05    0.8552385455E-03    0.6958205020E+00    0.5268720166E-01    0.3380713123E+00    0.1095812575E-03
    0.2500000000E+05    0.8190734717E-03    0.6958287318E+00    0.5248904060E-01    0.3494828150E+00    0.1100908276E-03
    0.2700000000E+05    0.7840025710E-03    0.6958357064E+00    0.5217973479E-01    0.3599727555E+00    0.1105632141E-03
    0.2900000000E+05    0.7502921491E-03    0.6958416878E+00    0.5178651373E-01    0.3696627685E+00    0.1110036055E-03
    0.3100000000E+05    0.7180823417E-03    0.6958468701E+00    0.5133016156E-01    0.3786525227E+00    0.1114161668E-03
    0.3300000000E+05    0.6874309253E-03    0.6958514001E+00    0.5082668773E-01    0.3870246340E+00    0.1118042931E-03
    0.3500000000E+05    0.6583422513E-03    0.6958553910E+00    0.5028851910E-01    0.3948482943E+00    0.1121707895E-03
    0.3700000000E+05    0.6307865231E-03    0.6958589312E+00    0.4972536358E-01    0.4021819941E+00    0.1125180001E-03
    0.3900000000E+05    0.6047127137E-03    0.6958620911E+00    0.4914484454E-01    0.4090755948E+00    0.1128479047E-03
    0.4100000000E+05    0.5800572493E-03    0.6958649270E+00    0.4855297269E-01    0.4155719281E+00    0.1131621906E-03
    0.4300000000E+05    0.5567498443E-03    0.6958674849E+00    0.4795450097E-01    0.4217080435E+00    0.1134623081E-03
    0.4500000000E+05    0.5347174045E-03    0.6958698024E+00    0.4735319428E-01    0.4275161938E+00    0.1137495124E-03
    0.4700000000E+05    0.5138866132E-03    0.6958719108E+00    0.4675203630E-01    0.4330246204E+00    0.1140248980E-03
    0.4900000000E+05    0.4941856130E-03    0.6958738360E+00    0.4615338954E-01    0.4382581857E+00    0.1142894245E-03
    0.1000000000E+05    0.1036407590E-02    0.6956836727E+00    0.4699918890E-01    0.2258390664E+00    0.1046145277E-03
    0.3000000000E+05    0.7339945237E-03    0.6958443687E+00    0.5156513241E-01    0.3742396625E+00    0.1112131370E-03
    0.5000000000E+05    0.4847369993E-03    0.6958747370E+00    0.4585560758E-01    0.4407788690E+00    0.1144178841E-03
    0.7000000000E+05    0.3401434999E-03    0.6958870076E+00    0.4031258394E-01    0.4809764364E+00    0.1165785115E-03
    0.9000000000E+05    0.2513834612E-03    0.6958934079E+00    0.3572258804E-01    0.5084687661E+00    0.1182186890E-03
    0.1100000000E+06    0.1933405926E-03    0.6958972129E+00    0.3198371583E-01    0.5286442135E+00    0.1195448122E-03
    0.1300000000E+06    0.1533683696E-03    0.6958996599E+00    0.2891448153E-01    0.5441536298E+00    0.1206600746E-03
    0.1500000000E+06    0.1246790044E-03    0.6959013160E+00    0.2636271053E-01    0.5564803705E+00    0.1216236663E-03
    0.1700000000E+06    0.1033891214E-03    0.6959024756E+00    0.2421332797E-01    0.5665288417E+00    0.1224727607E-03
    0.1900000000E+06    0.8715195421E-04    0.6959033063E+00    0.2238085154E-01    0.5748856152E+00    0.1232322656E-03
    0.2100000000E+06    0.7448269408E-04    0.6959039097E+00    0.2080146939E-01    0.5819494171E+00    0.1239197026E-03
    0.2300000000E+06    0.6440492186E-04    0.6959043507E+00    0.1942697332E-01    0.5880015235E+00    0.1245478750E-03
    0.2500000000E+06    0.5625516266E-04    0.6959046727E+00    0.1822043377E-01    0.5932464304E+00    0.1251264281E-03
    0.2700000000E+06    0.4956975462E-04    0.6959049055E+00    0.1715316422E-01    0.5978365846E+00    0.1256628125E-03
    0.2900000000E+06    0.4401670572E-04    0.6959050703E+00    0.1620258385E-01    0.6018880684E+00    0.1261629054E-03
    0.3100000000E+06    0.3935320519E-04    0.6959051823E+00    0.1535069728E-01    0.6054908983E+00    0.1266314261E-03
    0.3300000000E+06    0.3539831802E-04    0.6959052531E+00    0.1458299943E-01    0.6087159924E+00    0.1270722227E-03
    0.3500000000E+06    0.3201496358E-04    0.6959052911E+00    0.1388767588E-01    0.6116200044E+00    0.1274884746E-03
    0.3700000000E+06    0.2909773736E-04    0.6959053030E+00    0.1325501117E-01    0.6142487542E+00    0.1278828397E-03
    0.3900000000E+06    0.2656450608E-04    0.6959052938E+00    0.1267694539E-01    0.6166397092E+00    0.1282575629E-03
    0.4100000000E+06    0.2435049617E-04    0.6959052675E+00    0.1214673778E-01    0.6188238112E+00    0.1286145580E-03
    0.4300000000E+06    0.2240406429E-04    0.6959052273E+00    0.1165870880E-01    0.6208268421E+00    0.1289554697E-03
    0.4500000000E+06    0.2068362409E-04    0.6959051757E+00    0.1120803996E-01    0.6226704600E+00    0.1292817222E-03
    0.4700000000E+06    0.1915538128E-04    0.6959051148E+00    0.1079061730E-01    0.6243729935E+00    0.1295945569E-03
    0.4900000000E+06    0.1779164278E-04    0.6959050462E+00    0.1040290750E-01    0.6259500597E+00    0.1298950627E-03
    0.1000000000E+06    0.2195023329E-03    0.6958955338E+00    0.3375843126E-01    0.5192672715E+00    0.1189131228E-03
    0.3000000000E+06    0.4158627432E-04    0.6959051321E+00    0.1576528165E-01    0.6037407500E+00    0.1264008541E-03
    0.5000000000E+06    0.1716415594E-04    0.6959050095E+00    0.1021922485E-01    0.6266958030E+00    0.1300409969E-03
    0.7000000000E+06    0.9356888282E-05    0.6959041016E+00    0.7546303190E-02    0.6374509929E+00    0.1324957336E-03
    0.9000000000E+06    0.5894029847E-05    0.6959031184E+00    0.5976084137E-02    0.6436919679E+00    0.1343593669E-03
    0.1100000000E+07    0.4057485480E-05    0.6959021848E+00    0.4943812500E-02    0.6477673483E+00    0.1358662457E-03
    0.1300000000E+07    0.2966377686E-05    0.6959013232E+00    0.4213879141E-02    0.6506372203E+00    0.1371335681E-03
    0.1500000000E+07    0.2265033193E-05    0.6959005320E+00    0.3670634439E-02    0.6527672616E+00    0.1382285672E-03
    0.1700000000E+07    0.1787340073E-05    0.6958998041E+00    0.3250696839E-02    0.6544107024E+00    0.1391934718E-03
    0.1900000000E+07    0.1447196363E-05    0.6958991318E+00    0.2916435792E-02    0.6557170681E+00    0.1400565789E-03
    0.2100000000E+07    0.1196322838E-05    0.6958985079E+00    0.2644106032E-02    0.6567803315E+00    0.1408377955E-03
    0.2300000000E+07    0.1005930482E-05    0.6958979263E+00    0.2417987222E-02    0.6576625160E+00    0.1415516685E-03
    0.2500000000E+07    0.8579805872E-06    0.6958973819E+00    0.2227259677E-02    0.6584062076E+00    0.1422091570E-03
    0.2700000000E+07    0.7407000324E-06    0.6958968703E+00    0.2064233778E-02    0.6590416148E+00    0.1428187266E-03
    0.2900000000E+07    0.6461379107E-06    0.6958963878E+00    0.1923295030E-02    0.6595907594E+00    0.1433870557E-03
    0.3100000000E+07    0.5687662933E-06    0.6958959312E+00    0.1800248702E-02    0.6600700739E+00    0.1439195067E-03
    0.3300000000E+07    0.5046444503E-06    0.6958954980E+00    0.1691897979E-02    0.6604920680E+00    0.1444204521E-03
    0.3500000000E+07    0.4509012670E-06    0.6958950858E+00    0.1595764043E-02    0.6608664332E+00    0.1448935049E-03
    0.3700000000E+07    0.4054045132E-06    0.6958946927E+00    0.1509895327E-02    0.6612007937E+00    0.1453416854E-03
    0.3900000000E+07    0.3665436334E-06    0.6958943169E+00    0.1432734495E-02    0.6615012299E+00    0.1457675445E-03
    0.4100000000E+07    0.3330835920E-06    0.6958939570E+00    0.1363023736E-02    0.6617726499E+00    0.1461732571E-03
    0.4300000000E+07    0.3040643869E-06    0.6958936117E+00    0.1299736107E-02    0.6620190590E+00    0.1465606920E-03
    0.4500000000E+07    0.2787306133E-06    0.6958932798E+00    0.1242024913E-02    0.6622437583E+00    0.1469314677E-03
    0.4700000000E+07    0.2564812244E-06    0.6958929602E+00    0.1189185853E-02    0.6624494926E+00    0.1472869949E-03
    0.4900000000E+07    0.2368331282E-06    0.6958926521E+00    0.1140628310E-02    0.6626385631E+00    0.1476285112E-03
    0.1000000000E+07    0.4846847776E-05    0.6959026431E+00    0.5411552641E-02    0.6459232639E+00    0.1351484464E-03
    0.3000000000E+07    0.6055795683E-06    0.6958961564E+00    0.1859754688E-02    0.6598382867E+00    0.1436574725E-03
    0.5000000000E+07    0.2278591172E-06    0.6958925021E+00    0.1117796097E-02    0.6627274687E+00    0.1477943614E-03
    0.7000000000E+07    0.1199300284E-06    0.6958899455E+00    0.7975609919E-03    0.6639748184E+00    0.1505841119E-03
    0.9000000000E+07    0.7449241236E-07    0.6958879693E+00    0.6193272111E-03    0.6646696686E+00    0.1527020962E-03
    0.1100000000E+08    0.5109300315E-07    0.6958863535E+00    0.5058798753E-03    0.6651123662E+00    0.1544146388E-03
    0.1300000000E+08    0.3744125311E-07    0.6958849840E+00    0.4273706390E-03    0.6654190074E+00    0.1558549309E-03
    0.1500000000E+08    0.2876791787E-07    0.6958837937E+00    0.3698356568E-03    0.6656439202E+00    0.1570993807E-03
    0.1700000000E+08    0.2290483554E-07    0.6958827398E+00    0.3258728984E-03    0.6658159148E+00    0.1581959801E-03
    0.1900000000E+08    0.1874975771E-07    0.6958817935E+00    0.2911943254E-03    0.6659516886E+00    0.1591768882E-03
    0.2100000000E+08    0.1569353454E-07    0.6958809342E+00    0.2631448094E-03    0.6660615855E+00    0.1600647289E-03
    0.2300000000E+08    0.1337695675E-07    0.6958801466E+00    0.2399927433E-03    0.6661523545E+00    0.1608760344E-03
    0.2500000000E+08    0.1157690617E-07    0.6958794195E+00    0.2205608112E-03    0.6662285862E+00    0.1616232596E-03
    0.2700000000E+08    0.1014876707E-07    0.6958787437E+00    0.2040207374E-03    0.6662935118E+00    0.1623160256E-03
