  Pressure (Pa) 23mC5-500 (mol/kg) 24mC5-500 (mol/kg) 2mC6-500 (mol/kg) 3mC6-500 (mol/kg) C7-500 (mol/kg)
    0.1000000000E+01    0.7161225327E-06    0.6964839566E-01    0.1297626365E-04    0.4411004659E-05    0.4225668056E-02
    0.3000000000E+01    0.1714691892E-05    0.1740700430E+00    0.3009157972E-04    0.1141303210E-04    0.4321965619E-02
    0.5000000000E+01    0.2369754493E-05    0.2486202729E+00    0.4062912433E-04    0.1788844616E-04    0.4390005009E-02
    0.7000000000E+01    0.2823400571E-05    0.3045134514E+00    0.4753840954E-04    0.2411012658E-04    0.4441306365E-02
    0.9000000000E+01    0.3150866182E-05    0.3479747040E+00    0.5231707214E-04    0.3017078483E-04    0.4481486305E-02
    0.1100000000E+02    0.3395404297E-05    0.3827368420E+00    0.5579054326E-04    0.3611698255E-04    0.4513862202E-02
    0.1300000000E+02    0.3583402821E-05    0.4111741817E+00    0.5844041598E-04    0.4197650176E-04    0.4540539332E-02
    0.1500000000E+02    0.3731722405E-05    0.4348690157E+00    0.6056013298E-04    0.4776768333E-04    0.4562922246E-02
    0.1700000000E+02    0.3851544353E-05    0.4549164503E+00    0.6233469422E-04    0.5350347827E-04    0.4581985339E-02
    0.1900000000E+02    0.3950513815E-05    0.4720985122E+00    0.6388394213E-04    0.5919348392E-04    0.4598426480E-02
    0.2100000000E+02    0.4033993386E-05    0.4869885705E+00    0.6528721098E-04    0.6484507606E-04    0.4612758990E-02
    0.2300000000E+02    0.4105826843E-05    0.5000165779E+00    0.6659792619E-04    0.7046408700E-04    0.4625369095E-02
    0.2500000000E+02    0.4168820768E-05    0.5115112734E+00    0.6785254214E-04    0.7605523568E-04    0.4636553132E-02
    0.2700000000E+02    0.4225057381E-05    0.5217283107E+00    0.6907617034E-04    0.8162241295E-04    0.4646542371E-02
    0.2900000000E+02    0.4276103038E-05    0.5308694995E+00    0.7028621079E-04    0.8716887814E-04    0.4655520024E-02
    0.3100000000E+02    0.4323150339E-05    0.5390962721E+00    0.7149474480E-04    0.9269739861E-04    0.4663633176E-02
    0.3300000000E+02    0.4367116950E-05    0.5465393009E+00    0.7271014101E-04    0.9821035150E-04    0.4671001312E-02
    0.3500000000E+02    0.4408715532E-05    0.5533054918E+00    0.7393815073E-04    0.1037097996E-03    0.4677722537E-02
    0.3700000000E+02    0.4448504030E-05    0.5594831526E+00    0.7518266572E-04    0.1091975488E-03    0.4683878182E-02
    0.3900000000E+02    0.4486922350E-05    0.5651458688E+00    0.7644624880E-04    0.1146751928E-03    0.4689536262E-02
    0.4100000000E+02    0.4524319451E-05    0.5703554488E+00    0.7773050956E-04    0.1201441483E-03    0.4694754111E-02
    0.4300000000E+02    0.4560973603E-05    0.5751641898E+00    0.7903637281E-04    0.1256056820E-03    0.4699580416E-02
    0.4500000000E+02    0.4597107691E-05    0.5796166392E+00    0.8036427197E-04    0.1310609338E-03    0.4704056795E-02
    0.4700000000E+02    0.4632900885E-05    0.5837509791E+00    0.8171428927E-04    0.1365109345E-03    0.4708219048E-02
    0.4900000000E+02    0.4668497633E-05    0.5876001240E+00    0.8308625807E-04    0.1419566207E-03    0.4712098143E-02
    0.1000000000E+02    0.3281566172E-05    0.3662713148E+00    0.5418113838E-04    0.3315616350E-04    0.4498497396E-02
    0.3000000000E+02    0.4300063619E-05    0.5350883923E+00    0.7089007087E-04    0.8993522474E-04    0.4659676631E-02
    0.5000000000E+02    0.4686259732E-05    0.5894268134E+00    0.8378037301E-04    0.1446781160E-03    0.4713940064E-02
    0.7000000000E+02    0.5049871086E-05    0.6162472016E+00    0.9869068349E-04    0.1990556614E-03    0.4740912143E-02
    0.9000000000E+02    0.5446361241E-05    0.6322290392E+00    0.1151711631E-03    0.2536588717E-03    0.4756504452E-02
    0.1100000000E+03    0.5879178178E-05    0.6428376447E+00    0.1327963748E-03    0.3088027712E-03    0.4766124910E-02
    0.1300000000E+03    0.6344872258E-05    0.6503926018E+00    0.1513177911E-03    0.3646917250E-03    0.4772147457E-02
    0.1500000000E+03    0.6839799457E-05    0.6560463363E+00    0.1705952091E-03    0.4214758842E-03    0.4775788965E-02
    0.1700000000E+03    0.7361134581E-05    0.6604361940E+00    0.1905499209E-03    0.4792756691E-03    0.4777742060E-02
    0.1900000000E+03    0.7906862432E-05    0.6639432865E+00    0.2111390568E-03    0.5381940865E-03    0.4778431843E-02
    0.2100000000E+03    0.8475609470E-05    0.6668094984E+00    0.2323415711E-03    0.5983236099E-03    0.4778134385E-02
    0.2300000000E+03    0.9066486748E-05    0.6691957434E+00    0.2541503487E-03    0.6597503390E-03    0.4777036931E-02
    0.2500000000E+03    0.9678970225E-05    0.6712132287E+00    0.2765675986E-03    0.7225566851E-03    0.4775270842E-02
    0.2700000000E+03    0.1031281444E-04    0.6729412717E+00    0.2996020791E-03    0.7868232042E-03    0.4772930737E-02
    0.2900000000E+03    0.1096799117E-04    0.6744379660E+00    0.3232673818E-03    0.8526299140E-03    0.4770086151E-02
    0.3100000000E+03    0.1164464591E-04    0.6757468348E+00    0.3475808485E-03    0.9200572863E-03    0.4766788945E-02
    0.3300000000E+03    0.1234306693E-04    0.6769011296E+00    0.3725628823E-03    0.9891870302E-03    0.4763078170E-02
    0.3500000000E+03    0.1306366326E-04    0.6779266910E+00    0.3982365077E-03    0.1060102738E-02    0.4758983353E-02
    0.3700000000E+03    0.1380694907E-04    0.6788439046E+00    0.4246270967E-03    0.1132890439E-02    0.4754526783E-02
    0.3900000000E+03    0.1457353264E-04    0.6796690681E+00    0.4517622066E-03    0.1207639097E-02    0.4749725120E-02
    0.4100000000E+03    0.1536410880E-04    0.6804153671E+00    0.4796714956E-03    0.1284441068E-02    0.4744590563E-02
    0.4300000000E+03    0.1617945393E-04    0.6810935840E+00    0.5083866955E-03    0.1363392536E-02    0.4739131703E-02
    0.4500000000E+03    0.1702042302E-04    0.6817126216E+00    0.5379416259E-03    0.1444593942E-02    0.4733354154E-02
    0.4700000000E+03    0.1788794816E-04    0.6822798956E+00    0.5683722422E-03    0.1528150412E-02    0.4727261028E-02
    0.4900000000E+03    0.1878303845E-04    0.6828016325E+00    0.5997167097E-03    0.1614172184E-02    0.4720853294E-02
    0.1000000000E+03    0.5658411943E-05    0.6380201174E+00    0.1238594939E-03    0.2811487682E-03    0.4761873601E-02
    0.3000000000E+03    0.1130361883E-04    0.6751135986E+00    0.3353418851E-03    0.8861359476E-03    0.4768491429E-02
    0.5000000000E+03    0.1924125712E-04    0.6830471027E+00    0.6157441922E-03    0.1658143518E-02    0.4717531233E-02
    0.7000000000E+03    0.3017032859E-04    0.6865003478E+00    0.9957988064E-03    0.2699511572E-02    0.4633467355E-02
    0.9000000000E+03    0.4578442366E-04    0.6884315089E+00    0.1535830277E-02    0.4178783518E-02    0.4507448672E-02
    0.1100000000E+04    0.6934875190E-04    0.6896644996E+00    0.2349512518E-02    0.6409930305E-02    0.4315627790E-02
    0.1300000000E+04    0.1074064329E-03    0.6905195699E+00    0.3664068629E-02    0.1002078274E-01    0.4009494993E-02
    0.1500000000E+04    0.1731276295E-03    0.6911471287E+00    0.5938127525E-02    0.1628314737E-01    0.3496045585E-02
    0.1700000000E+04    0.2864883660E-03    0.6916271446E+00    0.9874572455E-02    0.2716728609E-01    0.2656456077E-02
    0.1900000000E+04    0.4382004942E-03    0.6920060552E+00    0.1518110642E-01    0.4195174671E-01    0.1644446807E-02
    0.2100000000E+04    0.5548885486E-03    0.6923126711E+00    0.1933081521E-01    0.5370929596E-01    0.1035990046E-02
    0.2300000000E+04    0.6202115981E-03    0.6925658131E+00    0.2173155509E-01    0.6073267734E-01    0.8525172505E-03
    0.2500000000E+04    0.6646188061E-03    0.6927782956E+00    0.2342290382E-01    0.6584683543E-01    0.8142060153E-03
    0.2700000000E+04    0.7023702578E-03    0.6929591450E+00    0.2489646783E-01    0.7040167136E-01    0.8090012901E-03
    0.2900000000E+04    0.7372054929E-03    0.6931149024E+00    0.2628121866E-01    0.7475179709E-01    0.8105134336E-03
    0.3100000000E+04    0.7700375824E-03    0.6932504238E+00    0.2760806015E-01    0.7898078181E-01    0.8132444322E-03
    0.3300000000E+04    0.8011363551E-03    0.6933693898E+00    0.2888549752E-01    0.8311002405E-01    0.8160834092E-03
    0.3500000000E+04    0.8306267989E-03    0.6934746402E+00    0.3011701377E-01    0.8714701431E-01    0.8188172605E-03
    0.3700000000E+04    0.8585984189E-03    0.6935684017E+00    0.3130490092E-01    0.9109603170E-01    0.8214153794E-03
    0.3900000000E+04    0.8851293238E-03    0.6936524444E+00    0.3245110523E-01    0.9496051017E-01    0.8238830388E-03
    0.4100000000E+04    0.9102917397E-03    0.6937281931E+00    0.3355741867E-01    0.9874357063E-01    0.8262313405E-03
    0.4300000000E+04    0.9341534500E-03    0.6937968075E+00    0.3462552645E-01    0.1024481474E+00    0.8284712207E-03
    0.4500000000E+04    0.9567783229E-03    0.6938592414E+00    0.3565702227E-01    0.1060770237E+00    0.8306124266E-03
    0.4700000000E+04    0.9782266209E-03    0.6939162859E+00    0.3665341603E-01    0.1096328464E+00    0.8326634950E-03
    0.4900000000E+04    0.9985552469E-03    0.6939686031E+00    0.3761613959E-01    0.1131181358E+00    0.8346319048E-03
    0.1000000000E+04    0.5627108379E-04    0.6891093061E+00    0.1897989470E-02    0.5171454605E-02    0.4422020874E-02
    0.3000000000E+04    0.7538491278E-03    0.6931849396E+00    0.2695113977E-01    0.7687952052E-01    0.8118340445E-03
    0.5000000000E+04    0.1008316601E-02    0.6939931668E+00    0.3808530239E-01    0.1148350852E+00    0.8355872004E-03
    0.7000000000E+04    0.1156347141E-02    0.6943347752E+00    0.4599663959E-01    0.1459984652E+00    0.8516036778E-03
    0.9000000000E+04    0.1238284540E-02    0.6945217016E+00    0.5172813271E-01    0.1722508730E+00    0.8637107773E-03
    0.1100000000E+05    0.1278094383E-02    0.6946387762E+00    0.5593113583E-01    0.1948160403E+00    0.8734757721E-03
    0.1300000000E+05    0.1290591875E-02    0.6947185007E+00    0.5903142057E-01    0.2145282185E+00    0.8816750566E-03
    0.1500000000E+05    0.1285222964E-02    0.6947759781E+00    0.6131754311E-01    0.2319774038E+00    0.8887514059E-03
    0.1700000000E+05    0.1268160345E-02    0.6948191680E+00    0.6299101761E-01    0.2475938325E+00    0.8949818061E-03
    0.1900000000E+05    0.1243517190E-02    0.6948526571E+00    0.6419616848E-01    0.2616994909E+00    0.9005513180E-03
    0.2100000000E+05    0.1214076190E-02    0.6948792711E+00    0.6503860621E-01    0.2745407788E+00    0.9055898415E-03
    0.2300000000E+05    0.1181741242E-02    0.6949008441E+00    0.6559705364E-01    0.2863099295E+00    0.9101921327E-03
    0.2500000000E+05    0.1147824837E-02    0.6949186167E+00    0.6593113932E-01    0.2971594732E+00    0.9144294775E-03
    0.2700000000E+05    0.1113235148E-02    0.6949334578E+00    0.6608666514E-01    0.3072122538E+00    0.9183568790E-03
    0.2900000000E+05    0.1078600264E-02    0.6949459933E+00    0.6609924723E-01    0.3165685246E+00    0.9220176836E-03
    0.3100000000E+05    0.1044352130E-02    0.6949566850E+00    0.6599688271E-01    0.3253110755E+00    0.9254466699E-03
    0.3300000000E+05    0.1010784131E-02    0.6949658811E+00    0.6580179158E-01    0.3335090053E+00    0.9286721753E-03
    0.3500000000E+05    0.9780911149E-03    0.6949738487E+00    0.6553175930E-01    0.3412205409E+00    0.9317175998E-03
    0.3700000000E+05    0.9463975390E-03    0.6949807961E+00    0.6520112984E-01    0.3484951766E+00    0.9346024951E-03
    0.3900000000E+05    0.9157774592E-03    0.6949868879E+00    0.6482154946E-01    0.3553753173E+00    0.9373433671E-03
    0.4100000000E+05    0.8862688481E-03    0.6949922559E+00    0.6440253061E-01    0.3618975582E+00    0.9399542803E-03
    0.4300000000E+05    0.8578839280E-03    0.6949970068E+00    0.6395188399E-01    0.3680936901E+00    0.9424473182E-03
    0.4500000000E+05    0.8306166695E-03    0.6950012277E+00    0.6347605285E-01    0.3739914991E+00    0.9448329402E-03
    0.4700000000E+05    0.8044482608E-03    0.6950049907E+00    0.6298037411E-01    0.3796154075E+00    0.9471202614E-03
    0.4900000000E+05    0.7793511076E-03    0.6950083556E+00    0.6246928390E-01    0.3849869932E+00    0.9493172742E-03
    0.1000000000E+05    0.1262370339E-02    0.6945863267E+00    0.5399008202E-01    0.1839351868E+00    0.8688266009E-03
    0.3000000000E+05    0.1061406808E-02    0.6949515456E+00    0.6606092689E-01    0.3210119124E+00    0.9237592521E-03
    0.5000000000E+05    0.7671939660E-03    0.6950099048E+00    0.6220914034E-01    0.3875842360E+00    0.9503841502E-03
    0.7000000000E+05    0.5710501032E-03    0.6950287591E+00    0.5682538627E-01    0.4299756539E+00    0.9683251660E-03
    0.9000000000E+05    0.4403381181E-03    0.6950357903E+00    0.5179488959E-01    0.4601845040E+00    0.9819411629E-03
    0.1100000000E+06    0.3498027221E-03    0.6950380530E+00    0.4739874444E-01    0.4831068536E+00    0.9929483821E-03
    0.1300000000E+06    0.2846823758E-03    0.6950380747E+00    0.4360889621E-01    0.5012241293E+00    0.1002204461E-02
    0.1500000000E+06    0.2363058178E-03    0.6950369485E+00    0.4033885901E-01    0.5159652051E+00    0.1010201169E-02
    0.1700000000E+06    0.1993826549E-03    0.6950352078E+00    0.3750184766E-01    0.5282252111E+00    0.1017247284E-02
    0.1900000000E+06    0.1705533743E-03    0.6950331346E+00    0.3502362309E-01    0.5385995686E+00    0.1023549668E-02
    0.2100000000E+06    0.1476056192E-03    0.6950308871E+00    0.3284356449E-01    0.5475025806E+00    0.1029253821E-02
    0.2300000000E+06    0.1290352788E-03    0.6950285579E+00    0.3091283088E-01    0.5552328499E+00    0.1034466052E-02
    0.2500000000E+06    0.1137909754E-03    0.6950262023E+00    0.2919210851E-01    0.5620117813E+00    0.1039266440E-02
    0.2700000000E+06    0.1011197810E-03    0.6950238543E+00    0.2764961578E-01    0.5680074290E+00    0.1043716842E-02
    0.2900000000E+06    0.9047092688E-04    0.6950215345E+00    0.2625949187E-01    0.5733498924E+00    0.1047866047E-02
    0.3100000000E+06    0.8143390557E-04    0.6950192557E+00    0.2500053772E-01    0.5781416019E+00    0.1051753231E-02
    0.3300000000E+06    0.7369761945E-04    0.6950170251E+00    0.2385524368E-01    0.5824643910E+00    0.1055410335E-02
    0.3500000000E+06    0.6702277844E-04    0.6950148468E+00    0.2280903933E-01    0.5863844818E+00    0.1058863750E-02
    0.3700000000E+06    0.6122285237E-04    0.6950127228E+00    0.2184971319E-01    0.5899560743E+00    0.1062135538E-02
    0.3900000000E+06    0.5615067512E-04    0.6950106533E+00    0.2096696109E-01    0.5932239805E+00    0.1065244332E-02
    0.4100000000E+06    0.5168886084E-04    0.6950086381E+00    0.2015203238E-01    0.5962255888E+00    0.1068206014E-02
    0.4300000000E+06    0.4774283966E-04    0.6950066760E+00    0.1939745088E-01    0.5989923513E+00    0.1071034235E-02
    0.4500000000E+06    0.4423572492E-04    0.6950047656E+00    0.1869679303E-01    0.6015509247E+00    0.1073740816E-02
    0.4700000000E+06    0.4110448071E-04    0.6950029052E+00    0.1804451036E-01    0.6039240567E+00    0.1076336058E-02
    0.4900000000E+06    0.3829702601E-04    0.6950010930E+00    0.1743578637E-01    0.6061312805E+00    0.1078828999E-02
    0.1000000000E+06    0.3911575611E-03    0.6950373084E+00    0.4951659421E-01    0.4723672877E+00    0.9877053341E-03
    0.3000000000E+06    0.8577233638E-04    0.6950203894E+00    0.2561478966E-01    0.5758090606E+00    0.1049840248E-02
    0.5000000000E+06    0.3700088448E-04    0.6950002045E+00    0.1714642483E-01    0.6071780403E+00    0.1080039635E-02
    0.7000000000E+06    0.2061194249E-04    0.6949845346E+00    0.1286383871E-01    0.6224980713E+00    0.1100402835E-02
    0.9000000000E+06    0.1315296110E-04    0.6949719059E+00    0.1028374280E-01    0.6315877248E+00    0.1115861713E-02
    0.1100000000E+07    0.9133638162E-05    0.6949613502E+00    0.8560831021E-02    0.6376064053E+00    0.1128360815E-02
    0.1300000000E+07    0.6719682192E-05    0.6949522829E+00    0.7329460525E-02    0.6418853038E+00    0.1138872548E-02
    0.1500000000E+07    0.5155734901E-05    0.6949443329E+00    0.6405888297E-02    0.6450832232E+00    0.1147954724E-02
    0.1700000000E+07    0.4084080525E-05    0.6949372517E+00    0.5687728025E-02    0.6475636187E+00    0.1155957694E-02
    0.1900000000E+07    0.3317366438E-05    0.6949308651E+00    0.5113432460E-02    0.6495434474E+00    0.1163116215E-02
    0.2100000000E+07    0.2749688231E-05    0.6949250469E+00    0.4643788303E-02    0.6511602251E+00    0.1169595438E-02
    0.2300000000E+07    0.2317484841E-05    0.6949197021E+00    0.4252633572E-02    0.6525053366E+00    0.1175516039E-02
    0.2500000000E+07    0.1980717949E-05    0.6949147580E+00    0.3921847787E-02    0.6536418810E+00    0.1180968933E-02
    0.2700000000E+07    0.1713139922E-05    0.6949101574E+00    0.3638484450E-02    0.6546148277E+00    0.1186024348E-02
    0.2900000000E+07    0.1496957607E-05    0.6949058547E+00    0.3393048443E-02    0.6554570909E+00    0.1190737684E-02
    0.3100000000E+07    0.1319759967E-05    0.6949018128E+00    0.3178418422E-02    0.6561933142E+00    0.1195153423E-02
    0.3300000000E+07    0.1172674445E-05    0.6948980011E+00    0.2989149076E-02    0.6568423144E+00    0.1199307837E-02
    0.3500000000E+07    0.1049220656E-05    0.6948943942E+00    0.2821005745E-02    0.6574187073E+00    0.1203230897E-02
    0.3700000000E+07    0.9445753512E-06    0.6948909707E+00    0.2670645877E-02    0.6579340174E+00    0.1206947655E-02
    0.3900000000E+07    0.8550881796E-06    0.6948877123E+00    0.2535396003E-02    0.6583974544E+00    0.1210479274E-02
    0.4100000000E+07    0.7779549626E-06    0.6948846036E+00    0.2413092406E-02    0.6588164659E+00    0.1213843790E-02
    0.4300000000E+07    0.7109925063E-06    0.6948816310E+00    0.2301965225E-02    0.6591971399E+00    0.1217056709E-02
    0.4500000000E+07    0.6524804042E-06    0.6948787827E+00    0.2200552800E-02    0.6595445012E+00    0.1220131453E-02
    0.4700000000E+07    0.6010479752E-06    0.6948760486E+00    0.2107637424E-02    0.6598627339E+00    0.1223079726E-02
    0.4900000000E+07    0.5555921883E-06    0.6948734196E+00    0.2022196519E-02    0.6601553497E+00    0.1225911792E-02
    0.1000000000E+07    0.1086738033E-04    0.6949664120E+00    0.9344175710E-02    0.6348747017E+00    0.1122406941E-02
    0.3000000000E+07    0.1404107208E-05    0.6949038032E+00    0.3282255965E-02    0.6558371671E+00    0.1192980319E-02
    0.5000000000E+07    0.5348188161E-06    0.6948721420E+00    0.1982003369E-02    0.6602929975E+00    0.1227287118E-02
    0.7000000000E+07    0.2842645730E-06    0.6948505737E+00    0.1417051492E-02    0.6622277124E+00    0.1250420702E-02
    0.9000000000E+07    0.1782294410E-06    0.6948341190E+00    0.1101624314E-02    0.6633082558E+00    0.1267982949E-02
    0.1100000000E+08    0.1233986047E-06    0.6948207749E+00    0.9004808849E-03    0.6639976842E+00    0.1282182776E-02
    0.1300000000E+08    0.9129172060E-07    0.6948095298E+00    0.7611133290E-03    0.6644756642E+00    0.1294124839E-02
    0.1500000000E+08    0.7082246160E-07    0.6947997995E+00    0.6588902887E-03    0.6648264657E+00    0.1304442830E-02
    0.1700000000E+08    0.5693843720E-07    0.6947912154E+00    0.5807306414E-03    0.6650948467E+00    0.1313534763E-02
    0.1900000000E+08    0.4706577248E-07    0.6947835300E+00    0.5190460424E-03    0.6653067762E+00    0.1321667338E-02
    0.2100000000E+08    0.3977939598E-07    0.6947765684E+00    0.4691329050E-03    0.6654783552E+00    0.1329028175E-02
    0.2300000000E+08    0.3423751875E-07    0.6947702028E+00    0.4279211242E-03    0.6656200958E+00    0.1335754373E-02
    0.2500000000E+08    0.2991642673E-07    0.6947643366E+00    0.3933219350E-03    0.6657391522E+00    0.1341949216E-02
    0.2700000000E+08    0.2647614009E-07    0.6947588954E+00    0.3638650111E-03    0.6658405617E+00    0.1347692490E-02
