  Pressure (Pa) 23mC5-500 (mol/kg) 24mC5-500 (mol/kg) 2mC6-500 (mol/kg) 3mC6-500 (mol/kg) C7-500 (mol/kg)
    0.1000000000E+01    0.6745437448E-06    0.9949174019E-01    0.1515384489E-04    0.1417529186E-05    0.4241131350E-02
    0.3000000000E+01    0.1488135234E-05    0.2320689300E+00    0.3210237556E-04    0.3681876111E-05    0.4346280583E-02
    0.5000000000E+01    0.1946358777E-05    0.3163908667E+00    0.4086332098E-04    0.5776977528E-05    0.4413329856E-02
    0.7000000000E+01    0.2230460039E-05    0.3747477152E+00    0.4598371153E-04    0.7789116379E-05    0.4460350991E-02
    0.9000000000E+01    0.2419597111E-05    0.4175327941E+00    0.4932402201E-04    0.9747740311E-05    0.4495315674E-02
    0.1100000000E+02    0.2553065438E-05    0.4502453213E+00    0.5174506265E-04    0.1166768093E-04    0.4522427383E-02
    0.1300000000E+02    0.2652178711E-05    0.4760677564E+00    0.5367908590E-04    0.1355780730E-04    0.4544125161E-02
    0.1500000000E+02    0.2729280083E-05    0.4969695932E+00    0.5535599958E-04    0.1542398501E-04    0.4561924982E-02
    0.1700000000E+02    0.2791886856E-05    0.5142349822E+00    0.5690313312E-04    0.1727036205E-04    0.4576820224E-02
    0.1900000000E+02    0.2844762805E-05    0.5287369832E+00    0.5839292080E-04    0.1910001605E-04    0.4589489832E-02
    0.2100000000E+02    0.2891024663E-05    0.5410898798E+00    0.5986716410E-04    0.2091531457E-04    0.4600414112E-02
    0.2300000000E+02    0.2932765136E-05    0.5517384434E+00    0.6135000936E-04    0.2271813122E-04    0.4609942744E-02
    0.2500000000E+02    0.2971419435E-05    0.5610126320E+00    0.6285517589E-04    0.2450998279E-04    0.4618336587E-02
    0.2700000000E+02    0.3007989014E-05    0.5691623923E+00    0.6439011724E-04    0.2629212042E-04    0.4625794344E-02
    0.2900000000E+02    0.3043182487E-05    0.5763805265E+00    0.6595848222E-04    0.2806559234E-04    0.4632470147E-02
    0.3100000000E+02    0.3077506829E-05    0.5828181401E+00    0.6756160273E-04    0.2983128858E-04    0.4638485466E-02
    0.3300000000E+02    0.3111327782E-05    0.5885953362E+00    0.6919940876E-04    0.3158997352E-04    0.4643937387E-02
    0.3500000000E+02    0.3144910711E-05    0.5938087786E+00    0.7087099848E-04    0.3334231021E-04    0.4648904483E-02
    0.3700000000E+02    0.3178448730E-05    0.5985371439E+00    0.7257499651E-04    0.3508887882E-04    0.4653451060E-02
    0.3900000000E+02    0.3212082379E-05    0.6028451193E+00    0.7430977998E-04    0.3683019096E-04    0.4657630281E-02
    0.4100000000E+02    0.3245913593E-05    0.6067863798E+00    0.7607362084E-04    0.3856670092E-04    0.4661486503E-02
    0.4300000000E+02    0.3280015731E-05    0.6104058356E+00    0.7786477477E-04    0.4029881457E-04    0.4665057040E-02
    0.4500000000E+02    0.3314440872E-05    0.6137413515E+00    0.7968153558E-04    0.4202689654E-04    0.4668373527E-02
    0.4700000000E+02    0.3349225164E-05    0.6168250756E+00    0.8152226731E-04    0.4375127612E-04    0.4671462967E-02
    0.4900000000E+02    0.3384392794E-05    0.6196844799E+00    0.8338542197E-04    0.4547225204E-04    0.4674348559E-02
    0.1000000000E+02    0.2491676451E-05    0.4349119040E+00    0.5061594881E-04    0.1071189909E-04    0.4509672324E-02
    0.3000000000E+02    0.3060427685E-05    0.5796887662E+00    0.6675567752E-04    0.2894936202E-04    0.4635553806E-02
    0.5000000000E+02    0.3402125392E-05    0.6210375737E+00    0.8432495038E-04    0.4633154961E-04    0.4675721287E-02
    0.7000000000E+02    0.3777861282E-05    0.6406203683E+00    0.1039928427E-03    0.6339396353E-04    0.4696159687E-02
    0.9000000000E+02    0.4188795836E-05    0.6520419598E+00    0.1247958349E-03    0.8032241511E-04    0.4708592150E-02
    0.1100000000E+03    0.4626429028E-05    0.6595239933E+00    0.1462918584E-03    0.9721201581E-04    0.4716865291E-02
    0.1300000000E+03    0.5084502036E-05    0.6648046672E+00    0.1682731360E-03    0.1141208751E-03    0.4722646300E-02
    0.1500000000E+03    0.5558919046E-05    0.6687307501E+00    0.1906358658E-03    0.1310885324E-03    0.4726787289E-02
    0.1700000000E+03    0.6047005346E-05    0.6717640937E+00    0.2133261972E-03    0.1481439770E-03    0.4729774513E-02
    0.1900000000E+03    0.6546986056E-05    0.6741780268E+00    0.2363161104E-03    0.1653096845E-03    0.4731908296E-02
    0.2100000000E+03    0.7057664824E-05    0.6761446378E+00    0.2595917778E-03    0.1826038632E-03    0.4733385513E-02
    0.2300000000E+03    0.7578227235E-05    0.6777776754E+00    0.2831475647E-03    0.2000417995E-03    0.4734341358E-02
    0.2500000000E+03    0.8108118160E-05    0.6791553382E+00    0.3069827640E-03    0.2176367119E-03    0.4734872183E-02
    0.2700000000E+03    0.8646963255E-05    0.6803331564E+00    0.3310997390E-03    0.2354003174E-03    0.4735048769E-02
    0.2900000000E+03    0.9194517388E-05    0.6813516501E+00    0.3555028269E-03    0.2533432227E-03    0.4734924432E-02
    0.3100000000E+03    0.9750629940E-05    0.6822410800E+00    0.3801976733E-03    0.2714752023E-03    0.4734540192E-02
    0.3300000000E+03    0.1031522094E-04    0.6830245007E+00    0.4051908186E-03    0.2898054020E-03    0.4733928171E-02
    0.3500000000E+03    0.1088826432E-04    0.6837197853E+00    0.4304894356E-03    0.3083424911E-03    0.4733113907E-02
    0.3700000000E+03    0.1146977599E-04    0.6843410033E+00    0.4561011624E-03    0.3270947794E-03    0.4732117972E-02
    0.3900000000E+03    0.1205980515E-04    0.6848993817E+00    0.4820339941E-03    0.3460703077E-03    0.4730957118E-02
    0.4100000000E+03    0.1265842796E-04    0.6854039878E+00    0.5082962141E-03    0.3652769208E-03    0.4729645116E-02
    0.4300000000E+03    0.1326574283E-04    0.6858622248E+00    0.5348963501E-03    0.3847223250E-03    0.4728193381E-02
    0.4500000000E+03    0.1388186684E-04    0.6862801970E+00    0.5618431474E-03    0.4044141370E-03    0.4726611434E-02
    0.4700000000E+03    0.1450693312E-04    0.6866629823E+00    0.5891455539E-03    0.4243599231E-03    0.4724907262E-02
    0.4900000000E+03    0.1514108880E-04    0.6870148397E+00    0.6168127126E-03    0.4445672332E-03    0.4723087592E-02
    0.1000000000E+03    0.4404726434E-05    0.6561360352E+00    0.1354736160E-03    0.8876786610E-04    0.4713116706E-02
    0.3000000000E+03    0.9471510292E-05    0.6818109158E+00    0.3678133889E-03    0.2623849939E-03    0.4734762615E-02
    0.5000000000E+03    0.1546162458E-04    0.6871803170E+00    0.6307859842E-03    0.4547713219E-03    0.4722136259E-02
    0.7000000000E+03    0.2239471260E-04    0.6895036045E+00    0.9318123387E-03    0.6744788281E-03    0.4698028567E-02
    0.9000000000E+03    0.3048524667E-04    0.6907989116E+00    0.1281631875E-02    0.9297875001E-03    0.4665276520E-02
    0.1100000000E+04    0.4004106476E-04    0.6916242990E+00    0.1694088088E-02    0.1230972750E-02    0.4623804941E-02
    0.1300000000E+04    0.5148503629E-04    0.6921958670E+00    0.2187723241E-02    0.1591703838E-02    0.4572307806E-02
    0.1500000000E+04    0.6540508956E-04    0.6926148668E+00    0.2788125828E-02    0.2030822673E-02    0.4508467499E-02
    0.1700000000E+04    0.8263533245E-04    0.6929350403E+00    0.3531520627E-02    0.2575010955E-02    0.4428761230E-02
    0.1900000000E+04    0.1043851392E-03    0.6931875554E+00    0.4470418237E-02    0.3262977640E-02    0.4327989599E-02
    0.2100000000E+04    0.1324443105E-03    0.6933917297E+00    0.5682583580E-02    0.4152114815E-02    0.4198482908E-02
    0.2300000000E+04    0.1695015576E-03    0.6935601719E+00    0.7284989596E-02    0.5328884642E-02    0.4028898077E-02
    0.2500000000E+04    0.2195946431E-03    0.6937014610E+00    0.9453653650E-02    0.6923675845E-02    0.3802665539E-02
    0.2700000000E+04    0.2885516186E-03    0.6938216362E+00    0.1244347550E-01    0.9125960595E-02    0.3496984660E-02
    0.2900000000E+04    0.3836273968E-03    0.6939250717E+00    0.1657391009E-01    0.1217484096E-01    0.3086280237E-02
    0.3100000000E+04    0.5098558196E-03    0.6940150132E+00    0.2207287246E-01    0.1624565733E-01    0.2560764714E-02
    0.3300000000E+04    0.6601680073E-03    0.6940939196E+00    0.2864816549E-01    0.2113419561E-01    0.1968949814E-02
    0.3500000000E+04    0.8081946506E-03    0.6941636875E+00    0.3516682495E-01    0.2601390560E-01    0.1436761622E-02
    0.3700000000E+04    0.9262344377E-03    0.6942258034E+00    0.4042293195E-01    0.2999285961E-01    0.1074241594E-02
    0.3900000000E+04    0.1009353469E-02    0.6942814486E+00    0.4418832502E-01    0.3289218258E-01    0.8802492548E-03
    0.4100000000E+04    0.1068521309E-02    0.6943315736E+00    0.4692830712E-01    0.3504682052E-01    0.7915033313E-03
    0.4300000000E+04    0.1114725575E-02    0.6943769521E+00    0.4911523019E-01    0.3680169604E-01    0.7544274366E-03
    0.4500000000E+04    0.1154382258E-02    0.6944182197E+00    0.5102625744E-01    0.3836025570E-01    0.7400205952E-03
    0.4700000000E+04    0.1190584425E-02    0.6944559039E+00    0.5279530905E-01    0.3982105704E-01    0.7350893876E-03
    0.4900000000E+04    0.1224723326E-02    0.6944904460E+00    0.5448259287E-01    0.4122840945E-01    0.7340331104E-03
    0.1000000000E+04    0.3505672305E-04    0.6912528088E+00    0.1479004582E-02    0.1073888505E-02    0.4645688817E-02
    0.3000000000E+04    0.4428518675E-03    0.6939715602E+00    0.1915168328E-01    0.1408139398E-01    0.2836809797E-02
    0.5000000000E+04    0.1241228379E-02    0.6945066572E+00    0.5530458973E-01    0.4191865342E-01    0.7341680431E-03
    0.7000000000E+04    0.1520672249E-02    0.6947315214E+00    0.6988251120E-01    0.5466281860E-01    0.7468656529E-03
    0.9000000000E+04    0.1727491362E-02    0.6948538677E+00    0.8175603834E-01    0.6587258410E-01    0.7574394648E-03
    0.1100000000E+05    0.1881359326E-02    0.6949300488E+00    0.9157237447E-01    0.7587524008E-01    0.7659756721E-03
    0.1300000000E+05    0.1995706246E-02    0.6949816126E+00    0.9978202177E-01    0.8490114328E-01    0.7731473885E-03
    0.1500000000E+05    0.2080101770E-02    0.6950185533E+00    0.1067148889E+00    0.9312301449E-01    0.7793394424E-03
    0.1700000000E+05    0.2141506349E-02    0.6950461285E+00    0.1126178651E+00    0.1006731613E+00    0.7847929155E-03
    0.1900000000E+05    0.2185073122E-02    0.6950673625E+00    0.1176792160E+00    0.1076548329E+00    0.7896690485E-03
    0.2100000000E+05    0.2214676387E-02    0.6950841151E+00    0.1220448858E+00    0.1141499231E+00    0.7940811118E-03
    0.2300000000E+05    0.2233268476E-02    0.6950975913E+00    0.1258296664E+00    0.1202243266E+00    0.7981117830E-03
    0.2500000000E+05    0.2243125982E-02    0.6951086047E+00    0.1291250212E+00    0.1259317469E+00    0.8018232929E-03
    0.2700000000E+05    0.2246022908E-02    0.6951177241E+00    0.1320046737E+00    0.1313164551E+00    0.8052636779E-03
    0.2900000000E+05    0.2243354515E-02    0.6951253584E+00    0.1345286696E+00    0.1364153244E+00    0.8084708075E-03
    0.3100000000E+05    0.2236227271E-02    0.6951318089E+00    0.1367463774E+00    0.1412593544E+00    0.8114750750E-03
    0.3300000000E+05    0.2225525081E-02    0.6951373022E+00    0.1386987359E+00    0.1458748282E+00    0.8143012509E-03
    0.3500000000E+05    0.2211958679E-02    0.6951420119E+00    0.1404199598E+00    0.1502842034E+00    0.8169697948E-03
    0.3700000000E+05    0.2196102861E-02    0.6951460729E+00    0.1419388495E+00    0.1545068055E+00    0.8194978043E-03
    0.3900000000E+05    0.2178424871E-02    0.6951495918E+00    0.1432798079E+00    0.1585593738E+00    0.8218997165E-03
    0.4100000000E+05    0.2159306230E-02    0.6951526538E+00    0.1444636381E+00    0.1624564949E+00    0.8241878346E-03
    0.4300000000E+05    0.2139059686E-02    0.6951553275E+00    0.1455081739E+00    0.1662109505E+00    0.8263727307E-03
    0.4500000000E+05    0.2117942465E-02    0.6951576692E+00    0.1464287838E+00    0.1698339995E+00    0.8284635568E-03
    0.4700000000E+05    0.2096166728E-02    0.6951597249E+00    0.1472387760E+00    0.1733356064E+00    0.8304682897E-03
    0.4900000000E+05    0.2073907863E-02    0.6951615331E+00    0.1479497268E+00    0.1767246304E+00    0.8323939243E-03
    0.1000000000E+05    0.1810095528E-02    0.6948959753E+00    0.8688981000E-01    0.7100879679E-01    0.7619107881E-03
    0.3000000000E+05    0.2240288437E-02    0.6951287160E+00    0.1356730755E+00    0.1388674527E+00    0.8099966366E-03
    0.5000000000E+05    0.2062643669E-02    0.6951623546E+00    0.1482712727E+00    0.1783794290E+00    0.8333290362E-03
    0.7000000000E+05    0.1836243980E-02    0.6951713689E+00    0.1513875725E+00    0.2071036393E+00    0.8490557698E-03
    0.9000000000E+05    0.1632738856E-02    0.6951733570E+00    0.1509850249E+00    0.2300531077E+00    0.8609928007E-03
    0.1100000000E+06    0.1459823672E-02    0.6951726829E+00    0.1490592640E+00    0.2493424497E+00    0.8706434474E-03
    0.1300000000E+06    0.1314080627E-02    0.6951708619E+00    0.1464334455E+00    0.2660680263E+00    0.8787591599E-03
    0.1500000000E+06    0.1190685416E-02    0.6951685254E+00    0.1434927111E+00    0.2808765938E+00    0.8857708937E-03
    0.1700000000E+06    0.1085369563E-02    0.6951659677E+00    0.1404323165E+00    0.2941849550E+00    0.8919492762E-03
    0.1900000000E+06    0.9946990078E-03    0.6951633359E+00    0.1373563128E+00    0.3062795234E+00    0.8974756248E-03
    0.2100000000E+06    0.9159788640E-03    0.6951607066E+00    0.1343215855E+00    0.3173669014E+00    0.9024774820E-03
    0.2300000000E+06    0.8471001606E-03    0.6951581204E+00    0.1313592665E+00    0.3276018688E+00    0.9070480397E-03
    0.2500000000E+06    0.7864034399E-03    0.6951555983E+00    0.1284858541E+00    0.3371039419E+00    0.9112575009E-03
    0.2700000000E+06    0.7325716999E-03    0.6951531507E+00    0.1257092938E+00    0.3459677105E+00    0.9151600933E-03
    0.2900000000E+06    0.6845496469E-03    0.6951507817E+00    0.1230324440E+00    0.3542695807E+00    0.9187985915E-03
    0.3100000000E+06    0.6414834643E-03    0.6951484919E+00    0.1204551159E+00    0.3620723377E+00    0.9222073424E-03
    0.3300000000E+06    0.6026758595E-03    0.6951462800E+00    0.1179753061E+00    0.3694283320E+00    0.9254143503E-03
    0.3500000000E+06    0.5675523126E-03    0.6951441433E+00    0.1155899564E+00    0.3763817638E+00    0.9284427540E-03
    0.3700000000E+06    0.5356355297E-03    0.6951420788E+00    0.1132954280E+00    0.3829703592E+00    0.9313118963E-03
    0.3900000000E+06    0.5065259258E-03    0.6951400831E+00    0.1110878012E+00    0.3892266258E+00    0.9340381147E-03
    0.4100000000E+06    0.4798865740E-03    0.6951381527E+00    0.1089630633E+00    0.3951788102E+00    0.9366353352E-03
    0.4300000000E+06    0.4554314902E-03    0.6951362841E+00    0.1069172280E+00    0.4008516386E+00    0.9391155270E-03
    0.4500000000E+06    0.4329164317E-03    0.6951344742E+00    0.1049464080E+00    0.4062669000E+00    0.9414890538E-03
    0.4700000000E+06    0.4121316083E-03    0.6951327197E+00    0.1030468586E+00    0.4114439090E+00    0.9437649497E-03
    0.4900000000E+06    0.3928958600E-03    0.6951310176E+00    0.1012150025E+00    0.4163998792E+00    0.9459511387E-03
    0.1000000000E+06    0.1542590707E-02    0.6951732262E+00    0.1501460783E+00    0.2400722481E+00    0.8660465042E-03
    0.3000000000E+06    0.6624438792E-03    0.6951496269E+00    0.1217314331E+00    0.3582298622E+00    0.9205298062E-03
    0.5000000000E+06    0.3838089331E-03    0.6951301854E+00    0.1003233901E+00    0.4187998551E+00    0.9470128095E-03
    0.7000000000E+06    0.2543726448E-03    0.6951157049E+00    0.8531654341E-01    0.4582176624E+00    0.9648705602E-03
    0.9000000000E+06    0.1822756295E-03    0.6951042246E+00    0.7424641844E-01    0.4864124707E+00    0.9784275975E-03
    0.1100000000E+07    0.1375622753E-03    0.6950947131E+00    0.6573590883E-01    0.5077314465E+00    0.9893890873E-03
    0.1300000000E+07    0.1077586232E-03    0.6950865878E+00    0.5898328834E-01    0.5244742054E+00    0.9986077501E-03
    0.1500000000E+07    0.8682846992E-04    0.6950794908E+00    0.5349154906E-01    0.5379967490E+00    0.1006572751E-02
    0.1700000000E+07    0.7153366610E-04    0.6950731868E+00    0.4893588610E-01    0.5491588739E+00    0.1013591324E-02
    0.1900000000E+07    0.6000028841E-04    0.6950675133E+00    0.4509477882E-01    0.5585353702E+00    0.1019869343E-02
    0.2100000000E+07    0.5107865762E-04    0.6950623533E+00    0.4181179387E-01    0.5665264719E+00    0.1025551634E-02
    0.2300000000E+07    0.4402980074E-04    0.6950576195E+00    0.3897322412E-01    0.5734200944E+00    0.1030744027E-02
    0.2500000000E+07    0.3836028333E-04    0.6950532456E+00    0.3649438307E-01    0.5794289769E+00    0.1035526250E-02
    0.2700000000E+07    0.3372997279E-04    0.6950491794E+00    0.3431087301E-01    0.5847138860E+00    0.1039959891E-02
    0.2900000000E+07    0.2989799202E-04    0.6950453795E+00    0.3237283592E-01    0.5893986679E+00    0.1044093534E-02
    0.3100000000E+07    0.2668974518E-04    0.6950418124E+00    0.3064105942E-01    0.5935803259E+00    0.1047966189E-02
    0.3300000000E+07    0.2397609437E-04    0.6950384505E+00    0.2908427351E-01    0.5973359510E+00    0.1051609665E-02
    0.3500000000E+07    0.2165981180E-04    0.6950352709E+00    0.2767723294E-01    0.6007276016E+00    0.1055050246E-02
    0.3700000000E+07    0.1966653301E-04    0.6950322545E+00    0.2639933059E-01    0.6038058098E+00    0.1058309902E-02
    0.3900000000E+07    0.1793857546E-04    0.6950293849E+00    0.2523357768E-01    0.6066121462E+00    0.1061407191E-02
    0.4100000000E+07    0.1643062769E-04    0.6950266480E+00    0.2416584199E-01    0.6091811274E+00    0.1064357934E-02
    0.4300000000E+07    0.1510668764E-04    0.6950240319E+00    0.2318427110E-01    0.6115416550E+00    0.1067175726E-02
    0.4500000000E+07    0.1393785198E-04    0.6950215261E+00    0.2227885011E-01    0.6137181146E+00    0.1069872339E-02
    0.4700000000E+07    0.1290069592E-04    0.6950191214E+00    0.2144105854E-01    0.6157312265E+00    0.1072458038E-02
    0.4900000000E+07    0.1197606953E-04    0.6950168098E+00    0.2066360143E-01    0.6175987107E+00    0.1074941823E-02
    0.1000000000E+07    0.1574966758E-03    0.6950992662E+00    0.6973068930E-01    0.4977576346E+00    0.9841676358E-03
    0.3000000000E+07    0.2822485246E-04    0.6950435687E+00    0.3148328006E-01    0.5915471677E+00    0.1046060350E-02
    0.5000000000E+07    0.1155091200E-04    0.6950156866E+00    0.2029550044E-01    0.6184826908E+00    0.1076148015E-02
    0.7000000000E+07    0.6276594984E-05    0.6949967445E+00    0.1495443631E-01    0.6312948280E+00    0.1096436792E-02
    0.9000000000E+07    0.3947095656E-05    0.6949823133E+00    0.1182898815E-01    0.6387814137E+00    0.1111839471E-02
    0.1100000000E+08    0.2714436975E-05    0.6949706206E+00    0.9778637138E-02    0.6436893515E+00    0.1124293266E-02
    0.1300000000E+08    0.1983138913E-05    0.6949607735E+00    0.8330731407E-02    0.6471539495E+00    0.1134766964E-02
    0.1500000000E+08    0.1513527791E-05    0.6949522569E+00    0.7254128759E-02    0.6497295781E+00    0.1143816319E-02
    0.1700000000E+08    0.1193895239E-05    0.6949447467E+00    0.6422452618E-02    0.6517190554E+00    0.1151790392E-02
    0.1900000000E+08    0.9664206611E-06    0.6949380249E+00    0.5760795132E-02    0.6533017612E+00    0.1158923083E-02
    0.2100000000E+08    0.7987166544E-06    0.6949319381E+00    0.5221946080E-02    0.6545907001E+00    0.1165378938E-02
    0.2300000000E+08    0.6714860328E-06    0.6949263737E+00    0.4774679529E-02    0.6556605930E+00    0.1171278195E-02
    0.2500000000E+08    0.5726452042E-06    0.6949212472E+00    0.4397519802E-02    0.6565628180E+00    0.1176711437E-02
    0.2700000000E+08    0.4943117908E-06    0.6949164930E+00    0.4075213173E-02    0.6573338621E+00    0.1181748638E-02
