  Pressure (Pa) 23mC5-500 (mol/kg) 24mC5-500 (mol/kg) 2mC6-500 (mol/kg) 3mC6-500 (mol/kg) C7-500 (mol/kg)
    0.1000000000E+01    0.6082345929E-06    0.1513968839E+00    0.1083948823E-04    0.2204652463E-05    0.4218042738E-02
    0.3000000000E+01    0.1179878526E-05    0.3164616362E+00    0.2000536537E-04    0.5700564686E-05    0.4280935084E-02
    0.5000000000E+01    0.1436318792E-05    0.4047125114E+00    0.2378130343E-04    0.8929410084E-05    0.4314439177E-02
    0.7000000000E+01    0.1576524775E-05    0.4596478202E+00    0.2591139273E-04    0.1202796737E-04    0.4335639649E-02
    0.9000000000E+01    0.1665433162E-05    0.4971376753E+00    0.2747340822E-04    0.1504276682E-04    0.4350363448E-02
    0.1100000000E+02    0.1729248607E-05    0.5243535307E+00    0.2884338604E-04    0.1799720071E-04    0.4361233023E-02
    0.1300000000E+02    0.1780037136E-05    0.5450097990E+00    0.3016655728E-04    0.2090523879E-04    0.4369612382E-02
    0.1500000000E+02    0.1823873321E-05    0.5612229284E+00    0.3150122873E-04    0.2377611049E-04    0.4376283932E-02
    0.1700000000E+02    0.1864013629E-05    0.5742872795E+00    0.3287004200E-04    0.2661633715E-04    0.4381729855E-02
    0.1900000000E+02    0.1902283183E-05    0.5850389506E+00    0.3428026207E-04    0.2943075383E-04    0.4386264156E-02
    0.2100000000E+02    0.1939736381E-05    0.5940420945E+00    0.3573242206E-04    0.3222307787E-04    0.4390100488E-02
    0.2300000000E+02    0.1976993416E-05    0.6016911695E+00    0.3722419562E-04    0.3499624942E-04    0.4393389507E-02
    0.2500000000E+02    0.2014421091E-05    0.6082702817E+00    0.3875218298E-04    0.3775264765E-04    0.4396240648E-02
    0.2700000000E+02    0.2052234280E-05    0.6139892521E+00    0.4031274029E-04    0.4049423417E-04    0.4398735425E-02
    0.2900000000E+02    0.2090554901E-05    0.6190064061E+00    0.4190235529E-04    0.4322265193E-04    0.4400935868E-02
    0.3100000000E+02    0.2129447206E-05    0.6234434584E+00    0.4351780380E-04    0.4593929544E-04    0.4402890071E-02
    0.3300000000E+02    0.2168939422E-05    0.6273955169E+00    0.4515619992E-04    0.4864536205E-04    0.4404635930E-02
    0.3500000000E+02    0.2209037264E-05    0.6309379762E+00    0.4681499565E-04    0.5134189008E-04    0.4406203741E-02
    0.3700000000E+02    0.2249732520E-05    0.6341313736E+00    0.4849195790E-04    0.5402978792E-04    0.4407618030E-02
    0.3900000000E+02    0.2291008556E-05    0.6370248770E+00    0.5018513683E-04    0.5670985645E-04    0.4408898884E-02
    0.4100000000E+02    0.2332843881E-05    0.6396588342E+00    0.5189283249E-04    0.5938280672E-04    0.4410062920E-02
    0.4300000000E+02    0.2375214456E-05    0.6420666660E+00    0.5361356292E-04    0.6204927390E-04    0.4411124016E-02
    0.4500000000E+02    0.2418095196E-05    0.6442762912E+00    0.5534603523E-04    0.6470982863E-04    0.4412093858E-02
    0.4700000000E+02    0.2461460931E-05    0.6463112146E+00    0.5708912003E-04    0.6736498616E-04    0.4412982365E-02
    0.4900000000E+02    0.2505287015E-05    0.6481913655E+00    0.5884182904E-04    0.7001521391E-04    0.4413798011E-02
    0.1000000000E+02    0.1699524910E-05    0.5117464761E+00    0.2817031297E-04    0.1652651009E-04    0.4356176135E-02
    0.3000000000E+02    0.2109927173E-05    0.6212909699E+00    0.4270703881E-04    0.4458236651E-04    0.4401941177E-02
    0.5000000000E+02    0.2527365224E-05    0.6490788159E+00    0.5972151761E-04    0.7133861366E-04    0.4414180831E-02
    0.7000000000E+02    0.2987992970E-05    0.6617628028E+00    0.7765927922E-04    0.9763410608E-04    0.4419343016E-02
    0.9000000000E+02    0.3475129123E-05    0.6690253764E+00    0.9601881849E-04    0.1237597382E-03    0.4421662732E-02
    0.1100000000E+03    0.3980139536E-05    0.6737301329E+00    0.1146452425E-03    0.1498647672E-03    0.4422495997E-02
    0.1300000000E+03    0.4498629211E-05    0.6770258787E+00    0.1334868759E-03    0.1760408240E-03    0.4422426089E-02
    0.1500000000E+03    0.5028242485E-05    0.6794630594E+00    0.1525286506E-03    0.2023506993E-03    0.4421750508E-02
    0.1700000000E+03    0.5567669721E-05    0.6813384465E+00    0.1717700770E-03    0.2288408519E-03    0.4420638964E-02
    0.1900000000E+03    0.6116175612E-05    0.6828261722E+00    0.1912168804E-03    0.2555476980E-03    0.4419196241E-02
    0.2100000000E+03    0.6673359268E-05    0.6840351463E+00    0.2108775104E-03    0.2825011079E-03    0.4417490949E-02
    0.2300000000E+03    0.7239024456E-05    0.6850369779E+00    0.2307615912E-03    0.3097265002E-03    0.4415570079E-02
    0.2500000000E+03    0.7813105687E-05    0.6858806849E+00    0.2508792100E-03    0.3372461701E-03    0.4413466966E-02
    0.2700000000E+03    0.8395624262E-05    0.6866009508E+00    0.2712405907E-03    0.3650801720E-03    0.4411205929E-02
    0.2900000000E+03    0.8986661186E-05    0.6872230080E+00    0.2918559514E-03    0.3932469289E-03    0.4408805107E-02
    0.3100000000E+03    0.9586339973E-05    0.6877656510E+00    0.3127354522E-03    0.4217636665E-03    0.4406278270E-02
    0.3300000000E+03    0.1019481547E-04    0.6882431669E+00    0.3338891874E-03    0.4506467321E-03    0.4403636013E-02
    0.3500000000E+03    0.1081226642E-04    0.6886666099E+00    0.3553272004E-03    0.4799118339E-03    0.4400886574E-02
    0.3700000000E+03    0.1143889052E-04    0.6890446668E+00    0.3770595074E-03    0.5095742261E-03    0.4398036400E-02
    0.3900000000E+03    0.1207490097E-04    0.6893842586E+00    0.3990961267E-03    0.5396488530E-03    0.4395090553E-02
    0.4100000000E+03    0.1272052424E-04    0.6896909674E+00    0.4214471079E-03    0.5701504660E-03    0.4392053009E-02
    0.4300000000E+03    0.1337599842E-04    0.6899693450E+00    0.4441225611E-03    0.6010937181E-03    0.4388926873E-02
    0.4500000000E+03    0.1404157223E-04    0.6902231406E+00    0.4671326851E-03    0.6324932431E-03    0.4385714547E-02
    0.4700000000E+03    0.1471750431E-04    0.6904554697E+00    0.4904877939E-03    0.6643637225E-03    0.4382417858E-02
    0.4900000000E+03    0.1540406282E-04    0.6906689428E+00    0.5141983420E-03    0.6967199434E-03    0.4379038149E-02
    0.1000000000E+03    0.3725739935E-05    0.6716048886E+00    0.1053031859E-03    0.1368082089E-03    0.4422218973E-02
    0.3000000000E+03    0.9285411302E-05    0.6875032751E+00    0.3022620519E-03    0.4074605110E-03    0.4407556715E-02
    0.5000000000E+03    0.1575141332E-04    0.6907693108E+00    0.5261902171E-03    0.7130848692E-03    0.4377317470E-02
    0.7000000000E+03    0.2332993606E-04    0.6921766466E+00    0.7874235994E-03    0.1069704532E-02    0.4338607726E-02
    0.9000000000E+03    0.3235968593E-04    0.6929598968E+00    0.1098276686E-02    0.1494438046E-02    0.4291109428E-02
    0.1100000000E+04    0.4330924292E-04    0.6934585512E+00    0.1475156010E-02    0.2009902303E-02    0.4232947763E-02
    0.1300000000E+04    0.5684351025E-04    0.6938037021E+00    0.1941155386E-02    0.2647915683E-02    0.4161023370E-02
    0.1500000000E+04    0.7393419260E-04    0.6940566664E+00    0.2529967140E-02    0.3454931666E-02    0.4070656090E-02
    0.1700000000E+04    0.9604239133E-04    0.6942499525E+00    0.3292261685E-02    0.4500887169E-02    0.3954805735E-02
    0.1900000000E+04    0.1254225835E-03    0.6944023987E+00    0.4306300824E-02    0.5893949653E-02    0.3802751711E-02
    0.2100000000E+04    0.1656145061E-03    0.6945256737E+00    0.5695162370E-02    0.7804537649E-02    0.3598049676E-02
    0.2300000000E+04    0.2221370312E-03    0.6946273906E+00    0.7651225564E-02    0.1049973992E-01    0.3316001459E-02
    0.2500000000E+04    0.3029607270E-03    0.6947127273E+00    0.1045360098E-01    0.1436888553E-01    0.2923330325E-02
    0.2700000000E+04    0.4165398795E-03    0.6947853280E+00    0.1440203415E-01    0.1983537063E-01    0.2391477023E-02
    0.2900000000E+04    0.5619432086E-03    0.6948478318E+00    0.1947675112E-01    0.2688997425E-01    0.1746983297E-02
    0.3100000000E+04    0.7139677065E-03    0.6949021963E+00    0.2481714136E-01    0.3436369427E-01    0.1131334044E-02
    0.3300000000E+04    0.8367956842E-03    0.6949499046E+00    0.2918103698E-01    0.4054137970E-01    0.7085446835E-03
    0.3500000000E+04    0.9209917305E-03    0.6949921006E+00    0.3222831238E-01    0.4493503530E-01    0.4936000818E-03
    0.3700000000E+04    0.9794401040E-03    0.6950296806E+00    0.3439531679E-01    0.4813237316E-01    0.4031757312E-03
    0.3900000000E+04    0.1024953325E-02    0.6950633569E+00    0.3612237927E-01    0.5073584412E-01    0.3686354990E-03
    0.4100000000E+04    0.1064368692E-02    0.6950937028E+00    0.3764563993E-01    0.5307025374E-01    0.3562240784E-03
    0.4300000000E+04    0.1100662155E-02    0.6951211846E+00    0.3906807198E-01    0.5527756602E-01    0.3521607232E-03
    0.4500000000E+04    0.1135048895E-02    0.6951461858E+00    0.4043163186E-01    0.5741554034E-01    0.3511873742E-03
    0.4700000000E+04    0.1168026428E-02    0.6951690244E+00    0.4175331756E-01    0.5950736096E-01    0.3513425524E-03
    0.4900000000E+04    0.1199810402E-02    0.6951899664E+00    0.4304029964E-01    0.6156255881E-01    0.3518990187E-03
    0.1000000000E+04    0.3755856553E-04    0.6932341548E+00    0.1277213506E-02    0.1739107484E-02    0.4263524370E-02
    0.3000000000E+04    0.6396261302E-03    0.6948759295E+00    0.2219992518E-01    0.3069280101E-01    0.1423172499E-02
    0.5000000000E+04    0.1215289959E-02    0.6951997977E+00    0.4367189295E-01    0.6257783795E-01    0.3522352211E-03
    0.7000000000E+04    0.1476126285E-02    0.6953364177E+00    0.5488661856E-01    0.8142145394E-01    0.3588189808E-03
    0.9000000000E+04    0.1663173537E-02    0.6954110687E+00    0.6389221432E-01    0.9793239698E-01    0.3638850899E-03
    0.1100000000E+05    0.1796777950E-02    0.6954577647E+00    0.7121612977E-01    0.1125954035E+00    0.3679777257E-03
    0.1300000000E+05    0.1891002890E-02    0.6954895251E+00    0.7723362692E-01    0.1257639979E+00    0.3714177405E-03
    0.1500000000E+05    0.1955809566E-02    0.6955123955E+00    0.8221891904E-01    0.1377032319E+00    0.3743888028E-03
    0.1700000000E+05    0.1998393520E-02    0.6955295603E+00    0.8637669455E-01    0.1486160830E+00    0.3770061042E-03
    0.1900000000E+05    0.2024040901E-02    0.6955428535E+00    0.8986259726E-01    0.1586608843E+00    0.3793467503E-03
    0.2100000000E+05    0.2036692174E-02    0.6955534044E+00    0.9279691198E-01    0.1679631596E+00    0.3814649415E-03
    0.2300000000E+05    0.2039322121E-02    0.6955619456E+00    0.9527393797E-01    0.1766238574E+00    0.3834002586E-03
    0.2500000000E+05    0.2034201422E-02    0.6955689728E+00    0.9736855009E-01    0.1847252049E+00    0.3851825057E-03
    0.2700000000E+05    0.2023080073E-02    0.6955748327E+00    0.9914088138E-01    0.1923349509E+00    0.3868346962E-03
    0.2900000000E+05    0.2007318145E-02    0.6955797750E+00    0.1006397232E+00    0.1995094939E+00    0.3883749778E-03
    0.3100000000E+05    0.1987980402E-02    0.6955839839E+00    0.1019050330E+00    0.2062962249E+00    0.3898179189E-03
    0.3300000000E+05    0.1965905674E-02    0.6955875983E+00    0.1029698106E+00    0.2127353063E+00    0.3911753951E-03
    0.3500000000E+05    0.1941758358E-02    0.6955907247E+00    0.1038615194E+00    0.2188610403E+00    0.3924572168E-03
    0.3700000000E+05    0.1916067060E-02    0.6955934461E+00    0.1046031765E+00    0.2247029338E+00    0.3936715837E-03
    0.3900000000E+05    0.1889253890E-02    0.6955958279E+00    0.1052141972E+00    0.2302865359E+00    0.3948254205E-03
    0.4100000000E+05    0.1861656876E-02    0.6955979226E+00    0.1057110562E+00    0.2356341038E+00    0.3959246292E-03
    0.4300000000E+05    0.1833547251E-02    0.6955997728E+00    0.1061078099E+00    0.2407651357E+00    0.3969742816E-03
    0.4500000000E+05    0.1805142895E-02    0.6956014131E+00    0.1064165119E+00    0.2456968026E+00    0.3979787690E-03
    0.4700000000E+05    0.1776618869E-02    0.6956028722E+00    0.1066475479E+00    0.2504442993E+00    0.3989419188E-03
    0.4900000000E+05    0.1748115707E-02    0.6956041737E+00    0.1068099049E+00    0.2550211332E+00    0.3998670880E-03
    0.1000000000E+05    0.1735660865E-02    0.6954368518E+00    0.6773808825E-01    0.1054703317E+00    0.3660285606E-03
    0.3000000000E+05    0.1998039205E-02    0.6955819615E+00    0.1012993626E+00    0.2029486740E+00    0.3891078190E-03
    0.5000000000E+05    0.1733908074E-02    0.6956047718E+00    0.1068678099E+00    0.2572493708E+00    0.4003163687E-03
    0.7000000000E+05    0.1468262911E-02    0.6956119494E+00    0.1058600746E+00    0.2952002489E+00    0.4078729971E-03
    0.9000000000E+05    0.1250032110E-02    0.6956144846E+00    0.1027947473E+00    0.3244460459E+00    0.4136093223E-03
    0.1100000000E+06    0.1075492725E-02    0.6956151652E+00    0.9907637955E-01    0.3482162379E+00    0.4182472361E-03
    0.1300000000E+06    0.9352957030E-03    0.6956149850E+00    0.9522933414E-01    0.3681896571E+00    0.4221476659E-03
    0.1500000000E+06    0.8213787185E-03    0.6956143714E+00    0.9146660199E-01    0.3853590180E+00    0.4255176323E-03
    0.1700000000E+06    0.7276307933E-03    0.6956135313E+00    0.8787510976E-01    0.4003648813E+00    0.4284871506E-03
    0.1900000000E+06    0.6495370201E-03    0.6956125734E+00    0.8448632718E-01    0.4136473037E+00    0.4311433360E-03
    0.2100000000E+06    0.5837559039E-03    0.6956115581E+00    0.8130620190E-01    0.4255231028E+00    0.4335474704E-03
    0.2300000000E+06    0.5277883409E-03    0.6956105201E+00    0.7832883316E-01    0.4362287776E+00    0.4357443328E-03
    0.2500000000E+06    0.4797405144E-03    0.6956094800E+00    0.7554304433E-01    0.4459460092E+00    0.4377676573E-03
    0.2700000000E+06    0.4381577231E-03    0.6956084501E+00    0.7293564185E-01    0.4548176484E+00    0.4396435021E-03
    0.2900000000E+06    0.4019078823E-03    0.6956074376E+00    0.7049304899E-01    0.4629581897E+00    0.4413924226E-03
    0.3100000000E+06    0.3700991309E-03    0.6956064469E+00    0.6820211291E-01    0.4704608872E+00    0.4430309241E-03
    0.3300000000E+06    0.3420208563E-03    0.6956054801E+00    0.6605048100E-01    0.4774027404E+00    0.4445724648E-03
    0.3500000000E+06    0.3171009270E-03    0.6956045385E+00    0.6402675009E-01    0.4838480795E+00    0.4460281646E-03
    0.3700000000E+06    0.2948742713E-03    0.6956036222E+00    0.6212049620E-01    0.4898512025E+00    0.4474073191E-03
    0.3900000000E+06    0.2749594986E-03    0.6956027312E+00    0.6032224320E-01    0.4954583537E+00    0.4487177800E-03
    0.4100000000E+06    0.2570412956E-03    0.6956018648E+00    0.5862340191E-01    0.5007092323E+00    0.4499662402E-03
    0.4300000000E+06    0.2408570209E-03    0.6956010224E+00    0.5701619727E-01    0.5056381622E+00    0.4511584518E-03
    0.4500000000E+06    0.2261863875E-03    0.6956002031E+00    0.5549359292E-01    0.5102750094E+00    0.4522993959E-03
    0.4700000000E+06    0.2128434455E-03    0.6955994061E+00    0.5404921810E-01    0.5146459114E+00    0.4533934142E-03
    0.4900000000E+06    0.2006702921E-03    0.6955986305E+00    0.5267729941E-01    0.5187738632E+00    0.4544443150E-03
    0.1000000000E+06    0.1157890393E-02    0.6956149743E+00    0.1009735162E+00    0.3368885264E+00    0.4160380036E-03
    0.3000000000E+06    0.3854964653E-03    0.6956069394E+00    0.6932941717E-01    0.4667841230E+00    0.4422245726E-03
    0.5000000000E+06    0.1949794645E-03    0.6955982505E+00    0.5201685480E-01    0.5207531782E+00    0.4549546616E-03
    0.7000000000E+06    0.1183764337E-03    0.6955915685E+00    0.4157010762E-01    0.5514689778E+00    0.4635390540E-03
    0.9000000000E+06    0.7973227126E-04    0.6955862030E+00    0.3460016114E-01    0.5714524132E+00    0.4700562259E-03
    0.1100000000E+07    0.5745399504E-04    0.6955817271E+00    0.2962196280E-01    0.5855285405E+00    0.4753257624E-03
    0.1300000000E+07    0.4341785356E-04    0.6955778869E+00    0.2588952149E-01    0.5959905550E+00    0.4797575346E-03
    0.1500000000E+07    0.3399318832E-04    0.6955745228E+00    0.2298777258E-01    0.6040758947E+00    0.4835866710E-03
    0.1700000000E+07    0.2735368251E-04    0.6955715282E+00    0.2066751686E-01    0.6105132894E+00    0.4869608540E-03
    0.1900000000E+07    0.2249726197E-04    0.6955688286E+00    0.1877012250E-01    0.6157605273E+00    0.4899790433E-03
    0.2100000000E+07    0.1883611533E-04    0.6955663701E+00    0.1718981830E-01    0.6201199336E+00    0.4927108568E-03
    0.2300000000E+07    0.1600662987E-04    0.6955641124E+00    0.1585337382E-01    0.6237993101E+00    0.4952071664E-03
    0.2500000000E+07    0.1377392716E-04    0.6955620244E+00    0.1470848225E-01    0.6269462465E+00    0.4975062976E-03
    0.2700000000E+07    0.1198072193E-04    0.6955600820E+00    0.1371678776E-01    0.6296684787E+00    0.4996378561E-03
    0.2900000000E+07    0.1051843227E-04    0.6955582656E+00    0.1284952659E-01    0.6320465016E+00    0.5016251961E-03
    0.3100000000E+07    0.9310116553E-05    0.6955565596E+00    0.1208470599E-01    0.6341416723E+00    0.5034870709E-03
    0.3300000000E+07    0.8300005943E-05    0.6955549510E+00    0.1140522336E-01    0.6360015815E+00    0.5052387713E-03
    0.3500000000E+07    0.7446869310E-05    0.6955534290E+00    0.1079757922E-01    0.6376637108E+00    0.5068929320E-03
    0.3700000000E+07    0.6719685644E-05    0.6955519845E+00    0.1025097619E-01    0.6391579820E+00    0.5084601152E-03
    0.3900000000E+07    0.6094749645E-05    0.6955506099E+00    0.9756675496E-02    0.6405085725E+00    0.5099492419E-03
    0.4100000000E+07    0.5553692215E-05    0.6955492985E+00    0.9307528875E-02    0.6417352302E+00    0.5113679170E-03
    0.4300000000E+07    0.5082099400E-05    0.6955480446E+00    0.8897632670E-02    0.6428542439E+00    0.5127226765E-03
    0.4500000000E+07    0.4668531447E-05    0.6955468433E+00    0.8522068388E-02    0.6438791689E+00    0.5140191800E-03
    0.4700000000E+07    0.4303814674E-05    0.6955456902E+00    0.8176705541E-02    0.6448213770E+00    0.5152623610E-03
    0.4900000000E+07    0.3980522699E-05    0.6955445814E+00    0.7858050003E-02    0.6456904795E+00    0.5164565469E-03
    0.1000000000E+07    0.6721402914E-04    0.6955838726E+00    0.3191944288E-01    0.5790507225E+00    0.4728156336E-03
    0.3000000000E+07    0.9886417625E-05    0.6955573997E+00    0.1245547738E-01    0.6331261959E+00    0.5025707906E-03
    0.5000000000E+07    0.3832471161E-05    0.6955440427E+00    0.7707789993E-02    0.6461002204E+00    0.5170364771E-03
    0.7000000000E+07    0.2030565544E-05    0.6955349494E+00    0.5571139739E-02    0.6519217087E+00    0.5267913405E-03
    0.9000000000E+07    0.1258534908E-05    0.6955280144E+00    0.4357788038E-02    0.6552243157E+00    0.5341971401E-03
    0.1100000000E+08    0.8574398154E-06    0.6955223917E+00    0.3576225541E-02    0.6573508830E+00    0.5401851909E-03
    0.1300000000E+08    0.6223920613E-06    0.6955176542E+00    0.3031069975E-02    0.6588340729E+00    0.5452212456E-03
    0.1500000000E+08    0.4727792913E-06    0.6955135554E+00    0.2629301615E-02    0.6599271948E+00    0.5495724916E-03
    0.1700000000E+08    0.3716208582E-06    0.6955099399E+00    0.2321011711E-02    0.6607660703E+00    0.5534067481E-03
    0.1900000000E+08    0.2999992142E-06    0.6955067031E+00    0.2077029409E-02    0.6614300539E+00    0.5568364685E-03
    0.2100000000E+08    0.2474137281E-06    0.6955037715E+00    0.1879168439E-02    0.6619686068E+00    0.5599407633E-03
    0.2300000000E+08    0.2076529419E-06    0.6955010911E+00    0.1715503738E-02    0.6624141569E+00    0.5627774415E-03
    0.2500000000E+08    0.1768502029E-06    0.6954986212E+00    0.1577891679E-02    0.6627888480E+00    0.5653900544E-03
    0.2700000000E+08    0.1524955439E-06    0.6954963303E+00    0.1460582014E-02    0.6631083151E+00    0.5678122448E-03
