  Pressure (Pa) 23mC5-500 (mol/kg) 24mC5-500 (mol/kg) 2mC6-500 (mol/kg) 3mC6-500 (mol/kg) C7-500 (mol/kg)
    0.1000000000E+01    0.6879816708E-06    0.9950002744E-01    0.1570325877E-04    0.8088343374E-05    0.4169049114E-02
    0.3000000000E+01    0.1518236149E-05    0.2321142633E+00    0.3333025629E-04    0.2037687765E-04    0.4199350766E-02
    0.5000000000E+01    0.1990977047E-05    0.3164755282E+00    0.4268173623E-04    0.3163282046E-04    0.4214355733E-02
    0.7000000000E+01    0.2288675062E-05    0.3748669905E+00    0.4835585748E-04    0.4240677187E-04    0.4224028410E-02
    0.9000000000E+01    0.2490892094E-05    0.4176814278E+00    0.5222975144E-04    0.5288234227E-04    0.4230767472E-02
    0.1100000000E+02    0.2637126212E-05    0.4504187652E+00    0.5517245800E-04    0.6315078999E-04    0.4235666807E-02
    0.1300000000E+02    0.2748811449E-05    0.4762622958E+00    0.5762105631E-04    0.7326616799E-04    0.4239324823E-02
    0.1500000000E+02    0.2838369577E-05    0.4971822316E+00    0.5980857824E-04    0.8326396189E-04    0.4242102036E-02
    0.1700000000E+02    0.2913372620E-05    0.5144632966E+00    0.6186451368E-04    0.9316911992E-04    0.4244230119E-02
    0.1900000000E+02    0.2978624264E-05    0.5289789997E+00    0.6386286554E-04    0.1030000663E-03    0.4245865263E-02
    0.2100000000E+02    0.3037271421E-05    0.5413439747E+00    0.6584661830E-04    0.1127709226E-03    0.4247116805E-02
    0.2300000000E+02    0.3091430296E-05    0.5520032680E+00    0.6784083817E-04    0.1224928326E-03    0.4248063672E-02
    0.2500000000E+02    0.3142554857E-05    0.5612870554E+00    0.6985997828E-04    0.1321747998E-03    0.4248764308E-02
    0.2700000000E+02    0.3191661836E-05    0.5694454576E+00    0.7191209036E-04    0.1418242411E-03    0.4249262942E-02
    0.2900000000E+02    0.3239472529E-05    0.5766714172E+00    0.7400132012E-04    0.1514473671E-03    0.4249593675E-02
    0.3100000000E+02    0.3286504595E-05    0.5831161542E+00    0.7612941898E-04    0.1610494515E-03    0.4249783231E-02
    0.3300000000E+02    0.3333132917E-05    0.5888998657E+00    0.7829667633E-04    0.1706350270E-03    0.4249852851E-02
    0.3500000000E+02    0.3379630771E-05    0.5941192935E+00    0.8050250230E-04    0.1802080305E-03    0.4249819639E-02
    0.3700000000E+02    0.3426198201E-05    0.5988531793E+00    0.8274579544E-04    0.1897719144E-03    0.4249697519E-02
    0.3900000000E+02    0.3472981881E-05    0.6031662653E+00    0.8502517595E-04    0.1993297308E-03    0.4249497943E-02
    0.4100000000E+02    0.3520089226E-05    0.6071122728E+00    0.8733913365E-04    0.2088841989E-03    0.4249230419E-02
    0.4300000000E+02    0.3567598535E-05    0.6107361519E+00    0.8968612116E-04    0.2184377574E-03    0.4248902904E-02
    0.4500000000E+02    0.3615566374E-05    0.6140758011E+00    0.9206461179E-04    0.2279926076E-03    0.4248522110E-02
    0.4700000000E+02    0.3664033003E-05    0.6171633984E+00    0.9447313444E-04    0.2375507471E-03    0.4248093737E-02
    0.4900000000E+02    0.3713026395E-05    0.6200264408E+00    0.9691029352E-04    0.2471139988E-03    0.4247622655E-02
    0.1000000000E+02    0.2569384795E-05    0.4350734576E+00    0.5378364654E-04    0.5803850367E-04    0.4233402224E-02
    0.3000000000E+02    0.3263059672E-05    0.5799833001E+00    0.7506046669E-04    0.1562507408E-03    0.4249704662E-02
    0.5000000000E+02    0.3737726767E-05    0.6213812727E+00    0.9813919889E-04    0.2518980693E-03    0.4247372430E-02
    0.7000000000E+02    0.4261096145E-05    0.6409906374E+00    0.1239512205E-03    0.3481921993E-03    0.4240887538E-02
    0.9000000000E+02    0.4837039950E-05    0.6524293761E+00    0.1516437878E-03    0.4463211271E-03    0.4232657169E-02
    0.1100000000E+03    0.5459001169E-05    0.6599236592E+00    0.1808559564E-03    0.5469743213E-03    0.4223416507E-02
    0.1300000000E+03    0.6122459782E-05    0.6652136763E+00    0.2114534051E-03    0.6506516479E-03    0.4213454470E-02
    0.1500000000E+03    0.6825034827E-05    0.6691472171E+00    0.2434052222E-03    0.7577684276E-03    0.4202898428E-02
    0.1700000000E+03    0.7565820996E-05    0.6721867156E+00    0.2767330186E-03    0.8687013956E-03    0.4191805142E-02
    0.1900000000E+03    0.8344910832E-05    0.6746058584E+00    0.3114885714E-03    0.9838124693E-03    0.4180196006E-02
    0.2100000000E+03    0.9163103075E-05    0.6765769677E+00    0.3477434087E-03    0.1103462778E-02    0.4168072614E-02
    0.2300000000E+03    0.1002173009E-04    0.6782139515E+00    0.3855838163E-03    0.1228021970E-02    0.4155424286E-02
    0.2500000000E+03    0.1092255731E-04    0.6795951219E+00    0.4251085065E-03    0.1357875090E-02    0.4142231948E-02
    0.2700000000E+03    0.1186772670E-04    0.6807760916E+00    0.4664276973E-03    0.1493428194E-02    0.4128470202E-02
    0.2900000000E+03    0.1285972823E-04    0.6817974430E+00    0.5096630014E-03    0.1635113333E-02    0.4114108419E-02
    0.3100000000E+03    0.1390138992E-04    0.6826894844E+00    0.5549478245E-03    0.1783393303E-02    0.4099111303E-02
    0.3300000000E+03    0.1499588119E-04    0.6834753079E+00    0.6024281180E-03    0.1938766391E-02    0.4083439100E-02
    0.3500000000E+03    0.1614672607E-04    0.6841728160E+00    0.6522634097E-03    0.2101771320E-02    0.4067047609E-02
    0.3700000000E+03    0.1735782473E-04    0.6847961026E+00    0.7046280762E-03    0.2272992514E-02    0.4049888028E-02
    0.3900000000E+03    0.1863348218E-04    0.6853564138E+00    0.7597128456E-03    0.2453065817E-02    0.4031906687E-02
    0.4100000000E+03    0.1997844376E-04    0.6858628332E+00    0.8177265348E-03    0.2642684775E-02    0.4013044686E-02
    0.4300000000E+03    0.2139793749E-04    0.6863227778E+00    0.8788980349E-03    0.2842607593E-02    0.3993237441E-02
    0.4500000000E+03    0.2289772335E-04    0.6867423630E+00    0.9434785676E-03    0.3053664887E-02    0.3972414154E-02
    0.4700000000E+03    0.2448415017E-04    0.6871266766E+00    0.1011744240E-02    0.3276768354E-02    0.3950497186E-02
    0.4900000000E+03    0.2616422053E-04    0.6874799857E+00    0.1083998934E-02    0.3512920492E-02    0.3927401357E-02
    0.1000000000E+03    0.5142609144E-05    0.6565300313E+00    0.1660716631E-03    0.4962981780E-03    0.4228139513E-02
    0.3000000000E+03    0.1337416158E-04    0.6822580427E+00    0.5320404060E-03    0.1708398710E-02    0.4106691659E-02
    0.5000000000E+03    0.2704175710E-04    0.6876461626E+00    0.1121725515E-02    0.3636230580E-02    0.3915382494E-02
    0.7000000000E+03    0.5200058723E-04    0.6899807435E+00    0.2193413086E-02    0.7142560969E-02    0.3583504453E-02
    0.9000000000E+03    0.1044856452E-03    0.6912841433E+00    0.4449324839E-02    0.1454619887E-01    0.2926997823E-02
    0.1100000000E+04    0.2171407643E-03    0.6921158463E+00    0.9315998927E-02    0.3061299503E-01    0.1649976042E-02
    0.1300000000E+04    0.3478342344E-03    0.6926926002E+00    0.1504086320E-01    0.4978771304E-01    0.4720307380E-03
    0.1500000000E+04    0.4146968762E-03    0.6931160042E+00    0.1808241525E-01    0.6036213805E-01    0.1889776308E-03
    0.1700000000E+04    0.4575610323E-03    0.6934400086E+00    0.2011901863E-01    0.6773594863E-01    0.1570698210E-03
    0.1900000000E+04    0.4947513722E-03    0.6936959160E+00    0.2193516285E-01    0.7447693437E-01    0.1546603571E-03
    0.2100000000E+04    0.5289495521E-03    0.6939031358E+00    0.2364432347E-01    0.8095303168E-01    0.1551992203E-03
    0.2300000000E+04    0.5606301406E-03    0.6940743428E+00    0.2526463684E-01    0.8721715937E-01    0.1559729177E-03
    0.2500000000E+04    0.5900020614E-03    0.6942181643E+00    0.2680287918E-01    0.9328494904E-01    0.1567137329E-03
    0.2700000000E+04    0.6172318072E-03    0.6943406764E+00    0.2826418291E-01    0.9916710421E-01    0.1574023178E-03
    0.2900000000E+04    0.6424695831E-03    0.6944462820E+00    0.2965316529E-01    0.1048731399E+00    0.1580434709E-03
    0.3100000000E+04    0.6658533121E-03    0.6945382496E+00    0.3097408615E-01    0.1104118647E+00    0.1586432122E-03
    0.3300000000E+04    0.6875100424E-03    0.6946190564E+00    0.3223089250E-01    0.1157914856E+00    0.1592066706E-03
    0.3500000000E+04    0.7075569617E-03    0.6946906143E+00    0.3342724747E-01    0.1210196630E+00    0.1597380933E-03
    0.3700000000E+04    0.7261022791E-03    0.6947544220E+00    0.3456655497E-01    0.1261035570E+00    0.1602410196E-03
    0.3900000000E+04    0.7432460158E-03    0.6948116714E+00    0.3565198168E-01    0.1310498675E+00    0.1607184287E-03
    0.4100000000E+04    0.7590807150E-03    0.6948633218E+00    0.3668647694E-01    0.1358648716E+00    0.1611728521E-03
    0.4300000000E+04    0.7736920837E-03    0.6949101545E+00    0.3767279063E-01    0.1405544560E+00    0.1616064594E-03
    0.4500000000E+04    0.7871595708E-03    0.6949528117E+00    0.3861348936E-01    0.1451241479E+00    0.1620211241E-03
    0.4700000000E+04    0.7995568902E-03    0.6949918265E+00    0.3951097114E-01    0.1495791418E+00    0.1624184759E-03
    0.4900000000E+04    0.8109524936E-03    0.6950276449E+00    0.4036747868E-01    0.1539243247E+00    0.1627999409E-03
    0.1000000000E+04    0.1516970726E-03    0.6917413699E+00    0.6484315133E-02    0.2124830191E-01    0.2370869482E-02
    0.3000000000E+04    0.6543850208E-03    0.6944938003E+00    0.3032187976E-01    0.1076628899E+00    0.1583481748E-03
    0.5000000000E+04    0.8162947107E-03    0.6950444754E+00    0.4078102847E-01    0.1560571857E+00    0.1629851141E-03
    0.7000000000E+04    0.8837991690E-03    0.6952797101E+00    0.4734524018E-01    0.1939361371E+00    0.1660933856E-03
    0.9000000000E+04    0.9014634923E-03    0.6954098822E+00    0.5153674283E-01    0.2247294786E+00    0.1684466808E-03
    0.1100000000E+05    0.8921896517E-03    0.6954923690E+00    0.5420714227E-01    0.2504789228E+00    0.1703464783E-03
    0.1300000000E+05    0.8683827633E-03    0.6955492240E+00    0.5586443347E-01    0.2724824357E+00    0.1719426240E-03
    0.1500000000E+05    0.8370172728E-03    0.6955907290E+00    0.5682713275E-01    0.2916088706E+00    0.1733207538E-03
    0.1700000000E+05    0.8021129639E-03    0.6956223215E+00    0.5730303988E-01    0.3084645517E+00    0.1745345165E-03
    0.1900000000E+05    0.7660179830E-03    0.6956471457E+00    0.5743215929E-01    0.3234873443E+00    0.1756197938E-03
    0.2100000000E+05    0.7301056322E-03    0.6956671455E+00    0.5731134921E-01    0.3370026556E+00    0.1766017928E-03
    0.2300000000E+05    0.6951675100E-03    0.6956835872E+00    0.5700910780E-01    0.3492582704E+00    0.1774989125E-03
    0.2500000000E+05    0.6616423674E-03    0.6956973306E+00    0.5657477514E-01    0.3604468455E+00    0.1783250019E-03
    0.2700000000E+05    0.6297527833E-03    0.6957089799E+00    0.5604444276E-01    0.3707209078E+00    0.1790907513E-03
    0.2900000000E+05    0.5995884981E-03    0.6957189722E+00    0.5544485320E-01    0.3802031358E+00    0.1798045883E-03
    0.3100000000E+05    0.5711580677E-03    0.6957276311E+00    0.5479603490E-01    0.3889935825E+00    0.1804732768E-03
    0.3300000000E+05    0.5444212786E-03    0.6957352015E+00    0.5411311993E-01    0.3971748596E+00    0.1811023295E-03
    0.3500000000E+05    0.5193096604E-03    0.6957418722E+00    0.5340762120E-01    0.4048159312E+00    0.1816962996E-03
    0.3700000000E+05    0.4957395163E-03    0.6957477908E+00    0.5268834468E-01    0.4119749369E+00    0.1822589922E-03
    0.3900000000E+05    0.4736201923E-03    0.6957530745E+00    0.5196205051E-01    0.4187013273E+00    0.1827936203E-03
    0.4100000000E+05    0.4528592826E-03    0.6957578174E+00    0.5123393844E-01    0.4250375004E+00    0.1833029221E-03
    0.4300000000E+05    0.4333658516E-03    0.6957620961E+00    0.5050800848E-01    0.4310200723E+00    0.1837892503E-03
    0.4500000000E+05    0.4150523652E-03    0.6957659735E+00    0.4978733166E-01    0.4366808760E+00    0.1842546418E-03
    0.4700000000E+05    0.3978357811E-03    0.6957695016E+00    0.4907425537E-01    0.4420477541E+00    0.1847008719E-03
    0.4900000000E+05    0.3816380933E-03    0.6957727240E+00    0.4837056037E-01    0.4471451949E+00    0.1851294973E-03
    0.1000000000E+05    0.8992496933E-03    0.6954552940E+00    0.5302459682E-01    0.2381408181E+00    0.1694418035E-03
    0.3000000000E+05    0.5851582067E-03    0.6957234514E+00    0.5512555422E-01    0.3846793099E+00    0.1801442061E-03
    0.5000000000E+05    0.3738983886E-03    0.6957742322E+00    0.4802266276E-01    0.4495997401E+00    0.1853376437E-03
    0.7000000000E+05    0.2576423484E-03    0.6957947928E+00    0.4173211336E-01    0.4886881675E+00    0.1888383130E-03
    0.9000000000E+05    0.1881999084E-03    0.6958055417E+00    0.3670025772E-01    0.5153524364E+00    0.1914954926E-03
    0.1100000000E+06    0.1435633991E-03    0.6958119487E+00    0.3268040190E-01    0.5348745800E+00    0.1936437700E-03
    0.1300000000E+06    0.1131896731E-03    0.6958160815E+00    0.2942261544E-01    0.5498503662E+00    0.1954503962E-03
    0.1500000000E+06    0.9158236257E-04    0.6958188882E+00    0.2673904411E-01    0.5617307712E+00    0.1970112908E-03
    0.1700000000E+06    0.7565801625E-04    0.6958208619E+00    0.2449453913E-01    0.5713993374E+00    0.1983866897E-03
    0.1900000000E+06    0.6357972617E-04    0.6958222829E+00    0.2259162884E-01    0.5794283049E+00    0.1996169506E-03
    0.2100000000E+06    0.5419795658E-04    0.6958233214E+00    0.2095898966E-01    0.5862060948E+00    0.2007304622E-03
    0.2300000000E+06    0.4676333715E-04    0.6958240865E+00    0.1954351909E-01    0.5920063198E+00    0.2017479678E-03
    0.2500000000E+06    0.4077029349E-04    0.6958246507E+00    0.1830499287E-01    0.5970276260E+00    0.2026850936E-03
    0.2700000000E+06    0.3586760949E-04    0.6958250642E+00    0.1721244442E-01    0.6014179018E+00    0.2035539100E-03
    0.2900000000E+06    0.3180507545E-04    0.6958253626E+00    0.1624167708E-01    0.6052896155E+00    0.2043639385E-03
    0.3100000000E+06    0.2840048901E-04    0.6958255716E+00    0.1537352659E-01    0.6087298770E+00    0.2051228243E-03
    0.3300000000E+06    0.2551859223E-04    0.6958257104E+00    0.1459262688E-01    0.6118072374E+00    0.2058368010E-03
    0.3500000000E+06    0.2305725134E-04    0.6958257935E+00    0.1388651915E-01    0.6145764020E+00    0.2065110191E-03
    0.3700000000E+06    0.2093816494E-04    0.6958258319E+00    0.1324499877E-01    0.6170815709E+00    0.2071497844E-03
    0.3900000000E+06    0.1910047975E-04    0.6958258343E+00    0.1265962975E-01    0.6193588535E+00    0.2077567335E-03
    0.4100000000E+06    0.1749631811E-04    0.6958258073E+00    0.1212337887E-01    0.6214380445E+00    0.2083349663E-03
    0.4300000000E+06    0.1608758939E-04    0.6958257564E+00    0.1163033678E-01    0.6233439495E+00    0.2088871471E-03
    0.4500000000E+06    0.1484368032E-04    0.6958256858E+00    0.1117550272E-01    0.6250973905E+00    0.2094155830E-03
    0.4700000000E+06    0.1373975788E-04    0.6958255991E+00    0.1075461689E-01    0.6267159760E+00    0.2099222850E-03
    0.4900000000E+06    0.1275550552E-04    0.6958254990E+00    0.1036402840E-01    0.6282146990E+00    0.2104090168E-03
    0.1000000000E+06    0.1636058713E-03    0.6958091192E+00    0.3458085885E-01    0.5258066245E+00    0.1926204646E-03
    0.3000000000E+06    0.3002990347E-04    0.6958254769E+00    0.1579581231E-01    0.6070590217E+00    0.2047493560E-03
    0.5000000000E+06    0.1230290235E-04    0.6958254447E+00    0.1017909502E-01    0.6289232000E+00    0.2106453874E-03
    0.7000000000E+06    0.6687319785E-05    0.6958240473E+00    0.7496077609E-02    0.6391268851E+00    0.2146213138E-03
    0.9000000000E+06    0.4207270777E-05    0.6958224964E+00    0.5926867624E-02    0.6450350358E+00    0.2176398044E-03
    0.1100000000E+07    0.2895197044E-05    0.6958210115E+00    0.4898001037E-02    0.6488877717E+00    0.2200804522E-03
    0.1300000000E+07    0.2116881359E-05    0.6958196353E+00    0.4171773410E-02    0.6515982597E+00    0.2221330889E-03
    0.1500000000E+07    0.1617097650E-05    0.6958183684E+00    0.3631979718E-02    0.6536085817E+00    0.2239066138E-03
    0.1700000000E+07    0.1276917047E-05    0.6958172010E+00    0.3215113228E-02    0.6551588063E+00    0.2254694259E-03
    0.1900000000E+07    0.1034795530E-05    0.6958161214E+00    0.2883547347E-02    0.6563905392E+00    0.2268673582E-03
    0.2100000000E+07    0.8562666465E-06    0.6958151187E+00    0.2613577246E-02    0.6573927024E+00    0.2281326541E-03
    0.2300000000E+07    0.7207975808E-06    0.6958141834E+00    0.2389529292E-02    0.6582239464E+00    0.2292888750E-03
    0.2500000000E+07    0.6155324886E-06    0.6958133074E+00    0.2200627106E-02    0.6589245188E+00    0.2303537714E-03
    0.2700000000E+07    0.5320859301E-06    0.6958124838E+00    0.2039218424E-02    0.6595229561E+00    0.2313410552E-03
    0.2900000000E+07    0.4647975890E-06    0.6958117068E+00    0.1899720086E-02    0.6600400530E+00    0.2322615430E-03
    0.3100000000E+07    0.4097336307E-06    0.6958109713E+00    0.1777963357E-02    0.6604913206E+00    0.2331239203E-03
    0.3300000000E+07    0.3640906103E-06    0.6958102733E+00    0.1670772945E-02    0.6608885639E+00    0.2339352691E-03
    0.3500000000E+07    0.3258265361E-06    0.6958096090E+00    0.1575687876E-02    0.6612409260E+00    0.2347014413E-03
    0.3700000000E+07    0.2934252404E-06    0.6958089754E+00    0.1490771438E-02    0.6615555978E+00    0.2354273288E-03
    0.3900000000E+07    0.2657416923E-06    0.6958083696E+00    0.1414478713E-02    0.6618383130E+00    0.2361170634E-03
    0.4100000000E+07    0.2418979519E-06    0.6958077893E+00    0.1345562337E-02    0.6620936988E+00    0.2367741674E-03
    0.4300000000E+07    0.2212116570E-06    0.6958072324E+00    0.1283004192E-02    0.6623255310E+00    0.2374016680E-03
    0.4500000000E+07    0.2031459098E-06    0.6958066971E+00    0.1225965088E-02    0.6625369205E+00    0.2380021864E-03
    0.4700000000E+07    0.1872735414E-06    0.6958061817E+00    0.1173747137E-02    0.6627304541E+00    0.2385780076E-03
    0.4900000000E+07    0.1732512235E-06    0.6958056847E+00    0.1125765229E-02    0.6629082998E+00    0.2391311360E-03
    0.1000000000E+07    0.3458838854E-05    0.6958217414E+00    0.5363930815E-02    0.6471449625E+00    0.2189178551E-03
    0.3000000000E+07    0.4359341261E-06    0.6958113341E+00    0.1836841954E-02    0.6602731050E+00    0.2326995202E-03
    0.5000000000E+07    0.1668446799E-06    0.6958054428E+00    0.1103205291E-02    0.6629919233E+00    0.2393997509E-03
    0.7000000000E+07    0.8963297036E-07    0.6958013176E+00    0.7868973567E-03    0.6641648829E+00    0.2439180863E-03
    0.9000000000E+07    0.5694643398E-07    0.6957981280E+00    0.6109370274E-03    0.6648180596E+00    0.2473484006E-03
    0.1100000000E+08    0.4000558133E-07    0.6957955199E+00    0.4989694852E-03    0.6652341168E+00    0.2501220470E-03
    0.1300000000E+08    0.3005215436E-07    0.6957933091E+00    0.4214992431E-03    0.6655222640E+00    0.2524547478E-03
    0.1500000000E+08    0.2368057066E-07    0.6957913878E+00    0.3647334474E-03    0.6657335914E+00    0.2544702571E-03
    0.1700000000E+08    0.1933897506E-07    0.6957896868E+00    0.3213628622E-03    0.6658951860E+00    0.2562463045E-03
    0.1900000000E+08    0.1623641205E-07    0.6957881594E+00    0.2871541193E-03    0.6660227441E+00    0.2578349758E-03
    0.2100000000E+08    0.1393456352E-07    0.6957867724E+00    0.2594863750E-03    0.6661259878E+00    0.2592729134E-03
    0.2300000000E+08    0.1217420595E-07    0.6957855014E+00    0.2366506057E-03    0.6662112601E+00    0.2605868933E-03
    0.2500000000E+08    0.1079383490E-07    0.6957843279E+00    0.2174849733E-03    0.6662828748E+00    0.2617970878E-03
    0.2700000000E+08    0.9688437447E-08    0.6957832375E+00    0.2011721632E-03    0.6663438682E+00    0.2629190798E-03
