  Pressure (Pa) 23mC5-500 (mol/kg) 24mC5-500 (mol/kg) 2mC6-500 (mol/kg) 3mC6-500 (mol/kg) C7-500 (mol/kg)
    0.1000000000E+01    0.6433479818E-06    0.1266302808E+00    0.5782272805E-05    0.6185742984E-05    0.4202015494E-02
    0.3000000000E+01    0.1325072227E-05    0.2785129241E+00    0.1138178994E-04    0.1590289132E-04    0.4254223218E-02
    0.5000000000E+01    0.1665832739E-05    0.3664088094E+00    0.1395021761E-04    0.2486795951E-04    0.4283355188E-02
    0.7000000000E+01    0.1863066534E-05    0.4237182039E+00    0.1540853467E-04    0.3347352021E-04    0.4302342408E-02
    0.9000000000E+01    0.1990409158E-05    0.4640405182E+00    0.1640935861E-04    0.4185233479E-04    0.4315729908E-02
    0.1100000000E+02    0.2080493464E-05    0.4939536376E+00    0.1721336341E-04    0.5007090265E-04    0.4325672710E-02
    0.1300000000E+02    0.2149508272E-05    0.5170274879E+00    0.1793545245E-04    0.5816882720E-04    0.4333336704E-02
    0.1500000000E+02    0.2206151207E-05    0.5353670110E+00    0.1862940644E-04    0.6617221555E-04    0.4339410591E-02
    0.1700000000E+02    0.2255378374E-05    0.5502937237E+00    0.1932115350E-04    0.7409948153E-04    0.4344328411E-02
    0.1900000000E+02    0.2300142410E-05    0.5626791661E+00    0.2002316372E-04    0.8196425800E-04    0.4348377790E-02
    0.2100000000E+02    0.2342263193E-05    0.5731213995E+00    0.2074114025E-04    0.8977701437E-04    0.4351757151E-02
    0.2300000000E+02    0.2382891692E-05    0.5820444718E+00    0.2147730363E-04    0.9754602436E-04    0.4354607974E-02
    0.2500000000E+02    0.2422769716E-05    0.5897574155E+00    0.2223207161E-04    0.1052779792E-03    0.4357033957E-02
    0.2700000000E+02    0.2462381469E-05    0.5964907666E+00    0.2300494459E-04    0.1129783939E-03    0.4359112913E-02
    0.2900000000E+02    0.2502045096E-05    0.6024199997E+00    0.2379498173E-04    0.1206518877E-03    0.4360904415E-02
    0.3100000000E+02    0.2541969594E-05    0.6076810403E+00    0.2460105921E-04    0.1283023817E-03    0.4362454886E-02
    0.3300000000E+02    0.2582291097E-05    0.6123808129E+00    0.2542200988E-04    0.1359332444E-03    0.4363801054E-02
    0.3500000000E+02    0.2623096504E-05    0.6166045837E+00    0.2625669703E-04    0.1435473988E-03    0.4364972383E-02
    0.3700000000E+02    0.2664439141E-05    0.6204211805E+00    0.2710405130E-04    0.1511474046E-03    0.4365992792E-02
    0.3900000000E+02    0.2706349316E-05    0.6238867713E+00    0.2796308682E-04    0.1587355214E-03    0.4366881916E-02
    0.4100000000E+02    0.2748841516E-05    0.6270476476E+00    0.2883290584E-04    0.1663137578E-03    0.4367656027E-02
    0.4300000000E+02    0.2791919381E-05    0.6299423037E+00    0.2971269709E-04    0.1738839117E-03    0.4368328737E-02
    0.4500000000E+02    0.2835579164E-05    0.6326030121E+00    0.3060173088E-04    0.1814476011E-03    0.4368911517E-02
    0.4700000000E+02    0.2879812156E-05    0.6350570313E+00    0.3149935274E-04    0.1890062901E-03    0.4369414114E-02
    0.4900000000E+02    0.2924606401E-05    0.6373275438E+00    0.3240497654E-04    0.1965613105E-03    0.4369844861E-02
    0.1000000000E+02    0.2038854515E-05    0.4800289271E+00    0.1682674049E-04    0.4597875755E-04    0.4321043961E-02
    0.3000000000E+02    0.2521964845E-05    0.6051267801E+00    0.2419608846E-04    0.1244797876E-03    0.4361707289E-02
    0.5000000000E+02    0.2947209675E-05    0.6384002989E+00    0.3286062302E-04    0.2003378291E-03    0.4370035571E-02
    0.7000000000E+02    0.3425042875E-05    0.6538068318E+00    0.4229278248E-04    0.2759238817E-03    0.4371386412E-02
    0.9000000000E+02    0.3942879288E-05    0.6626911625E+00    0.5217679001E-04    0.3520832469E-03    0.4369916683E-02
    0.1100000000E+03    0.4491652593E-05    0.6684712491E+00    0.6240223706E-04    0.4292742154E-03    0.4366946057E-02
    0.1300000000E+03    0.5066397433E-05    0.6725319795E+00    0.7292979593E-04    0.5078013051E-03    0.4363032114E-02
    0.1500000000E+03    0.5664465309E-05    0.6755411169E+00    0.8374829142E-04    0.5878947365E-03    0.4358452265E-02
    0.1700000000E+03    0.6284507809E-05    0.6778602728E+00    0.9485922322E-04    0.6697448957E-03    0.4353359624E-02
    0.1900000000E+03    0.6925944469E-05    0.6797023165E+00    0.1062704712E-03    0.7535197119E-03    0.4347844644E-02
    0.2100000000E+03    0.7588676485E-05    0.6812007210E+00    0.1179934933E-03    0.8393744156E-03    0.4341963081E-02
    0.2300000000E+03    0.8272926212E-05    0.6824434222E+00    0.1300419993E-03    0.9274575031E-03    0.4335750022E-02
    0.2500000000E+03    0.8979143756E-05    0.6834907123E+00    0.1424313001E-03    0.1017914653E-02    0.4329227481E-02
    0.2700000000E+03    0.9707951050E-05    0.6843853107E+00    0.1551779917E-03    0.1110891467E-02    0.4322408769E-02
    0.2900000000E+03    0.1046010778E-04    0.6851583312E+00    0.1682998112E-03    0.1206535515E-02    0.4315301129E-02
    0.3100000000E+03    0.1123649060E-04    0.6858329726E+00    0.1818155892E-03    0.1304997941E-02    0.4307907391E-02
    0.3300000000E+03    0.1203808078E-04    0.6864268848E+00    0.1957452577E-03    0.1406434805E-02    0.4300227042E-02
    0.3500000000E+03    0.1286595735E-04    0.6869537344E+00    0.2101098922E-03    0.1511008259E-02    0.4292256927E-02
    0.3700000000E+03    0.1372129403E-04    0.6874242682E+00    0.2249317773E-03    0.1618887618E-02    0.4283991731E-02
    0.3900000000E+03    0.1460535887E-04    0.6878470533E+00    0.2402344885E-03    0.1730250389E-02    0.4275424292E-02
    0.4100000000E+03    0.1551951592E-04    0.6882290033E+00    0.2560429886E-03    0.1845283273E-02    0.4266545820E-02
    0.4300000000E+03    0.1646522846E-04    0.6885757585E+00    0.2723837349E-03    0.1964183179E-02    0.4257346035E-02
    0.4500000000E+03    0.1744406361E-04    0.6888919667E+00    0.2892847996E-03    0.2087158265E-02    0.4247813257E-02
    0.4700000000E+03    0.1845769807E-04    0.6891814914E+00    0.3067759996E-03    0.2214429021E-02    0.4237934452E-02
    0.4900000000E+03    0.1950792493E-04    0.6894475715E+00    0.3248890406E-03    0.2346229419E-02    0.4227695247E-02
    0.1000000000E+03    0.4213780235E-05    0.6658578309E+00    0.5725024353E-04    0.3905284109E-03    0.4368574556E-02
    0.3000000000E+03    0.1084521194E-04    0.6855067375E+00    0.1750072358E-03    0.1255404806E-02    0.4311639985E-02
    0.5000000000E+03    0.2004735460E-04    0.6895726913E+00    0.3341892138E-03    0.2413905333E-02    0.4222435635E-02
    0.7000000000E+03    0.3331805794E-04    0.6913283773E+00    0.5626446015E-03    0.4077321779E-02    0.4093579379E-02
    0.9000000000E+03    0.5375699087E-04    0.6923066789E+00    0.9142914030E-03    0.6641767598E-02    0.3898547080E-02
    0.1100000000E+04    0.8795145043E-04    0.6929300633E+00    0.1503225912E-02    0.1094574505E-01    0.3581268641E-02
    0.1300000000E+04    0.1503754425E-03    0.6933618637E+00    0.2580845232E-02    0.1884367726E-01    0.3025258506E-02
    0.1500000000E+04    0.2650135799E-03    0.6936785394E+00    0.4568180477E-02    0.3347573965E-01    0.2069464936E-02
    0.1700000000E+04    0.4155948032E-03    0.6939206512E+00    0.7201807776E-02    0.5304533899E-01    0.9689283775E-03
    0.1900000000E+04    0.5170741926E-03    0.6941117145E+00    0.9015609649E-02    0.6682162751E-01    0.4416287394E-03
    0.2100000000E+04    0.5727622758E-03    0.6942663012E+00    0.1005105221E-01    0.7499025207E-01    0.3216378691E-03
    0.2300000000E+04    0.6142253808E-03    0.6943939216E+00    0.1084854966E-01    0.8147957922E-01    0.3016130509E-03
    0.2500000000E+04    0.6511816169E-03    0.6945010461E+00    0.1157553623E-01    0.8751546958E-01    0.2993755373E-03
    0.2700000000E+04    0.6856478603E-03    0.6945922296E+00    0.1226647721E-01    0.9334868776E-01    0.3000615595E-03
    0.2900000000E+04    0.7180817807E-03    0.6946707714E+00    0.1292876119E-01    0.9903017400E-01    0.3011695272E-03
    0.3100000000E+04    0.7486508727E-03    0.6947391199E+00    0.1356473980E-01    0.1045736499E+00    0.3022869523E-03
    0.3300000000E+04    0.7774653168E-03    0.6947991302E+00    0.1417579613E-01    0.1099858261E+00    0.3033512014E-03
    0.3500000000E+04    0.8046201884E-03    0.6948522332E+00    0.1476308456E-01    0.1152719185E+00    0.3043577527E-03
    0.3700000000E+04    0.8302033758E-03    0.6948995506E+00    0.1532766823E-01    0.1204366666E+00    0.3053110545E-03
    0.3900000000E+04    0.8542973139E-03    0.6949419740E+00    0.1587054732E-01    0.1254845334E+00    0.3062163069E-03
    0.4100000000E+04    0.8769795771E-03    0.6949802209E+00    0.1639266723E-01    0.1304197538E+00    0.3070781926E-03
    0.4300000000E+04    0.8983232451E-03    0.6950148754E+00    0.1689492290E-01    0.1352463542E+00    0.3079007748E-03
    0.4500000000E+04    0.9183972060E-03    0.6950464176E+00    0.1737816212E-01    0.1399681668E+00    0.3086875742E-03
    0.4700000000E+04    0.9372664313E-03    0.6950752457E+00    0.1784318855E-01    0.1445888409E+00    0.3094416558E-03
    0.4900000000E+04    0.9549922299E-03    0.6951016931E+00    0.1829076448E-01    0.1491118542E+00    0.3101657041E-03
    0.1000000000E+04    0.6848804633E-04    0.6926494776E+00    0.1167888809E-02    0.8493831158E-02    0.3760586488E-02
    0.3000000000E+04    0.7335919994E-03    0.6947060923E+00    0.1324994353E-01    0.1018186839E+00    0.3017335714E-03
    0.5000000000E+04    0.9634445596E-03    0.6951141135E+00    0.1850823604E-01    0.1513377803E+00    0.3105172158E-03
    0.7000000000E+04    0.1084909204E-02    0.6952871248E+00    0.2209899082E-01    0.1914584861E+00    0.3164209367E-03
    0.9000000000E+04    0.1141155599E-02    0.6953821584E+00    0.2457653224E-01    0.2247808714E+00    0.3208940341E-03
    0.1100000000E+05    0.1157495897E-02    0.6954419273E+00    0.2628655791E-01    0.2530079507E+00    0.3245066872E-03
    0.1300000000E+05    0.1149275928E-02    0.6954828082E+00    0.2745378081E-01    0.2773044182E+00    0.3275427618E-03
    0.1500000000E+05    0.1126041036E-02    0.6955124182E+00    0.2822928237E-01    0.2984955860E+00    0.3301646512E-03
    0.1700000000E+05    0.1093844153E-02    0.6955347758E+00    0.2871751542E-01    0.3171839118E+00    0.3324741617E-03
    0.1900000000E+05    0.1056576349E-02    0.6955521996E+00    0.2899240455E-01    0.3338204059E+00    0.3345394191E-03
    0.2100000000E+05    0.1016759661E-02    0.6955661194E+00    0.2910731417E-01    0.3487500912E+00    0.3364083003E-03
    0.2300000000E+05    0.9760329041E-03    0.6955774645E+00    0.2910142176E-01    0.3622419127E+00    0.3381157621E-03
    0.2500000000E+05    0.9354564917E-03    0.6955868643E+00    0.2900390771E-01    0.3745089832E+00    0.3396881232E-03
    0.2700000000E+05    0.8957076026E-03    0.6955947604E+00    0.2883677748E-01    0.3857226344E+00    0.3411457031E-03
    0.2900000000E+05    0.8572073234E-03    0.6956014709E+00    0.2861680350E-01    0.3960223877E+00    0.3425045237E-03
    0.3100000000E+05    0.8202046988E-03    0.6956072312E+00    0.2835688687E-01    0.4055231687E+00    0.3437774458E-03
    0.3300000000E+05    0.7848329878E-03    0.6956122190E+00    0.2806702838E-01    0.4143206209E+00    0.3449749520E-03
    0.3500000000E+05    0.7511477055E-03    0.6956165706E+00    0.2775503147E-01    0.4224950815E+00    0.3461057019E-03
    0.3700000000E+05    0.7191525590E-03    0.6956203925E+00    0.2742701811E-01    0.4301145998E+00    0.3471769326E-03
    0.3900000000E+05    0.6888172380E-03    0.6956237692E+00    0.2708781191E-01    0.4372372580E+00    0.3481947557E-03
    0.4100000000E+05    0.6600896692E-03    0.6956267682E+00    0.2674122601E-01    0.4439129775E+00    0.3491643799E-03
    0.4300000000E+05    0.6329044689E-03    0.6956294444E+00    0.2639028132E-01    0.4501849406E+00    0.3500902811E-03
    0.4500000000E+05    0.6071887699E-03    0.6956318426E+00    0.2603737383E-01    0.4560907193E+00    0.3509763345E-03
    0.4700000000E+05    0.5828662178E-03    0.6956339999E+00    0.2568440361E-01    0.4616631824E+00    0.3518259176E-03
    0.4900000000E+05    0.5598596910E-03    0.6956359473E+00    0.2533287528E-01    0.4669312274E+00    0.3526419927E-03
    0.1000000000E+05    0.1153182264E-02    0.6954151192E+00    0.2551129146E-01    0.2394487761E+00    0.3227862078E-03
    0.3000000000E+05    0.8385082789E-03    0.6956044576E+00    0.2849115431E-01    0.4008662722E+00    0.3431510186E-03
    0.5000000000E+05    0.5488260886E-03    0.6956368505E+00    0.2515803362E-01    0.4694591873E+00    0.3530382931E-03
    0.7000000000E+05    0.3804099031E-03    0.6956484400E+00    0.2191507502E-01    0.5089052340E+00    0.3597036633E-03
    0.9000000000E+05    0.2779958643E-03    0.6956535962E+00    0.1925877524E-01    0.5348779155E+00    0.3647632647E-03
    0.1100000000E+06    0.2117583092E-03    0.6956560537E+00    0.1712067292E-01    0.5533844039E+00    0.3688539651E-03
    0.1300000000E+06    0.1666153260E-03    0.6956571797E+00    0.1538464909E-01    0.5672819819E+00    0.3722941580E-03
    0.1500000000E+06    0.1345155108E-03    0.6956575800E+00    0.1395521994E-01    0.5781202590E+00    0.3752664586E-03
    0.1700000000E+06    0.1108897847E-03    0.6956575584E+00    0.1276134285E-01    0.5868181680E+00    0.3778855519E-03
    0.1900000000E+06    0.9300081749E-04    0.6956572809E+00    0.1175099234E-01    0.5939573843E+00    0.3802282789E-03
    0.2100000000E+06    0.7913122012E-04    0.6956568443E+00    0.1088582040E-01    0.5999249843E+00    0.3823486937E-03
    0.2300000000E+06    0.6816051967E-04    0.6956563075E+00    0.1013718079E-01    0.6049889786E+00    0.3842862930E-03
    0.2500000000E+06    0.5933289633E-04    0.6956557079E+00    0.9483349149E-02    0.6093410404E+00    0.3860708315E-03
    0.2700000000E+06    0.5212368127E-04    0.6956550698E+00    0.8907601903E-02    0.6131219910E+00    0.3877252930E-03
    0.2900000000E+06    0.4615949748E-04    0.6956544096E+00    0.8396881563E-02    0.6164376766E+00    0.3892678077E-03
    0.3100000000E+06    0.4116879528E-04    0.6956537383E+00    0.7940858420E-02    0.6193692278E+00    0.3907129338E-03
    0.3300000000E+06    0.3695026310E-04    0.6956530634E+00    0.7531261629E-02    0.6219798967E+00    0.3920725413E-03
    0.3500000000E+06    0.3335210152E-04    0.6956523901E+00    0.7161395386E-02    0.6243197371E+00    0.3933564380E-03
    0.3700000000E+06    0.3025809490E-04    0.6956517220E+00    0.6825783988E-02    0.6264288846E+00    0.3945728228E-03
    0.3900000000E+06    0.2757804823E-04    0.6956510616E+00    0.6519907908E-02    0.6283399025E+00    0.3957286208E-03
    0.4100000000E+06    0.2524109342E-04    0.6956504105E+00    0.6240005039E-02    0.6300794902E+00    0.3968297351E-03
    0.4300000000E+06    0.2319092192E-04    0.6956497699E+00    0.5982919230E-02    0.6316697492E+00    0.3978812392E-03
    0.4500000000E+06    0.2138233519E-04    0.6956491405E+00    0.5745983567E-02    0.6331291327E+00    0.3988875261E-03
    0.4700000000E+06    0.1977871261E-04    0.6956485227E+00    0.5526929511E-02    0.6344731703E+00    0.3998524253E-03
    0.4900000000E+06    0.1835012816E-04    0.6956479167E+00    0.5323815470E-02    0.6357150254E+00    0.4007792958E-03
    0.1000000000E+06    0.2415248384E-03    0.6956550498E+00    0.1813247813E-01    0.5448426794E+00    0.3669054000E-03
    0.3000000000E+06    0.4355640561E-04    0.6956540748E+00    0.8162591612E-02    0.6179471598E+00    0.3900017478E-03
    0.5000000000E+06    0.1769359761E-04    0.6956476181E+00    0.5227704421E-02    0.6363012101E+00    0.4012294098E-03
    0.7000000000E+06    0.9571884582E-05    0.6956422334E+00    0.3837642973E-02    0.6446808279E+00    0.4088006440E-03
    0.9000000000E+06    0.6002748584E-05    0.6956377783E+00    0.3028518427E-02    0.6494801921E+00    0.4145486381E-03
    0.1100000000E+07    0.4120571331E-05    0.6956340030E+00    0.2499619990E-02    0.6525896217E+00    0.4191962491E-03
    0.1300000000E+07    0.3006643665E-05    0.6956307324E+00    0.2127080124E-02    0.6547678251E+00    0.4231049736E-03
    0.1500000000E+07    0.2292609838E-05    0.6956278484E+00    0.1850602980E-02    0.6563784920E+00    0.4264821889E-03
    0.1700000000E+07    0.1807285064E-05    0.6956252687E+00    0.1637338748E-02    0.6576177658E+00    0.4294581471E-03
    0.1900000000E+07    0.1462265406E-05    0.6956229347E+00    0.1467870406E-02    0.6586007582E+00    0.4321201279E-03
    0.2100000000E+07    0.1208122867E-05    0.6956208031E+00    0.1329987873E-02    0.6593994743E+00    0.4345295326E-03
    0.2300000000E+07    0.1015450875E-05    0.6956188409E+00    0.1215629929E-02    0.6600612609E+00    0.4367312287E-03
    0.2500000000E+07    0.8658582429E-06    0.6956170228E+00    0.1119260930E-02    0.6606185289E+00    0.4387590185E-03
    0.2700000000E+07    0.7473604898E-06    0.6956153287E+00    0.1036954105E-02    0.6610942109E+00    0.4406390132E-03
    0.2900000000E+07    0.6518746154E-06    0.6956137423E+00    0.9658469687E-03    0.6615049901E+00    0.4423918107E-03
    0.3100000000E+07    0.5737871752E-06    0.6956122504E+00    0.9038038290E-03    0.6618632924E+00    0.4440339509E-03
    0.3300000000E+07    0.5091003700E-06    0.6956108423E+00    0.8491990197E-03    0.6621785631E+00    0.4455789199E-03
    0.3500000000E+07    0.4549039768E-06    0.6956095088E+00    0.8007733152E-03    0.6624581099E+00    0.4470378612E-03
    0.3700000000E+07    0.4090383343E-06    0.6956082421E+00    0.7575362504E-03    0.6627076749E+00    0.4484200902E-03
    0.3900000000E+07    0.3698732438E-06    0.6956070357E+00    0.7186980918E-03    0.6629318325E+00    0.4497334753E-03
    0.4100000000E+07    0.3361593416E-06    0.6956058841E+00    0.6836214692E-03    0.6631342721E+00    0.4509847236E-03
    0.4300000000E+07    0.3069259989E-06    0.6956047823E+00    0.6517863442E-03    0.6633180019E+00    0.4521795998E-03
    0.4500000000E+07    0.2814098105E-06    0.6956037261E+00    0.6227642155E-03    0.6634854991E+00    0.4533230955E-03
    0.4700000000E+07    0.2590036236E-06    0.6956027117E+00    0.5961988401E-03    0.6636388226E+00    0.4544195620E-03
    0.4900000000E+07    0.2392196271E-06    0.6956017360E+00    0.5717916275E-03    0.6637796970E+00    0.4554728157E-03
    0.1000000000E+07    0.4928514023E-05    0.6956358182E+00    0.2738975281E-02    0.6511850050E+00    0.4169823724E-03
    0.3000000000E+07    0.6109364545E-06    0.6956129853E+00    0.9338039990E-03    0.6616900522E+00    0.4432258080E-03
    0.5000000000E+07    0.2301843170E-06    0.6956012616E+00    0.5603169757E-03    0.6638459298E+00    0.4559843054E-03
    0.7000000000E+07    0.1215467033E-06    0.6955932417E+00    0.3995029666E-03    0.6647745663E+00    0.4645879587E-03
    0.9000000000E+07    0.7580902089E-07    0.6955871097E+00    0.3100992865E-03    0.6652914548E+00    0.4711197835E-03
    0.1100000000E+08    0.5223977842E-07    0.6955821296E+00    0.2532306404E-03    0.6656206656E+00    0.4764011793E-03
    0.1300000000E+08    0.3847529258E-07    0.6955779284E+00    0.2138928035E-03    0.6658486742E+00    0.4808429303E-03
    0.1500000000E+08    0.2971966001E-07    0.6955742901E+00    0.1850732140E-03    0.6660159123E+00    0.4846806908E-03
    0.1700000000E+08    0.2379273214E-07    0.6955710781E+00    0.1630570931E-03    0.6661438098E+00    0.4880624741E-03
    0.1900000000E+08    0.1958602974E-07    0.6955682005E+00    0.1456934989E-03    0.6662447827E+00    0.4910874621E-03
    0.2100000000E+08    0.1648680626E-07    0.6955655926E+00    0.1316510779E-03    0.6663265206E+00    0.4938254291E-03
    0.2300000000E+08    0.1413360733E-07    0.6955632069E+00    0.1200618122E-03    0.6663940403E+00    0.4963273615E-03
    0.2500000000E+08    0.1230182691E-07    0.6955610074E+00    0.1103356794E-03    0.6664507540E+00    0.4986316711E-03
    0.2700000000E+08    0.1084581583E-07    0.6955589664E+00    0.1020576646E-03    0.6664990631E+00    0.5007680302E-03
