  Pressure (Pa) 23mC5-500 (mol/kg) 24mC5-500 (mol/kg) 2mC6-500 (mol/kg) 3mC6-500 (mol/kg) C7-500 (mol/kg)
    0.1000000000E+01    0.5903352218E-06    0.1741114543E+00    0.1064349495E-04    0.6288625614E-05    0.4167380088E-02
    0.3000000000E+01    0.1092099780E-05    0.3481372260E+00    0.1880065131E-04    0.1583298122E-04    0.4190477376E-02
    0.5000000000E+01    0.1304980674E-05    0.4351196414E+00    0.2217458504E-04    0.2456463050E-04    0.4198915990E-02
    0.7000000000E+01    0.1423084688E-05    0.4873000427E+00    0.2431497848E-04    0.3291269519E-04    0.4203381341E-02
    0.9000000000E+01    0.1502836783E-05    0.5220834665E+00    0.2610131017E-04    0.4102042084E-04    0.4206026026E-02
    0.1100000000E+02    0.1565281784E-05    0.5469271584E+00    0.2780444760E-04    0.4895905638E-04    0.4207666183E-02
    0.1300000000E+02    0.1619516316E-05    0.5655590962E+00    0.2951576982E-04    0.5677082616E-04    0.4208689441E-02
    0.1500000000E+02    0.1669866800E-05    0.5800501350E+00    0.3126549623E-04    0.6448346026E-04    0.4209305476E-02
    0.1700000000E+02    0.1718525849E-05    0.5916426832E+00    0.3306132041E-04    0.7211645752E-04    0.4209638149E-02
    0.1900000000E+02    0.1766650449E-05    0.6011273147E+00    0.3490247462E-04    0.7968421719E-04    0.4209765514E-02
    0.2100000000E+02    0.1814863772E-05    0.6090310535E+00    0.3678520971E-04    0.8719777303E-04    0.4209739269E-02
    0.2300000000E+02    0.1863501289E-05    0.6157187482E+00    0.3870500059E-04    0.9466582809E-04    0.4209595043E-02
    0.2500000000E+02    0.1912738307E-05    0.6214509971E+00    0.4065742543E-04    0.1020954090E-03    0.4209358201E-02
    0.2700000000E+02    0.1962659032E-05    0.6264189010E+00    0.4263848759E-04    0.1094922987E-03    0.4209047298E-02
    0.2900000000E+02    0.2013295268E-05    0.6307657824E+00    0.4464470106E-04    0.1168613341E-03    0.4208676219E-02
    0.3100000000E+02    0.2064648708E-05    0.6346012390E+00    0.4667307802E-04    0.1242066166E-03    0.4208255562E-02
    0.3300000000E+02    0.2116704032E-05    0.6380105121E+00    0.4872107949E-04    0.1315316655E-03    0.4207793557E-02
    0.3500000000E+02    0.2169436719E-05    0.6410608968E+00    0.5078655610E-04    0.1388395318E-03    0.4207296689E-02
    0.3700000000E+02    0.2222817736E-05    0.6438062284E+00    0.5286769034E-04    0.1461328851E-03    0.4206770136E-02
    0.3900000000E+02    0.2276816361E-05    0.6462900876E+00    0.5496294472E-04    0.1534140799E-03    0.4206218083E-02
    0.4100000000E+02    0.2331401858E-05    0.6485481309E+00    0.5707101700E-04    0.1606852083E-03    0.4205643945E-02
    0.4300000000E+02    0.2386544451E-05    0.6506098136E+00    0.5919080232E-04    0.1679481411E-03    0.4205050537E-02
    0.4500000000E+02    0.2442215863E-05    0.6524996815E+00    0.6132136149E-04    0.1752045613E-03    0.4204440200E-02
    0.4700000000E+02    0.2498389589E-05    0.6542383530E+00    0.6346189465E-04    0.1824559914E-03    0.4203814894E-02
    0.4900000000E+02    0.2555040993E-05    0.6558432744E+00    0.6561171935E-04    0.1897038152E-03    0.4203176272E-02
    0.1000000000E+02    0.1535493047E-05    0.5354610003E+00    0.2695537400E-04    0.4500778751E-04    0.4206941570E-02
    0.3000000000E+02    0.2038883007E-05    0.6327416269E+00    0.4565628763E-04    0.1205367123E-03    0.4208471526E-02
    0.5000000000E+02    0.2583538639E-05    0.6566003106E+00    0.6668993032E-04    0.1933267739E-03    0.4202852414E-02
    0.7000000000E+02    0.3173970742E-05    0.6673853074E+00    0.8863883611E-04    0.2658544629E-03    0.4195925933E-02
    0.9000000000E+02    0.3795554561E-05    0.6735313950E+00    0.1111944329E-03    0.3389978779E-03    0.4188476687E-02
    0.1100000000E+03    0.4442193096E-05    0.6775017517E+00    0.1343016435E-03    0.4132339150E-03    0.4180716276E-02
    0.1300000000E+03    0.5111430176E-05    0.6802779288E+00    0.1579710706E-03    0.4888813639E-03    0.4172716919E-02
    0.1500000000E+03    0.5802443647E-05    0.6823282426E+00    0.1822339410E-03    0.5661833606E-03    0.4164503997E-02
    0.1700000000E+03    0.6515228152E-05    0.6839044443E+00    0.2071289151E-03    0.6453430487E-03    0.4156083841E-02
    0.1900000000E+03    0.7250231544E-05    0.6851539309E+00    0.2326978061E-03    0.7265415493E-03    0.4147453929E-02
    0.2100000000E+03    0.8008180194E-05    0.6861687384E+00    0.2589841953E-03    0.8099480706E-03    0.4138607145E-02
    0.2300000000E+03    0.8789990248E-05    0.6870093015E+00    0.2860330869E-03    0.8957261175E-03    0.4129533727E-02
    0.2500000000E+03    0.9596721078E-05    0.6877169450E+00    0.3138909591E-03    0.9840376062E-03    0.4120222206E-02
    0.2700000000E+03    0.1042955086E-04    0.6883208836E+00    0.3426059698E-03    0.1075045786E-02    0.4110659873E-02
    0.2900000000E+03    0.1128976445E-04    0.6888423551E+00    0.3722282258E-03    0.1168917458E-02    0.4100833002E-02
    0.3100000000E+03    0.1217874852E-04    0.6892971688E+00    0.4028100765E-03    0.1265824762E-02    0.4090726954E-02
    0.3300000000E+03    0.1309799118E-04    0.6896973360E+00    0.4344064219E-03    0.1365946708E-02    0.4080326204E-02
    0.3500000000E+03    0.1404908460E-04    0.6900521458E+00    0.4670750294E-03    0.1469470559E-02    0.4069614319E-02
    0.3700000000E+03    0.1503372983E-04    0.6903688949E+00    0.5008768620E-03    0.1576593125E-02    0.4058573922E-02
    0.3900000000E+03    0.1605374316E-04    0.6906533946E+00    0.5358764207E-03    0.1687522033E-02    0.4047186630E-02
    0.4100000000E+03    0.1711106403E-04    0.6909103305E+00    0.5721421037E-03    0.1802477004E-02    0.4035432975E-02
    0.4300000000E+03    0.1820776401E-04    0.6911435224E+00    0.6097465874E-03    0.1921691160E-02    0.4023292319E-02
    0.4500000000E+03    0.1934605714E-04    0.6913561156E+00    0.6487672333E-03    0.2045412393E-02    0.4010742757E-02
    0.4700000000E+03    0.2052831135E-04    0.6915507233E+00    0.6892865244E-03    0.2173904815E-02    0.3997761011E-02
    0.4900000000E+03    0.2175706120E-04    0.6917295346E+00    0.7313925361E-03    0.2307450303E-02    0.3984322307E-02
    0.1000000000E+03    0.4115948591E-05    0.6757093244E+00    0.1226791769E-03    0.3759570039E-03    0.4184629214E-02
    0.3000000000E+03    0.1173056956E-04    0.6890772691E+00    0.3873958340E-03    0.1216980645E-02    0.4095815825E-02
    0.5000000000E+03    0.2238971302E-04    0.6918136056E+00    0.7530697395E-03    0.2376211298E-02    0.3977423416E-02
    0.7000000000E+03    0.3828589578E-04    0.6929925424E+00    0.1297662943E-02    0.4105469664E-02    0.3807763485E-02
    0.9000000000E+03    0.6395183889E-04    0.6936489912E+00    0.2177765414E-02    0.6905988563E-02    0.3544354844E-02
    0.1100000000E+04    0.1093657348E-03    0.6940672140E+00    0.3738212133E-02    0.1188442238E-01    0.3098765090E-02
    0.1300000000E+04    0.1948782828E-03    0.6943569322E+00    0.6686486564E-02    0.2132600991E-01    0.2309744343E-02
    0.1500000000E+04    0.3325993272E-03    0.6945694594E+00    0.1146540360E-01    0.3673376578E-01    0.1166589782E-02
    0.1700000000E+04    0.4555524628E-03    0.6947320011E+00    0.1579561596E-01    0.5090871360E-01    0.3647855173E-03
    0.1900000000E+04    0.5236305007E-03    0.6948603240E+00    0.1827214538E-01    0.5927889780E-01    0.1326955699E-03
    0.2100000000E+04    0.5690467674E-03    0.6949641956E+00    0.1998574605E-01    0.6527236649E-01    0.8958799404E-04
    0.2300000000E+04    0.6078789860E-03    0.6950499898E+00    0.2148762602E-01    0.7064488516E-01    0.8261735716E-04
    0.2500000000E+04    0.6437473432E-03    0.6951220426E+00    0.2290172251E-01    0.7579116514E-01    0.8175660774E-04
    0.2700000000E+04    0.6774234028E-03    0.6951834065E+00    0.2425357623E-01    0.8079008382E-01    0.8189887212E-04
    0.2900000000E+04    0.7091409365E-03    0.6952362923E+00    0.2555010832E-01    0.8566054818E-01    0.8219171391E-04
    0.3100000000E+04    0.7390305648E-03    0.6952823408E+00    0.2679472148E-01    0.9041025592E-01    0.8249358961E-04
    0.3300000000E+04    0.7671985888E-03    0.6953227952E+00    0.2799005053E-01    0.9504462129E-01    0.8278228451E-04
    0.3500000000E+04    0.7937415870E-03    0.6953586144E+00    0.2913846932E-01    0.9956841647E-01    0.8305561503E-04
    0.3700000000E+04    0.8187494478E-03    0.6953905504E+00    0.3024219165E-01    0.1039860873E+00    0.8331459834E-04
    0.3900000000E+04    0.8423062857E-03    0.6954192008E+00    0.3130329779E-01    0.1083018260E+00    0.8356059926E-04
    0.4100000000E+04    0.8644909401E-03    0.6954450466E+00    0.3232374673E-01    0.1125195972E+00    0.8379487139E-04
    0.4300000000E+04    0.8853773715E-03    0.6954684794E+00    0.3330538518E-01    0.1166431554E+00    0.8401850768E-04
    0.4500000000E+04    0.9050350130E-03    0.6954898212E+00    0.3424995541E-01    0.1206760590E+00    0.8423245647E-04
    0.4700000000E+04    0.9235290907E-03    0.6955093391E+00    0.3515910241E-01    0.1246216831E+00    0.8443754416E-04
    0.4900000000E+04    0.9409209182E-03    0.6955272566E+00    0.3603438040E-01    0.1284832312E+00    0.8463449494E-04
    0.1000000000E+04    0.8320629236E-04    0.6938789719E+00    0.2838878643E-02    0.9013402132E-02    0.3352730350E-02
    0.3000000000E+04    0.7243072984E-03    0.6952600858E+00    0.2617873163E-01    0.8805013567E-01    0.8234380305E-04
    0.5000000000E+04    0.9492216459E-03    0.6955356753E+00    0.3645978090E-01    0.1303834336E+00    0.8473012140E-04
    0.7000000000E+04    0.1069680304E-02    0.6956533074E+00    0.4350710791E-01    0.1646375296E+00    0.8633708782E-04
    0.9000000000E+04    0.1128100089E-02    0.6957183705E+00    0.4842988166E-01    0.1931603856E+00    0.8755554820E-04
    0.1100000000E+05    0.1148713189E-02    0.6957595842E+00    0.5190084823E-01    0.2174452272E+00    0.8854004755E-04
    0.1300000000E+05    0.1145961607E-02    0.6957879824E+00    0.5434862299E-01    0.2384903985E+00    0.8936765168E-04
    0.1500000000E+05    0.1128738079E-02    0.6958087076E+00    0.5605730476E-01    0.2569909732E+00    0.9008249272E-04
    0.1700000000E+05    0.1102657446E-02    0.6958244788E+00    0.5722141590E-01    0.2734473722E+00    0.9071225671E-04
    0.1900000000E+05    0.1071332254E-02    0.6958368680E+00    0.5797779705E-01    0.2882301700E+00    0.9127547966E-04
    0.2100000000E+05    0.1037117791E-02    0.6958468470E+00    0.5842493263E-01    0.3016204550E+00    0.9178519310E-04
    0.2300000000E+05    0.1001561793E-02    0.6958550486E+00    0.5863509296E-01    0.3138358961E+00    0.9225091478E-04
    0.2500000000E+05    0.9656835401E-03    0.6958619025E+00    0.5866220434E-01    0.3250481144E+00    0.9267981219E-04
    0.2700000000E+05    0.9301512391E-03    0.6958677106E+00    0.5854708973E-01    0.3353945794E+00    0.9307742020E-04
    0.2900000000E+05    0.8953970705E-03    0.6958726914E+00    0.5832104202E-01    0.3449869536E+00    0.9344810376E-04
    0.3100000000E+05    0.8616931245E-03    0.6958770065E+00    0.5800831173E-01    0.3539170711E+00    0.9379536707E-04
    0.3300000000E+05    0.8292022710E-03    0.6958807782E+00    0.5762787134E-01    0.3622613028E+00    0.9412206679E-04
    0.3500000000E+05    0.7980126752E-03    0.6958841008E+00    0.5719468749E-01    0.3700837980E+00    0.9443056291E-04
    0.3700000000E+05    0.7681614656E-03    0.6958870481E+00    0.5672065202E-01    0.3774389287E+00    0.9472282804E-04
    0.3900000000E+05    0.7396511057E-03    0.6958896785E+00    0.5621527259E-01    0.3843731590E+00    0.9500052807E-04
    0.4100000000E+05    0.7124607953E-03    0.6958920391E+00    0.5568619121E-01    0.3909264923E+00    0.9526508292E-04
    0.4300000000E+05    0.6865544494E-03    0.6958941682E+00    0.5513957792E-01    0.3971336049E+00    0.9551771284E-04
    0.4500000000E+05    0.6618862972E-03    0.6958960970E+00    0.5458043266E-01    0.4030247443E+00    0.9575947434E-04
    0.4700000000E+05    0.6384048136E-03    0.6958978516E+00    0.5401281893E-01    0.4086264462E+00    0.9599128833E-04
    0.4900000000E+05    0.6160554731E-03    0.6958994538E+00    0.5344004623E-01    0.4139621139E+00    0.9621396247E-04
    0.1000000000E+05    0.1142063168E-02    0.6957410618E+00    0.5031579253E-01    0.2057613510E+00    0.8807115148E-04
    0.3000000000E+05    0.8784015488E-03    0.6958749237E+00    0.5817421959E-01    0.3495297014E+00    0.9362447124E-04
    0.5000000000E+05    0.6052879818E-03    0.6959002035E+00    0.5315258926E-01    0.4165367597E+00    0.9632209801E-04
    0.7000000000E+05    0.4365044126E-03    0.6959104110E+00    0.4756988909E-01    0.4580497962E+00    0.9814091630E-04
    0.9000000000E+05    0.3289293329E-03    0.6959157309E+00    0.4270477381E-01    0.4869964942E+00    0.9952165027E-04
    0.1100000000E+06    0.2567166676E-03    0.6959188909E+00    0.3861836646E-01    0.5085712739E+00    0.1006380214E-03
    0.1300000000E+06    0.2059976192E-03    0.6959209209E+00    0.3519068445E-01    0.5253689122E+00    0.1015768912E-03
    0.1500000000E+06    0.1690267258E-03    0.6959222931E+00    0.3229378046E-01    0.5388623184E+00    0.1023880835E-03
    0.1700000000E+06    0.1412441753E-03    0.6959232526E+00    0.2982163468E-01    0.5499614904E+00    0.1031028902E-03
    0.1900000000E+06    0.1198328309E-03    0.6959239388E+00    0.2769128980E-01    0.5592638081E+00    0.1037422785E-03
    0.2100000000E+06    0.1029781999E-03    0.6959244361E+00    0.2583860717E-01    0.5671798306E+00    0.1043209980E-03
    0.2300000000E+06    0.8946925512E-04    0.6959247986E+00    0.2421385454E-01    0.5740020807E+00    0.1048498267E-03
    0.2500000000E+06    0.7847270624E-04    0.6959250623E+00    0.2277814869E-01    0.5799451592E+00    0.1053368840E-03
    0.2700000000E+06    0.6939988403E-04    0.6959252520E+00    0.2150077803E-01    0.5851703627E+00    0.1057884421E-03
    0.2900000000E+06    0.6182529190E-04    0.6959253853E+00    0.2035722778E-01    0.5898014308E+00    0.1062094486E-03
    0.3100000000E+06    0.5543513302E-04    0.6959254750E+00    0.1932772672E-01    0.5939349727E+00    0.1066038762E-03
    0.3300000000E+06    0.4999384030E-04    0.6959255305E+00    0.1839617236E-01    0.5976475753E+00    0.1069749645E-03
    0.3500000000E+06    0.4532175667E-04    0.6959255589E+00    0.1754932917E-01    0.6010007707E+00    0.1073253898E-03
    0.3700000000E+06    0.4127991253E-04    0.6959255657E+00    0.1677622470E-01    0.6040445862E+00    0.1076573898E-03
    0.3900000000E+06    0.3775943244E-04    0.6959255550E+00    0.1606769009E-01    0.6068201280E+00    0.1079728544E-03
    0.4100000000E+06    0.3467402864E-04    0.6959255303E+00    0.1541600701E-01    0.6093614951E+00    0.1082733945E-03
    0.4300000000E+06    0.3195459370E-04    0.6959254941E+00    0.1481463356E-01    0.6116972184E+00    0.1085603948E-03
    0.4500000000E+06    0.2954524705E-04    0.6959254486E+00    0.1425798968E-01    0.6138513578E+00    0.1088350542E-03
    0.4700000000E+06    0.2740040464E-04    0.6959253954E+00    0.1374128751E-01    0.6158443478E+00    0.1090984179E-03
    0.4900000000E+06    0.2548257988E-04    0.6959253359E+00    0.1326039625E-01    0.6176936584E+00    0.1093514024E-03
    0.1000000000E+06    0.2894632264E-03    0.6959174968E+00    0.4057076007E-01    0.4985067004E+00    0.1001062445E-03
    0.3000000000E+06    0.5849841081E-04    0.6959254350E+00    0.1982930297E-01    0.5919252031E+00    0.1064097674E-03
    0.5000000000E+06    0.2459887943E-04    0.6959253042E+00    0.1303224136E-01    0.6185692131E+00    0.1094742589E-03
    0.7000000000E+06    0.1352871695E-04    0.6959245286E+00    0.9688280358E-02    0.6312749148E+00    0.1115408131E-03
    0.9000000000E+06    0.8565286626E-05    0.6959236949E+00    0.7702816119E-02    0.6387166878E+00    0.1131097421E-03
    0.1100000000E+07    0.5915536734E-05    0.6959229054E+00    0.6388968749E-02    0.6436043408E+00    0.1143783335E-03
    0.1300000000E+07    0.4334312815E-05    0.6959221777E+00    0.5455779183E-02    0.6470597812E+00    0.1154452515E-03
    0.1500000000E+07    0.3314696913E-05    0.6959215101E+00    0.4759016921E-02    0.6496317596E+00    0.1163670967E-03
    0.1700000000E+07    0.2618568532E-05    0.6959208963E+00    0.4219087091E-02    0.6516204693E+00    0.1171794200E-03
    0.1900000000E+07    0.2121970129E-05    0.6959203296E+00    0.3788488454E-02    0.6532039644E+00    0.1179060435E-03
    0.2100000000E+07    0.1755164965E-05    0.6959198038E+00    0.3437126984E-02    0.6544945393E+00    0.1185637263E-03
    0.2300000000E+07    0.1476458720E-05    0.6959193139E+00    0.3145015360E-02    0.6555665182E+00    0.1191647147E-03
    0.2500000000E+07    0.1259670018E-05    0.6959188554E+00    0.2898361047E-02    0.6564710506E+00    0.1197182349E-03
    0.2700000000E+07    0.1087680693E-05    0.6959184245E+00    0.2687340184E-02    0.6572444889E+00    0.1202314138E-03
    0.2900000000E+07    0.9489125934E-06    0.6959180183E+00    0.2504766723E-02    0.6579133776E+00    0.1207098736E-03
    0.3100000000E+07    0.8353055120E-06    0.6959176339E+00    0.2345263264E-02    0.6584975509E+00    0.1211581289E-03
    0.3300000000E+07    0.7411070999E-06    0.6959172692E+00    0.2204726045E-02    0.6590121270E+00    0.1215798606E-03
    0.3500000000E+07    0.6621222652E-06    0.6959169223E+00    0.2079969158E-02    0.6594688303E+00    0.1219781103E-03
    0.3700000000E+07    0.5952328647E-06    0.6959165914E+00    0.1968481685E-02    0.6598768934E+00    0.1223554209E-03
    0.3900000000E+07    0.5380818647E-06    0.6959162752E+00    0.1868258031E-02    0.6602436850E+00    0.1227139399E-03
    0.4100000000E+07    0.4888605862E-06    0.6959159724E+00    0.1777676970E-02    0.6605751578E+00    0.1230554980E-03
    0.4300000000E+07    0.4461622845E-06    0.6959156818E+00    0.1695413833E-02    0.6608761728E+00    0.1233816688E-03
    0.4500000000E+07    0.4088794249E-06    0.6959154025E+00    0.1620375709E-02    0.6611507387E+00    0.1236938147E-03
    0.4700000000E+07    0.3761303546E-06    0.6959151336E+00    0.1551652911E-02    0.6614021907E+00    0.1239931234E-03
    0.4900000000E+07    0.3472061317E-06    0.6959148745E+00    0.1488482153E-02    0.6616333260E+00    0.1242806367E-03
    0.1000000000E+07    0.7056099382E-05    0.6959232927E+00    0.6985144850E-02    0.6413899229E+00    0.1137740419E-03
    0.3000000000E+07    0.8893670779E-06    0.6959178235E+00    0.2422412734E-02    0.6582150163E+00    0.1209375298E-03
    0.5000000000E+07    0.3339941763E-06    0.6959147483E+00    0.1458773193E-02    0.6617420282E+00    0.1244202615E-03
    0.7000000000E+07    0.1750551958E-06    0.6959125980E+00    0.1041717988E-02    0.6632682243E+00    0.1267688788E-03
    0.9000000000E+07    0.1081535297E-06    0.6959109365E+00    0.8092970555E-03    0.6641192734E+00    0.1285519560E-03
    0.1100000000E+08    0.7373086302E-07    0.6959095783E+00    0.6612470518E-03    0.6646617904E+00    0.1299937035E-03
    0.1300000000E+08    0.5367375751E-07    0.6959084272E+00    0.5587404729E-03    0.6650377013E+00    0.1312062509E-03
    0.1500000000E+08    0.4095086661E-07    0.6959074270E+00    0.4835925640E-03    0.6653134826E+00    0.1322539239E-03
    0.1700000000E+08    0.3236557758E-07    0.6959065416E+00    0.4261564781E-03    0.6655244085E+00    0.1331771258E-03
    0.1900000000E+08    0.2629311372E-07    0.6959057466E+00    0.3808406096E-03    0.6656909318E+00    0.1340029302E-03
    0.2100000000E+08    0.2183586119E-07    0.6959050248E+00    0.3441811831E-03    0.6658257268E+00    0.1347503836E-03
    0.2300000000E+08    0.1846474624E-07    0.6959043633E+00    0.3139184452E-03    0.6659370652E+00    0.1354334040E-03
    0.2500000000E+08    0.1585131899E-07    0.6959037526E+00    0.2885155707E-03    0.6660305745E+00    0.1360624768E-03
    0.2700000000E+08    0.1378282201E-07    0.6959031851E+00    0.2668911119E-03    0.6661102162E+00    0.1366457019E-03
