  Pressure (Pa) 23mC5-500 (mol/kg) 24mC5-500 (mol/kg) 2mC6-500 (mol/kg) 3mC6-500 (mol/kg) C7-500 (mol/kg)
    0.1000000000E+01    0.6879502955E-06    0.9949778372E-01    0.2826404334E-04    0.4492427754E-05    0.4169315032E-02
    0.3000000000E+01    0.1518057706E-05    0.2321031535E+00    0.5998368960E-04    0.1131294300E-04    0.4199922325E-02
    0.5000000000E+01    0.1990602066E-05    0.3164565980E+00    0.7680338654E-04    0.1755507161E-04    0.4215185847E-02
    0.7000000000E+01    0.2288064844E-05    0.3748424813E+00    0.8700032021E-04    0.2352510994E-04    0.4225096643E-02
    0.9000000000E+01    0.2490005786E-05    0.4176531809E+00    0.9395325662E-04    0.2932527293E-04    0.4232061609E-02
    0.1100000000E+02    0.2635920110E-05    0.4503881095E+00    0.9922637988E-04    0.3500638960E-04    0.4237178530E-02
    0.1300000000E+02    0.2747239865E-05    0.4762301603E+00    0.1036063842E-03    0.4059857708E-04    0.4241048041E-02
    0.1500000000E+02    0.2836385609E-05    0.4971492615E+00    0.1075127085E-03    0.4612161125E-04    0.4244032090E-02
    0.1700000000E+02    0.2910928668E-05    0.5144299408E+00    0.1111784322E-03    0.5158939639E-04    0.4246363342E-02
    0.1900000000E+02    0.2975672334E-05    0.5289455708E+00    0.1147367658E-03    0.5701219981E-04    0.4248198706E-02
    0.2100000000E+02    0.3033763301E-05    0.5413106908E+00    0.1182650890E-03    0.6239788905E-04    0.4249648069E-02
    0.2300000000E+02    0.3087317655E-05    0.5519702808E+00    0.1218085282E-03    0.6775267015E-04    0.4250790787E-02
    0.2500000000E+02    0.3137789288E-05    0.5612544693E+00    0.1253931047E-03    0.7308155423E-04    0.4251685647E-02
    0.2700000000E+02    0.3186194873E-05    0.5694133435E+00    0.1290333149E-03    0.7838866630E-04    0.4252377162E-02
    0.2900000000E+02    0.3233255647E-05    0.5766398216E+00    0.1327366220E-03    0.8367745726E-04    0.4252899666E-02
    0.3100000000E+02    0.3279489204E-05    0.5830851061E+00    0.1365061767E-03    0.8895085422E-04    0.4253280082E-02
    0.3300000000E+02    0.3325270341E-05    0.5888693814E+00    0.1403424960E-03    0.9421136971E-04    0.4253539822E-02
    0.3500000000E+02    0.3370872232E-05    0.5940893802E+00    0.1442445115E-03    0.9946118301E-04    0.4253696134E-02
    0.3700000000E+02    0.3416494802E-05    0.5988238374E+00    0.1482102323E-03    0.1047022018E-03    0.4253763072E-02
    0.3900000000E+02    0.3462284584E-05    0.6031374903E+00    0.1522371644E-03    0.1099361095E-03    0.4253752203E-02
    0.4100000000E+02    0.3508348834E-05    0.6070840567E+00    0.1563225771E-03    0.1151644031E-03    0.4253673132E-02
    0.4300000000E+02    0.3554765671E-05    0.6107084844E+00    0.1604636715E-03    0.1203884219E-03    0.4253533909E-02
    0.4500000000E+02    0.3601591469E-05    0.6140486701E+00    0.1646576842E-03    0.1256093720E-03    0.4253341324E-02
    0.4700000000E+02    0.3648866275E-05    0.6171367906E+00    0.1689019504E-03    0.1308283452E-03    0.4253101152E-02
    0.4900000000E+02    0.3696617835E-05    0.6200003424E+00    0.1731939403E-03    0.1360463348E-03    0.4252818329E-02
    0.1000000000E+02    0.2568344198E-05    0.4350438683E+00    0.9673885689E-04    0.3217850983E-04    0.4234806029E-02
    0.3000000000E+02    0.3256449615E-05    0.5799519755E+00    0.1346130390E-03    0.8631591431E-04    0.4253106186E-02
    0.5000000000E+02    0.3720678461E-05    0.6213554236E+00    0.1753570826E-03    0.1386552475E-03    0.4252662275E-02
    0.7000000000E+02    0.4228560229E-05    0.6409690471E+00    0.2206350222E-03    0.1909675878E-03    0.4248076352E-02
    0.9000000000E+02    0.4783655525E-05    0.6524109032E+00    0.2688874880E-03    0.2438875403E-03    0.4241798730E-02
    0.1100000000E+03    0.5379000869E-05    0.6599075240E+00    0.3194331341E-03    0.2977658334E-03    0.4234589577E-02
    0.1300000000E+03    0.6009594401E-05    0.6651993487E+00    0.3719928323E-03    0.3528422460E-03    0.4226756193E-02
    0.1500000000E+03    0.6672503335E-05    0.6691343262E+00    0.4264682562E-03    0.4093042592E-03    0.4218441587E-02
    0.1700000000E+03    0.7366199831E-05    0.6721749930E+00    0.4828501982E-03    0.4673124680E-03    0.4209717086E-02
    0.1900000000E+03    0.8090079283E-05    0.6745951046E+00    0.5411780092E-03    0.5270134454E-03    0.4200618449E-02
    0.2100000000E+03    0.8844162640E-05    0.6765670301E+00    0.6015203763E-03    0.5885470447E-03    0.4191161954E-02
    0.2300000000E+03    0.9628916159E-05    0.6782047111E+00    0.6639657333E-03    0.6520509552E-03    0.4181352289E-02
    0.2500000000E+03    0.1044514161E-04    0.6795864841E+00    0.7286173467E-03    0.7176637912E-03    0.4171186711E-02
    0.2700000000E+03    0.1129390900E-04    0.6807679800E+00    0.7955908210E-03    0.7855273574E-03    0.4160657356E-02
    0.2900000000E+03    0.1217651559E-04    0.6817897950E+00    0.8650129354E-03    0.8557884385E-03    0.4149752573E-02
    0.3100000000E+03    0.1309446179E-04    0.6826822480E+00    0.9370212554E-03    0.9286003117E-03    0.4138457706E-02
    0.3300000000E+03    0.1404943818E-04    0.6834684393E+00    0.1011764228E-02    0.1004124104E-02    0.4126755553E-02
    0.3500000000E+03    0.1504332032E-04    0.6841662784E+00    0.1089401602E-02    0.1082530076E-02    0.4114626625E-02
    0.3700000000E+03    0.1607816912E-04    0.6847898643E+00    0.1170105079E-02    0.1163998881E-02    0.4102049277E-02
    0.3900000000E+03    0.1715623560E-04    0.6853504476E+00    0.1254059157E-02    0.1248722846E-02    0.4088999747E-02
    0.4100000000E+03    0.1827996909E-04    0.6858571155E+00    0.1341462134E-02    0.1336907299E-02    0.4075452137E-02
    0.4300000000E+03    0.1945202843E-04    0.6863172878E+00    0.1432527266E-02    0.1428771973E-02    0.4061378344E-02
    0.4500000000E+03    0.2067529589E-04    0.6867370826E+00    0.1527484074E-02    0.1524552503E-02    0.4046747951E-02
    0.4700000000E+03    0.2195289374E-04    0.6871215898E+00    0.1626579809E-02    0.1624502048E-02    0.4031528087E-02
    0.4900000000E+03    0.2328820339E-04    0.6874750782E+00    0.1730081084E-02    0.1728893048E-02    0.4015683258E-02
    0.1000000000E+03    0.5076666155E-05    0.6565128065E+00    0.2938970056E-03    0.2706902430E-03    0.4238285741E-02
    0.3000000000E+03    0.1263096994E-04    0.6822506064E+00    0.9006848003E-03    0.8918656549E-03    0.4144154919E-02
    0.5000000000E+03    0.2397863297E-04    0.6876413399E+00    0.1783572851E-02    0.1782844972E-02    0.4007514625E-02
    0.7000000000E+03    0.4192938641E-04    0.6899771465E+00    0.3171649885E-02    0.3183613890E-02    0.3799823668E-02
    0.9000000000E+03    0.7305385474E-04    0.6912812624E+00    0.5577032737E-02    0.5615613092E-02    0.3454792811E-02
    0.1100000000E+04    0.1326386991E-03    0.6921134371E+00    0.1019084843E-01    0.1029477903E-01    0.2829018082E-02
    0.1300000000E+04    0.2452093207E-03    0.6926905260E+00    0.1894805364E-01    0.1922258111E-01    0.1742890797E-02
    0.1500000000E+04    0.3808234880E-03    0.6931141808E+00    0.2961221966E-01    0.3021721111E-01    0.6459657747E-03
    0.1700000000E+04    0.4620301802E-03    0.6934383802E+00    0.3617233364E-01    0.3716552322E-01    0.2421826067E-03
    0.1900000000E+04    0.5097781419E-03    0.6936944438E+00    0.4018745899E-01    0.4158365324E-01    0.1679987338E-03
    0.2100000000E+04    0.5483639119E-03    0.6939017917E+00    0.4352690781E-01    0.4535636675E-01    0.1572561562E-03
    0.2300000000E+04    0.5834894975E-03    0.6940731057E+00    0.4663027278E-01    0.4892820341E-01    0.1562944181E-03
    0.2500000000E+04    0.6162600323E-03    0.6942170179E+00    0.4958057135E-01    0.5238111588E-01    0.1567648474E-03
    0.2700000000E+04    0.6469764725E-03    0.6943396081E+00    0.5239825129E-01    0.5573317886E-01    0.1574104688E-03
    0.2900000000E+04    0.6757983826E-03    0.6944452815E+00    0.5509292290E-01    0.5899153194E-01    0.1580446513E-03
    0.3100000000E+04    0.7028534814E-03    0.6945373087E+00    0.5767194460E-01    0.6216120870E-01    0.1586432432E-03
    0.3300000000E+04    0.7282563734E-03    0.6946181682E+00    0.6014187964E-01    0.6524662697E-01    0.1592065148E-03
    0.3500000000E+04    0.7521123604E-03    0.6946897730E+00    0.6250877579E-01    0.6825186104E-01    0.1597379128E-03
    0.3700000000E+04    0.7745187162E-03    0.6947536229E+00    0.6477824586E-01    0.7118070803E-01    0.1602408418E-03
    0.3900000000E+04    0.7955654725E-03    0.6948109104E+00    0.6695551107E-01    0.7403671713E-01    0.1607182578E-03
    0.4100000000E+04    0.8153360630E-03    0.6948625954E+00    0.6904543521E-01    0.7682321089E-01    0.1611726883E-03
    0.4300000000E+04    0.8339078937E-03    0.6949094596E+00    0.7105255458E-01    0.7954330347E-01    0.1616063022E-03
    0.4500000000E+04    0.8513528537E-03    0.6949521456E+00    0.7298110476E-01    0.8219991694E-01    0.1620209731E-03
    0.4700000000E+04    0.8677377768E-03    0.6949911869E+00    0.7483504490E-01    0.8479579617E-01    0.1624183306E-03
    0.4900000000E+04    0.8831248583E-03    0.6950270299E+00    0.7661807962E-01    0.8733352223E-01    0.1627998008E-03
    0.1000000000E+04    0.9779165193E-04    0.6917387468E+00    0.7490906291E-02    0.7554490925E-02    0.3190218000E-02
    0.3000000000E+04    0.6895393804E-03    0.6944928305E+00    0.5639646620E-01    0.6058716935E-01    0.1583485381E-03
    0.5000000000E+04    0.8904624697E-03    0.6950438719E+00    0.7748410049E-01    0.8858134265E-01    0.1629849764E-03
    0.7000000000E+04    0.9969593940E-03    0.6952792713E+00    0.9181757537E-01    0.1110052390E+00    0.1660932836E-03
    0.9000000000E+04    0.1050115074E-02    0.6954095381E+00    0.1019226401E+00    0.1296670555E+00    0.1684465996E-03
    0.1100000000E+05    0.1071757949E-02    0.6954920868E+00    0.1092275073E+00    0.1456410523E+00    0.1703464109E-03
    0.1300000000E+05    0.1074234259E-02    0.6955489857E+00    0.1145965276E+00    0.1596098770E+00    0.1719425665E-03
    0.1500000000E+05    0.1064866200E-02    0.6955905237E+00    0.1185811810E+00    0.1720306836E+00    0.1733207038E-03
    0.1700000000E+05    0.1048157725E-02    0.6956221418E+00    0.1215485194E+00    0.1832227725E+00    0.1745344723E-03
    0.1900000000E+05    0.1026958304E-02    0.6956469866E+00    0.1237514394E+00    0.1934169890E+00    0.1756197544E-03
    0.2100000000E+05    0.1003109608E-02    0.6956670035E+00    0.1253692755E+00    0.2027851071E+00    0.1766017573E-03
    0.2300000000E+05    0.9778205475E-03    0.6956834595E+00    0.1265323298E+00    0.2114581051E+00    0.1774988804E-03
    0.2500000000E+05    0.9518926877E-03    0.6956972150E+00    0.1273372681E+00    0.2195379692E+00    0.1783249727E-03
    0.2700000000E+05    0.9258598898E-03    0.6957088749E+00    0.1278571039E+00    0.2271055681E+00    0.1790907246E-03
    0.2900000000E+05    0.9000770679E-03    0.6957188764E+00    0.1281478558E+00    0.2342260530E+00    0.1798045638E-03
    0.3100000000E+05    0.8747778698E-03    0.6957275435E+00    0.1282530986E+00    0.2409526548E+00    0.1804732542E-03
    0.3300000000E+05    0.8501128796E-03    0.6957351213E+00    0.1282071413E+00    0.2473294101E+00    0.1811023087E-03
    0.3500000000E+05    0.8261753397E-03    0.6957417986E+00    0.1280372905E+00    0.2533931579E+00    0.1816962803E-03
    0.3700000000E+05    0.8030187138E-03    0.6957477231E+00    0.1277654894E+00    0.2591750257E+00    0.1822589744E-03
    0.3900000000E+05    0.7806688253E-03    0.6957530121E+00    0.1274095238E+00    0.2647015545E+00    0.1827936038E-03
    0.4100000000E+05    0.7591323306E-03    0.6957577600E+00    0.1269839216E+00    0.2699955603E+00    0.1833029068E-03
    0.4300000000E+05    0.7384026846E-03    0.6957620433E+00    0.1265006326E+00    0.2750768049E+00    0.1837892361E-03
    0.4500000000E+05    0.7184643674E-03    0.6957659249E+00    0.1259695473E+00    0.2799625214E+00    0.1842546287E-03
    0.4700000000E+05    0.6992958942E-03    0.6957694569E+00    0.1253988989E+00    0.2846678325E+00    0.1847008597E-03
    0.4900000000E+05    0.6808719640E-03    0.6957726829E+00    0.1247955757E+00    0.2892060861E+00    0.1851294860E-03
    0.1000000000E+05    0.1063949463E-02    0.6954549838E+00    0.1058616377E+00    0.1379406641E+00    0.1694417298E-03
    0.3000000000E+05    0.8873560073E-03    0.6957233599E+00    0.1282213345E+00    0.2376356478E+00    0.1801441826E-03
    0.5000000000E+05    0.6719306403E-03    0.6957741928E+00    0.1244835076E+00    0.2914163198E+00    0.1853376328E-03
    0.7000000000E+05    0.5252866796E-03    0.6957947792E+00    0.1175315147E+00    0.3291362794E+00    0.1888383086E-03
    0.9000000000E+05    0.4235377437E-03    0.6958055443E+00    0.1104470085E+00    0.3582557406E+00    0.1914954924E-03
    0.1100000000E+06    0.3499959205E-03    0.6958119630E+00    0.1038680621E+00    0.3818870944E+00    0.1936437729E-03
    0.1300000000E+06    0.2949043454E-03    0.6958161048E+00    0.9790698902E-01    0.4016683369E+00    0.1954504015E-03
    0.1500000000E+06    0.2524100390E-03    0.6958189190E+00    0.9253836833E-01    0.4185845148E+00    0.1970112981E-03
    0.1700000000E+06    0.2188412868E-03    0.6958208990E+00    0.8770175933E-01    0.4332812240E+00    0.1983866987E-03
    0.1900000000E+06    0.1917954766E-03    0.6958223254E+00    0.8333253891E-01    0.4462076386E+00    0.1996169611E-03
    0.2100000000E+06    0.1696419103E-03    0.6958233688E+00    0.7937125611E-01    0.4576902560E+00    0.2007304741E-03
    0.2300000000E+06    0.1512387632E-03    0.6958241383E+00    0.7576593634E-01    0.4679744621E+00    0.2017479809E-03
    0.2500000000E+06    0.1357649556E-03    0.6958247065E+00    0.7247201298E-01    0.4772496014E+00    0.2026851078E-03
    0.2700000000E+06    0.1226163817E-03    0.6958251237E+00    0.6945152066E-01    0.4856649208E+00    0.2035539254E-03
    0.2900000000E+06    0.1113396613E-03    0.6958254255E+00    0.6667213919E-01    0.4933401516E+00    0.2043639549E-03
    0.3100000000E+06    0.1015885736E-03    0.6958256377E+00    0.6410629426E-01    0.5003727815E+00    0.2051228416E-03
    0.3300000000E+06    0.9309465080E-04    0.6958257796E+00    0.6173037654E-01    0.5068432006E+00    0.2058368191E-03
    0.3500000000E+06    0.8564686744E-04    0.6958258656E+00    0.5952408605E-01    0.5128184324E+00    0.2065110381E-03
    0.3700000000E+06    0.7907732070E-04    0.6958259067E+00    0.5746989012E-01    0.5183548971E+00    0.2071498042E-03
    0.3900000000E+06    0.7325094954E-04    0.6958259117E+00    0.5555257766E-01    0.5235004955E+00    0.2077567540E-03
    0.4100000000E+06    0.6805803077E-04    0.6958258872E+00    0.5375889321E-01    0.5282962060E+00    0.2083349876E-03
    0.4300000000E+06    0.6340862022E-04    0.6958258387E+00    0.5207723585E-01    0.5327773257E+00    0.2088871692E-03
    0.4500000000E+06    0.5922837916E-04    0.6958257704E+00    0.5049741092E-01    0.5369744468E+00    0.2094156057E-03
    0.4700000000E+06    0.5545540210E-04    0.6958256859E+00    0.4901042431E-01    0.5409142335E+00    0.2099223083E-03
    0.4900000000E+06    0.5203777842E-04    0.6958255880E+00    0.4760831147E-01    0.5446200466E+00    0.2104090409E-03
    0.1000000000E+06    0.3839705161E-03    0.6958091280E+00    0.1070819250E+00    0.3706340631E+00    0.1926204660E-03
    0.3000000000E+06    0.1062917416E-03    0.6958255415E+00    0.6536408490E-01    0.4969314158E+00    0.2047493728E-03
    0.5000000000E+06    0.5044826016E-04    0.6958255347E+00    0.4693683965E-01    0.5463917368E+00    0.2106454117E-03
    0.7000000000E+06    0.2959507460E-04    0.6958241556E+00    0.3660223987E-01    0.5734392307E+00    0.2146213437E-03
    0.9000000000E+06    0.1950543566E-04    0.6958226196E+00    0.2998627325E-01    0.5905691544E+00    0.2176398390E-03
    0.1100000000E+07    0.1384596630E-04    0.6958211475E+00    0.2538768397E-01    0.6024061261E+00    0.2200804909E-03
    0.1300000000E+07    0.1034913180E-04    0.6958197826E+00    0.2200615070E-01    0.6110787287E+00    0.2221331312E-03
    0.1500000000E+07    0.8035245405E-05    0.6958185260E+00    0.1941533422E-01    0.6177071385E+00    0.2239066594E-03
    0.1700000000E+07    0.6423614203E-05    0.6958173681E+00    0.1736720339E-01    0.6229380197E+00    0.2254694746E-03
    0.1900000000E+07    0.5255503478E-05    0.6958162973E+00    0.1570762301E-01    0.6271711025E+00    0.2268674098E-03
    0.2100000000E+07    0.4381445957E-05    0.6958153030E+00    0.1433576009E-01    0.6306668782E+00    0.2281327084E-03
    0.2300000000E+07    0.3710132580E-05    0.6958143755E+00    0.1318287726E-01    0.6336024060E+00    0.2292889320E-03
    0.2500000000E+07    0.3183193492E-05    0.6958135070E+00    0.1220050550E-01    0.6361022531E+00    0.2303538309E-03
    0.2700000000E+07    0.2761885340E-05    0.6958126905E+00    0.1135348791E-01    0.6382566106E+00    0.2313411171E-03
    0.2900000000E+07    0.2419663629E-05    0.6958119202E+00    0.1061570434E-01    0.6401323880E+00    0.2322616071E-03
    0.3100000000E+07    0.2137842148E-05    0.6958111914E+00    0.9967344050E-02    0.6417802710E+00    0.2331239866E-03
    0.3300000000E+07    0.1902954582E-05    0.6958104996E+00    0.9393109851E-02    0.6432393571E+00    0.2339353376E-03
    0.3500000000E+07    0.1705095546E-05    0.6958098415E+00    0.8881002436E-02    0.6445402885E+00    0.2347015119E-03
    0.3700000000E+07    0.1536846214E-05    0.6958092137E+00    0.8421477489E-02    0.6457074201E+00    0.2354274014E-03
    0.3900000000E+07    0.1392560299E-05    0.6958086136E+00    0.8006848673E-02    0.6467603531E+00    0.2361171380E-03
    0.4100000000E+07    0.1267878475E-05    0.6958080388E+00    0.7630856716E-02    0.6477150405E+00    0.2367742439E-03
    0.4300000000E+07    0.1159391335E-05    0.6958074874E+00    0.7288353078E-02    0.6485845981E+00    0.2374017463E-03
    0.4500000000E+07    0.1064401097E-05    0.6958069573E+00    0.6975064164E-02    0.6493799080E+00    0.2380022665E-03
    0.4700000000E+07    0.9807503058E-06    0.6958064470E+00    0.6687413140E-02    0.6501100749E+00    0.2385780895E-03
    0.4900000000E+07    0.9066968210E-06    0.6958059550E+00    0.6422383570E-02    0.6507827741E+00    0.2391312196E-03
    0.1000000000E+07    0.1630981674E-04    0.6958218712E+00    0.2749721164E-01    0.5969825984E+00    0.2189178918E-03
    0.3000000000E+07    0.2272143826E-05    0.6958115509E+00    0.1028139168E-01    0.6409821436E+00    0.2326995854E-03
    0.5000000000E+07    0.8728149439E-06    0.6958057155E+00    0.6297535956E-02    0.6510996488E+00    0.2393998354E-03
    0.7000000000E+07    0.4621159568E-06    0.6958016345E+00    0.4530906199E-02    0.6555828638E+00    0.2439181863E-03
    0.9000000000E+07    0.2871729190E-06    0.6957984824E+00    0.3534853088E-02    0.6581104846E+00    0.2473485140E-03
    0.1100000000E+08    0.1965266616E-06    0.6957959072E+00    0.2895997457E-02    0.6597319290E+00    0.2501221723E-03
    0.1300000000E+08    0.1434631106E-06    0.6957937262E+00    0.2451649080E-02    0.6608599588E+00    0.2524548841E-03
    0.1500000000E+08    0.1096906442E-06    0.6957918322E+00    0.2124838554E-02    0.6616898078E+00    0.2544704035E-03
    0.1700000000E+08    0.8684379709E-07    0.6957901565E+00    0.1874448515E-02    0.6623257640E+00    0.2562464602E-03
    0.1900000000E+08    0.7065195753E-07    0.6957886528E+00    0.1676523660E-02    0.6628285873E+00    0.2578351404E-03
    0.2100000000E+08    0.5874789274E-07    0.6957872882E+00    0.1516166178E-02    0.6632360668E+00    0.2592730864E-03
    0.2300000000E+08    0.4973258808E-07    0.6957860384E+00    0.1383626465E-02    0.6635729352E+00    0.2605870744E-03
    0.2500000000E+08    0.4273565014E-07    0.6957848851E+00    0.1272257145E-02    0.6638560573E+00    0.2617972766E-03
    0.2700000000E+08    0.3719225473E-07    0.6957838140E+00    0.1177370701E-02    0.6640973267E+00    0.2629192759E-03
