  Pressure (Pa) 23mC5-500 (mol/kg) 24mC5-500 (mol/kg) 2mC6-500 (mol/kg) 3mC6-500 (mol/kg) C7-500 (mol/kg)
    0.1000000000E+01    0.5388449152E-06    0.2142822554E+00    0.7238188748E-05    0.5389047302E-05    0.4166508689E-02
    0.3000000000E+01    0.9189707474E-06    0.3978546579E+00    0.1182754137E-04    0.1356297031E-04    0.4186811151E-02
    0.5000000000E+01    0.1064171736E-05    0.4801175270E+00    0.1371690322E-04    0.2103532213E-04    0.4193303163E-02
    0.7000000000E+01    0.1146782109E-05    0.5267999030E+00    0.1511698523E-04    0.2817437715E-04    0.4196473245E-02
    0.9000000000E+01    0.1207958090E-05    0.5568813998E+00    0.1644076703E-04    0.3510315314E-04    0.4198225161E-02
    0.1100000000E+02    0.1261081047E-05    0.5778804781E+00    0.1778411278E-04    0.4188287136E-04    0.4199229459E-02
    0.1300000000E+02    0.1311282895E-05    0.5933709787E+00    0.1916737890E-04    0.4854982969E-04    0.4199789044E-02
    0.1500000000E+02    0.1360723752E-05    0.6052691261E+00    0.2059069477E-04    0.5512787455E-04    0.4200061978E-02
    0.1700000000E+02    0.1410352612E-05    0.6146947151E+00    0.2204904349E-04    0.6163377817E-04    0.4200139148E-02
    0.1900000000E+02    0.1460582835E-05    0.6223459352E+00    0.2353671085E-04    0.6807992831E-04    0.4200076633E-02
    0.2100000000E+02    0.1511578185E-05    0.6286807206E+00    0.2504856181E-04    0.7447581792E-04    0.4199910955E-02
    0.2300000000E+02    0.1563382938E-05    0.6340119075E+00    0.2658031342E-04    0.8082893446E-04    0.4199666935E-02
    0.2500000000E+02    0.1615984212E-05    0.6385604848E+00    0.2812849431E-04    0.8714532217E-04    0.4199362039E-02
    0.2700000000E+02    0.1669342898E-05    0.6424869964E+00    0.2969032120E-04    0.9342995435E-04    0.4199008912E-02
    0.2900000000E+02    0.1723409341E-05    0.6459108849E+00    0.3126356890E-04    0.9968698916E-04    0.4198616934E-02
    0.3100000000E+02    0.1778131303E-05    0.6489228535E+00    0.3284645674E-04    0.1059199508E-03    0.4198193212E-02
    0.3300000000E+02    0.1833457942E-05    0.6515930193E+00    0.3443755604E-04    0.1121318616E-03    0.4197743222E-02
    0.3500000000E+02    0.1889341682E-05    0.6539764402E+00    0.3603571664E-04    0.1183253399E-03    0.4197271252E-02
    0.3700000000E+02    0.1945738964E-05    0.6561169514E+00    0.3764000933E-04    0.1245026747E-03    0.4196780708E-02
    0.3900000000E+02    0.2002610412E-05    0.6580498867E+00    0.3924968096E-04    0.1306658833E-03    0.4196274325E-02
    0.4100000000E+02    0.2059920697E-05    0.6598040438E+00    0.4086411927E-04    0.1368167559E-03    0.4195754324E-02
    0.4300000000E+02    0.2117638258E-05    0.6614031289E+00    0.4248282537E-04    0.1429568917E-03    0.4195222528E-02
    0.4500000000E+02    0.2175734969E-05    0.6628668343E+00    0.4410539205E-04    0.1490877276E-03    0.4194680443E-02
    0.4700000000E+02    0.2234185787E-05    0.6642116536E+00    0.4573148664E-04    0.1552105613E-03    0.4194129326E-02
    0.4900000000E+02    0.2292968424E-05    0.6654515056E+00    0.4736083730E-04    0.1613265708E-03    0.4193570232E-02
    0.1000000000E+02    0.1235101704E-05    0.5682381659E+00    0.1710792981E-04    0.3850899076E-04    0.4198796973E-02
    0.3000000000E+02    0.1750691621E-05    0.6474635692E+00    0.3205390439E-04    0.1028062798E-03    0.4198408667E-02
    0.5000000000E+02    0.2322477887E-05    0.6660358357E+00    0.4817666264E-04    0.1643823557E-03    0.4193287978E-02
    0.7000000000E+02    0.2926300370E-05    0.6743254758E+00    0.6462858421E-04    0.2253579734E-03    0.4187381561E-02
    0.9000000000E+02    0.3550321025E-05    0.6790205079E+00    0.8131042164E-04    0.2864719778E-03    0.4181182848E-02
    0.1100000000E+03    0.4190562173E-05    0.6820423666E+00    0.9822996456E-04    0.3481135566E-03    0.4174818289E-02
    0.1300000000E+03    0.4845720373E-05    0.6841501661E+00    0.1154140927E-03    0.4105323546E-03    0.4168328238E-02
    0.1500000000E+03    0.5515551339E-05    0.6857041370E+00    0.1328921961E-03    0.4739097989E-03    0.4161725206E-02
    0.1700000000E+03    0.6200287121E-05    0.6868972012E+00    0.1506927074E-03    0.5383899028E-03    0.4155010910E-02
    0.1900000000E+03    0.6900397939E-05    0.6878419998E+00    0.1688426207E-03    0.6040947086E-03    0.4148182374E-02
    0.2100000000E+03    0.7616485816E-05    0.6886087168E+00    0.1873677278E-03    0.6711328829E-03    0.4141234398E-02
    0.2300000000E+03    0.8349234207E-05    0.6892433605E+00    0.2062929880E-03    0.7396048963E-03    0.4134160645E-02
    0.2500000000E+03    0.9099383435E-05    0.6897773474E+00    0.2256428828E-03    0.8096063527E-03    0.4126954147E-02
    0.2700000000E+03    0.9867718806E-05    0.6902328622E+00    0.2454417196E-03    0.8812302529E-03    0.4119607542E-02
    0.2900000000E+03    0.1065506531E-04    0.6906260166E+00    0.2657138878E-03    0.9545686110E-03    0.4112113184E-02
    0.3100000000E+03    0.1146228591E-04    0.6909687942E+00    0.2864840753E-03    0.1029713666E-02    0.4104463185E-02
    0.3300000000E+03    0.1229028183E-04    0.6912702931E+00    0.3077774538E-03    0.1106758828E-02    0.4096649425E-02
    0.3500000000E+03    0.1313999409E-04    0.6915375450E+00    0.3296198432E-03    0.1185799459E-02    0.4088663538E-02
    0.3700000000E+03    0.1401240578E-04    0.6917760705E+00    0.3520378597E-03    0.1266933525E-02    0.4080496900E-02
    0.3900000000E+03    0.1490854490E-04    0.6919902641E+00    0.3750590531E-03    0.1350262191E-02    0.4072140596E-02
    0.4100000000E+03    0.1582948753E-04    0.6921836674E+00    0.3987120383E-03    0.1435890349E-02    0.4063585393E-02
    0.4300000000E+03    0.1677636139E-04    0.6923591666E+00    0.4230266220E-03    0.1523927133E-02    0.4054821712E-02
    0.4500000000E+03    0.1775034963E-04    0.6925191374E+00    0.4480339298E-03    0.1614486403E-02    0.4045839588E-02
    0.4700000000E+03    0.1875269494E-04    0.6926655529E+00    0.4737665330E-03    0.1707687241E-02    0.4036628638E-02
    0.4900000000E+03    0.1978470392E-04    0.6928000655E+00    0.5002585793E-03    0.1803654440E-02    0.4027178023E-02
    0.1000000000E+03    0.3868531307E-05    0.6806792188E+00    0.8973894185E-04    0.3172090848E-03    0.4178017782E-02
    0.3000000000E+03    0.1105613593E-04    0.6908030774E+00    0.2760351692E-03    0.9919095003E-03    0.4108308142E-02
    0.5000000000E+03    0.2031225924E-04    0.6928633027E+00    0.5138005287E-03    0.1852716108E-02    0.4022359322E-02
    0.7000000000E+03    0.3280767010E-04    0.6937496758E+00    0.8345648138E-03    0.3015912664E-02    0.3910260205E-02
    0.9000000000E+03    0.5054583649E-04    0.6942428887E+00    0.1290274598E-02    0.4671349535E-02    0.3756053479E-02
    0.1100000000E+04    0.7722270464E-04    0.6945569889E+00    0.1976572506E-02    0.7169090050E-02    0.3531459272E-02
    0.1300000000E+04    0.1200150476E-03    0.6947745198E+00    0.3079527481E-02    0.1119195004E-01    0.3183998459E-02
    0.1500000000E+04    0.1924178121E-03    0.6949340625E+00    0.4950571435E-02    0.1803569614E-01    0.2622514460E-02
    0.1700000000E+04    0.3109403035E-03    0.6950560637E+00    0.8026118691E-02    0.2933417523E-01    0.1763849362E-02
    0.1900000000E+04    0.4575016351E-03    0.6951523698E+00    0.1185878224E-01    0.4352738194E-01    0.8248031988E-03
    0.2100000000E+04    0.5675794127E-03    0.6952303180E+00    0.1478539962E-01    0.5454905026E-01    0.2877183164E-03
    0.2300000000E+04    0.6329395599E-03    0.6952946954E+00    0.1657569076E-01    0.6149101018E-01    0.1163750379E-03
    0.2500000000E+04    0.6793340916E-03    0.6953487581E+00    0.1788658813E-01    0.6672415034E-01    0.7455569004E-04
    0.2700000000E+04    0.7191800570E-03    0.6953947980E+00    0.1903769618E-01    0.7141314670E-01    0.6520589745E-04
    0.2900000000E+04    0.7560499863E-03    0.6954344751E+00    0.2012101562E-01    0.7589374326E-01    0.6328276489E-04
    0.3100000000E+04    0.7908936847E-03    0.6954690210E+00    0.2116062247E-01    0.8025261294E-01    0.6302361960E-04
    0.3300000000E+04    0.8240017713E-03    0.6954993689E+00    0.2216345641E-01    0.8451331592E-01    0.6313090708E-04
    0.3500000000E+04    0.8555028890E-03    0.6955262387E+00    0.2313225516E-01    0.8868394306E-01    0.6331271972E-04
    0.3700000000E+04    0.8854837777E-03    0.6955501946E+00    0.2406869306E-01    0.9276873695E-01    0.6350357121E-04
    0.3900000000E+04    0.9140181390E-03    0.6955716853E+00    0.2497413761E-01    0.9677090289E-01    0.6368922756E-04
    0.4100000000E+04    0.9411737196E-03    0.6955910718E+00    0.2584983428E-01    0.1006932939E+00    0.6386708305E-04
    0.4300000000E+04    0.9670141843E-03    0.6956086478E+00    0.2669695393E-01    0.1045385823E+00    0.6403712840E-04
    0.4500000000E+04    0.9915997303E-03    0.6956246550E+00    0.2751660696E-01    0.1083093074E+00    0.6419988265E-04
    0.4700000000E+04    0.1014987387E-02    0.6956392939E+00    0.2830984926E-01    0.1120078915E+00    0.6435592389E-04
    0.4900000000E+04    0.1037231229E-02    0.6956527322E+00    0.2907768602E-01    0.1156366492E+00    0.6450578928E-04
    0.1000000000E+04    0.6243006387E-04    0.6944156245E+00    0.1595877318E-02    0.5782968865E-02    0.3655078679E-02
    0.3000000000E+04    0.7737004445E-03    0.6954523253E+00    0.2064568017E-01    0.7808629740E-01    0.6306783888E-04
    0.5000000000E+04    0.1047940354E-02    0.6956590462E+00    0.2945237833E-01    0.1174255386E+00    0.6457855844E-04
    0.7000000000E+04    0.1213224893E-02    0.6957472622E+00    0.3582254796E-01    0.1500272453E+00    0.6580174869E-04
    0.9000000000E+04    0.1308753081E-02    0.6957960476E+00    0.4050382504E-01    0.1776543935E+00    0.6672954545E-04
    0.1100000000E+05    0.1358622454E-02    0.6958269464E+00    0.4397753652E-01    0.2014858298E+00    0.6747934530E-04
    0.1300000000E+05    0.1378169418E-02    0.6958482348E+00    0.4656627201E-01    0.2223436320E+00    0.6810973595E-04
    0.1500000000E+05    0.1377418817E-02    0.6958637695E+00    0.4849317428E-01    0.2408199046E+00    0.6865428434E-04
    0.1700000000E+05    0.1363066265E-02    0.6958755898E+00    0.4991674277E-01    0.2573529095E+00    0.6913405553E-04
    0.1900000000E+05    0.1339661809E-02    0.6958848743E+00    0.5095212421E-01    0.2722747004E+00    0.6956315612E-04
    0.2100000000E+05    0.1310339965E-02    0.6958923519E+00    0.5168460263E-01    0.2858419943E+00    0.6995150543E-04
    0.2300000000E+05    0.1277282600E-02    0.6958984970E+00    0.5217840961E-01    0.2982567956E+00    0.7030634922E-04
    0.2500000000E+05    0.1242019518E-02    0.6959036319E+00    0.5248263169E-01    0.3096805443E+00    0.7063314460E-04
    0.2700000000E+05    0.1205627735E-02    0.6959079828E+00    0.5263526436E-01    0.3202440504E+00    0.7093610611E-04
    0.2900000000E+05    0.1168866012E-02    0.6959117136E+00    0.5266605141E-01    0.3300546151E+00    0.7121855768E-04
    0.3100000000E+05    0.1132267123E-02    0.6959149454E+00    0.5259851047E-01    0.3392012315E+00    0.7148316798E-04
    0.3300000000E+05    0.1096202042E-02    0.6959177700E+00    0.5245140156E-01    0.3477584448E+00    0.7173211265E-04
    0.3500000000E+05    0.1060925130E-02    0.6959202580E+00    0.5223980780E-01    0.3557892631E+00    0.7196718915E-04
    0.3700000000E+05    0.1026606305E-02    0.6959224648E+00    0.5197594128E-01    0.3633473800E+00    0.7218989996E-04
    0.3900000000E+05    0.9933541554E-03    0.6959244340E+00    0.5166975131E-01    0.3704788950E+00    0.7240151400E-04
    0.4100000000E+05    0.9612326838E-03    0.6959262012E+00    0.5132938869E-01    0.3772236589E+00    0.7260311288E-04
    0.4300000000E+05    0.9302735239E-03    0.6959277947E+00    0.5096156361E-01    0.3836163385E+00    0.7279562610E-04
    0.4500000000E+05    0.9004849052E-03    0.6959292383E+00    0.5057182413E-01    0.3896872656E+00    0.7297985851E-04
    0.4700000000E+05    0.8718582647E-03    0.6959305514E+00    0.5016477481E-01    0.3954631219E+00    0.7315651163E-04
    0.4900000000E+05    0.8443731388E-03    0.6959317502E+00    0.4974424955E-01    0.4009674946E+00    0.7332620077E-04
    0.1000000000E+05    0.1338281139E-02    0.6958130602E+00    0.4236859615E-01    0.1899866426E+00    0.6712221682E-04
    0.3000000000E+05    0.1150519840E-02    0.6959133856E+00    0.5264330217E-01    0.3347059572E+00    0.7135294699E-04
    0.5000000000E+05    0.8310499088E-03    0.6959323111E+00    0.4952995534E-01    0.4036245131E+00    0.7340860594E-04
    0.7000000000E+05    0.6156452000E-03    0.6959399441E+00    0.4508124691E-01    0.4465506157E+00    0.7479467308E-04
    0.9000000000E+05    0.4721869858E-03    0.6959439173E+00    0.4092867751E-01    0.4765828710E+00    0.7584691760E-04
    0.1100000000E+06    0.3731966881E-03    0.6959462737E+00    0.3731568413E-01    0.4990308164E+00    0.7669770673E-04
    0.1300000000E+06    0.3023220309E-03    0.6959477850E+00    0.3421672551E-01    0.5165537107E+00    0.7741322876E-04
    0.1500000000E+06    0.2499158208E-03    0.6959488045E+00    0.3155612042E-01    0.5306631380E+00    0.7803145081E-04
    0.1700000000E+06    0.2100944746E-03    0.6959495157E+00    0.2925859767E-01    0.5422941561E+00    0.7857621870E-04
    0.1900000000E+06    0.1791304855E-03    0.6959500227E+00    0.2726023239E-01    0.5520614309E+00    0.7906351062E-04
    0.2100000000E+06    0.1545769324E-03    0.6959503889E+00    0.2550917011E-01    0.5603880259E+00    0.7950456694E-04
    0.2300000000E+06    0.1347760438E-03    0.6959506545E+00    0.2396388831E-01    0.5675758418E+00    0.7990760123E-04
    0.2500000000E+06    0.1185731653E-03    0.6959508466E+00    0.2259115396E-01    0.5738467100E+00    0.8027880127E-04
    0.2700000000E+06    0.1051443100E-03    0.6959509836E+00    0.2136424281E-01    0.5793676251E+00    0.8062294694E-04
    0.2900000000E+06    0.9388877014E-04    0.6959510787E+00    0.2026151555E-01    0.5842668969E+00    0.8094380879E-04
    0.3100000000E+06    0.8436026286E-04    0.6959511414E+00    0.1926531413E-01    0.5886448533E+00    0.8124441454E-04
    0.3300000000E+06    0.7622161454E-04    0.6959511787E+00    0.1836111504E-01    0.5925811446E+00    0.8152723288E-04
    0.3500000000E+06    0.6921422824E-04    0.6959511959E+00    0.1753688009E-01    0.5961398535E+00    0.8179430365E-04
    0.3700000000E+06    0.6313707369E-04    0.6959511971E+00    0.1678255679E-01    0.5993731498E+00    0.8204733209E-04
    0.3900000000E+06    0.5783195229E-04    0.6959511855E+00    0.1608969158E-01    0.6023239548E+00    0.8228775851E-04
    0.4100000000E+06    0.5317298361E-04    0.6959511635E+00    0.1545112820E-01    0.6050279159E+00    0.8251681065E-04
    0.4300000000E+06    0.4905898562E-04    0.6959511330E+00    0.1486077075E-01    0.6075148942E+00    0.8273554377E-04
    0.4500000000E+06    0.4540787273E-04    0.6959510957E+00    0.1431339620E-01    0.6098100981E+00    0.8294487158E-04
    0.4700000000E+06    0.4215248320E-04    0.6959510528E+00    0.1380450482E-01    0.6119349603E+00    0.8314559058E-04
    0.4900000000E+06    0.3923743351E-04    0.6959510052E+00    0.1333020006E-01    0.6139078221E+00    0.8333839939E-04
    0.1000000000E+06    0.4183593743E-03    0.6959452346E+00    0.3905400936E-01    0.4885513623E+00    0.7629243705E-04
    0.3000000000E+06    0.8893185361E-04    0.6959511136E+00    0.1975107185E-01    0.5865156452E+00    0.8109647802E-04
    0.5000000000E+06    0.3789284733E-04    0.6959509800E+00    0.1310494064E-01    0.6148422745E+00    0.8343203290E-04
    0.7000000000E+06    0.2096741856E-04    0.6959503746E+00    0.9786663290E-02    0.6284328442E+00    0.8500703335E-04
    0.9000000000E+06    0.1332105192E-04    0.6959497314E+00    0.7801801847E-02    0.6364204045E+00    0.8620277768E-04
    0.1100000000E+07    0.9220414496E-05    0.6959491249E+00    0.6482430385E-02    0.6416782524E+00    0.8716962421E-04
    0.1300000000E+07    0.6765945278E-05    0.6959485670E+00    0.5542469739E-02    0.6454012475E+00    0.8798276799E-04
    0.1500000000E+07    0.5179803372E-05    0.6959480559E+00    0.4839114775E-02    0.6481756065E+00    0.8868534629E-04
    0.1700000000E+07    0.4095129936E-05    0.6959475863E+00    0.4293174111E-02    0.6503227379E+00    0.8930445365E-04
    0.1900000000E+07    0.3320382775E-05    0.6959471531E+00    0.3857217797E-02    0.6520336068E+00    0.8985824584E-04
    0.2100000000E+07    0.2747556648E-05    0.6959467514E+00    0.3501113967E-02    0.6534288154E+00    0.9035949549E-04
    0.2300000000E+07    0.2311960056E-05    0.6959463772E+00    0.3204806218E-02    0.6545882752E+00    0.9081753604E-04
    0.2500000000E+07    0.1972910933E-05    0.6959460271E+00    0.2954429579E-02    0.6555670317E+00    0.9123939907E-04
    0.2700000000E+07    0.1703777609E-05    0.6959456982E+00    0.2740093907E-02    0.6564042369E+00    0.9163051636E-04
    0.2900000000E+07    0.1486528768E-05    0.6959453881E+00    0.2554555582E-02    0.6571284986E+00    0.9199517275E-04
    0.3100000000E+07    0.1308600761E-05    0.6959450948E+00    0.2392388292E-02    0.6577612052E+00    0.9233680895E-04
    0.3300000000E+07    0.1161020461E-05    0.6959448166E+00    0.2249447091E-02    0.6583186677E+00    0.9265823044E-04
    0.3500000000E+07    0.1037239597E-05    0.6959445520E+00    0.2122511480E-02    0.6588135415E+00    0.9296175535E-04
    0.3700000000E+07    0.9323881285E-06    0.6959442996E+00    0.2009041453E-02    0.6592557959E+00    0.9324932155E-04
    0.3900000000E+07    0.8427828602E-06    0.6959440584E+00    0.1907006885E-02    0.6596533909E+00    0.9352256588E-04
    0.4100000000E+07    0.7655961907E-06    0.6959438275E+00    0.1814765786E-02    0.6600127585E+00    0.9378288362E-04
    0.4300000000E+07    0.6986279873E-06    0.6959436059E+00    0.1730975832E-02    0.6603391531E+00    0.9403147398E-04
    0.4500000000E+07    0.6401454445E-06    0.6959433930E+00    0.1654529026E-02    0.6606369087E+00    0.9426937537E-04
    0.4700000000E+07    0.5887687076E-06    0.6959431880E+00    0.1584502741E-02    0.6609096319E+00    0.9449749298E-04
    0.4900000000E+07    0.5433878958E-06    0.6959429904E+00    0.1520122528E-02    0.6611603485E+00    0.9471662078E-04
    0.1000000000E+07    0.1098728481E-04    0.6959494223E+00    0.7081695264E-02    0.6392949316E+00    0.8670906814E-04
    0.3000000000E+07    0.1393278396E-05    0.6959452395E+00    0.2470834790E-02    0.6574551772E+00    0.9216868011E-04
    0.5000000000E+07    0.5226575780E-06    0.6959428942E+00    0.1489841032E-02    0.6612782693E+00    0.9482303559E-04
    0.7000000000E+07    0.2732233508E-06    0.6959412556E+00    0.1064496065E-02    0.6629345602E+00    0.9661303223E-04
    0.9000000000E+07    0.1682340435E-06    0.6959399898E+00    0.8272503990E-03    0.6638587148E+00    0.9797200488E-04
    0.1100000000E+08    0.1142421128E-06    0.6959389553E+00    0.6760503913E-03    0.6644480575E+00    0.9907083425E-04
    0.1300000000E+08    0.8280728070E-07    0.6959380788E+00    0.5713277646E-03    0.6648565214E+00    0.9999497937E-04
    0.1500000000E+08    0.6288645488E-07    0.6959373172E+00    0.4945370047E-03    0.6651562430E+00    0.1007934659E-03
    0.1700000000E+08    0.4945896570E-07    0.6959366432E+00    0.4358348420E-03    0.6653855137E+00    0.1014970869E-03
    0.1900000000E+08    0.3997315416E-07    0.6959360380E+00    0.3895136751E-03    0.6655665416E+00    0.1021264765E-03
    0.2100000000E+08    0.3301962429E-07    0.6959354885E+00    0.3520368566E-03    0.6657130919E+00    0.1026961509E-03
    0.2300000000E+08    0.2776787066E-07    0.6959349851E+00    0.3210965659E-03    0.6658341496E+00    0.1032167178E-03
    0.2500000000E+08    0.2370248269E-07    0.6959345203E+00    0.2951229976E-03    0.6659358288E+00    0.1036961685E-03
    0.2700000000E+08    0.2048972162E-07    0.6959340884E+00    0.2730113272E-03    0.6660224337E+00    0.1041406763E-03
