  Pressure (Pa) 23mC5-500 (mol/kg) 24mC5-500 (mol/kg) 2mC6-500 (mol/kg) 3mC6-500 (mol/kg) C7-500 (mol/kg)
    0.1000000000E+01    0.6406261771E-06    0.1266253905E+00    0.1434462958E-04    0.2204814480E-05    0.4220391137E-02
    0.3000000000E+01    0.1318817168E-05    0.2784902965E+00    0.2820018601E-04    0.5701685987E-05    0.4291959141E-02
    0.5000000000E+01    0.1656442646E-05    0.3663710590E+00    0.3449395427E-04    0.8932183596E-05    0.4333132663E-02
    0.7000000000E+01    0.1850694602E-05    0.4236692408E+00    0.3801819613E-04    0.1203302182E-04    0.4360329019E-02
    0.9000000000E+01    0.1975122908E-05    0.4639832827E+00    0.4040103341E-04    0.1505069829E-04    0.4379741054E-02
    0.1100000000E+02    0.2062317384E-05    0.4938901858E+00    0.4229247660E-04    0.1800858411E-04    0.4394344922E-02
    0.1300000000E+02    0.2128441835E-05    0.5169592599E+00    0.4397882432E-04    0.2092063383E-04    0.4405759651E-02
    0.1500000000E+02    0.2182177976E-05    0.5352950335E+00    0.4559392196E-04    0.2379606522E-04    0.4414944595E-02
    0.1700000000E+02    0.2228471124E-05    0.5502187451E+00    0.4720217920E-04    0.2664139037E-04    0.4422505659E-02
    0.1900000000E+02    0.2270266226E-05    0.5626017431E+00    0.4883447824E-04    0.2946143687E-04    0.4428845019E-02
    0.2100000000E+02    0.2309377452E-05    0.5730419545E+00    0.5050485886E-04    0.3225991582E-04    0.4434240512E-02
    0.2300000000E+02    0.2346951393E-05    0.5819633309E+00    0.5221870437E-04    0.3503976222E-04    0.4438890481E-02
    0.2500000000E+02    0.2383726403E-05    0.5896748349E+00    0.5397692587E-04    0.3780335082E-04    0.4442940475E-02
    0.2700000000E+02    0.2420183895E-05    0.5964069499E+00    0.5577816608E-04    0.4055263952E-04    0.4446499823E-02
    0.2900000000E+02    0.2456639706E-05    0.6023351112E+00    0.5761998294E-04    0.4328926808E-04    0.4449652324E-02
    0.3100000000E+02    0.2493300893E-05    0.6075952140E+00    0.5949949079E-04    0.4601462831E-04    0.4452463339E-02
    0.3300000000E+02    0.2530301931E-05    0.6122941595E+00    0.6141370629E-04    0.4872991521E-04    0.4454984638E-02
    0.3500000000E+02    0.2567728276E-05    0.6165171952E+00    0.6335973045E-04    0.5143616511E-04    0.4457257791E-02
    0.3700000000E+02    0.2605631985E-05    0.6203331341E+00    0.6533483925E-04    0.5413428471E-04    0.4459316583E-02
    0.3900000000E+02    0.2644042233E-05    0.6237981326E+00    0.6733652262E-04    0.5682507345E-04    0.4461188772E-02
    0.4100000000E+02    0.2682972489E-05    0.6269584724E+00    0.6936249511E-04    0.5950924115E-04    0.4462897393E-02
    0.4300000000E+02    0.2722425462E-05    0.6298526401E+00    0.7141069092E-04    0.6218742200E-04    0.4464461726E-02
    0.4500000000E+02    0.2762396549E-05    0.6325129015E+00    0.7347925109E-04    0.6486018580E-04    0.4465898047E-02
    0.4700000000E+02    0.2802876252E-05    0.6349665100E+00    0.7556650710E-04    0.6752804714E-04    0.4467220192E-02
    0.4900000000E+02    0.2843851875E-05    0.6372366432E+00    0.7767096329E-04    0.7019147291E-04    0.4468440007E-02
    0.1000000000E+02    0.2022122135E-05    0.4799683706E+00    0.4138519299E-04    0.1653609672E-04    0.4387522032E-02
    0.3000000000E+02    0.2474934845E-05    0.6050414075E+00    0.5855521237E-04    0.4465327794E-04    0.4451097009E-02
    0.5000000000E+02    0.2864521118E-05    0.6383092194E+00    0.7872921708E-04    0.7152165689E-04    0.4469014785E-02
    0.7000000000E+02    0.3300090411E-05    0.6537131608E+00    0.1005387740E-03    0.9797875243E-04    0.4477004597E-02
    0.9000000000E+02    0.3768479920E-05    0.6625959075E+00    0.1231703737E-03    0.1243156130E-03    0.4481002822E-02
    0.1100000000E+03    0.4260150662E-05    0.6683748625E+00    0.1463279409E-03    0.1506822941E-03    0.4482921500E-02
    0.1300000000E+03    0.4769678661E-05    0.6724347085E+00    0.1698935590E-03    0.1771716056E-03    0.4483582878E-02
    0.1500000000E+03    0.5293943824E-05    0.6754431150E+00    0.1938190759E-03    0.2038477831E-03    0.4483405433E-02
    0.1700000000E+03    0.5831102063E-05    0.6777616445E+00    0.2180869627E-03    0.2307589392E-03    0.4482627213E-02
    0.1900000000E+03    0.6380047213E-05    0.6796031373E+00    0.2426943338E-03    0.2579433207E-03    0.4481394761E-02
    0.2100000000E+03    0.6940120695E-05    0.6811010485E+00    0.2676457741E-03    0.2854327874E-03    0.4479803747E-02
    0.2300000000E+03    0.7510947670E-05    0.6823433020E+00    0.2929498804E-03    0.3132548961E-03    0.4477919510E-02
    0.2500000000E+03    0.8092340503E-05    0.6833901811E+00    0.3186175038E-03    0.3414342234E-03    0.4475788274E-02
    0.2700000000E+03    0.8684239664E-05    0.6842843992E+00    0.3446608217E-03    0.3699932462E-03    0.4473443670E-02
    0.2900000000E+03    0.9286676350E-05    0.6850570654E+00    0.3710928370E-03    0.3989529509E-03    0.4470910711E-02
    0.3100000000E+03    0.9899748168E-05    0.6857313748E+00    0.3979271058E-03    0.4283332695E-03    0.4468208330E-02
    0.3300000000E+03    0.1052360295E-04    0.6863249744E+00    0.4251775927E-03    0.4581534011E-03    0.4465351052E-02
    0.3500000000E+03    0.1115842775E-04    0.6868515284E+00    0.4528585973E-03    0.4884320556E-03    0.4462350122E-02
    0.3700000000E+03    0.1180444130E-04    0.6873217816E+00    0.4809847234E-03    0.5191876428E-03    0.4459214307E-02
    0.3900000000E+03    0.1246188873E-04    0.6877442997E+00    0.5095708723E-03    0.5504384234E-03    0.4455950450E-02
    0.4100000000E+03    0.1313103788E-04    0.6881259949E+00    0.5386322519E-03    0.5822026310E-03    0.4452563887E-02
    0.4300000000E+03    0.1381217674E-04    0.6884725065E+00    0.5681843940E-03    0.6144985747E-03    0.4449058747E-02
    0.4500000000E+03    0.1450561161E-04    0.6887884809E+00    0.5982431773E-03    0.6473447249E-03    0.4445438180E-02
    0.4700000000E+03    0.1521166598E-04    0.6890777811E+00    0.6288248536E-03    0.6807597895E-03    0.4441704531E-02
    0.4900000000E+03    0.1593067966E-04    0.6893436451E+00    0.6599460770E-03    0.7147627798E-03    0.4437859474E-02
    0.1000000000E+03    0.4011815095E-05    0.6657619704E+00    0.1346931543E-03    0.1374885403E-03    0.4482156948E-02
    0.3000000000E+03    0.9591874657E-05    0.6854053031E+00    0.3844588254E-03    0.4135893195E-03    0.4469579703E-02
    0.5000000000E+03    0.1629515679E-04    0.6894686599E+00    0.6757143405E-03    0.7319907861E-03    0.4435895534E-02
    0.7000000000E+03    0.2436174061E-04    0.6912225636E+00    0.1023902486E-02    0.1112464987E-02    0.4390799547E-02
    0.9000000000E+03    0.3424981495E-04    0.6921994934E+00    0.1449840590E-02    0.1578235487E-02    0.4333564286E-02
    0.1100000000E+04    0.4663594315E-04    0.6928217572E+00    0.1983125611E-02    0.2161969967E-02    0.4261053100E-02
    0.1300000000E+04    0.6253871846E-04    0.6932526081E+00    0.2667975742E-02    0.2912430546E-02    0.4167937781E-02
    0.1500000000E+04    0.8354193014E-04    0.6935684586E+00    0.3573052470E-02    0.3905392437E-02    0.4045767657E-02
    0.1700000000E+04    0.1121871750E-03    0.6938098397E+00    0.4808606293E-02    0.5262693892E-02    0.3881098286E-02
    0.1900000000E+04    0.1526451238E-03    0.6940002470E+00    0.6555845881E-02    0.7184977876E-02    0.3652386082E-02
    0.2100000000E+04    0.2116971382E-03    0.6941542381E+00    0.9110236222E-02    0.1000037851E-01    0.3326040583E-02
    0.2300000000E+04    0.2992255798E-03    0.6942813127E+00    0.1290476656E-01    0.1419254347E-01    0.2857177201E-02
    0.2500000000E+04    0.4238099466E-03    0.6943879334E+00    0.1832322282E-01    0.2019916071E-01    0.2219590113E-02
    0.2700000000E+04    0.5751066758E-03    0.6944786489E+00    0.2493813723E-01    0.2757215522E-01    0.1500260692E-02
    0.2900000000E+04    0.7128740473E-03    0.6945567536E+00    0.3101852845E-01    0.3441494998E-01    0.9270373564E-03
    0.3100000000E+04    0.8089688684E-03    0.6946246920E+00    0.3533218127E-01    0.3935251555E-01    0.6188580318E-03
    0.3300000000E+04    0.8721237364E-03    0.6946843158E+00    0.3823904545E-01    0.4276138176E-01    0.4936422318E-03
    0.3500000000E+04    0.9188339946E-03    0.6947370534E+00    0.4044575963E-01    0.4541270127E-01    0.4495820014E-03
    0.3700000000E+04    0.9583186981E-03    0.6947840243E+00    0.4234986964E-01    0.4774338991E-01    0.4353465166E-03
    0.3900000000E+04    0.9943611158E-03    0.6948261181E+00    0.4411491503E-01    0.4993370049E-01    0.4313454030E-03
    0.4100000000E+04    0.1028380249E-02    0.6948640508E+00    0.4580208950E-01    0.5205097108E-01    0.4307678067E-03
    0.4300000000E+04    0.1060910777E-02    0.6948984049E+00    0.4743415628E-01    0.5411996323E-01    0.4313118058E-03
    0.4500000000E+04    0.1092170981E-02    0.6949296593E+00    0.4902009404E-01    0.5615012144E-01    0.4322048172E-03
    0.4700000000E+04    0.1122266563E-02    0.6949582114E+00    0.5056397755E-01    0.5814543774E-01    0.4331882999E-03
    0.4900000000E+04    0.1151262393E-02    0.6949843934E+00    0.5206811532E-01    0.6010795022E-01    0.4341766190E-03
    0.1000000000E+04    0.4007698544E-04    0.6925417064E+00    0.1700733084E-02    0.1852786307E-02    0.4299493002E-02
    0.3000000000E+04    0.7661608349E-03    0.6945918663E+00    0.3339887131E-01    0.3712638586E-01    0.7423722149E-03
    0.5000000000E+04    0.1165363604E-02    0.6949966849E+00    0.5280580726E-01    0.6107733121E-01    0.4346630696E-03
    0.7000000000E+04    0.1399421093E-02    0.6951675222E+00    0.6579021364E-01    0.7898266729E-01    0.4429175668E-03
    0.9000000000E+04    0.1561979565E-02    0.6952608998E+00    0.7604532917E-01    0.9453620710E-01    0.4491778963E-03
    0.1100000000E+05    0.1674218699E-02    0.6953193269E+00    0.8426958603E-01    0.1082615197E+00    0.4542339650E-03
    0.1300000000E+05    0.1750322916E-02    0.6953590777E+00    0.9094652900E-01    0.1205315541E+00    0.4584830696E-03
    0.1500000000E+05    0.1800056747E-02    0.6953877103E+00    0.9642093927E-01    0.1316198650E+00    0.4621524938E-03
    0.1700000000E+05    0.1830298598E-02    0.6954092060E+00    0.1009448441E+00    0.1417321148E+00    0.4653847238E-03
    0.1900000000E+05    0.1845989322E-02    0.6954258582E+00    0.1047064444E+00    0.1510262383E+00    0.4682751070E-03
    0.2100000000E+05    0.1850737710E-02    0.6954390793E+00    0.1078489066E+00    0.1596257756E+00    0.4708906506E-03
    0.2300000000E+05    0.1847217662E-02    0.6954497858E+00    0.1104829195E+00    0.1676289369E+00    0.4732802794E-03
    0.2500000000E+05    0.1837434997E-02    0.6954585972E+00    0.1126952966E+00    0.1751149200E+00    0.4754808277E-03
    0.2700000000E+05    0.1822910480E-02    0.6954659476E+00    0.1145549978E+00    0.1821484087E+00    0.4775207343E-03
    0.2900000000E+05    0.1804807729E-02    0.6954721492E+00    0.1161174284E+00    0.1887828386E+00    0.4794224228E-03
    0.3100000000E+05    0.1784024089E-02    0.6954774327E+00    0.1174275615E+00    0.1950628088E+00    0.4812038924E-03
    0.3300000000E+05    0.1761256163E-02    0.6954819717E+00    0.1185222418E+00    0.2010258910E+00    0.4828798145E-03
    0.3500000000E+05    0.1737047698E-02    0.6954858995E+00    0.1194319092E+00    0.2067040059E+00    0.4844623084E-03
    0.3700000000E+05    0.1711825012E-02    0.6954893199E+00    0.1201819057E+00    0.2121244833E+00    0.4859615030E-03
    0.3900000000E+05    0.1685923478E-02    0.6954923150E+00    0.1207934773E+00    0.2173108893E+00    0.4873859517E-03
    0.4100000000E+05    0.1659607532E-02    0.6954949504E+00    0.1212845510E+00    0.2222836768E+00    0.4887429442E-03
    0.4300000000E+05    0.1633085927E-02    0.6954972793E+00    0.1216703431E+00    0.2270607047E+00    0.4900387450E-03
    0.4500000000E+05    0.1606523449E-02    0.6954993452E+00    0.1219638399E+00    0.2316576532E+00    0.4912787775E-03
    0.4700000000E+05    0.1580049998E-02    0.6955011838E+00    0.1221761804E+00    0.2360883617E+00    0.4924677688E-03
    0.4900000000E+05    0.1553767666E-02    0.6955028250E+00    0.1223169645E+00    0.2403651031E+00    0.4936098645E-03
    0.1000000000E+05    0.1623375390E-02    0.6952931583E+00    0.8037714038E-01    0.1016012774E+00    0.4518260803E-03
    0.3000000000E+05    0.1794703410E-02    0.6954748938E+00    0.1168015614E+00    0.1919646361E+00    0.4803272003E-03
    0.5000000000E+05    0.1540723864E-02    0.6955035795E+00    0.1223631640E+00    0.2424491998E+00    0.4941644860E-03
    0.7000000000E+05    0.1301553039E-02    0.6955126675E+00    0.1210529885E+00    0.2781679361E+00    0.5034926201E-03
    0.9000000000E+05    0.1109026223E-02    0.6955159242E+00    0.1176444067E+00    0.3060249611E+00    0.5105734498E-03
    0.1100000000E+06    0.9563160857E-03    0.6955168456E+00    0.1135840310E+00    0.3289100233E+00    0.5162982914E-03
    0.1300000000E+06    0.8340447324E-03    0.6955166797E+00    0.1094044281E+00    0.3483233499E+00    0.5211127438E-03
    0.1500000000E+06    0.7347551905E-03    0.6955159639E+00    0.1053200066E+00    0.3651537076E+00    0.5252723807E-03
    0.1700000000E+06    0.6529797715E-03    0.6955149589E+00    0.1014176579E+00    0.3799765277E+00    0.5289377049E-03
    0.1900000000E+06    0.5847490480E-03    0.6955138018E+00    0.9772854064E-01    0.3931887714E+00    0.5322162566E-03
    0.2100000000E+06    0.5271551768E-03    0.6955125691E+00    0.9425826933E-01    0.4050775411E+00    0.5351836845E-03
    0.2300000000E+06    0.4780368293E-03    0.6955113049E+00    0.9100062821E-01    0.4158581839E+00    0.5378952647E-03
    0.2500000000E+06    0.4357622372E-03    0.6955100354E+00    0.8794413930E-01    0.4256969442E+00    0.5403926384E-03
    0.2700000000E+06    0.3990806099E-03    0.6955087763E+00    0.8507531232E-01    0.4347251807E+00    0.5427079719E-03
    0.2900000000E+06    0.3670195064E-03    0.6955075372E+00    0.8238027293E-01    0.4430486951E+00    0.5448666382E-03
    0.3100000000E+06    0.3388129847E-03    0.6955063235E+00    0.7984556775E-01    0.4507540807E+00    0.5468890112E-03
    0.3300000000E+06    0.3138505364E-03    0.6955051384E+00    0.7745854112E-01    0.4579131796E+00    0.5487917031E-03
    0.3500000000E+06    0.2916402416E-03    0.6955039833E+00    0.7520748576E-01    0.4645862951E+00    0.5505884397E-03
    0.3700000000E+06    0.2717817963E-03    0.6955028588E+00    0.7308167463E-01    0.4708245601E+00    0.5522906953E-03
    0.3900000000E+06    0.2539464933E-03    0.6955017648E+00    0.7107133150E-01    0.4766717185E+00    0.5539081615E-03
    0.4100000000E+06    0.2378621737E-03    0.6955007007E+00    0.6916757199E-01    0.4821654871E+00    0.5554490996E-03
    0.4300000000E+06    0.2233017792E-03    0.6954996657E+00    0.6736233224E-01    0.4873386141E+00    0.5569206097E-03
    0.4500000000E+06    0.2100745475E-03    0.6954986588E+00    0.6564829471E-01    0.4922197125E+00    0.5583288400E-03
    0.4700000000E+06    0.1980191697E-03    0.6954976791E+00    0.6401881603E-01    0.4968339236E+00    0.5596791497E-03
    0.4900000000E+06    0.1869984233E-03    0.6954967255E+00    0.6246785945E-01    0.5012034522E+00    0.5609762396E-03
    0.1000000000E+06    0.1028313471E-02    0.6955165734E+00    0.1156512194E+00    0.3179754718E+00    0.5135713222E-03
    0.3000000000E+06    0.3524757339E-03    0.6955069269E+00    0.8109369077E-01    0.4469738607E+00    0.5458937466E-03
    0.5000000000E+06    0.1818386770E-03    0.6954962582E+00    0.6172009095E-01    0.5033027052E+00    0.5616061419E-03
    0.7000000000E+06    0.1118221700E-03    0.6954880353E+00    0.4978904704E-01    0.5362332150E+00    0.5722015003E-03
    0.9000000000E+06    0.7599080546E-04    0.6954814268E+00    0.4171358007E-01    0.5580330373E+00    0.5802453213E-03
    0.1100000000E+07    0.5511638812E-04    0.6954759114E+00    0.3588480652E-01    0.5735779245E+00    0.5867492176E-03
    0.1300000000E+07    0.4185950950E-04    0.6954711782E+00    0.3147955984E-01    0.5852374824E+00    0.5922190883E-03
    0.1500000000E+07    0.3290226307E-04    0.6954670310E+00    0.2803319143E-01    0.5943121779E+00    0.5969451477E-03
    0.1700000000E+07    0.2656021317E-04    0.6954633387E+00    0.2526350313E-01    0.6015780659E+00    0.6011096768E-03
    0.1900000000E+07    0.2190213998E-04    0.6954600098E+00    0.2298916421E-01    0.6075278841E+00    0.6048348184E-03
    0.2100000000E+07    0.1837835663E-04    0.6954569781E+00    0.2108832438E-01    0.6124898991E+00    0.6082064998E-03
    0.2300000000E+07    0.1564702708E-04    0.6954541937E+00    0.1947606653E-01    0.6166914000E+00    0.6112875104E-03
    0.2500000000E+07    0.1348633660E-04    0.6954516186E+00    0.1809139646E-01    0.6202948227E+00    0.6141251538E-03
    0.2700000000E+07    0.1174716461E-04    0.6954492229E+00    0.1688937186E-01    0.6234193746E+00    0.6167559712E-03
    0.2900000000E+07    0.1032621277E-04    0.6954469825E+00    0.1583614769E-01    0.6261545348E+00    0.6192087877E-03
    0.3100000000E+07    0.9150062475E-05    0.6954448782E+00    0.1490575033E-01    0.6285687859E+00    0.6215067495E-03
    0.3300000000E+07    0.8165355957E-05    0.6954428941E+00    0.1407791526E-01    0.6307154361E+00    0.6236687296E-03
    0.3500000000E+07    0.7332550319E-05    0.6954410167E+00    0.1333660044E-01    0.6326366039E+00    0.6257103222E-03
    0.3700000000E+07    0.6621830813E-05    0.6954392349E+00    0.1266894126E-01    0.6343660096E+00    0.6276445637E-03
    0.3900000000E+07    0.6010369724E-05    0.6954375392E+00    0.1206450116E-01    0.6359309691E+00    0.6294824650E-03
    0.4100000000E+07    0.5480446826E-05    0.6954359215E+00    0.1151472483E-01    0.6373538465E+00    0.6312334123E-03
    0.4300000000E+07    0.5018135001E-05    0.6954343747E+00    0.1101253270E-01    0.6386531273E+00    0.6329054727E-03
    0.4500000000E+07    0.4612364626E-05    0.6954328928E+00    0.1055201609E-01    0.6398442246E+00    0.6345056315E-03
    0.4700000000E+07    0.4254246840E-05    0.6954314703E+00    0.1012820479E-01    0.6409400919E+00    0.6360399781E-03
    0.4900000000E+07    0.3936576869E-05    0.6954301026E+00    0.9736887990E-02    0.6419516949E+00    0.6375138531E-03
    0.1000000000E+07    0.6428432035E-04    0.6954785554E+00    0.3858135084E-01    0.5664042178E+00    0.5836511082E-03
    0.3000000000E+07    0.9711256116E-05    0.6954459145E+00    0.1535697597E-01    0.6273981404E+00    0.6203758590E-03
    0.5000000000E+07    0.3791025915E-05    0.6954294379E+00    0.9552271782E-02    0.6424288727E+00    0.6382296078E-03
    0.7000000000E+07    0.2015344786E-05    0.6954182200E+00    0.6920570639E-02    0.6492261569E+00    0.6502691041E-03
    0.9000000000E+07    0.1251670816E-05    0.6954096643E+00    0.5420613954E-02    0.6530970504E+00    0.6594093273E-03
    0.1100000000E+08    0.8540078925E-06    0.6954027276E+00    0.4452312065E-02    0.6555951601E+00    0.6667997377E-03
    0.1300000000E+08    0.6206080885E-06    0.6953968830E+00    0.3775907843E-02    0.6573400724E+00    0.6730151804E-03
    0.1500000000E+08    0.4718742345E-06    0.6953918263E+00    0.3276886312E-02    0.6586274335E+00    0.6783854246E-03
    0.1700000000E+08    0.3712208197E-06    0.6953873659E+00    0.2893667324E-02    0.6596161378E+00    0.6831175962E-03
    0.1900000000E+08    0.2999056020E-06    0.6953833729E+00    0.2590198348E-02    0.6603991802E+00    0.6873504872E-03
    0.2100000000E+08    0.2475136953E-06    0.6953797562E+00    0.2343973950E-02    0.6610345997E+00    0.6911817369E-03
    0.2300000000E+08    0.2078788733E-06    0.6953764495E+00    0.2140221842E-02    0.6615604883E+00    0.6946826941E-03
    0.2500000000E+08    0.1771598259E-06    0.6953734025E+00    0.1968845636E-02    0.6620028789E+00    0.6979071102E-03
    0.2700000000E+08    0.1528615001E-06    0.6953705764E+00    0.1822711299E-02    0.6623801659E+00    0.7008965075E-03
