  Pressure (Pa) 23mC5-500 (mol/kg) 24mC5-500 (mol/kg) 2mC6-500 (mol/kg) 3mC6-500 (mol/kg) C7-500 (mol/kg)
    0.1000000000E+01    0.4953953769E-06    0.2487107482E+00    0.6619248188E-05    0.3591679597E-05    0.4165862025E-02
    0.3000000000E+01    0.7938333287E-06    0.4351373782E+00    0.1024442129E-04    0.9035060374E-05    0.4184325227E-02
    0.5000000000E+01    0.9025778883E-06    0.5118758569E+00    0.1185923076E-04    0.1400649457E-04    0.4189751542E-02
    0.7000000000E+01    0.9693667182E-06    0.5537272706E+00    0.1323162332E-04    0.1875189167E-04    0.4192310644E-02
    0.9000000000E+01    0.1024060621E-05    0.5800760906E+00    0.1461088075E-04    0.2335347230E-04    0.4193702950E-02
    0.1100000000E+02    0.1075240093E-05    0.5981899998E+00    0.1603511068E-04    0.2785218654E-04    0.4194497673E-02
    0.1300000000E+02    0.1125810799E-05    0.6114077995E+00    0.1750298016E-04    0.3227232993E-04    0.4194943653E-02
    0.1500000000E+02    0.1176817197E-05    0.6214782455E+00    0.1900630033E-04    0.3662987291E-04    0.4195167847E-02
    0.1700000000E+02    0.1228615032E-05    0.6294058856E+00    0.2053706037E-04    0.4093605356E-04    0.4195242078E-02
    0.1900000000E+02    0.1281288238E-05    0.6358088767E+00    0.2208876244E-04    0.4519917536E-04    0.4195210127E-02
    0.2100000000E+02    0.1334812130E-05    0.6410884655E+00    0.2365640928E-04    0.4942560324E-04    0.4195100242E-02
    0.2300000000E+02    0.1389121316E-05    0.6455164574E+00    0.2523621849E-04    0.5362035837E-04    0.4194931482E-02
    0.2500000000E+02    0.1444138839E-05    0.6492835176E+00    0.2682533421E-04    0.5778749448E-04    0.4194717176E-02
    0.2700000000E+02    0.1499788640E-05    0.6525273464E+00    0.2842159410E-04    0.6193034701E-04    0.4194466935E-02
    0.2900000000E+02    0.1556000567E-05    0.6553498765E+00    0.3002335320E-04    0.6605170434E-04    0.4194187858E-02
    0.3100000000E+02    0.1612712012E-05    0.6578281776E+00    0.3162935392E-04    0.7015392929E-04    0.4193885306E-02
    0.3300000000E+02    0.1669868026E-05    0.6600216019E+00    0.3323863049E-04    0.7423904745E-04    0.4193563403E-02
    0.3500000000E+02    0.1727420803E-05    0.6619765984E+00    0.3485043863E-04    0.7830881298E-04    0.4193225369E-02
    0.3700000000E+02    0.1785328916E-05    0.6637300385E+00    0.3646420346E-04    0.8236475857E-04    0.4192873758E-02
    0.3900000000E+02    0.1843556525E-05    0.6653115640E+00    0.3807948064E-04    0.8640823397E-04    0.4192510619E-02
    0.4100000000E+02    0.1902072620E-05    0.6667452757E+00    0.3969592712E-04    0.9044043621E-04    0.4192137613E-02
    0.4300000000E+02    0.1960850347E-05    0.6680509709E+00    0.4131327903E-04    0.9446243361E-04    0.4191756102E-02
    0.4500000000E+02    0.2019866418E-05    0.6692450623E+00    0.4293133463E-04    0.9847518506E-04    0.4191367213E-02
    0.4700000000E+02    0.2079100599E-05    0.6703412722E+00    0.4454994134E-04    0.1024795557E-03    0.4190971883E-02
    0.4900000000E+02    0.2138535278E-05    0.6713511618E+00    0.4616898555E-04    0.1064763297E-03    0.4190570901E-02
    0.1000000000E+02    0.1049841035E-05    0.5899006743E+00    0.1531713262E-04    0.2561391183E-04    0.4194155327E-02
    0.3000000000E+02    0.1584297459E-05    0.6566279962E+00    0.3082588963E-04    0.6810507473E-04    0.4194039234E-02
    0.5000000000E+02    0.2168322924E-05    0.6718268610E+00    0.4697864489E-04    0.1084720937E-03    0.4190368502E-02
    0.7000000000E+02    0.2771772198E-05    0.6785580706E+00    0.6318548687E-04    0.1481331243E-03    0.4186141367E-02
    0.9000000000E+02    0.3385927160E-05    0.6823561407E+00    0.7942942066E-04    0.1875753057E-03    0.4181726999E-02
    0.1100000000E+03    0.4008371767E-05    0.6847952393E+00    0.9574497800E-04    0.2270483121E-03    0.4177221239E-02
    0.1300000000E+03    0.4638534634E-05    0.6864940333E+00    0.1121676324E-03    0.2667060422E-03    0.4172655949E-02
    0.1500000000E+03    0.5276483616E-05    0.6877451415E+00    0.1287278227E-03    0.3066548322E-03    0.4168042313E-02
    0.1700000000E+03    0.5922530237E-05    0.6887049204E+00    0.1454512402E-03    0.3469743005E-03    0.4163383542E-02
    0.1900000000E+03    0.6577082161E-05    0.6894645090E+00    0.1623599056E-03    0.3877277891E-03    0.4158679420E-02
    0.2100000000E+03    0.7240583801E-05    0.6900806209E+00    0.1794731243E-03    0.4289681517E-03    0.4153928165E-02
    0.2300000000E+03    0.7913491670E-05    0.6905903960E+00    0.1968082147E-03    0.4707412144E-03    0.4149127258E-02
    0.2500000000E+03    0.8596264451E-05    0.6910191742E+00    0.2143810440E-03    0.5130879693E-03    0.4144273830E-02
    0.2700000000E+03    0.9289359580E-05    0.6913848366E+00    0.2322064242E-03    0.5560460326E-03    0.4139364849E-02
    0.2900000000E+03    0.9993232787E-05    0.6917003620E+00    0.2502984070E-03    0.5996506536E-03    0.4134397219E-02
    0.3100000000E+03    0.1070833895E-04    0.6919753990E+00    0.2686705088E-03    0.6439354373E-03    0.4129367817E-02
    0.3300000000E+03    0.1143513351E-04    0.6922172699E+00    0.2873358831E-03    0.6889328775E-03    0.4124273515E-02
    0.3500000000E+03    0.1217407409E-04    0.6924316315E+00    0.3063074583E-03    0.7346747623E-03    0.4119111184E-02
    0.3700000000E+03    0.1292562218E-04    0.6926229238E+00    0.3255980472E-03    0.7811924902E-03    0.4113877691E-02
    0.3900000000E+03    0.1369024467E-04    0.6927946799E+00    0.3452204380E-03    0.8285173221E-03    0.4108569896E-02
    0.4100000000E+03    0.1446841546E-04    0.6929497465E+00    0.3651874694E-03    0.8766805889E-03    0.4103184641E-02
    0.4300000000E+03    0.1526061688E-04    0.6930904429E+00    0.3855120956E-03    0.9257138645E-03    0.4097718743E-02
    0.4500000000E+03    0.1606734111E-04    0.6932186778E+00    0.4062074433E-03    0.9756491147E-03    0.4092168985E-02
    0.4700000000E+03    0.1688909149E-04    0.6933360362E+00    0.4272868612E-03    0.1026518828E-02    0.4086532108E-02
    0.4900000000E+03    0.1772638384E-04    0.6934438450E+00    0.4487639663E-03    0.1078356132E-02    0.4080804802E-02
    0.1000000000E+03    0.3696171676E-05    0.6836954997E+00    0.8757592368E-04    0.2072968611E-03    0.4179482813E-02
    0.3000000000E+03    0.1034935331E-04    0.6918424384E+00    0.2594486142E-03    0.6217059735E-03    0.4131890435E-02
    0.5000000000E+03    0.1815102316E-04    0.6934945253E+00    0.4596559905E-03    0.1104648185E-02    0.4077906187E-02
    0.7000000000E+03    0.2759969841E-04    0.6942046960E+00    0.7020337970E-03    0.1690186328E-02    0.4014311523E-02
    0.9000000000E+03    0.3934971161E-04    0.6945997032E+00    0.1003622273E-02    0.2419786070E-02    0.3937102873E-02
    0.1100000000E+04    0.5435531469E-04    0.6948512014E+00    0.1389116933E-02    0.3353612141E-02    0.3840681560E-02
    0.1300000000E+04    0.7408339811E-04    0.6950253493E+00    0.1896469103E-02    0.4584257986E-02    0.3716679870E-02
    0.1500000000E+04    0.1008752936E-03    0.6951530590E+00    0.2586315766E-02    0.6259896950E-02    0.3552090566E-02
    0.1700000000E+04    0.1385660076E-03    0.6952507093E+00    0.3558150088E-02    0.8624128920E-02    0.3326275824E-02
    0.1900000000E+04    0.1934194014E-03    0.6953277877E+00    0.4974920658E-02    0.1207706662E-01    0.3007058167E-02
    0.2100000000E+04    0.2747826503E-03    0.6953901699E+00    0.7081030786E-02    0.1722200733E-01    0.2550475887E-02
    0.2300000000E+04    0.3918047666E-03    0.6954416889E+00    0.1011966586E-01    0.2466928624E-01    0.1925783266E-02
    0.2500000000E+04    0.5379787335E-03    0.6954849516E+00    0.1393411385E-01    0.3406614278E-01    0.1203390938E-02
    0.2700000000E+04    0.6769523070E-03    0.6955217930E+00    0.1759231345E-01    0.4315884288E-01    0.6034449906E-03
    0.2900000000E+04    0.7776165230E-03    0.6955535419E+00    0.2028342164E-01    0.4995288894E-01    0.2677647933E-03
    0.3100000000E+04    0.8449739193E-03    0.6955811840E+00    0.2212607624E-01    0.5471077464E-01    0.1276619271E-03
    0.3300000000E+04    0.8950055807E-03    0.6956054665E+00    0.2352862902E-01    0.5841669064E-01    0.7718697246E-04
    0.3500000000E+04    0.9373187527E-03    0.6956269656E+00    0.2473840083E-01    0.6167150127E-01    0.6004625598E-04
    0.3700000000E+04    0.9759563990E-03    0.6956461328E+00    0.2585975582E-01    0.6472957943E-01    0.5438660762E-04
    0.3900000000E+04    0.1012445374E-02    0.6956633273E+00    0.2693202861E-01    0.6768668568E-01    0.5258559380E-04
    0.4100000000E+04    0.1047358922E-02    0.6956788379E+00    0.2796980640E-01    0.7057795369E-01    0.5207261146E-04
    0.4300000000E+04    0.1080928055E-02    0.6956928997E+00    0.2897877015E-01    0.7341662772E-01    0.5198792780E-04
    0.4500000000E+04    0.1113262379E-02    0.6957057063E+00    0.2996144026E-01    0.7620817496E-01    0.5204396489E-04
    0.4700000000E+04    0.1144427868E-02    0.6957174179E+00    0.3091920787E-01    0.7895529476E-01    0.5214431839E-04
    0.4900000000E+04    0.1174474087E-02    0.6957281688E+00    0.3185304811E-01    0.8165968355E-01    0.5225666127E-04
    0.1000000000E+04    0.4636917746E-04    0.6947380176E+00    0.1183905549E-02    0.2856353378E-02    0.3891734442E-02
    0.3000000000E+04    0.8143701551E-03    0.6955678249E+00    0.2128310534E-01    0.5251987644E-01    0.1809114072E-03
    0.5000000000E+04    0.1189090974E-02    0.6957332201E+00    0.3231125207E-01    0.8299627247E-01    0.5231360163E-04
    0.7000000000E+04    0.1431748020E-02    0.6958037903E+00    0.4038932394E-01    0.1077531282E+00    0.5330085196E-04
    0.9000000000E+04    0.1599322314E-02    0.6958428132E+00    0.4676752884E-01    0.1293271891E+00    0.5405198936E-04
    0.1100000000E+05    0.1713183460E-02    0.6958675268E+00    0.5185800964E-01    0.1483783988E+00    0.5465909392E-04
    0.1300000000E+05    0.1788045723E-02    0.6958845523E+00    0.5595417592E-01    0.1653900259E+00    0.5516955328E-04
    0.1500000000E+05    0.1834263123E-02    0.6958969754E+00    0.5927001672E-01    0.1807246690E+00    0.5561052534E-04
    0.1700000000E+05    0.1859256567E-02    0.6959064274E+00    0.6196486931E-01    0.1946601367E+00    0.5599905643E-04
    0.1900000000E+05    0.1868428726E-02    0.6959138512E+00    0.6415953524E-01    0.2074131924E+00    0.5634656356E-04
    0.2100000000E+05    0.1865766017E-02    0.6959198297E+00    0.6594705895E-01    0.2191557039E+00    0.5666107570E-04
    0.2300000000E+05    0.1854243833E-02    0.6959247426E+00    0.6740011259E-01    0.2300258947E+00    0.5694845821E-04
    0.2500000000E+05    0.1836104857E-02    0.6959288474E+00    0.6857616484E-01    0.2401363506E+00    0.5721312889E-04
    0.2700000000E+05    0.1813053634E-02    0.6959323254E+00    0.6952116805E-01    0.2495798262E+00    0.5745849980E-04
    0.2900000000E+05    0.1786394772E-02    0.6959353074E+00    0.7027223372E-01    0.2584335287E+00    0.5768726210E-04
    0.3100000000E+05    0.1757132516E-02    0.6959378904E+00    0.7085960384E-01    0.2667623265E+00    0.5790157648E-04
    0.3300000000E+05    0.1726043396E-02    0.6959401478E+00    0.7130812385E-01    0.2746211862E+00    0.5810320455E-04
    0.3500000000E+05    0.1693729874E-02    0.6959421361E+00    0.7163835722E-01    0.2820570478E+00    0.5829360174E-04
    0.3700000000E+05    0.1660660344E-02    0.6959438994E+00    0.7186743855E-01    0.2891102838E+00    0.5847398464E-04
    0.3900000000E+05    0.1627199272E-02    0.6959454729E+00    0.7200973373E-01    0.2958158466E+00    0.5864538077E-04
    0.4100000000E+05    0.1593630082E-02    0.6959468847E+00    0.7207735555E-01    0.3022041806E+00    0.5880866597E-04
    0.4300000000E+05    0.1560172685E-02    0.6959481578E+00    0.7208057030E-01    0.3083019527E+00    0.5896459295E-04
    0.4500000000E+05    0.1526996993E-02    0.6959493110E+00    0.7202812086E-01    0.3141326434E+00    0.5911381346E-04
    0.4700000000E+05    0.1494233415E-02    0.6959503598E+00    0.7192748568E-01    0.3197170276E+00    0.5925689559E-04
    0.4900000000E+05    0.1461981053E-02    0.6959513173E+00    0.7178508765E-01    0.3250735701E+00    0.5939433763E-04
    0.1000000000E+05    0.1661923714E-02    0.6958564205E+00    0.4945316503E-01    0.1391345862E+00    0.5436992402E-04
    0.3000000000E+05    0.1772035904E-02    0.6959366438E+00    0.7058471594E-01    0.2626598975E+00    0.5779610706E-04
    0.5000000000E+05    0.1446070598E-02    0.6959517653E+00    0.7169998851E-01    0.3276716208E+00    0.5946108299E-04
    0.7000000000E+05    0.1164267207E-02    0.6959578592E+00    0.6880975758E-01    0.3708759837E+00    0.6058376299E-04
    0.9000000000E+05    0.9500383120E-03    0.6959610283E+00    0.6502829682E-01    0.4027115111E+00    0.6143606813E-04
    0.1100000000E+06    0.7881888018E-03    0.6959629060E+00    0.6121144029E-01    0.4275699950E+00    0.6212520295E-04
    0.1300000000E+06    0.6640905983E-03    0.6959641088E+00    0.5762014312E-01    0.4477178515E+00    0.6270477540E-04
    0.1500000000E+06    0.5671799234E-03    0.6959649191E+00    0.5432455289E-01    0.4644809454E+00    0.6320553690E-04
    0.1700000000E+06    0.4901519540E-03    0.6959654833E+00    0.5132781886E-01    0.4787031880E+00    0.6364680162E-04
    0.1900000000E+06    0.4279395168E-03    0.6959658848E+00    0.4860961406E-01    0.4909551513E+00    0.6404151141E-04
    0.2100000000E+06    0.3769725036E-03    0.6959661740E+00    0.4614268159E-01    0.5016404455E+00    0.6439877067E-04
    0.2300000000E+06    0.3346883523E-03    0.6959663832E+00    0.4389930667E-01    0.5110547766E+00    0.6472523224E-04
    0.2500000000E+06    0.2992132459E-03    0.6959665338E+00    0.4185375922E-01    0.5194209581E+00    0.6502590813E-04
    0.2700000000E+06    0.2691528422E-03    0.6959666405E+00    0.3998306341E-01    0.5269107766E+00    0.6530466998E-04
    0.2900000000E+06    0.2434527591E-03    0.6959667140E+00    0.3826707046E-01    0.5336592385E+00    0.6556457190E-04
    0.3100000000E+06    0.2213038963E-03    0.6959667616E+00    0.3668825533E-01    0.5397741828E+00    0.6580806631E-04
    0.3300000000E+06    0.2020770251E-03    0.6959667892E+00    0.3523142171E-01    0.5453429598E+00    0.6603715286E-04
    0.3500000000E+06    0.1852768141E-03    0.6959668008E+00    0.3388339564E-01    0.5504371901E+00    0.6625348379E-04
    0.3700000000E+06    0.1705089880E-03    0.6959667998E+00    0.3263274038E-01    0.5551162292E+00    0.6645844035E-04
    0.3900000000E+06    0.1574565133E-03    0.6959667885E+00    0.3146950438E-01    0.5594297373E+00    0.6665318919E-04
    0.4100000000E+06    0.1458620858E-03    0.6959667691E+00    0.3038500366E-01    0.5634196179E+00    0.6683872478E-04
    0.4300000000E+06    0.1355150862E-03    0.6959667430E+00    0.2937163675E-01    0.5671215005E+00    0.6701590188E-04
    0.4500000000E+06    0.1262417460E-03    0.6959667114E+00    0.2842272804E-01    0.5705658916E+00    0.6718546059E-04
    0.4700000000E+06    0.1178976524E-03    0.6959666755E+00    0.2753239578E-01    0.5737790765E+00    0.6734804609E-04
    0.4900000000E+06    0.1103619758E-03    0.6959666360E+00    0.2669544080E-01    0.5767838350E+00    0.6750422426E-04
    0.1000000000E+06    0.8635767849E-03    0.6959620783E+00    0.6310103498E-01    0.4158408764E+00    0.6179693601E-04
    0.3000000000E+06    0.2319773523E-03    0.6959667406E+00    0.3746151637E-01    0.5367900241E+00    0.6568823586E-04
    0.5000000000E+06    0.1068648578E-03    0.6959666151E+00    0.2629551826E-01    0.5782143579E+00    0.6758006889E-04
    0.7000000000E+06    0.6152019309E-04    0.6959661186E+00    0.2021735746E-01    0.5995781409E+00    0.6885584568E-04
    0.9000000000E+06    0.4003363814E-04    0.6959655951E+00    0.1640679614E-01    0.6126566075E+00    0.6982442015E-04
    0.1100000000E+07    0.2815897183E-04    0.6959651028E+00    0.1379728659E-01    0.6214946797E+00    0.7060758406E-04
    0.1300000000E+07    0.2090226180E-04    0.6959646508E+00    0.1189944073E-01    0.6278686697E+00    0.7126624633E-04
    0.1500000000E+07    0.1614093978E-04    0.6959642370E+00    0.1045763110E-01    0.6326833117E+00    0.7183534874E-04
    0.1700000000E+07    0.1284686248E-04    0.6959638571E+00    0.9325433476E-02    0.6364484339E+00    0.7233683827E-04
    0.1900000000E+07    0.1047231140E-04    0.6959635068E+00    0.8412983703E-02    0.6394733718E+00    0.7278542136E-04
    0.2100000000E+07    0.8703539169E-05    0.6959631822E+00    0.7662091680E-02    0.6419567489E+00    0.7319144405E-04
    0.2300000000E+07    0.7350222088E-05    0.6959628799E+00    0.7033425463E-02    0.6440319553E+00    0.7356246659E-04
    0.2500000000E+07    0.6291415911E-05    0.6959625971E+00    0.6499449237E-02    0.6457919021E+00    0.7390418467E-04
    0.2700000000E+07    0.5447250826E-05    0.6959623315E+00    0.6040312261E-02    0.6473032949E+00    0.7422099812E-04
    0.2900000000E+07    0.4763245822E-05    0.6959620813E+00    0.5641344329E-02    0.6486152649E+00    0.7451637774E-04
    0.3100000000E+07    0.4201196107E-05    0.6959618446E+00    0.5291470341E-02    0.6497647990E+00    0.7479311057E-04
    0.3300000000E+07    0.3733662653E-05    0.6959616201E+00    0.4982173291E-02    0.6507802731E+00    0.7505346909E-04
    0.3500000000E+07    0.3340523086E-05    0.6959614066E+00    0.4706796470E-02    0.6516838204E+00    0.7529933102E-04
    0.3700000000E+07    0.3006747068E-05    0.6959612030E+00    0.4460062176E-02    0.6524929578E+00    0.7553226610E-04
    0.3900000000E+07    0.2720923171E-05    0.6959610085E+00    0.4237732429E-02    0.6532217303E+00    0.7575360017E-04
    0.4100000000E+07    0.2474260374E-05    0.6959608223E+00    0.4036365120E-02    0.6538815296E+00    0.7596446344E-04
    0.4300000000E+07    0.2259897024E-05    0.6959606437E+00    0.3853135680E-02    0.6544816929E+00    0.7616582730E-04
    0.4500000000E+07    0.2072413596E-05    0.6959604720E+00    0.3685704629E-02    0.6550299456E+00    0.7635853288E-04
    0.4700000000E+07    0.1907483293E-05    0.6959603068E+00    0.3532117792E-02    0.6555327348E+00    0.7654331341E-04
    0.4900000000E+07    0.1761617646E-05    0.6959601476E+00    0.3390730167E-02    0.6559954830E+00    0.7672081200E-04
    0.1000000000E+07    0.3331047838E-04    0.6959653441E+00    0.1499030106E-01    0.6174651835E+00    0.7023452488E-04
    0.3000000000E+07    0.4468895887E-05    0.6959619613E+00    0.5460853392E-02    0.6492083933E+00    0.7465692251E-04
    0.5000000000E+07    0.1694925888E-05    0.6959600701E+00    0.3324166791E-02    0.6562133052E+00    0.7680701046E-04
    0.7000000000E+07    0.8892434465E-06    0.6959587502E+00    0.2385034945E-02    0.6592846375E+00    0.7825695013E-04
    0.9000000000E+07    0.5480581749E-06    0.6959577315E+00    0.1857811644E-02    0.6610078874E+00    0.7935775119E-04
    0.1100000000E+08    0.3720235881E-06    0.6959568995E+00    0.1520520819E-02    0.6621103292E+00    0.8024783050E-04
    0.1300000000E+08    0.2693378693E-06    0.6959561950E+00    0.1286320093E-02    0.6628759792E+00    0.8099641165E-04
    0.1500000000E+08    0.2041907880E-06    0.6959555832E+00    0.1114277799E-02    0.6634385890E+00    0.8164320645E-04
    0.1700000000E+08    0.1602514005E-06    0.6959550419E+00    0.9825848117E-03    0.6638693940E+00    0.8221315799E-04
    0.1900000000E+08    0.1292017816E-06    0.6959545561E+00    0.8785592461E-03    0.6642098098E+00    0.8272298038E-04
    0.2100000000E+08    0.1064402449E-06    0.6959541152E+00    0.7943258180E-03    0.6644855535E+00    0.8318443207E-04
    0.2300000000E+08    0.8925194122E-07    0.6959537114E+00    0.7247366960E-03    0.6647134363E+00    0.8360610542E-04
    0.2500000000E+08    0.7595050494E-07    0.6959533387E+00    0.6662853657E-03    0.6649049103E+00    0.8399447369E-04
    0.2700000000E+08    0.6544321974E-07    0.6959529926E+00    0.6165010891E-03    0.6650680457E+00    0.8435453738E-04
