  Pressure (Pa) 23mC5-500 (mol/kg) 24mC5-500 (mol/kg) 2mC6-500 (mol/kg) 3mC6-500 (mol/kg) C7-500 (mol/kg)
    0.1000000000E+01    0.4953897369E-06    0.2487098057E+00    0.8825505913E-05    0.2693595480E-05    0.4165928472E-02
    0.3000000000E+01    0.7938042288E-06    0.4351351579E+00    0.1365832273E-04    0.6775167990E-05    0.4184467983E-02
    0.5000000000E+01    0.9025118474E-06    0.5118733569E+00    0.1581016551E-04    0.1050208071E-04    0.4189958590E-02
    0.7000000000E+01    0.9692501688E-06    0.5537247999E+00    0.1763831695E-04    0.1405883090E-04    0.4192576573E-02
    0.9000000000E+01    0.1023880425E-05    0.5800737400E+00    0.1947517454E-04    0.1750711910E-04    0.4194024427E-02
    0.1100000000E+02    0.1074983556E-05    0.5981877909E+00    0.2137156548E-04    0.2087768089E-04    0.4194872366E-02
    0.1300000000E+02    0.1125465592E-05    0.6114057301E+00    0.2332572537E-04    0.2418875446E-04    0.4195369808E-02
    0.1500000000E+02    0.1176371285E-05    0.6214763059E+00    0.2532674562E-04    0.2745233019E-04    0.4195644085E-02
    0.1700000000E+02    0.1228056615E-05    0.6294040638E+00    0.2736395291E-04    0.3067684652E-04    0.4195767281E-02
    0.1900000000E+02    0.1280605707E-05    0.6358071611E+00    0.2942868973E-04    0.3386853902E-04    0.4195783365E-02
    0.2100000000E+02    0.1333994034E-05    0.6410868455E+00    0.3151429816E-04    0.3703218790E-04    0.4195720728E-02
    0.2300000000E+02    0.1388156332E-05    0.6455149233E+00    0.3361573926E-04    0.4017156446E-04    0.4195598540E-02
    0.2500000000E+02    0.1443015755E-05    0.6492820612E+00    0.3572920876E-04    0.4328971355E-04    0.4195430222E-02
    0.2700000000E+02    0.1498496336E-05    0.6525259603E+00    0.3785182653E-04    0.4638914055E-04    0.4195225456E-02
    0.2900000000E+02    0.1554528002E-05    0.6553485542E+00    0.3998140182E-04    0.4947194002E-04    0.4194991402E-02
    0.3100000000E+02    0.1611048211E-05    0.6578269136E+00    0.4211626000E-04    0.5253988680E-04    0.4194733473E-02
    0.3300000000E+02    0.1668002072E-05    0.6600203912E+00    0.4425511521E-04    0.5559450242E-04    0.4194455835E-02
    0.3500000000E+02    0.1725341826E-05    0.6619754366E+00    0.4639697661E-04    0.5863710448E-04    0.4194161747E-02
    0.3700000000E+02    0.1783026088E-05    0.6637289218E+00    0.4854107901E-04    0.6166884414E-04    0.4193853793E-02
    0.3900000000E+02    0.1841019052E-05    0.6653104889E+00    0.5068683106E-04    0.6469073511E-04    0.4193534052E-02
    0.4100000000E+02    0.1899289738E-05    0.6667442393E+00    0.5283377629E-04    0.6770367631E-04    0.4193204210E-02
    0.4300000000E+02    0.1957811317E-05    0.6680499703E+00    0.5498156361E-04    0.7070846991E-04    0.4192865651E-02
    0.4500000000E+02    0.2016560519E-05    0.6692440951E+00    0.5712992466E-04    0.7370583581E-04    0.4192519522E-02
    0.4700000000E+02    0.2075517126E-05    0.6703403362E+00    0.5927865647E-04    0.7669642345E-04    0.4192166778E-02
    0.4900000000E+02    0.2134663538E-05    0.6713502548E+00    0.6142760792E-04    0.7968082143E-04    0.4191808223E-02
    0.1000000000E+02    0.1049624230E-05    0.5898983939E+00    0.2041560542E-04    0.1920078273E-04    0.4194503661E-02
    0.3000000000E+02    0.1582730644E-05    0.6566267037E+00    0.4104825879E-04    0.5100766961E-04    0.4194865137E-02
    0.5000000000E+02    0.2164303045E-05    0.6718259680E+00    0.6250213032E-04    0.8117086860E-04    0.4191626983E-02
    0.7000000000E+02    0.2764228842E-05    0.6785573853E+00    0.8399170261E-04    0.1107552829E-03    0.4187817675E-02
    0.9000000000E+02    0.3373786256E-05    0.6823555827E+00    0.1054941496E-03    0.1401259855E-03    0.4183816245E-02
    0.1100000000E+03    0.3990540356E-05    0.6847947677E+00    0.1270548407E-03    0.1694692788E-03    0.4179723461E-02
    0.1300000000E+03    0.4613891938E-05    0.6864936241E+00    0.1487201018E-03    0.1988992350E-03    0.4175574183E-02
    0.1500000000E+03    0.5243874769E-05    0.6877447796E+00    0.1705293352E-03    0.2284939721E-03    0.4171381658E-02
    0.1700000000E+03    0.5880761349E-05    0.6887045957E+00    0.1925154462E-03    0.2583113455E-03    0.4167150646E-02
    0.1900000000E+03    0.6524916085E-05    0.6894642144E+00    0.2147063024E-03    0.2883968097E-03    0.4162882177E-02
    0.2100000000E+03    0.7176736305E-05    0.6900803510E+00    0.2371260214E-03    0.3187877770E-03    0.4158575524E-02
    0.2300000000E+03    0.7836627823E-05    0.6905901469E+00    0.2597959475E-03    0.3495162219E-03    0.4154229098E-02
    0.2500000000E+03    0.8504995109E-05    0.6910189427E+00    0.2827353707E-03    0.3806103303E-03    0.4149840877E-02
    0.2700000000E+03    0.9182237907E-05    0.6913846204E+00    0.3059620546E-03    0.4120955940E-03    0.4145408625E-02
    0.2900000000E+03    0.9868750742E-05    0.6917001591E+00    0.3294926293E-03    0.4439955660E-03    0.4140930004E-02
    0.3100000000E+03    0.1056492371E-04    0.6919752079E+00    0.3533428880E-03    0.4763323987E-03    0.4136402631E-02
    0.3300000000E+03    0.1127114382E-04    0.6922170891E+00    0.3775280150E-03    0.5091272394E-03    0.4131824108E-02
    0.3500000000E+03    0.1198779646E-04    0.6924314600E+00    0.4020627639E-03    0.5424005284E-03    0.4127192033E-02
    0.3700000000E+03    0.1271526694E-04    0.6926227607E+00    0.4269615993E-03    0.5761722288E-03    0.4122504005E-02
    0.3900000000E+03    0.1345394192E-04    0.6927945242E+00    0.4522388121E-03    0.6104620086E-03    0.4117757622E-02
    0.4100000000E+03    0.1420421075E-04    0.6929495977E+00    0.4779086138E-03    0.6452893867E-03    0.4112950481E-02
    0.4300000000E+03    0.1496646676E-04    0.6930903004E+00    0.5039852163E-03    0.6806738537E-03    0.4108080171E-02
    0.4500000000E+03    0.1574110844E-04    0.6932185410E+00    0.5304828994E-03    0.7166349733E-03    0.4103144267E-02
    0.4700000000E+03    0.1652854052E-04    0.6933359046E+00    0.5574160701E-03    0.7531924688E-03    0.4098140326E-02
    0.4900000000E+03    0.1732917500E-04    0.6934437183E+00    0.5847993147E-03    0.7903662991E-03    0.4093065880E-02
    0.1000000000E+03    0.3681323708E-05    0.6836949886E+00    0.1162641728E-03    0.1547928143E-03    0.4181778325E-02
    0.3000000000E+03    0.1021560547E-04    0.6918422416E+00    0.3413768372E-03    0.4601080334E-03    0.4138672561E-02
    0.5000000000E+03    0.1773457414E-04    0.6934944009E+00    0.5986643334E-03    0.8091906581E-03    0.4090501439E-02
    0.7000000000E+03    0.2664508056E-04    0.6942046044E+00    0.9034213757E-03    0.1223270701E-02    0.4034872193E-02
    0.9000000000E+03    0.3744732639E-04    0.6945996304E+00    0.1273063872E-02    0.1726180184E-02    0.3968926107E-02
    0.1100000000E+04    0.5083288395E-04    0.6948511410E+00    0.1731469360E-02    0.2350630168E-02    0.3888877997E-02
    0.1300000000E+04    0.6781008815E-04    0.6950252975E+00    0.2313420026E-02    0.3144337269E-02    0.3789360349E-02
    0.1500000000E+04    0.8990197967E-04    0.6951530137E+00    0.3071486429E-02    0.4179520310E-02    0.3662454270E-02
    0.1700000000E+04    0.1194731549E-03    0.6952506690E+00    0.4087389882E-02    0.5568617911E-02    0.3496171673E-02
    0.1900000000E+04    0.1602523211E-03    0.6953277515E+00    0.5490233580E-02    0.7489616104E-02    0.3272205859E-02
    0.2100000000E+04    0.2180305513E-03    0.6953901369E+00    0.7481099278E-02    0.1022055922E-01    0.2963458187E-02
    0.2300000000E+04    0.3009231206E-03    0.6954416587E+00    0.1034328239E-01    0.1415533636E-01    0.2535315075E-02
    0.2500000000E+04    0.4164003994E-03    0.6954849238E+00    0.1434208534E-01    0.1966925644E-01    0.1965542125E-02
    0.2700000000E+04    0.5596917676E-03    0.6955217672E+00    0.1932584996E-01    0.2657267161E-01    0.1305009491E-02
    0.2900000000E+04    0.7020011370E-03    0.6955535178E+00    0.2431170391E-01    0.3353100782E-01    0.7188852757E-03
    0.3100000000E+04    0.8124828554E-03    0.6955811615E+00    0.2823126809E-01    0.3907108687E-01    0.3472855597E-03
    0.3300000000E+04    0.8886350974E-03    0.6956054453E+00    0.3098552591E-01    0.4303891898E-01    0.1688498597E-03
    0.3500000000E+04    0.9437827349E-03    0.6956269456E+00    0.3302617667E-01    0.4604358595E-01    0.9582505862E-04
    0.3700000000E+04    0.9886246158E-03    0.6956461140E+00    0.3471973688E-01    0.4858490015E-01    0.6801274471E-04
    0.3900000000E+04    0.1028504399E-02    0.6956633094E+00    0.3625000718E-01    0.5091462118E-01    0.5773837339E-04
    0.4100000000E+04    0.1065696518E-02    0.6956788209E+00    0.3769528232E-01    0.5314013463E-01    0.5402085647E-04
    0.4300000000E+04    0.1101127393E-02    0.6956928836E+00    0.3908731203E-01    0.5530483279E-01    0.5272652934E-04
    0.4500000000E+04    0.1135181396E-02    0.6957056909E+00    0.4043906819E-01    0.5742619793E-01    0.5232508704E-04
    0.4700000000E+04    0.1168031037E-02    0.6957174032E+00    0.4175616823E-01    0.5951153930E-01    0.5225181262E-04
    0.4900000000E+04    0.1199766248E-02    0.6957281548E+00    0.4304136472E-01    0.6156420217E-01    0.5229797106E-04
    0.1000000000E+04    0.4376344218E-04    0.6947379516E+00    0.1489317321E-02    0.2020670748E-02    0.3930953904E-02
    0.3000000000E+04    0.7620708173E-03    0.6955678016E+00    0.2643491619E-01    0.3652087256E-01    0.5041913840E-03
    0.5000000000E+04    0.1215234477E-02    0.6957332063E+00    0.4367252916E-01    0.6257886953E-01    0.5233926070E-04
    0.7000000000E+04    0.1476062006E-02    0.6958037809E+00    0.5488655295E-01    0.8142144910E-01    0.5330085379E-04
    0.9000000000E+04    0.1663116674E-02    0.6958428064E+00    0.6389216209E-01    0.9793239145E-01    0.5405198883E-04
    0.1100000000E+05    0.1796726395E-02    0.6958675216E+00    0.7121608628E-01    0.1125953974E+00    0.5465909351E-04
    0.1300000000E+05    0.1890955375E-02    0.6958845484E+00    0.7723358958E-01    0.1257639914E+00    0.5516955296E-04
    0.1500000000E+05    0.1955765260E-02    0.6958969725E+00    0.8221888628E-01    0.1377032250E+00    0.5561052509E-04
    0.1700000000E+05    0.1998351843E-02    0.6959064252E+00    0.8637666533E-01    0.1486160757E+00    0.5599905624E-04
    0.1900000000E+05    0.2024001429E-02    0.6959138496E+00    0.8986257086E-01    0.1586608766E+00    0.5634656342E-04
    0.2100000000E+05    0.2036654586E-02    0.6959198287E+00    0.9279688789E-01    0.1679631516E+00    0.5666107560E-04
    0.2300000000E+05    0.2039286169E-02    0.6959247420E+00    0.9527391579E-01    0.1766238491E+00    0.5694845814E-04
    0.2500000000E+05    0.2034166906E-02    0.6959288473E+00    0.9736852954E-01    0.1847251963E+00    0.5721312886E-04
    0.2700000000E+05    0.2023046831E-02    0.6959323256E+00    0.9914086223E-01    0.1923349419E+00    0.5745849980E-04
    0.2900000000E+05    0.2007286045E-02    0.6959353079E+00    0.1006397052E+00    0.1995094847E+00    0.5768726212E-04
    0.3100000000E+05    0.1987949332E-02    0.6959378913E+00    0.1019050162E+00    0.2062962154E+00    0.5790157653E-04
    0.3300000000E+05    0.1965875540E-02    0.6959401489E+00    0.1029697947E+00    0.2127352966E+00    0.5810320462E-04
    0.3500000000E+05    0.1941729079E-02    0.6959421374E+00    0.1038615043E+00    0.2188610303E+00    0.5829360182E-04
    0.3700000000E+05    0.1916038566E-02    0.6959439009E+00    0.1046031621E+00    0.2247029235E+00    0.5847398474E-04
    0.3900000000E+05    0.1889226121E-02    0.6959454746E+00    0.1052141835E+00    0.2302865254E+00    0.5864538089E-04
    0.4100000000E+05    0.1861629778E-02    0.6959468867E+00    0.1057110432E+00    0.2356340931E+00    0.5880866611E-04
    0.4300000000E+05    0.1833520776E-02    0.6959481600E+00    0.1061077973E+00    0.2407651248E+00    0.5896459310E-04
    0.4500000000E+05    0.1805117002E-02    0.6959493133E+00    0.1064164999E+00    0.2456967915E+00    0.5911381362E-04
    0.4700000000E+05    0.1776593521E-02    0.6959503623E+00    0.1066475364E+00    0.2504442880E+00    0.5925689577E-04
    0.4900000000E+05    0.1748090870E-02    0.6959513200E+00    0.1068098938E+00    0.2550211216E+00    0.5939433782E-04
    0.1000000000E+05    0.1735606853E-02    0.6958564146E+00    0.6773804080E-01    0.1054703259E+00    0.5436992355E-04
    0.3000000000E+05    0.1998007633E-02    0.6959366444E+00    0.1012993452E+00    0.2029486647E+00    0.5779610710E-04
    0.5000000000E+05    0.1733883482E-02    0.6959517680E+00    0.1068677990E+00    0.2572493591E+00    0.5946108319E-04
    0.7000000000E+05    0.1468242052E-02    0.6959578632E+00    0.1058600666E+00    0.2952002354E+00    0.6058376329E-04
    0.9000000000E+05    0.1250013664E-02    0.6959610332E+00    0.1027947410E+00    0.3244460308E+00    0.6143606851E-04
    0.1100000000E+06    0.1075476004E-02    0.6959629116E+00    0.9907637425E-01    0.3482162214E+00    0.6212520340E-04
    0.1300000000E+06    0.9352802947E-03    0.6959641150E+00    0.9522932958E-01    0.3681896394E+00    0.6270477590E-04
    0.1500000000E+06    0.8213643522E-03    0.6959649258E+00    0.9146659800E-01    0.3853589990E+00    0.6320553745E-04
    0.1700000000E+06    0.7276172805E-03    0.6959654906E+00    0.8787510619E-01    0.4003648614E+00    0.6364680221E-04
    0.1900000000E+06    0.6495242232E-03    0.6959658925E+00    0.8448632396E-01    0.4136472828E+00    0.6404151204E-04
    0.2100000000E+06    0.5837437186E-03    0.6959661822E+00    0.8130619897E-01    0.4255230809E+00    0.6439877134E-04
    0.2300000000E+06    0.5277766861E-03    0.6959663917E+00    0.7832883046E-01    0.4362287548E+00    0.6472523295E-04
    0.2500000000E+06    0.4797293256E-03    0.6959665427E+00    0.7554304182E-01    0.4459459856E+00    0.6502590887E-04
    0.2700000000E+06    0.4381469480E-03    0.6959666498E+00    0.7293563951E-01    0.4548176240E+00    0.6530467076E-04
    0.2900000000E+06    0.4018974774E-03    0.6959667235E+00    0.7049304680E-01    0.4629581644E+00    0.6556457271E-04
    0.3100000000E+06    0.3700890601E-03    0.6959667715E+00    0.6820211085E-01    0.4704608612E+00    0.6580806715E-04
    0.3300000000E+06    0.3420110890E-03    0.6959667994E+00    0.6605047906E-01    0.4774027137E+00    0.6603715373E-04
    0.3500000000E+06    0.3170914370E-03    0.6959668113E+00    0.6402674825E-01    0.4838480520E+00    0.6625348469E-04
    0.3700000000E+06    0.2948650359E-03    0.6959668105E+00    0.6212049445E-01    0.4898511744E+00    0.6645844128E-04
    0.3900000000E+06    0.2749504981E-03    0.6959667996E+00    0.6032224153E-01    0.4954583249E+00    0.6665319014E-04
    0.4100000000E+06    0.2570325127E-03    0.6959667804E+00    0.5862340031E-01    0.5007092029E+00    0.6683872576E-04
    0.4300000000E+06    0.2408484403E-03    0.6959667545E+00    0.5701619575E-01    0.5056381322E+00    0.6701590288E-04
    0.4500000000E+06    0.2261779958E-03    0.6959667233E+00    0.5549359146E-01    0.5102749787E+00    0.6718546161E-04
    0.4700000000E+06    0.2128352305E-03    0.6959666876E+00    0.5404921669E-01    0.5146458801E+00    0.6734804714E-04
    0.4900000000E+06    0.2006622429E-03    0.6959666483E+00    0.5267729806E-01    0.5187738314E+00    0.6750422533E-04
    0.1000000000E+06    0.1157872874E-02    0.6959620835E+00    0.1009735105E+00    0.3368885105E+00    0.6179693642E-04
    0.3000000000E+06    0.3854862316E-03    0.6959667504E+00    0.6932941505E-01    0.4667840974E+00    0.6568823668E-04
    0.5000000000E+06    0.1949714945E-03    0.6959666275E+00    0.5201685347E-01    0.5207531461E+00    0.6758006998E-04
    0.7000000000E+06    0.1183696738E-03    0.6959661331E+00    0.4157010664E-01    0.5514689406E+00    0.6885584697E-04
    0.9000000000E+06    0.7972629368E-04    0.6959656114E+00    0.3460016036E-01    0.5714523716E+00    0.6982442162E-04
    0.1100000000E+07    0.5744857662E-04    0.6959651206E+00    0.2962196215E-01    0.5855284951E+00    0.7060758569E-04
    0.1300000000E+07    0.4341286052E-04    0.6959646700E+00    0.2588952094E-01    0.5959905060E+00    0.7126624810E-04
    0.1500000000E+07    0.3398853301E-04    0.6959642574E+00    0.2298777209E-01    0.6040758426E+00    0.7183535064E-04
    0.1700000000E+07    0.2734930382E-04    0.6959638788E+00    0.2066751643E-01    0.6105132343E+00    0.7233684029E-04
    0.1900000000E+07    0.2249311527E-04    0.6959635296E+00    0.1877012211E-01    0.6157604694E+00    0.7278542350E-04
    0.2100000000E+07    0.1883216686E-04    0.6959632060E+00    0.1718981794E-01    0.6201198732E+00    0.7319144631E-04
    0.2300000000E+07    0.1600285335E-04    0.6959629046E+00    0.1585337349E-01    0.6237992472E+00    0.7356246895E-04
    0.2500000000E+07    0.1377030165E-04    0.6959626228E+00    0.1470848194E-01    0.6269461811E+00    0.7390418712E-04
    0.2700000000E+07    0.1197723045E-04    0.6959623581E+00    0.1371678748E-01    0.6296684111E+00    0.7422100067E-04
    0.2900000000E+07    0.1051506078E-04    0.6959621087E+00    0.1284952632E-01    0.6320464319E+00    0.7451638038E-04
    0.3100000000E+07    0.9306853338E-05    0.6959618728E+00    0.1208470574E-01    0.6341416005E+00    0.7479311330E-04
    0.3300000000E+07    0.8296841069E-05    0.6959616491E+00    0.1140522313E-01    0.6360015077E+00    0.7505347191E-04
    0.3500000000E+07    0.7443794279E-05    0.6959614364E+00    0.1079757899E-01    0.6376636350E+00    0.7529933393E-04
    0.3700000000E+07    0.6716693120E-05    0.6959612336E+00    0.1025097598E-01    0.6391579044E+00    0.7553226908E-04
    0.3900000000E+07    0.6091833240E-05    0.6959610398E+00    0.9756675292E-02    0.6405084930E+00    0.7575360323E-04
    0.4100000000E+07    0.5550846328E-05    0.6959608543E+00    0.9307528680E-02    0.6417351490E+00    0.7596446658E-04
    0.4300000000E+07    0.5079319085E-05    0.6959606764E+00    0.8897632484E-02    0.6428541609E+00    0.7616583052E-04
    0.4500000000E+07    0.4665812313E-05    0.6959605054E+00    0.8522068209E-02    0.6438790842E+00    0.7635853617E-04
    0.4700000000E+07    0.4301152800E-05    0.6959603408E+00    0.8176705369E-02    0.6448212907E+00    0.7654331677E-04
    0.4900000000E+07    0.3977914567E-05    0.6959601822E+00    0.7858049838E-02    0.6456903916E+00    0.7672081543E-04
    0.1000000000E+07    0.6720835198E-04    0.6959653611E+00    0.3191944218E-01    0.5790506789E+00    0.7023452643E-04
    0.3000000000E+07    0.9883101618E-05    0.6959619892E+00    0.1245547712E-01    0.6331261251E+00    0.7465692520E-04
    0.5000000000E+07    0.3829888692E-05    0.6959601050E+00    0.7707789831E-02    0.6461001317E+00    0.7680701393E-04
    0.7000000000E+07    0.2028375188E-05    0.6959587907E+00    0.5571139620E-02    0.6519216058E+00    0.7825695423E-04
    0.9000000000E+07    0.1256598061E-05    0.6959577768E+00    0.4357787943E-02    0.6552242007E+00    0.7935775584E-04
    0.1100000000E+08    0.8556841551E-06    0.6959569490E+00    0.3576225462E-02    0.6573507574E+00    0.8024783564E-04
    0.1300000000E+08    0.6207742375E-06    0.6959562483E+00    0.3031069907E-02    0.6588339377E+00    0.8099641723E-04
    0.1500000000E+08    0.4712709022E-06    0.6959556400E+00    0.2629301555E-02    0.6599270507E+00    0.8164321245E-04
    0.1700000000E+08    0.3702020998E-06    0.6959551019E+00    0.2321011658E-02    0.6607659180E+00    0.8221316437E-04
    0.1900000000E+08    0.2986556265E-06    0.6959546192E+00    0.2077029361E-02    0.6614298940E+00    0.8272298712E-04
    0.2100000000E+08    0.2461343704E-06    0.6959541811E+00    0.1879168395E-02    0.6619684396E+00    0.8318443916E-04
    0.2300000000E+08    0.2064292990E-06    0.6959537800E+00    0.1715503697E-02    0.6624139829E+00    0.8360611284E-04
    0.2500000000E+08    0.1756754925E-06    0.6959534099E+00    0.1577891641E-02    0.6627886674E+00    0.8399448142E-04
    0.2700000000E+08    0.1513642597E-06    0.6959530662E+00    0.1460581979E-02    0.6631081283E+00    0.8435454542E-04
