  Pressure (Pa) 23mC5-500 (mol/kg) 24mC5-500 (mol/kg) 2mC6-500 (mol/kg) 3mC6-500 (mol/kg) C7-500 (mol/kg)
    0.1000000000E+01    0.6155658116E-06    0.1514034752E+00    0.1107934481E-04    0.5870115647E-05    0.4180702064E-02
    0.3000000000E+01    0.1196320446E-05    0.3164906713E+00    0.2054268815E-04    0.1492552640E-04    0.4211566151E-02
    0.5000000000E+01    0.1460676933E-05    0.4047603209E+00    0.2457732328E-04    0.2324272045E-04    0.4225924018E-02
    0.7000000000E+01    0.1608298325E-05    0.4597098501E+00    0.2695014786E-04    0.3120950747E-04    0.4234507010E-02
    0.9000000000E+01    0.1704348401E-05    0.4972106100E+00    0.2874630411E-04    0.3895612417E-04    0.4240171024E-02
    0.1100000000E+02    0.1775142556E-05    0.5244350438E+00    0.3034538964E-04    0.4654755813E-04    0.4244131053E-02
    0.1300000000E+02    0.1832810921E-05    0.5450982294E+00    0.3189468741E-04    0.5402240957E-04    0.4247003671E-02
    0.1500000000E+02    0.1883469170E-05    0.5613170580E+00    0.3345381694E-04    0.6140607228E-04    0.4249137509E-02
    0.1700000000E+02    0.1930402030E-05    0.5743861919E+00    0.3504632172E-04    0.6871642720E-04    0.4250745301E-02
    0.1900000000E+02    0.1975455071E-05    0.5851419396E+00    0.3668011949E-04    0.7596669433E-04    0.4251964532E-02
    0.2100000000E+02    0.2019698082E-05    0.5941486049E+00    0.3835623510E-04    0.8316701396E-04    0.4252888154E-02
    0.2300000000E+02    0.2063763205E-05    0.6018007570E+00    0.4007272460E-04    0.9032539146E-04    0.4253581349E-02
    0.2500000000E+02    0.2108026769E-05    0.6083825849E+00    0.4182649345E-04    0.9744829511E-04    0.4254091219E-02
    0.2700000000E+02    0.2152711404E-05    0.6141039730E+00    0.4361414673E-04    0.1045410521E-03    0.4254452685E-02
    0.2900000000E+02    0.2197945460E-05    0.6191232960E+00    0.4543237901E-04    0.1116081209E-03    0.4254692195E-02
    0.3100000000E+02    0.2243798610E-05    0.6235623075E+00    0.4727814077E-04    0.1186532840E-03    0.4254830166E-02
    0.3300000000E+02    0.2290303712E-05    0.6275161465E+00    0.4914869561E-04    0.1256797889E-03    0.4254882615E-02
    0.3500000000E+02    0.2337470492E-05    0.6310602327E+00    0.5104162514E-04    0.1326904522E-03    0.4254862288E-02
    0.3700000000E+02    0.2385294242E-05    0.6342551240E+00    0.5295480988E-04    0.1396877393E-03    0.4254779464E-02
    0.3900000000E+02    0.2433761429E-05    0.6371500052E+00    0.5488640057E-04    0.1466738256E-03    0.4254642519E-02
    0.4100000000E+02    0.2482853324E-05    0.6397852384E+00    0.5683478711E-04    0.1536506447E-03    0.4254458358E-02
    0.4300000000E+02    0.2532548373E-05    0.6421942562E+00    0.5879856852E-04    0.1606199262E-03    0.4254232717E-02
    0.4500000000E+02    0.2582823744E-05    0.6444049876E+00    0.6077652539E-04    0.1675832265E-03    0.4253970408E-02
    0.4700000000E+02    0.2633656321E-05    0.6464409458E+00    0.6276759550E-04    0.1745419539E-03    0.4253675495E-02
    0.4900000000E+02    0.2685023345E-05    0.6483220677E+00    0.6477085242E-04    0.1814973889E-03    0.4253351436E-02
    0.1000000000E+02    0.1741945155E-05    0.5118239429E+00    0.2955824056E-04    0.4276841827E-04    0.4242316847E-02
    0.3000000000E+02    0.2220791922E-05    0.6214088635E+00    0.4635199729E-04    0.1151332265E-03    0.4254772784E-02
    0.5000000000E+02    0.2710900362E-05    0.6492099816E+00    0.6577679397E-04    0.1849742411E-03    0.4253179419E-02
    0.7000000000E+02    0.3251761983E-05    0.6619010516E+00    0.8638625512E-04    0.2545771213E-03    0.4248744529E-02
    0.9000000000E+02    0.3828009296E-05    0.6691682311E+00    0.1077222954E-03    0.3247547742E-03    0.4243163781E-02
    0.1100000000E+03    0.4431899090E-05    0.6738763206E+00    0.1296598896E-03    0.3959487485E-03    0.4236948846E-02
    0.1300000000E+03    0.5059796466E-05    0.6771746449E+00    0.1521730764E-03    0.4684537545E-03    0.4230304347E-02
    0.1500000000E+03    0.5710068053E-05    0.6796139124E+00    0.1752713568E-03    0.5424939755E-03    0.4223325078E-02
    0.1700000000E+03    0.6382127728E-05    0.6814910444E+00    0.1989789340E-03    0.6182561121E-03    0.4216058261E-02
    0.1900000000E+03    0.7075984810E-05    0.6829802649E+00    0.2233269999E-03    0.6959060414E-03    0.4208527616E-02
    0.2100000000E+03    0.7792016099E-05    0.6841905439E+00    0.2483506373E-03    0.7755981831E-03    0.4200744047E-02
    0.2300000000E+03    0.8530844450E-05    0.6851935320E+00    0.2740875475E-03    0.8574812433E-03    0.4192710872E-02
    0.2500000000E+03    0.9293271487E-05    0.6860382764E+00    0.3005775612E-03    0.9417020069E-03    0.4184426587E-02
    0.2700000000E+03    0.1008023949E-04    0.6867594825E+00    0.3278625092E-03    0.1028408018E-02    0.4175886402E-02
    0.2900000000E+03    0.1089280986E-04    0.6873823987E+00    0.3559862688E-03    0.1117749598E-02    0.4167083135E-02
    0.3100000000E+03    0.1173215145E-04    0.6879258325E+00    0.3849949009E-03    0.1209881460E-02    0.4158007748E-02
    0.3300000000E+03    0.1259953514E-04    0.6884040808E+00    0.4149368391E-03    0.1304964082E-02    0.4148649664E-02
    0.3500000000E+03    0.1349633242E-04    0.6888282057E+00    0.4458631108E-03    0.1403164922E-02    0.4138996958E-02
    0.3700000000E+03    0.1442401684E-04    0.6892069006E+00    0.4778275828E-03    0.1504659559E-02    0.4129036462E-02
    0.3900000000E+03    0.1538416755E-04    0.6895470916E+00    0.5108872292E-03    0.1609632793E-02    0.4118753817E-02
    0.4100000000E+03    0.1637847446E-04    0.6898543653E+00    0.5451024180E-03    0.1718279747E-02    0.4108133485E-02
    0.4300000000E+03    0.1740874483E-04    0.6901332774E+00    0.5805372217E-03    0.1830806983E-02    0.4097158730E-02
    0.4500000000E+03    0.1847691103E-04    0.6903875799E+00    0.6172597504E-03    0.1947433671E-02    0.4085811580E-02
    0.4700000000E+03    0.1958503952E-04    0.6906203913E+00    0.6553425121E-03    0.2068392810E-02    0.4074072771E-02
    0.4900000000E+03    0.2073534102E-04    0.6908343243E+00    0.6948628020E-03    0.2193932539E-02    0.4061921674E-02
    0.1000000000E+03    0.4126789699E-05    0.6717495278E+00    0.1186187582E-03    0.3602040770E-03    0.4240119011E-02
    0.3000000000E+03    0.1130905718E-04    0.6876630691E+00    0.3703770067E-03    0.1163456864E-02    0.4162580084E-02
    0.5000000000E+03    0.2132703969E-04    0.6909349144E+00    0.7151875870E-03    0.2258502148E-02    0.4055684677E-02
    0.7000000000E+03    0.3607143980E-04    0.6923458881E+00    0.1221331332E-02    0.3867873354E-02    0.3902829848E-02
    0.9000000000E+03    0.5944448434E-04    0.6931318001E+00    0.2023961840E-02    0.6424871554E-02    0.3668283664E-02
    0.1100000000E+04    0.9994812086E-04    0.6936325597E+00    0.3417175224E-02    0.1087406388E-01    0.3277359340E-02
    0.1300000000E+04    0.1757456358E-03    0.6939794553E+00    0.6032107470E-02    0.1925302188E-01    0.2583547850E-02
    0.1500000000E+04    0.3065182377E-03    0.6942339114E+00    0.1056828921E-01    0.3387249728E-01    0.1487249003E-02
    0.1700000000E+04    0.4424681459E-03    0.6944285018E+00    0.1534189031E-01    0.4945155375E-01    0.5445840423E-03
    0.1900000000E+04    0.5205844703E-03    0.6945821076E+00    0.1816472067E-01    0.5893135131E-01    0.2206995975E-03
    0.2100000000E+04    0.5685065665E-03    0.6947064271E+00    0.1996542081E-01    0.6520596532E-01    0.1570655965E-03
    0.2300000000E+04    0.6078140355E-03    0.6948090948E+00    0.2148397339E-01    0.7063268330E-01    0.1467549948E-03
    0.2500000000E+04    0.6437673379E-03    0.6948953043E+00    0.2290111012E-01    0.7578892612E-01    0.1455739734E-03
    0.2700000000E+04    0.6774576291E-03    0.6949687121E+00    0.2425351396E-01    0.8078967131E-01    0.1458885211E-03
    0.2900000000E+04    0.7091767341E-03    0.6950319665E+00    0.2555014386E-01    0.8566047297E-01    0.1464218714E-03
    0.3100000000E+04    0.7390657285E-03    0.6950870329E+00    0.2679477243E-01    0.9041024369E-01    0.1469626707E-03
    0.3300000000E+04    0.7672327964E-03    0.6951354003E+00    0.2799010196E-01    0.9504462101E-01    0.1474783605E-03
    0.3500000000E+04    0.7937748491E-03    0.6951782178E+00    0.2913851870E-01    0.9956841853E-01    0.1479662925E-03
    0.3700000000E+04    0.8187818277E-03    0.6952163858E+00    0.3024223871E-01    0.1039860899E+00    0.1484285144E-03
    0.3900000000E+04    0.8423378486E-03    0.6952506201E+00    0.3130334267E-01    0.1083018287E+00    0.1488675123E-03
    0.4100000000E+04    0.8645217452E-03    0.6952814971E+00    0.3232378962E-01    0.1125196000E+00    0.1492855395E-03
    0.4300000000E+04    0.8854074714E-03    0.6953094855E+00    0.3330542625E-01    0.1166431583E+00    0.1496845550E-03
    0.4500000000E+04    0.9050644547E-03    0.6953349711E+00    0.3424999482E-01    0.1206760620E+00    0.1500662570E-03
    0.4700000000E+04    0.9235579162E-03    0.6953582738E+00    0.3515914028E-01    0.1246216861E+00    0.1504321249E-03
    0.4900000000E+04    0.9409491651E-03    0.6953796613E+00    0.3603441686E-01    0.1284832342E+00    0.1507834549E-03
    0.1000000000E+04    0.7671475356E-04    0.6934071651E+00    0.2617642305E-02    0.8319303190E-02    0.3499530200E-02
    0.3000000000E+04    0.7243428695E-03    0.6950604208E+00    0.2617877856E-01    0.8805010439E-01    0.1466947094E-03
    0.5000000000E+04    0.9492496164E-03    0.6953897088E+00    0.3645981670E-01    0.1303834367E+00    0.1509540303E-03
    0.7000000000E+04    0.1069704046E-02    0.6955299564E+00    0.4350713426E-01    0.1646375331E+00    0.1538198533E-03
    0.9000000000E+04    0.1128121092E-02    0.6956073520E+00    0.4842990261E-01    0.1931603895E+00    0.1559921887E-03
    0.1100000000E+05    0.1148732234E-02    0.6956562627E+00    0.5190086567E-01    0.2174452314E+00    0.1577471101E-03
    0.1300000000E+05    0.1145979160E-02    0.6956898833E+00    0.5434863796E-01    0.2384904030E+00    0.1592221960E-03
    0.1500000000E+05    0.1128754447E-02    0.6957143595E+00    0.5605731790E-01    0.2569909781E+00    0.1604962002E-03
    0.1700000000E+05    0.1102672843E-02    0.6957329383E+00    0.5722142762E-01    0.2734473773E+00    0.1616185148E-03
    0.1900000000E+05    0.1071346836E-02    0.6957474956E+00    0.5797780764E-01    0.2882301754E+00    0.1626222017E-03
    0.2100000000E+05    0.1037131677E-02    0.6957591902E+00    0.5842494229E-01    0.3016204606E+00    0.1635305013E-03
    0.2300000000E+05    0.1001575075E-02    0.6957687763E+00    0.5863510185E-01    0.3138359020E+00    0.1643603853E-03
    0.2500000000E+05    0.9656962919E-03    0.6957767654E+00    0.5866221258E-01    0.3250481205E+00    0.1651246333E-03
    0.2700000000E+05    0.9301635199E-03    0.6957835169E+00    0.5854709741E-01    0.3353945857E+00    0.1658331134E-03
    0.2900000000E+05    0.8954089297E-03    0.6957892904E+00    0.5832104922E-01    0.3449869601E+00    0.1664936072E-03
    0.3100000000E+05    0.8617046032E-03    0.6957942779E+00    0.5800831850E-01    0.3539170778E+00    0.1671123613E-03
    0.3300000000E+05    0.8292134041E-03    0.6957986247E+00    0.5762787774E-01    0.3622613097E+00    0.1676944680E-03
    0.3500000000E+05    0.7980234925E-03    0.6958024425E+00    0.5719469355E-01    0.3700838050E+00    0.1682441340E-03
    0.3700000000E+05    0.7681719930E-03    0.6958058189E+00    0.5672065778E-01    0.3774389359E+00    0.1687648753E-03
    0.3900000000E+05    0.7396613655E-03    0.6958088231E+00    0.5621527808E-01    0.3843731664E+00    0.1692596611E-03
    0.4100000000E+05    0.7124708072E-03    0.6958115107E+00    0.5568619646E-01    0.3909264998E+00    0.1697310221E-03
    0.4300000000E+05    0.6865642308E-03    0.6958139270E+00    0.5513958295E-01    0.3971336126E+00    0.1701811332E-03
    0.4500000000E+05    0.6618958635E-03    0.6958161090E+00    0.5458043747E-01    0.4030247522E+00    0.1706118774E-03
    0.4700000000E+05    0.6384141786E-03    0.6958180874E+00    0.5401282356E-01    0.4086264542E+00    0.1710248957E-03
    0.4900000000E+05    0.6160646491E-03    0.6958198878E+00    0.5344005068E-01    0.4139621220E+00    0.1714216278E-03
    0.1000000000E+05    0.1142083119E-02    0.6956342953E+00    0.5031581156E-01    0.2057613551E+00    0.1569113071E-03
    0.3000000000E+05    0.8784132130E-03    0.6957918724E+00    0.5817422657E-01    0.3495297079E+00    0.1668078599E-03
    0.5000000000E+05    0.6052970677E-03    0.6958207282E+00    0.5315259364E-01    0.4165367679E+00    0.1716142890E-03
    0.7000000000E+05    0.4365121196E-03    0.6958319796E+00    0.4756989231E-01    0.4580498058E+00    0.1748547527E-03
    0.9000000000E+05    0.3289361482E-03    0.6958376064E+00    0.4270477637E-01    0.4869965048E+00    0.1773146505E-03
    0.1100000000E+06    0.2567228456E-03    0.6958407862E+00    0.3861836859E-01    0.5085712855E+00    0.1793035337E-03
    0.1300000000E+06    0.2060033123E-03    0.6958427074E+00    0.3519068627E-01    0.5253689248E+00    0.1809761711E-03
    0.1500000000E+06    0.1690320339E-03    0.6958439092E+00    0.3229378206E-01    0.5388623318E+00    0.1824213352E-03
    0.1700000000E+06    0.1412491681E-03    0.6958446687E+00    0.2982163611E-01    0.5499615044E+00    0.1836947785E-03
    0.1900000000E+06    0.1198375592E-03    0.6958451414E+00    0.2769129109E-01    0.5592638229E+00    0.1848338573E-03
    0.2100000000E+06    0.1029827023E-03    0.6958454209E+00    0.2583860835E-01    0.5671798460E+00    0.1858648504E-03
    0.2300000000E+06    0.8947356141E-04    0.6958455659E+00    0.2421385562E-01    0.5740020968E+00    0.1868069597E-03
    0.2500000000E+06    0.7847684037E-04    0.6958456153E+00    0.2277814969E-01    0.5799451759E+00    0.1876746512E-03
    0.2700000000E+06    0.6940386535E-04    0.6958455954E+00    0.2150077897E-01    0.5851703799E+00    0.1884790991E-03
    0.2900000000E+06    0.6182913641E-04    0.6958455246E+00    0.2035722866E-01    0.5898014486E+00    0.1892291179E-03
    0.3100000000E+06    0.5543885408E-04    0.6958454159E+00    0.1932772755E-01    0.5939349910E+00    0.1899317858E-03
    0.3300000000E+06    0.4999744924E-04    0.6958452791E+00    0.1839617314E-01    0.5976475941E+00    0.1905928737E-03
    0.3500000000E+06    0.4532526318E-04    0.6958451210E+00    0.1754932991E-01    0.6010007900E+00    0.1912171501E-03
    0.3700000000E+06    0.4128332496E-04    0.6958449471E+00    0.1677622540E-01    0.6040446060E+00    0.1918086014E-03
    0.3900000000E+06    0.3776275809E-04    0.6958447614E+00    0.1606769076E-01    0.6068201483E+00    0.1923705945E-03
    0.4100000000E+06    0.3467727388E-04    0.6958445670E+00    0.1541600765E-01    0.6093615158E+00    0.1929059995E-03
    0.4300000000E+06    0.3195776418E-04    0.6958443662E+00    0.1481463418E-01    0.6116972396E+00    0.1934172830E-03
    0.4500000000E+06    0.2954834777E-04    0.6958441610E+00    0.1425799027E-01    0.6138513794E+00    0.1939065811E-03
    0.4700000000E+06    0.2740344007E-04    0.6958439528E+00    0.1374128807E-01    0.6158443698E+00    0.1943757557E-03
    0.4900000000E+06    0.2548555404E-04    0.6958437427E+00    0.1326039680E-01    0.6176936809E+00    0.1948264399E-03
    0.1000000000E+06    0.2894696993E-03    0.6958394049E+00    0.4057076240E-01    0.4985067115E+00    0.1783561437E-03
    0.3000000000E+06    0.5850219207E-04    0.6958454743E+00    0.1982930382E-01    0.5919252212E+00    0.1895859835E-03
    0.5000000000E+06    0.2460182433E-04    0.6958436373E+00    0.1303224189E-01    0.6185692357E+00    0.1950453049E-03
    0.7000000000E+06    0.1353121475E-04    0.6958415739E+00    0.9688280751E-02    0.6312749410E+00    0.1987267938E-03
    0.9000000000E+06    0.8567495362E-05    0.6958397136E+00    0.7702816431E-02    0.6387167171E+00    0.2015217682E-03
    0.1100000000E+07    0.5917538868E-05    0.6958380710E+00    0.6388969008E-02    0.6436043728E+00    0.2037816971E-03
    0.1300000000E+07    0.4336157776E-05    0.6958366133E+00    0.5455779406E-02    0.6470598157E+00    0.2056823500E-03
    0.1500000000E+07    0.3316417086E-05    0.6958353071E+00    0.4759017117E-02    0.6496317963E+00    0.2073245605E-03
    0.1700000000E+07    0.2620186498E-05    0.6958341256E+00    0.4219087265E-02    0.6516205081E+00    0.2087716615E-03
    0.1900000000E+07    0.2123502378E-05    0.6958330475E+00    0.3788488611E-02    0.6532040051E+00    0.2100660919E-03
    0.2100000000E+07    0.1756623970E-05    0.6958320564E+00    0.3437127128E-02    0.6544945819E+00    0.2112377072E-03
    0.2300000000E+07    0.1477854193E-05    0.6958311394E+00    0.3145015492E-02    0.6555665625E+00    0.2123083241E-03
    0.2500000000E+07    0.1261009691E-05    0.6958302861E+00    0.2898361169E-02    0.6564710966E+00    0.2132943785E-03
    0.2700000000E+07    0.1088970846E-05    0.6958294881E+00    0.2687340298E-02    0.6572445365E+00    0.2142085670E-03
    0.2900000000E+07    0.9501584067E-06    0.6958287386E+00    0.2504766830E-02    0.6579134267E+00    0.2150609053E-03
    0.3100000000E+07    0.8365113194E-06    0.6958280320E+00    0.2345263365E-02    0.6584976014E+00    0.2158594356E-03
    0.3300000000E+07    0.7422765710E-06    0.6958273635E+00    0.2204726140E-02    0.6590121789E+00    0.2166107159E-03
    0.3500000000E+07    0.6632585394E-06    0.6958267292E+00    0.2079969249E-02    0.6594688837E+00    0.2173201643E-03
    0.3700000000E+07    0.5963386529E-06    0.6958261256E+00    0.1968481771E-02    0.6598769481E+00    0.2179923108E-03
    0.3900000000E+07    0.5391595270E-06    0.6958255499E+00    0.1868258112E-02    0.6602437409E+00    0.2186309812E-03
    0.4100000000E+07    0.4899121923E-06    0.6958249996E+00    0.1777677048E-02    0.6605752150E+00    0.2192394368E-03
    0.4300000000E+07    0.4471896617E-06    0.6958244724E+00    0.1695413908E-02    0.6608762312E+00    0.2198204809E-03
    0.4500000000E+07    0.4098841956E-06    0.6958239665E+00    0.1620375781E-02    0.6611507983E+00    0.2203765406E-03
    0.4700000000E+07    0.3771139678E-06    0.6958234801E+00    0.1551652980E-02    0.6614022514E+00    0.2209097316E-03
    0.4900000000E+07    0.3481698873E-06    0.6958230117E+00    0.1488482219E-02    0.6616333879E+00    0.2214219099E-03
    0.1000000000E+07    0.7058197116E-05    0.6958388670E+00    0.6985145133E-02    0.6413899536E+00    0.2027051842E-03
    0.3000000000E+07    0.8905923916E-06    0.6958283802E+00    0.2422412837E-02    0.6582150661E+00    0.2154664564E-03
    0.5000000000E+07    0.3349484498E-06    0.6958227839E+00    0.1458773258E-02    0.6617420907E+00    0.2216706384E-03
    0.7000000000E+07    0.1758645830E-06    0.6958189190E+00    0.1041718036E-02    0.6632682967E+00    0.2258544697E-03
    0.9000000000E+07    0.1088692440E-06    0.6958159503E+00    0.8092970935E-03    0.6641193543E+00    0.2290308333E-03
    0.1100000000E+08    0.7437962776E-07    0.6958135325E+00    0.6612470834E-03    0.6646618788E+00    0.2315991457E-03
    0.1300000000E+08    0.5427159056E-07    0.6958114888E+00    0.5587405000E-03    0.6650377965E+00    0.2337591578E-03
    0.1500000000E+08    0.4150826255E-07    0.6958097163E+00    0.4835925878E-03    0.6653135840E+00    0.2356254612E-03
    0.1700000000E+08    0.3288985398E-07    0.6958081497E+00    0.4261564993E-03    0.6655245157E+00    0.2372700309E-03
    0.1900000000E+08    0.2678961368E-07    0.6958067450E+00    0.3808406288E-03    0.6656910444E+00    0.2387410965E-03
    0.2100000000E+08    0.2230862735E-07    0.6958054708E+00    0.3441812006E-03    0.6658258445E+00    0.2400725876E-03
    0.2300000000E+08    0.1891692507E-07    0.6958043044E+00    0.3139184614E-03    0.6659371877E+00    0.2412892979E-03
    0.2500000000E+08    0.1628541655E-07    0.6958032284E+00    0.2885155856E-03    0.6660307015E+00    0.2424099062E-03
    0.2700000000E+08    0.1420087291E-07    0.6958022294E+00    0.2668911258E-03    0.6661103477E+00    0.2434488417E-03
