  Pressure (Pa) 23mC5-500 (mol/kg) 24mC5-500 (mol/kg) 2mC6-500 (mol/kg) 3mC6-500 (mol/kg) C7-500 (mol/kg)
    0.1000000000E+01    0.1526111682E-05    0.3665802277E-01    0.3139569531E-04    0.2319383390E-05    0.4208361293E-02
    0.3000000000E+01    0.4026739662E-05    0.9947173885E-01    0.8108834456E-04    0.5961641344E-05    0.4291853799E-02
    0.5000000000E+01    0.5999565042E-05    0.1513349320E+00    0.1189361572E-03    0.9320526088E-05    0.4358809142E-02
    0.7000000000E+01    0.7586325897E-05    0.1948823360E+00    0.1483931497E-03    0.1254332840E-04    0.4414982352E-02
    0.9000000000E+01    0.8882424990E-05    0.2319661288E+00    0.1717182450E-03    0.1567988082E-04    0.4462929169E-02
    0.1100000000E+02    0.9955118993E-05    0.2639263964E+00    0.1904708459E-03    0.1875515410E-04    0.4504379667E-02
    0.1300000000E+02    0.1085317329E-04    0.2917566767E+00    0.2057592909E-03    0.2178402444E-04    0.4540593409E-02
    0.1500000000E+02    0.1161273803E-04    0.3162091841E+00    0.2183888480E-03    0.2477630100E-04    0.4572518117E-02
    0.1700000000E+02    0.1226111531E-04    0.3378638887E+00    0.2289552816E-03    0.2773890365E-04    0.4600883005E-02
    0.1900000000E+02    0.1281925882E-04    0.3571751515E+00    0.2379062146E-03    0.3067695611E-04    0.4626259196E-02
    0.2100000000E+02    0.1330347793E-04    0.3745039852E+00    0.2455824967E-03    0.3359439329E-04    0.4649100744E-02
    0.2300000000E+02    0.1372662620E-04    0.3901408582E+00    0.2522467387E-03    0.3649432469E-04    0.4669773360E-02
    0.2500000000E+02    0.1409894684E-04    0.4043221241E+00    0.2581033808E-03    0.3937926474E-04    0.4688575018E-02
    0.2700000000E+02    0.1442868468E-04    0.4172420648E+00    0.2633130513E-03    0.4225128550E-04    0.4705751014E-02
    0.2900000000E+02    0.1472253608E-04    0.4290618533E+00    0.2680029968E-03    0.4511212186E-04    0.4721505166E-02
    0.3100000000E+02    0.1498598439E-04    0.4399163191E+00    0.2722747622E-03    0.4796324614E-04    0.4736008263E-02
    0.3300000000E+02    0.1522355324E-04    0.4499191200E+00    0.2762099173E-03    0.5080592246E-04    0.4749404520E-02
    0.3500000000E+02    0.1543900005E-04    0.4591667410E+00    0.2798743721E-03    0.5364124730E-04    0.4761816577E-02
    0.3700000000E+02    0.1563546532E-04    0.4677416203E+00    0.2833216648E-03    0.5647018022E-04    0.4773349403E-02
    0.3900000000E+02    0.1581558911E-04    0.4757146156E+00    0.2865954880E-03    0.5929356766E-04    0.4784093382E-02
    0.4100000000E+02    0.1598160256E-04    0.4831469693E+00    0.2897316483E-03    0.6211216164E-04    0.4794126774E-02
    0.4300000000E+02    0.1613540054E-04    0.4900918859E+00    0.2927595974E-03    0.6492663449E-04    0.4803517689E-02
    0.4500000000E+02    0.1627859967E-04    0.4965958091E+00    0.2957036372E-03    0.6773759086E-04    0.4812325688E-02
    0.4700000000E+02    0.1641258498E-04    0.5026994627E+00    0.2985838757E-03    0.7054557734E-04    0.4820603094E-02
    0.4900000000E+02    0.1653854784E-04    0.5084387049E+00    0.3014169885E-03    0.7335109047E-04    0.4828396059E-02
    0.1000000000E+02    0.9443298357E-05    0.2485179387E+00    0.1815883391E-03    0.1722409113E-04    0.4484379013E-02
    0.3000000000E+02    0.1485775791E-04    0.4346022035E+00    0.2701856421E-03    0.4653881465E-04    0.4728903525E-02
    0.5000000000E+02    0.1659884789E-04    0.5111817232E+00    0.3028202985E-03    0.7475306265E-04    0.4832123833E-02
    0.7000000000E+02    0.1757071168E-04    0.5529511609E+00    0.3307417893E-03    0.1027548592E-03    0.4889062754E-02
    0.9000000000E+02    0.1835440571E-04    0.5792524804E+00    0.3608672356E-03    0.1308568786E-03    0.4924810029E-02
    0.1100000000E+03    0.1911422431E-04    0.5973363144E+00    0.3940854012E-03    0.1592251023E-03    0.4948949067E-02
    0.1300000000E+03    0.1990444506E-04    0.6105337298E+00    0.4302227570E-03    0.1879667537E-03    0.4965961826E-02
    0.1500000000E+03    0.2074383157E-04    0.6205895942E+00    0.4689600698E-03    0.2171602740E-03    0.4978236079E-02
    0.1700000000E+03    0.2163834533E-04    0.6285063349E+00    0.5100179188E-03    0.2468683075E-03    0.4987165652E-02
    0.1900000000E+03    0.2258912606E-04    0.6349008759E+00    0.5531842916E-03    0.2771442272E-03    0.4993621168E-02
    0.2100000000E+03    0.2359556268E-04    0.6401737082E+00    0.5983074551E-03    0.3080357746E-03    0.4998175506E-02
    0.2300000000E+03    0.2465653947E-04    0.6445961536E+00    0.6452834311E-03    0.3395872574E-03    0.5001221438E-02
    0.2500000000E+03    0.2577095020E-04    0.6483585564E+00    0.6940449071E-03    0.3718409653E-03    0.5003037284E-02
    0.2700000000E+03    0.2693790333E-04    0.6515983973E+00    0.7445526799E-03    0.4048381342E-03    0.5003825616E-02
    0.2900000000E+03    0.2815679344E-04    0.6544174543E+00    0.7967893480E-03    0.4386196365E-03    0.5003737124E-02
    0.3100000000E+03    0.2942731491E-04    0.6568926860E+00    0.8507547307E-03    0.4732264992E-03    0.5002885896E-02
    0.3300000000E+03    0.3074945171E-04    0.6590833627E+00    0.9064625578E-03    0.5087003111E-03    0.5001359530E-02
    0.3500000000E+03    0.3212345895E-04    0.6610358723E+00    0.9639380796E-03    0.5450835564E-03    0.4999226011E-02
    0.3700000000E+03    0.3354984304E-04    0.6627870395E+00    0.1023216343E-02    0.5824198994E-03    0.4996538498E-02
    0.3900000000E+03    0.3502934352E-04    0.6643664701E+00    0.1084340958E-02    0.6207544379E-03    0.4993338735E-02
    0.4100000000E+03    0.3656291763E-04    0.6657982368E+00    0.1147363216E-02    0.6601339354E-03    0.4989659517E-02
    0.4300000000E+03    0.3815172810E-04    0.6671021142E+00    0.1212341490E-02    0.7006070414E-03    0.4985526512E-02
    0.4500000000E+03    0.3979713384E-04    0.6682944973E+00    0.1279340831E-02    0.7422245056E-03    0.4980959616E-02
    0.4700000000E+03    0.4150068348E-04    0.6693890936E+00    0.1348432723E-02    0.7850393904E-03    0.4975973981E-02
    0.4900000000E+03    0.4326411145E-04    0.6703974525E+00    0.1419694977E-02    0.8291072860E-03    0.4970580797E-02
    0.1000000000E+03    0.1873261972E-04    0.5890604603E+00    0.3770926822E-03    0.1450001141E-03    0.4937980927E-02
    0.3000000000E+03    0.2878560785E-04    0.6556939945E+00    0.8235553862E-03    0.4558173158E-03    0.5003400849E-02
    0.5000000000E+03    0.4416887215E-04    0.6708724143E+00    0.1456166029E-02    0.8516292301E-03    0.4967733939E-02
    0.7000000000E+03    0.6599239414E-04    0.6775915306E+00    0.2324188815E-02    0.1384186441E-02    0.4889871237E-02
    0.9000000000E+03    0.9747102659E-04    0.6813804398E+00    0.3558891279E-02    0.2137730243E-02    0.4765980356E-02
    0.1100000000E+04    0.1449773228E-03    0.6838119553E+00    0.5411109968E-02    0.3267005661E-02    0.4573992725E-02
    0.1300000000E+04    0.2211180198E-03    0.6855041990E+00    0.8373796992E-02    0.5074822867E-02    0.4267561014E-02
    0.1500000000E+04    0.3504386072E-03    0.6867495064E+00    0.1340837660E-01    0.8153394600E-02    0.3760325860E-02
    0.1700000000E+04    0.5681677794E-03    0.6877040620E+00    0.2190937421E-01    0.1337126496E-01    0.2949408772E-02
    0.1900000000E+04    0.8570118105E-03    0.6884588898E+00    0.3326257861E-01    0.2039001695E-01    0.1977890669E-02
    0.2100000000E+04    0.1087159297E-02    0.6890706220E+00    0.4244696097E-01    0.2615604285E-01    0.1363984569E-02
    0.2300000000E+04    0.1220160357E-02    0.6895763379E+00    0.4791549522E-01    0.2969046131E-01    0.1161756387E-02
    0.2500000000E+04    0.1309352538E-02    0.6900013309E+00    0.5171026412E-01    0.3222216446E-01    0.1115933869E-02
    0.2700000000E+04    0.1383825136E-02    0.6903634454E+00    0.5495714021E-01    0.3443660004E-01    0.1109371261E-02
    0.2900000000E+04    0.1452040212E-02    0.6906756306E+00    0.5798415103E-01    0.3653390563E-01    0.1111482436E-02
    0.3100000000E+04    0.1516225472E-02    0.6909475110E+00    0.6087656460E-01    0.3856550250E-01    0.1115306571E-02
    0.3300000000E+04    0.1577054532E-02    0.6911863888E+00    0.6365890733E-01    0.4054544358E-01    0.1119312378E-02
    0.3500000000E+04    0.1634821065E-02    0.6913979040E+00    0.6634088978E-01    0.4247867760E-01    0.1123178464E-02
    0.3700000000E+04    0.1689719467E-02    0.6915864821E+00    0.6892843557E-01    0.4436787024E-01    0.1126851576E-02
    0.3900000000E+04    0.1741912151E-02    0.6917556440E+00    0.7142633148E-01    0.4621504753E-01    0.1130336362E-02
    0.4100000000E+04    0.1791546269E-02    0.6919082259E+00    0.7383888123E-01    0.4802199926E-01    0.1133648293E-02
    0.4300000000E+04    0.1838758321E-02    0.6920465378E+00    0.7617007959E-01    0.4979038313E-01    0.1136803307E-02
    0.4500000000E+04    0.1883675803E-02    0.6921724804E+00    0.7842366928E-01    0.5152175581E-01    0.1139815768E-02
    0.4700000000E+04    0.1926418098E-02    0.6922876313E+00    0.8060316792E-01    0.5321758546E-01    0.1142698272E-02
    0.4900000000E+04    0.1967097126E-02    0.6923933115E+00    0.8271188641E-01    0.5487925924E-01    0.1145461842E-02
    0.1000000000E+04    0.1186333338E-03    0.6827158532E+00    0.4384825540E-02    0.2641282294E-02    0.4680662319E-02
    0.3000000000E+04    0.1484579214E-02    0.6908161071E+00    0.5944505315E-01    0.3755667208E-01    0.1113326228E-02
    0.5000000000E+04    0.1986695990E-02    0.6924429551E+00    0.8374068504E-01    0.5569770052E-01    0.1146802096E-02
    0.7000000000E+04    0.2292679173E-02    0.6931354308E+00    0.1012700460E+00    0.7055733057E-01    0.1169192742E-02
    0.9000000000E+04    0.2479388671E-02    0.6935167219E+00    0.1143634913E+00    0.8313502893E-01    0.1186037116E-02
    0.1100000000E+05    0.2590308533E-02    0.6937569831E+00    0.1244006552E+00    0.9404581184E-01    0.1199584842E-02
    0.1300000000E+05    0.2651494217E-02    0.6939215936E+00    0.1322498637E+00    0.1036921327E+00    0.1210939412E-02
    0.1500000000E+05    0.2679258690E-02    0.6940410068E+00    0.1384837923E+00    0.1123497735E+00    0.1220726206E-02
    0.1700000000E+05    0.2684180807E-02    0.6941313079E+00    0.1434947474E+00    0.1202149227E+00    0.1229334741E-02
    0.1900000000E+05    0.2673319605E-02    0.6942017848E+00    0.1475600610E+00    0.1274315418E+00    0.1237024426E-02
    0.2100000000E+05    0.2651496919E-02    0.6942581713E+00    0.1508810462E+00    0.1341080629E+00    0.1243976902E-02
    0.2300000000E+05    0.2622070404E-02    0.6943041957E+00    0.1536071729E+00    0.1403279968E+00    0.1250324408E-02
    0.2500000000E+05    0.2587415347E-02    0.6943423855E+00    0.1558516033E+00    0.1461569095E+00    0.1256166272E-02
    0.2700000000E+05    0.2549233768E-02    0.6943745137E+00    0.1577014797E+00    0.1516471487E+00    0.1261579033E-02
    0.2900000000E+05    0.2508757734E-02    0.6944018601E+00    0.1592249178E+00    0.1568411286E+00    0.1266622944E-02
    0.3100000000E+05    0.2466886031E-02    0.6944253711E+00    0.1604758695E+00    0.1617736671E+00    0.1271346302E-02
    0.3300000000E+05    0.2424277828E-02    0.6944457613E+00    0.1614975758E+00    0.1664736806E+00    0.1275788427E-02
    0.3500000000E+05    0.2381417954E-02    0.6944635801E+00    0.1623250615E+00    0.1709654365E+00    0.1279981767E-02
    0.3700000000E+05    0.2338663080E-02    0.6944792565E+00    0.1629869682E+00    0.1752694932E+00    0.1283953415E-02
    0.3900000000E+05    0.2296274839E-02    0.6944931304E+00    0.1635069208E+00    0.1794034163E+00    0.1287726232E-02
    0.4100000000E+05    0.2254443860E-02    0.6945054746E+00    0.1639045602E+00    0.1833823311E+00    0.1291319689E-02
    0.4300000000E+05    0.2213307395E-02    0.6945165101E+00    0.1641963323E+00    0.1872193544E+00    0.1294750505E-02
    0.4500000000E+05    0.2172962376E-02    0.6945264180E+00    0.1643960986E+00    0.1909259355E+00    0.1298033148E-02
    0.4700000000E+05    0.2133475164E-02    0.6945353481E+00    0.1645156133E+00    0.1945121279E+00    0.1301180220E-02
    0.4900000000E+05    0.2094888887E-02    0.6945434254E+00    0.1645648990E+00    0.1979868085E+00    0.1304202770E-02
    0.1000000000E+05    0.2542400212E-02    0.6936491670E+00    0.1197010536E+00    0.8876991393E-01    0.1193138404E-02
    0.3000000000E+05    0.2487950403E-02    0.6944140459E+00    0.1598815339E+00    0.1593381489E+00    0.1269022052E-02
    0.5000000000E+05    0.2075942122E-02    0.6945471776E+00    0.1645659395E+00    0.1996848287E+00    0.1305670438E-02
    0.7000000000E+05    0.1745032301E-02    0.6945958408E+00    0.1624494461E+00    0.2293106682E+00    0.1330343592E-02
    0.9000000000E+05    0.1492282263E-02    0.6946181721E+00    0.1583842094E+00    0.2531673170E+00    0.1349061031E-02
    0.1100000000E+06    0.1296103372E-02    0.6946293587E+00    0.1537490860E+00    0.2733065314E+00    0.1364188631E-02
    0.1300000000E+06    0.1140336670E-02    0.6946349898E+00    0.1490343388E+00    0.2907990868E+00    0.1376907578E-02
    0.1500000000E+06    0.1014045634E-02    0.6946375564E+00    0.1444329301E+00    0.3062854391E+00    0.1387894783E-02
    0.1700000000E+06    0.9097992613E-03    0.6946383149E+00    0.1400215780E+00    0.3201847486E+00    0.1397575107E-02
    0.1900000000E+06    0.8224306152E-03    0.6946379568E+00    0.1358270218E+00    0.3327893770E+00    0.1406233102E-02
    0.2100000000E+06    0.7482534479E-03    0.6946368876E+00    0.1318533493E+00    0.3443131035E+00    0.1414068871E-02
    0.2300000000E+06    0.6845733632E-03    0.6946353569E+00    0.1280942398E+00    0.3549180220E+00    0.1421228590E-02
    0.2500000000E+06    0.6293775375E-03    0.6946335247E+00    0.1245387699E+00    0.3647306097E+00    0.1427822359E-02
    0.2700000000E+06    0.5811329675E-03    0.6946314962E+00    0.1211742672E+00    0.3738518641E+00    0.1433935209E-02
    0.2900000000E+06    0.5386519734E-03    0.6946293427E+00    0.1179877342E+00    0.3823639870E+00    0.1439634207E-02
    0.3100000000E+06    0.5010003860E-03    0.6946271129E+00    0.1149665515E+00    0.3903349558E+00    0.1444973198E-02
    0.3300000000E+06    0.4674334874E-03    0.6946248411E+00    0.1120988070E+00    0.3978217482E+00    0.1449996081E-02
    0.3500000000E+06    0.4373504174E-03    0.6946225514E+00    0.1093734299E+00    0.4048726773E+00    0.1454739125E-02
    0.3700000000E+06    0.4102611322E-03    0.6946202609E+00    0.1067802202E+00    0.4115291214E+00    0.1459232647E-02
    0.3900000000E+06    0.3857620655E-03    0.6946179816E+00    0.1043098251E+00    0.4178268307E+00    0.1463502251E-02
    0.4100000000E+06    0.3635179305E-03    0.6946157224E+00    0.1019536902E+00    0.4237969320E+00    0.1467569763E-02
    0.4300000000E+06    0.3432479291E-03    0.6946134892E+00    0.9970399857E-01    0.4294667127E+00    0.1471453938E-02
    0.4500000000E+06    0.3247151718E-03    0.6946112864E+00    0.9755360753E-01    0.4348602409E+00    0.1475171018E-02
    0.4700000000E+06    0.3077184679E-03    0.6946091168E+00    0.9549598670E-01    0.4399988624E+00    0.1478735158E-02
    0.4900000000E+06    0.2920858887E-03    0.6946069824E+00    0.9352515974E-01    0.4449016029E+00    0.1482158774E-02
    0.1000000000E+06    0.1388275216E-02    0.6946246990E+00    0.1560966831E+00    0.2636207883E+00    0.1356983284E-02
    0.3000000000E+06    0.5192728817E-03    0.6946282349E+00    0.1164572374E+00    0.3864133277E+00    0.1442345758E-02
    0.5000000000E+06    0.2847341434E-03    0.6946059287E+00    0.9257056453E-01    0.4472699111E+00    0.1483821358E-02
    0.7000000000E+06    0.1824653987E-03    0.6945867507E+00    0.7692441311E-01    0.4855868458E+00    0.1511785554E-02
    0.9000000000E+06    0.1277230749E-03    0.6945707201E+00    0.6584382111E-01    0.5122763211E+00    0.1533013819E-02
    0.1100000000E+07    0.9472789686E-04    0.6945570665E+00    0.5756770346E-01    0.5320323480E+00    0.1550177191E-02
    0.1300000000E+07    0.7320950661E-04    0.6945452028E+00    0.5114385114E-01    0.5472814841E+00    0.1564611265E-02
    0.1500000000E+07    0.5835756443E-04    0.6945347204E+00    0.4600992496E-01    0.5594226785E+00    0.1577082156E-02
    0.1700000000E+07    0.4765703357E-04    0.6945253317E+00    0.4181143020E-01    0.5693248771E+00    0.1588071027E-02
    0.1900000000E+07    0.3968273968E-04    0.6945168288E+00    0.3831338595E-01    0.5775583958E+00    0.1597900278E-02
    0.2100000000E+07    0.3357559107E-04    0.6945090573E+00    0.3535368498E-01    0.5845139198E+00    0.1606796710E-02
    0.2300000000E+07    0.2879163339E-04    0.6945018997E+00    0.3281678739E-01    0.5904684502E+00    0.1614926049E-02
    0.2500000000E+07    0.2497234354E-04    0.6944952646E+00    0.3061807570E-01    0.5956240374E+00    0.1622413144E-02
    0.2700000000E+07    0.2187337898E-04    0.6944890797E+00    0.2869413598E-01    0.6001316197E+00    0.1629354434E-02
    0.2900000000E+07    0.1932342675E-04    0.6944832866E+00    0.2699649569E-01    0.6041062752E+00    0.1635825997E-02
    0.3100000000E+07    0.1719941626E-04    0.6944778377E+00    0.2548746115E-01    0.6076373025E+00    0.1641888917E-02
    0.3300000000E+07    0.1541104377E-04    0.6944726935E+00    0.2413727543E-01    0.6107950727E+00    0.1647593003E-02
    0.3500000000E+07    0.1389080705E-04    0.6944678210E+00    0.2292213162E-01    0.6136358016E+00    0.1652979410E-02
    0.3700000000E+07    0.1258741236E-04    0.6944631923E+00    0.2182275518E-01    0.6162049441E+00    0.1658082540E-02
    0.3900000000E+07    0.1146130751E-04    0.6944587837E+00    0.2082337361E-01    0.6185396553E+00    0.1662931452E-02
    0.4100000000E+07    0.1048159078E-04    0.6944545747E+00    0.1991095516E-01    0.6206706041E+00    0.1667550916E-02
    0.4300000000E+07    0.9623830881E-05    0.6944505476E+00    0.1907463802E-01    0.6226233307E+00    0.1671962220E-02
    0.4500000000E+07    0.8868503197E-05    0.6944466869E+00    0.1830529662E-01    0.6244192771E+00    0.1676183799E-02
    0.4700000000E+07    0.8199850556E-05    0.6944429791E+00    0.1759520788E-01    0.6260765775E+00    0.1680231721E-02
    0.4900000000E+07    0.7605041590E-05    0.6944394123E+00    0.1693779175E-01    0.6276106729E+00    0.1684120080E-02
    0.1000000000E+07    0.1093388964E-03    0.6945636378E+00    0.6142703398E-01    0.5228363656E+00    0.1542001571E-02
    0.3000000000E+07    0.1821445352E-04    0.6944805218E+00    0.2622042191E-01    0.6059224646E+00    0.1638905195E-02
    0.5000000000E+07    0.7331960376E-05    0.6944376783E+00    0.1662704110E-01    0.6283357285E+00    0.1686008366E-02
    0.7000000000E+07    0.3968243794E-05    0.6944083623E+00    0.1215520884E-01    0.6387639624E+00    0.1717769749E-02
    0.9000000000E+07    0.2498430658E-05    0.6943859526E+00    0.9570447349E-02    0.6447876535E+00    0.1741881433E-02
    0.1100000000E+08    0.1725047802E-05    0.6943677598E+00    0.7887575837E-02    0.6487085001E+00    0.1761376451E-02
    0.1300000000E+08    0.1267592311E-05    0.6943524185E+00    0.6705255398E-02    0.6514628756E+00    0.1777771561E-02
    0.1500000000E+08    0.9742419401E-06    0.6943391379E+00    0.5829387330E-02    0.6535033038E+00    0.1791936851E-02
    0.1700000000E+08    0.7746469395E-06    0.6943274183E+00    0.5154677752E-02    0.6550751619E+00    0.1804418802E-02
    0.1900000000E+08    0.6325433323E-06    0.6943169234E+00    0.4619079500E-02    0.6563230056E+00    0.1815583596E-02
    0.2100000000E+08    0.5276783602E-06    0.6943074156E+00    0.4183664976E-02    0.6573375119E+00    0.1825688836E-02
    0.2300000000E+08    0.4480108816E-06    0.6942987208E+00    0.3822779924E-02    0.6581784327E+00    0.1834922756E-02
    0.2500000000E+08    0.3860126710E-06    0.6942907076E+00    0.3518832976E-02    0.6588867378E+00    0.1843427166E-02
    0.2700000000E+08    0.3367783507E-06    0.6942832744E+00    0.3259360285E-02    0.6594914541E+00    0.1851311608E-02
