  Pressure (Pa) 23mC5-500 (mol/kg) 24mC5-500 (mol/kg) 2mC6-500 (mol/kg) 3mC6-500 (mol/kg) C7-500 (mol/kg)
    0.1000000000E+01    0.1321714638E-05    0.1266338920E+00    0.1517237649E-04    0.8171762655E-05    0.4145784431E-02
    0.3000000000E+01    0.2725787222E-05    0.2785317457E+00    0.3000220683E-04    0.2018978228E-04    0.4172098504E-02
    0.5000000000E+01    0.3441808859E-05    0.3664432774E+00    0.3712902080E-04    0.3110978882E-04    0.4179796158E-02
    0.7000000000E+01    0.3868091044E-05    0.4237663798E+00    0.4142590158E-04    0.4152065591E-04    0.4183561339E-02
    0.9000000000E+01    0.4152992322E-05    0.4641003927E+00    0.4454668073E-04    0.5161655540E-04    0.4185615509E-02
    0.1100000000E+02    0.4362304634E-05    0.4940235001E+00    0.4715379187E-04    0.6149342836E-04    0.4186735443E-02
    0.1300000000E+02    0.4528711046E-05    0.5171059410E+00    0.4954071359E-04    0.7120786984E-04    0.4187281735E-02
    0.1500000000E+02    0.4669803847E-05    0.5354529197E+00    0.5184590141E-04    0.8079691697E-04    0.4187448612E-02
    0.1700000000E+02    0.4795631626E-05    0.5503861616E+00    0.5413694219E-04    0.9028654076E-04    0.4187351032E-02
    0.1900000000E+02    0.4912198964E-05    0.5627773704E+00    0.5644702348E-04    0.9969587734E-04    0.4187061698E-02
    0.2100000000E+02    0.5023220765E-05    0.5732247356E+00    0.5879192503E-04    0.1090395642E-03    0.4186628940E-02
    0.2300000000E+02    0.5131057591E-05    0.5821524072E+00    0.6117838500E-04    0.1183291306E-03    0.4186086162E-02
    0.2500000000E+02    0.5237239934E-05    0.5898694990E+00    0.6360839680E-04    0.1275738752E-03    0.4185457196E-02
    0.2700000000E+02    0.5342774472E-05    0.5966066126E+00    0.6608148623E-04    0.1367814449E-03    0.4184759491E-02
    0.2900000000E+02    0.5448329267E-05    0.6025392761E+00    0.6859594487E-04    0.1459582325E-03    0.4184006109E-02
    0.3100000000E+02    0.5554349108E-05    0.6078034593E+00    0.7114950619E-04    0.1551096575E-03    0.4183207011E-02
    0.3300000000E+02    0.5661129149E-05    0.6125061230E+00    0.7373971637E-04    0.1642403702E-03    0.4182369921E-02
    0.3500000000E+02    0.5768862960E-05    0.6167325642E+00    0.7636413489E-04    0.1733544035E-03    0.4181500911E-02
    0.3700000000E+02    0.5877674453E-05    0.6205516362E+00    0.7902043886E-04    0.1824552877E-03    0.4180604815E-02
    0.3900000000E+02    0.5987639450E-05    0.6240195290E+00    0.8170647264E-04    0.1915461389E-03    0.4179685522E-02
    0.4100000000E+02    0.6098800435E-05    0.6271825527E+00    0.8442026666E-04    0.2006297283E-03    0.4178746197E-02
    0.4300000000E+02    0.6211176778E-05    0.6300792178E+00    0.8716003888E-04    0.2097085373E-03    0.4177789431E-02
    0.4500000000E+02    0.6324771880E-05    0.6327418104E+00    0.8992418716E-04    0.2187848012E-03    0.4176817369E-02
    0.4700000000E+02    0.6439578211E-05    0.6351976013E+00    0.9271127692E-04    0.2278605455E-03    0.4175831795E-02
    0.4900000000E+02    0.6555580880E-05    0.6374697833E+00    0.9552002701E-04    0.2369376144E-03    0.4174834201E-02
    0.1000000000E+02    0.4264566465E-05    0.4800939889E+00    0.4589092970E-04    0.5657822707E-04    0.4186264188E-02
    0.3000000000E+02    0.5501259762E-05    0.6052476614E+00    0.6986798963E-04    0.1505368087E-03    0.4183611747E-02
    0.5000000000E+02    0.6614024816E-05    0.6385433378E+00    0.9693216269E-04    0.2414771786E-03    0.4174331299E-02
    0.7000000000E+02    0.7840028107E-05    0.6539622353E+00    0.1260949435E-03    0.3326842606E-03    0.4163862607E-02
    0.9000000000E+02    0.9160078887E-05    0.6628546784E+00    0.1566896173E-03    0.4253467173E-03    0.4152889031E-02
    0.1100000000E+03    0.1055971411E-04    0.6686406132E+00    0.1885162420E-03    0.5201375372E-03    0.4141566545E-02
    0.1300000000E+03    0.1203187838E-04    0.6727058269E+00    0.2215366027E-03    0.6175320732E-03    0.4129929680E-02
    0.1500000000E+03    0.1357385518E-04    0.6757185526E+00    0.2557770294E-03    0.7179156407E-03    0.4117974892E-02
    0.1700000000E+03    0.1518544986E-04    0.6780406733E+00    0.2912941170E-03    0.8216302578E-03    0.4105684217E-02
    0.1900000000E+03    0.1686803929E-04    0.6798852271E+00    0.3281613242E-03    0.9289985441E-03    0.4093033282E-02
    0.2100000000E+03    0.1862407001E-04    0.6813857981E+00    0.3664634255E-03    0.1040337574E-02    0.4079994300E-02
    0.2300000000E+03    0.2045678791E-04    0.6826303985E+00    0.4062942494E-03    0.1155967823E-02    0.4066537200E-02
    0.2500000000E+03    0.2237009276E-04    0.6836793747E+00    0.4477559204E-03    0.1276219560E-02    0.4052630000E-02
    0.2700000000E+03    0.2436846372E-04    0.6845754861E+00    0.4909588553E-03    0.1401437847E-02    0.4038238843E-02
    0.2900000000E+03    0.2645692748E-04    0.6853498768E+00    0.5360221752E-03    0.1531986810E-02    0.4023327882E-02
    0.3100000000E+03    0.2864105388E-04    0.6860257685E+00    0.5830743777E-03    0.1668253537E-02    0.4007859067E-02
    0.3300000000E+03    0.3092697036E-04    0.6866208293E+00    0.6322541951E-03    0.1810651855E-02    0.3991791896E-02
    0.3500000000E+03    0.3332139069E-04    0.6871487403E+00    0.6837116077E-03    0.1959626151E-02    0.3975083119E-02
    0.3700000000E+03    0.3583165513E-04    0.6876202599E+00    0.7376090011E-03    0.2115655338E-02    0.3957686416E-02
    0.3900000000E+03    0.3846578086E-04    0.6880439648E+00    0.7941224702E-03    0.2279257090E-02    0.3939552046E-02
    0.4100000000E+03    0.4123252207E-04    0.6884267765E+00    0.8534432791E-03    0.2450992410E-02    0.3920626457E-02
    0.4300000000E+03    0.4414143961E-04    0.6887743420E+00    0.9157794892E-03    0.2631470614E-02    0.3900851870E-02
    0.4500000000E+03    0.4720298069E-04    0.6890913145E+00    0.9813577770E-03    0.2821354813E-02    0.3880165815E-02
    0.4700000000E+03    0.5042856920E-04    0.6893815624E+00    0.1050425459E-02    0.3021367977E-02    0.3858500627E-02
    0.4900000000E+03    0.5383070750E-04    0.6896483285E+00    0.1123252748E-02    0.3232299634E-02    0.3835782891E-02
    0.1000000000E+03    0.9850520917E-05    0.6660244833E+00    0.1724534917E-03    0.4724434559E-03    0.4147267869E-02
    0.3000000000E+03    0.2753666323E-04    0.6856989219E+00    0.5592912464E-03    0.1599380260E-02    0.4015665677E-02
    0.5000000000E+03    0.5560221253E-04    0.6897737786E+00    0.1161167562E-02    0.3342126645E-02    0.3824004656E-02
    0.7000000000E+03    0.1046135983E-03    0.6915347654E+00    0.2209794114E-02    0.6383435528E-02    0.3508608449E-02
    0.9000000000E+03    0.2014983857E-03    0.6925168285E+00    0.4285947280E-02    0.1242327931E-01    0.2923176871E-02
    0.1100000000E+04    0.4018490941E-03    0.6931431270E+00    0.8598362540E-02    0.2503315577E-01    0.1817832180E-02
    0.1300000000E+04    0.6730157126E-03    0.6935773068E+00    0.1449709394E-01    0.4247363714E-01    0.5750705220E-03
    0.1500000000E+04    0.8369090389E-03    0.6938959942E+00    0.1816311170E-01    0.5362096547E-01    0.1354638131E-03
    0.1700000000E+04    0.9330419811E-03    0.6941398493E+00    0.2040508828E-01    0.6071502698E-01    0.6812081419E-04
    0.1900000000E+04    0.1012336994E-02    0.6943324517E+00    0.2230841257E-01    0.6689904876E-01    0.6001349979E-04
    0.2100000000E+04    0.1084861035E-02    0.6944884167E+00    0.2408763266E-01    0.7279511108E-01    0.5930541078E-04
    0.2300000000E+04    0.1152325173E-02    0.6946172854E+00    0.2577757585E-01    0.7849991630E-01    0.5948145003E-04
    0.2500000000E+04    0.1215238619E-02    0.6947255511E+00    0.2738719101E-01    0.8403431821E-01    0.5974664056E-04
    0.2700000000E+04    0.1273927654E-02    0.6948177860E+00    0.2892161960E-01    0.8940831547E-01    0.6000536032E-04
    0.2900000000E+04    0.1328674250E-02    0.6948973028E+00    0.3038520599E-01    0.9462994965E-01    0.6024797926E-04
    0.3100000000E+04    0.1379736361E-02    0.6949665603E+00    0.3178192762E-01    0.9970655369E-01    0.6047524332E-04
    0.3300000000E+04    0.1427352246E-02    0.6950274221E+00    0.3311547557E-01    0.1046449589E+00    0.6068886969E-04
    0.3500000000E+04    0.1471742473E-02    0.6950813263E+00    0.3438928546E-01    0.1094515561E+00    0.6089042182E-04
    0.3700000000E+04    0.1513111481E-02    0.6951294003E+00    0.3560655954E-01    0.1141323336E+00    0.6108122330E-04
    0.3900000000E+04    0.1551648941E-02    0.6951725405E+00    0.3677028595E-01    0.1186929091E+00    0.6126239200E-04
    0.4100000000E+04    0.1587530995E-02    0.6952114684E+00    0.3788325598E-01    0.1231385579E+00    0.6143487897E-04
    0.4300000000E+04    0.1620921368E-02    0.6952467716E+00    0.3894807967E-01    0.1274742396E+00    0.6159949996E-04
    0.4500000000E+04    0.1651972376E-02    0.6952789331E+00    0.3996719999E-01    0.1317046208E+00    0.6175695993E-04
    0.4700000000E+04    0.1680825845E-02    0.6953083540E+00    0.4094290573E-01    0.1358340972E+00    0.6190787237E-04
    0.4900000000E+04    0.1707613941E-02    0.6953353697E+00    0.4187734323E-01    0.1398668131E+00    0.6205277451E-04
    0.1000000000E+04    0.2850831362E-03    0.6928611657E+00    0.6081773261E-02    0.1766403314E-01    0.2446221413E-02
    0.3000000000E+04    0.1354650540E-02    0.6949330858E+00    0.3109168792E-01    0.9718594264E-01    0.6036342300E-04
    0.5000000000E+04    0.1720272322E-02    0.6953480658E+00    0.4232972081E-01    0.1418481165E+00    0.6212312180E-04
    0.7000000000E+04    0.1890867898E-02    0.6955256817E+00    0.4963940363E-01    0.1772363188E+00    0.6330462796E-04
    0.9000000000E+04    0.1954040306E-02    0.6956241790E+00    0.5449713193E-01    0.2062889839E+00    0.6419983340E-04
    0.1100000000E+05    0.1956330808E-02    0.6956867331E+00    0.5774765534E-01    0.2307834507E+00    0.6492284284E-04
    0.1300000000E+05    0.1923781235E-02    0.6957299477E+00    0.5990473410E-01    0.2518635560E+00    0.6553046406E-04
    0.1500000000E+05    0.1871530042E-02    0.6957615686E+00    0.6129614862E-01    0.2703024759E+00    0.6605519570E-04
    0.1700000000E+05    0.1808622889E-02    0.6957856948E+00    0.6213921865E-01    0.2866440704E+00    0.6651741163E-04
    0.1900000000E+05    0.1740565266E-02    0.6958046979E+00    0.6258262865E-01    0.3012837055E+00    0.6693074553E-04
    0.2100000000E+05    0.1670740768E-02    0.6958200455E+00    0.6273079110E-01    0.3145168630E+00    0.6730477878E-04
    0.2300000000E+05    0.1601229492E-02    0.6958326939E+00    0.6265864916E-01    0.3265696382E+00    0.6764650718E-04
    0.2500000000E+05    0.1533295340E-02    0.6958432931E+00    0.6242099738E-01    0.3376185770E+00    0.6796119777E-04
    0.2700000000E+05    0.1467683869E-02    0.6958523002E+00    0.6205853319E-01    0.3478039840E+00    0.6825291706E-04
    0.2900000000E+05    0.1404808377E-02    0.6958600459E+00    0.6160189179E-01    0.3572390958E+00    0.6852487149E-04
    0.3100000000E+05    0.1344868279E-02    0.6958667756E+00    0.6107439950E-01    0.3660165547E+00    0.6877963484E-04
    0.3300000000E+05    0.1287925539E-02    0.6958726749E+00    0.6049399152E-01    0.3742130759E+00    0.6901930502E-04
    0.3500000000E+05    0.1233954600E-02    0.6958778869E+00    0.5987457216E-01    0.3818928737E+00    0.6924561503E-04
    0.3700000000E+05    0.1182875278E-02    0.6958825237E+00    0.5922699543E-01    0.3891102218E+00    0.6946001327E-04
    0.3900000000E+05    0.1134574569E-02    0.6958866744E+00    0.5855978212E-01    0.3959113939E+00    0.6966372282E-04
    0.4100000000E+05    0.1088921122E-02    0.6958904106E+00    0.5787965129E-01    0.4023361554E+00    0.6985778610E-04
    0.4300000000E+05    0.1045774837E-02    0.6958937905E+00    0.5719191872E-01    0.4084189253E+00    0.7004309890E-04
    0.4500000000E+05    0.1004993179E-02    0.6958968620E+00    0.5650079893E-01    0.4141896906E+00    0.7022043676E-04
    0.4700000000E+05    0.9664352801E-03    0.6958996647E+00    0.5580963629E-01    0.4196747337E+00    0.7039047563E-04
    0.4900000000E+05    0.9299645365E-03    0.6959022320E+00    0.5512108354E-01    0.4248972174E+00    0.7055380834E-04
    0.1000000000E+05    0.1960832814E-02    0.6956585998E+00    0.5628559564E-01    0.2190235479E+00    0.6457851830E-04
    0.3000000000E+05    0.1374464996E-02    0.6958635250E+00    0.6134577285E-01    0.3617049090E+00    0.6865426126E-04
    0.5000000000E+05    0.9124707271E-03    0.6959034362E+00    0.5477846055E-01    0.4274165033E+00    0.7063312568E-04
    0.7000000000E+05    0.6442786681E-03    0.6959200844E+00    0.4838088239E-01    0.4679591488E+00    0.7196717212E-04
    0.9000000000E+05    0.4787873126E-03    0.6959290770E+00    0.4304739971E-01    0.4961185443E+00    0.7297984252E-04
    0.1100000000E+06    0.3699612380E-03    0.6959346343E+00    0.3867488514E-01    0.5170272723E+00    0.7379859668E-04
    0.1300000000E+06    0.2946298866E-03    0.6959383661E+00    0.3506517403E-01    0.5332493374E+00    0.7448715691E-04
    0.1500000000E+06    0.2403153440E-03    0.6959410171E+00    0.3204937678E-01    0.5462389751E+00    0.7508207163E-04
    0.1700000000E+06    0.1998481886E-03    0.6959429783E+00    0.2949841586E-01    0.5568932208E+00    0.7560629381E-04
    0.1900000000E+06    0.1688768306E-03    0.6959444742E+00    0.2731560099E-01    0.5657997411E+00    0.7607520254E-04
    0.2100000000E+06    0.1446364547E-03    0.6959456423E+00    0.2542824508E-01    0.5733615013E+00    0.7649961626E-04
    0.2300000000E+06    0.1253018154E-03    0.6959465717E+00    0.2378110176E-01    0.5798649381E+00    0.7688743998E-04
    0.2500000000E+06    0.1096282196E-03    0.6959473223E+00    0.2233162539E-01    0.5855196954E+00    0.7724462887E-04
    0.2700000000E+06    0.9674297785E-04    0.6959479360E+00    0.2104661188E-01    0.5904829848E+00    0.7757578303E-04
    0.2900000000E+06    0.8601935406E-04    0.6959484428E+00    0.1989981507E-01    0.5948751482E+00    0.7788453113E-04
    0.3100000000E+06    0.7699771326E-04    0.6959488646E+00    0.1887024006E-01    0.5987899462E+00    0.7817378689E-04
    0.3300000000E+06    0.6933469029E-04    0.6959492181E+00    0.1794090667E-01    0.6023015607E+00    0.7844592607E-04
    0.3500000000E+06    0.6276954408E-04    0.6959495159E+00    0.1709794200E-01    0.6054694810E+00    0.7870291166E-04
    0.3700000000E+06    0.5710135943E-04    0.6959497678E+00    0.1632990587E-01    0.6083419879E+00    0.7894638466E-04
    0.3900000000E+06    0.5217327283E-04    0.6959499815E+00    0.1562728319E-01    0.6109586875E+00    0.7917773109E-04
    0.4100000000E+06    0.4786135151E-04    0.6959501631E+00    0.1498209748E-01    0.6133523829E+00    0.7939813243E-04
    0.4300000000E+06    0.4406661917E-04    0.6959503177E+00    0.1438761338E-01    0.6155504807E+00    0.7960860415E-04
    0.4500000000E+06    0.4070924971E-04    0.6959504493E+00    0.1383810524E-01    0.6175760605E+00    0.7981002551E-04
    0.4700000000E+06    0.3772427979E-04    0.6959505611E+00    0.1332867541E-01    0.6194486988E+00    0.8000316299E-04
    0.4900000000E+06    0.3505840229E-04    0.6959506559E+00    0.1285511026E-01    0.6211851113E+00    0.8018868886E-04
    0.1000000000E+06    0.4190852152E-03    0.6959321540E+00    0.4075366136E-01    0.5072828998E+00    0.7340859030E-04
    0.3000000000E+06    0.8131951190E-04    0.6959486632E+00    0.1937151823E-01    0.5968871881E+00    0.7803143613E-04
    0.5000000000E+06    0.3383104240E-04    0.6959506977E+00    0.1263061844E-01    0.6220068010E+00    0.8027878549E-04
    0.7000000000E+06    0.1851646929E-04    0.6959510373E+00    0.9353983027E-02    0.6339002380E+00    0.8179428659E-04
    0.9000000000E+06    0.1169241789E-04    0.6959509272E+00    0.7420369734E-02    0.6408388421E+00    0.8294485325E-04
    0.1100000000E+07    0.8062831682E-05    0.6959506648E+00    0.6145612530E-02    0.6453845810E+00    0.8387516788E-04
    0.1300000000E+07    0.5902192154E-05    0.6959503485E+00    0.5242476950E-02    0.6485926881E+00    0.8465758605E-04
    0.1500000000E+07    0.4511351254E-05    0.6959500168E+00    0.4569386984E-02    0.6509774972E+00    0.8533361586E-04
    0.1700000000E+07    0.3562972386E-05    0.6959496861E+00    0.4048523040E-02    0.6528196598E+00    0.8592932839E-04
    0.1900000000E+07    0.2887068966E-05    0.6959493637E+00    0.3633580255E-02    0.6542853161E+00    0.8646219357E-04
    0.2100000000E+07    0.2388187267E-05    0.6959490528E+00    0.3295289428E-02    0.6554790871E+00    0.8694450150E-04
    0.2300000000E+07    0.2009341413E-05    0.6959487544E+00    0.3014246397E-02    0.6564701325E+00    0.8738523300E-04
    0.2500000000E+07    0.1714790597E-05    0.6959484686E+00    0.2777080927E-02    0.6573059988E+00    0.8779115398E-04
    0.2700000000E+07    0.1481189391E-05    0.6959481950E+00    0.2574281720E-02    0.6580204486E+00    0.8816749101E-04
    0.2900000000E+07    0.1292760705E-05    0.6959479330E+00    0.2398898637E-02    0.6586381173E+00    0.8851836701E-04
    0.3100000000E+07    0.1138528841E-05    0.6959476820E+00    0.2245735479E-02    0.6591774008E+00    0.8884709271E-04
    0.3300000000E+07    0.1010665393E-05    0.6959474412E+00    0.2110829843E-02    0.6596523132E+00    0.8915636757E-04
    0.3500000000E+07    0.9034641496E-06    0.6959472100E+00    0.1991107663E-02    0.6600737174E+00    0.8944842212E-04
    0.3700000000E+07    0.8126856496E-06    0.6959469877E+00    0.1884147617E-02    0.6604501638E+00    0.8972512103E-04
    0.3900000000E+07    0.7351264785E-06    0.6959467737E+00    0.1788016709E-02    0.6607884739E+00    0.8998803926E-04
    0.4100000000E+07    0.6683293105E-06    0.6959465675E+00    0.1701153147E-02    0.6610941567E+00    0.9023851938E-04
    0.4300000000E+07    0.6103834636E-06    0.6959463685E+00    0.1622281373E-02    0.6613717092E+00    0.9047771530E-04
    0.4500000000E+07    0.5597850418E-06    0.6959461762E+00    0.1550349403E-02    0.6616248389E+00    0.9070662617E-04
    0.4700000000E+07    0.5153371427E-06    0.6959459903E+00    0.1484481927E-02    0.6618566295E+00    0.9092612300E-04
    0.4900000000E+07    0.4760775242E-06    0.6959458103E+00    0.1423944742E-02    0.6620696670E+00    0.9113696972E-04
    0.1000000000E+07    0.9623875556E-05    0.6959508067E+00    0.6723582291E-02    0.6433262132E+00    0.8343201397E-04
    0.3000000000E+07    0.1211918921E-05    0.6959478062E+00    0.2319811428E-02    0.6589165954E+00    0.8868531750E-04
    0.5000000000E+07    0.4581433984E-06    0.6959457224E+00    0.1395477299E-02    0.6621698495E+00    0.9123936299E-04
    0.7000000000E+07    0.2422709088E-06    0.6959442026E+00    0.9960503423E-03    0.6635758555E+00    0.9296171324E-04
    0.9000000000E+07    0.1512292646E-06    0.6959430053E+00    0.7736154868E-03    0.6643594098E+00    0.9426932800E-04
    0.1100000000E+08    0.1042670600E-06    0.6959420152E+00    0.6319870858E-03    0.6648587192E+00    0.9532663045E-04
    0.1300000000E+08    0.7682285290E-07    0.6959411695E+00    0.5339543439E-03    0.6652046072E+00    0.9621585012E-04
    0.1500000000E+08    0.5935727851E-07    0.6959404303E+00    0.4621006188E-03    0.6654583186E+00    0.9698415993E-04
    0.1700000000E+08    0.4753017584E-07    0.6959397730E+00    0.4071905259E-03    0.6656523399E+00    0.9766118928E-04
    0.1900000000E+08    0.3913344898E-07    0.6959391806E+00    0.3638726482E-03    0.6658055023E+00    0.9826679256E-04
    0.2100000000E+08    0.3294592232E-07    0.6959386410E+00    0.3288328007E-03    0.6659294728E+00    0.9881493739E-04
    0.2300000000E+08    0.2824696249E-07    0.6959381452E+00    0.2999092370E-03    0.6660318644E+00    0.9931583046E-04
    0.2500000000E+08    0.2458863443E-07    0.6959376864E+00    0.2756320141E-03    0.6661178557E+00    0.9977716121E-04
    0.2700000000E+08    0.2168039414E-07    0.6959372592E+00    0.2549668820E-03    0.6661910919E+00    0.1002048696E-03
