  Pressure (Pa) 23mC5-500 (mol/kg) 24mC5-500 (mol/kg) 2mC6-500 (mol/kg) 3mC6-500 (mol/kg) C7-500 (mol/kg)
    0.1000000000E+01    0.1321682031E-05    0.1266325511E+00    0.2124056167E-04    0.6128028715E-05    0.4145953028E-02
    0.3000000000E+01    0.2725608724E-05    0.2785260069E+00    0.4199866909E-04    0.1513697524E-04    0.4172450630E-02
    0.5000000000E+01    0.3441429309E-05    0.3664343795E+00    0.5197074594E-04    0.2331914584E-04    0.4180301384E-02
    0.7000000000E+01    0.3867459100E-05    0.4237556038E+00    0.5797920852E-04    0.3111649591E-04    0.4184206497E-02
    0.9000000000E+01    0.4152054070E-05    0.4640885799E+00    0.6233940873E-04    0.3867480799E-04    0.4186392718E-02
    0.1100000000E+02    0.4361004601E-05    0.4940111714E+00    0.6597875535E-04    0.4606613355E-04    0.4187639332E-02
    0.1300000000E+02    0.4526993163E-05    0.5170934170E+00    0.6930813094E-04    0.5333298363E-04    0.4188308374E-02
    0.1500000000E+02    0.4667611963E-05    0.5354403986E+00    0.7252138903E-04    0.6050318195E-04    0.4188594995E-02
    0.1700000000E+02    0.4792909731E-05    0.5503737657E+00    0.7571316651E-04    0.6759623991E-04    0.4188614789E-02
    0.1900000000E+02    0.4908891269E-05    0.5627651745E+00    0.7892993914E-04    0.7462653373E-04    0.4188440922E-02
    0.2100000000E+02    0.5019271706E-05    0.5732127843E+00    0.8219380924E-04    0.8160505884E-04    0.4188122075E-02
    0.2300000000E+02    0.5126411801E-05    0.5821407254E+00    0.8551421844E-04    0.8854047439E-04    0.4187691926E-02
    0.2500000000E+02    0.5231842200E-05    0.5898580991E+00    0.8889396338E-04    0.9543976221E-04    0.4187174522E-02
    0.2700000000E+02    0.5336569686E-05    0.5965954986E+00    0.9233238407E-04    0.1023086621E-03    0.4186587493E-02
    0.2900000000E+02    0.5441262383E-05    0.6025284465E+00    0.9582709080E-04    0.1091519705E-03    0.4185944046E-02
    0.3100000000E+02    0.5546365096E-05    0.6077929092E+00    0.9937491091E-04    0.1159737513E-03    0.4185254270E-02
    0.3300000000E+02    0.5652172954E-05    0.6124958454E+00    0.1029724082E-03    0.1227774896E-03    0.4184525992E-02
    0.3500000000E+02    0.5758879466E-05    0.6167225505E+00    0.1066161640E-03    0.1295662059E-03    0.4183765375E-02
    0.3700000000E+02    0.5866608451E-05    0.6205418773E+00    0.1103029230E-03    0.1363425419E-03    0.4182977334E-02
    0.3900000000E+02    0.5975435602E-05    0.6240100153E+00    0.1140296633E-03    0.1431088273E-03    0.4182165830E-02
    0.4100000000E+02    0.6085403249E-05    0.6271732747E+00    0.1177936225E-03    0.1498671321E-03    0.4181334085E-02
    0.4300000000E+02    0.6196530584E-05    0.6300701658E+00    0.1215923003E-03    0.1566193078E-03    0.4180484750E-02
    0.4500000000E+02    0.6308820804E-05    0.6327329752E+00    0.1254234471E-03    0.1633670202E-03    0.4179620017E-02
    0.4700000000E+02    0.6422266155E-05    0.6351889740E+00    0.1292850475E-03    0.1701117769E-03    0.4178741715E-02
    0.4900000000E+02    0.6536851502E-05    0.6374613552E+00    0.1331753005E-03    0.1768549488E-03    0.4177851377E-02
    0.1000000000E+02    0.4263454311E-05    0.4800818678E+00    0.6421626697E-04    0.4238823215E-04    0.4187105302E-02
    0.3000000000E+02    0.5493741194E-05    0.6052369723E+00    0.9759457441E-04    0.1125653219E-03    0.4185604415E-02
    0.5000000000E+02    0.6594565568E-05    0.6385350062E+00    0.1351306624E-03    0.1802263361E-03    0.4177402109E-02
    0.7000000000E+02    0.7802939993E-05    0.6539554689E+00    0.1754359595E-03    0.2478269617E-03    0.4168012836E-02
    0.9000000000E+02    0.9099331298E-05    0.6628489851E+00    0.2175666300E-03    0.3162421318E-03    0.4158145992E-02
    0.1100000000E+03    0.1046882552E-04    0.6686356955E+00    0.2612291544E-03    0.3859552727E-03    0.4147972315E-02
    0.1300000000E+03    0.1190383210E-04    0.6727014946E+00    0.3063539494E-03    0.4572977872E-03    0.4137537002E-02
    0.1500000000E+03    0.1340102151E-04    0.6757146778E+00    0.3529594851E-03    0.5305299842E-03    0.4126845448E-02
    0.1700000000E+03    0.1495950772E-04    0.6780371660E+00    0.4011042670E-03    0.6058760777E-03    0.4115887913E-02
    0.1900000000E+03    0.1657989384E-04    0.6798820215E+00    0.4508679453E-03    0.6835419036E-03    0.4104648065E-02
    0.2100000000E+03    0.1826376379E-04    0.6813828448E+00    0.5023433544E-03    0.7637249997E-03    0.4093106276E-02
    0.2300000000E+03    0.2001340383E-04    0.6826276593E+00    0.5556330966E-03    0.8466209269E-03    0.4081240966E-02
    0.2500000000E+03    0.2183164726E-04    0.6836768197E+00    0.6108481846E-03    0.9324275932E-03    0.4069029133E-02
    0.2700000000E+03    0.2372178844E-04    0.6845730912E+00    0.6681076899E-03    0.1021348465E-02    0.4056446533E-02
    0.2900000000E+03    0.2568753775E-04    0.6853476223E+00    0.7275389216E-03    0.1113595142E-02    0.4043467677E-02
    0.3100000000E+03    0.2773300206E-04    0.6860236383E+00    0.7892779128E-03    0.1209389573E-02    0.4030065752E-02
    0.3300000000E+03    0.2986268214E-04    0.6866188099E+00    0.8534701055E-03    0.1308966076E-02    0.4016212491E-02
    0.3500000000E+03    0.3208148177E-04    0.6871468203E+00    0.9202711815E-03    0.1412573283E-02    0.4001878015E-02
    0.3700000000E+03    0.3439472596E-04    0.6876184296E+00    0.9898480173E-03    0.1520476074E-02    0.3987030652E-02
    0.3900000000E+03    0.3680818625E-04    0.6880422159E+00    0.1062379755E-02    0.1632957566E-02    0.3971636744E-02
    0.4100000000E+03    0.3932811247E-04    0.6884251018E+00    0.1138058989E-02    0.1750321198E-02    0.3955660433E-02
    0.4300000000E+03    0.4196127034E-04    0.6887727353E+00    0.1217093081E-02    0.1872892951E-02    0.3939063428E-02
    0.4500000000E+03    0.4471498481E-04    0.6890897701E+00    0.1299705604E-02    0.2001023736E-02    0.3921804764E-02
    0.4700000000E+03    0.4759718932E-04    0.6893800756E+00    0.1386137935E-02    0.2135091988E-02    0.3903840527E-02
    0.4900000000E+03    0.5061648114E-04    0.6896468949E+00    0.1476651018E-02    0.2275506496E-02    0.3885123564E-02
    0.1000000000E+03    0.9775544617E-05    0.6660192068E+00    0.2392137391E-03    0.3509134715E-03    0.4153093250E-02
    0.3000000000E+03    0.2670003352E-04    0.6856967314E+00    0.7581110868E-03    0.1161034556E-02    0.4036821329E-02
    0.5000000000E+03    0.5218041805E-04    0.6897723702E+00    0.1523525210E-02    0.2348230397E-02    0.3875467111E-02
    0.7000000000E+03    0.9350486710E-04    0.6915337190E+00    0.2761323033E-02    0.4270603663E-02    0.3627638562E-02
    0.9000000000E+03    0.1676645826E-03    0.6925159925E+00    0.4984521320E-02    0.7731908016E-02    0.3206048664E-02
    0.1100000000E+04    0.3129453644E-03    0.6931424289E+00    0.9352599481E-02    0.1455765876E-01    0.2434070822E-02
    0.1300000000E+04    0.5663806883E-03    0.6935767066E+00    0.1701939173E-01    0.2661746600E-01    0.1230084114E-02
    0.1500000000E+04    0.8064410308E-03    0.6938954670E+00    0.2438849512E-01    0.3838478894E-01    0.3458822204E-03
    0.1700000000E+04    0.9387625069E-03    0.6941393790E+00    0.2858615260E-01    0.4530938652E-01    0.1056039235E-03
    0.1900000000E+04    0.1027820341E-02    0.6943320268E+00    0.3151568443E-01    0.5030985628E-01    0.6592036332E-04
    0.2100000000E+04    0.1104673696E-02    0.6944880290E+00    0.3410592734E-01    0.5483065314E-01    0.6022611191E-04
    0.2300000000E+04    0.1175658103E-02    0.6946169289E+00    0.3654552308E-01    0.5916425788E-01    0.5962638169E-04
    0.2500000000E+04    0.1242075498E-02    0.6947252210E+00    0.3887136924E-01    0.6336520688E-01    0.5976979308E-04
    0.2700000000E+04    0.1304371140E-02    0.6948174785E+00    0.4109455013E-01    0.6744751804E-01    0.6000910854E-04
    0.2900000000E+04    0.1362833815E-02    0.6948970150E+00    0.4322158070E-01    0.7141822164E-01    0.6024858157E-04
    0.3100000000E+04    0.1417710614E-02    0.6949662898E+00    0.4525789605E-01    0.7528288536E-01    0.6047532660E-04
    0.3300000000E+04    0.1469226943E-02    0.6950271670E+00    0.4720844862E-01    0.7904654671E-01    0.6068886639E-04
    0.3500000000E+04    0.1517591090E-02    0.6950810848E+00    0.4907783228E-01    0.8271389086E-01    0.6089040449E-04
    0.3700000000E+04    0.1562996140E-02    0.6951291710E+00    0.5087032609E-01    0.8628930148E-01    0.6108120429E-04
    0.3900000000E+04    0.1605621336E-02    0.6951723222E+00    0.5258992259E-01    0.8977688839E-01    0.6126237340E-04
    0.4100000000E+04    0.1645633253E-02    0.6952112602E+00    0.5424035144E-01    0.9318050947E-01    0.6143486110E-04
    0.4300000000E+04    0.1683186848E-02    0.6952465725E+00    0.5582510040E-01    0.9650379004E-01    0.6159948280E-04
    0.4500000000E+04    0.1718426402E-02    0.6952787425E+00    0.5734743442E-01    0.9975014037E-01    0.6175694345E-04
    0.4700000000E+04    0.1751486385E-02    0.6953081711E+00    0.5881041290E-01    0.1029227716E+00    0.6190785652E-04
    0.4900000000E+04    0.1782492230E-02    0.6953351939E+00    0.6021690535E-01    0.1060247102E+00    0.6205275924E-04
    0.1000000000E+04    0.2279293655E-03    0.6928604051E+00    0.6794369905E-02    0.1055632353E-01    0.2878323039E-02
    0.3000000000E+04    0.1390705930E-02    0.6949328070E+00    0.4425075910E-01    0.7336348443E-01    0.6036365670E-04
    0.5000000000E+04    0.1797261753E-02    0.6953478933E+00    0.6089981767E-01    0.1075500683E+00    0.6212310681E-04
    0.7000000000E+04    0.2009440695E-02    0.6955255571E+00    0.7216621313E-01    0.1349603373E+00    0.6330461690E-04
    0.9000000000E+04    0.2110961673E-02    0.6956240821E+00    0.8002759842E-01    0.1577376700E+00    0.6419982466E-04
    0.1100000000E+05    0.2147013851E-02    0.6956866542E+00    0.8562096427E-01    0.1771765551E+00    0.6492283564E-04
    0.1300000000E+05    0.2143414255E-02    0.6957298817E+00    0.8964248658E-01    0.1941095124E+00    0.6553045797E-04
    0.1500000000E+05    0.2115562001E-02    0.6957615123E+00    0.9254002950E-01    0.2090991455E+00    0.6605519044E-04
    0.1700000000E+05    0.2072950197E-02    0.6957856460E+00    0.9461340789E-01    0.2225411952E+00    0.6651740704E-04
    0.1900000000E+05    0.2021579410E-02    0.6958046553E+00    0.9606999486E-01    0.2347233929E+00    0.6693074148E-04
    0.2100000000E+05    0.1965312875E-02    0.6958200079E+00    0.9705719067E-01    0.2458608309E+00    0.6730477517E-04
    0.2300000000E+05    0.1906668626E-02    0.6958326605E+00    0.9768221234E-01    0.2561181478E+00    0.6764650396E-04
    0.2500000000E+05    0.1847298327E-02    0.6958432634E+00    0.9802460184E-01    0.2656239550E+00    0.6796119488E-04
    0.2700000000E+05    0.1788285081E-02    0.6958522737E+00    0.9814438254E-01    0.2744805150E+00    0.6825291446E-04
    0.2900000000E+05    0.1730333169E-02    0.6958600222E+00    0.9808752388E-01    0.2827704128E+00    0.6852486914E-04
    0.3100000000E+05    0.1673891494E-02    0.6958667544E+00    0.9788969044E-01    0.2905612635E+00    0.6877963271E-04
    0.3300000000E+05    0.1619235312E-02    0.6958726559E+00    0.9757886832E-01    0.2979091061E+00    0.6901930310E-04
    0.3500000000E+05    0.1566521181E-02    0.6958778699E+00    0.9717723973E-01    0.3048608954E+00    0.6924561330E-04
    0.3700000000E+05    0.1515824378E-02    0.6958825085E+00    0.9670254326E-01    0.3114563632E+00    0.6946001170E-04
    0.3900000000E+05    0.1467164653E-02    0.6958866609E+00    0.9616907603E-01    0.3177294288E+00    0.6966372140E-04
    0.4100000000E+05    0.1420524114E-02    0.6958903986E+00    0.9558844185E-01    0.3237092839E+00    0.6985778483E-04
    0.4300000000E+05    0.1375859726E-02    0.6958937799E+00    0.9497011688E-01    0.3294212363E+00    0.7004309777E-04
    0.4500000000E+05    0.1333112090E-02    0.6958968527E+00    0.9432188200E-01    0.3348873743E+00    0.7022043574E-04
    0.4700000000E+05    0.1292211631E-02    0.6958996567E+00    0.9365015667E-01    0.3401270950E+00    0.7039047473E-04
    0.4900000000E+05    0.1253082949E-02    0.6959022250E+00    0.9296025930E-01    0.3451575294E+00    0.7055380754E-04
    0.1000000000E+05    0.2135238993E-02    0.6956585127E+00    0.8305682099E-01    0.1678144057E+00    0.6457851040E-04
    0.3000000000E+05    0.1701903026E-02    0.6958635026E+00    0.9800432486E-01    0.2867244781E+00    0.6865425902E-04
    0.5000000000E+05    0.1234158642E-02    0.6959034298E+00    0.9260990833E-01    0.3475990837E+00    0.7063312494E-04
    0.7000000000E+05    0.9301903341E-03    0.6959200862E+00    0.8539799764E-01    0.3883793078E+00    0.7196717217E-04
    0.9000000000E+05    0.7271739925E-03    0.6959290841E+00    0.7862741923E-01    0.4186431100E+00    0.7297984310E-04
    0.1100000000E+06    0.5852047517E-03    0.6959346454E+00    0.7263959900E-01    0.4423742083E+00    0.7379859766E-04
    0.1300000000E+06    0.4818992472E-03    0.6959383803E+00    0.6740883711E-01    0.4616479584E+00    0.7448715822E-04
    0.1500000000E+06    0.4042475368E-03    0.6959410340E+00    0.6283686120E-01    0.4776941288E+00    0.7508207321E-04
    0.1700000000E+06    0.3443085425E-03    0.6959429975E+00    0.5882205843E-01    0.4913046452E+00    0.7560629563E-04
    0.1900000000E+06    0.2970129407E-03    0.6959444954E+00    0.5527568661E-01    0.5030200278E+00    0.7607520457E-04
    0.2100000000E+06    0.2589974553E-03    0.6959456653E+00    0.5212397904E-01    0.5132254355E+00    0.7649961849E-04
    0.2300000000E+06    0.2279562315E-03    0.6959465963E+00    0.4930653513E-01    0.5222046046E+00    0.7688744239E-04
    0.2500000000E+06    0.2022633852E-03    0.6959473485E+00    0.4677400734E-01    0.5301721822E+00    0.7724463144E-04
    0.2700000000E+06    0.1807444285E-03    0.6959479636E+00    0.4448594907E-01    0.5372941237E+00    0.7757578576E-04
    0.2900000000E+06    0.1625329286E-03    0.6959484716E+00    0.4240902477E-01    0.5437010989E+00    0.7788453400E-04
    0.3100000000E+06    0.1469778249E-03    0.6959488947E+00    0.4051558085E-01    0.5494976048E+00    0.7817378991E-04
    0.3300000000E+06    0.1335818664E-03    0.6959492494E+00    0.3878252163E-01    0.5547683374E+00    0.7844592922E-04
    0.3500000000E+06    0.1219597348E-03    0.6959495483E+00    0.3719042852E-01    0.5595827541E+00    0.7870291494E-04
    0.3700000000E+06    0.1118089508E-03    0.6959498013E+00    0.3572286863E-01    0.5639984094E+00    0.7894638805E-04
    0.3900000000E+06    0.1028892733E-03    0.6959500160E+00    0.3436584967E-01    0.5680634380E+00    0.7917773460E-04
    0.4100000000E+06    0.9500786330E-04    0.6959501987E+00    0.3310738774E-01    0.5718184319E+00    0.7939813606E-04
    0.4300000000E+06    0.8800843242E-04    0.6959503542E+00    0.3193716244E-01    0.5752978804E+00    0.7960860789E-04
    0.4500000000E+06    0.8176319497E-04    0.6959504867E+00    0.3084623987E-01    0.5785312885E+00    0.7981002935E-04
    0.4700000000E+06    0.7616682184E-04    0.6959505994E+00    0.2982684863E-01    0.5815440550E+00    0.8000316693E-04
    0.4900000000E+06    0.7113184525E-04    0.6959506951E+00    0.2887219755E-01    0.5843581695E+00    0.8018869290E-04
    0.1000000000E+06    0.6502493117E-03    0.6959321632E+00    0.7553402228E-01    0.4311683308E+00    0.7340859110E-04
    0.3000000000E+06    0.1544574439E-03    0.6959486927E+00    0.4144090670E-01    0.5466699635E+00    0.7803143907E-04
    0.5000000000E+06    0.6880154493E-04    0.6959507373E+00    0.2841725809E-01    0.5856968116E+00    0.8027878958E-04
    0.7000000000E+06    0.3897410015E-04    0.6959510843E+00    0.2159564073E-01    0.6055969071E+00    0.8179429155E-04
    0.9000000000E+06    0.2512313685E-04    0.6959509804E+00    0.1740246540E-01    0.6176874184E+00    0.8294485895E-04
    0.1100000000E+07    0.1756238291E-04    0.6959507233E+00    0.1456568044E-01    0.6258145772E+00    0.8387517421E-04
    0.1300000000E+07    0.1298049272E-04    0.6959504117E+00    0.1251962082E-01    0.6316529389E+00    0.8465759297E-04
    0.1500000000E+07    0.9992347921E-05    0.6959500843E+00    0.1097459348E-01    0.6360497396E+00    0.8533362331E-04
    0.1700000000E+07    0.7934475495E-05    0.6959497577E+00    0.9766925440E-02    0.6394799115E+00    0.8592933634E-04
    0.1900000000E+07    0.6456349901E-05    0.6959494391E+00    0.8797183041E-02    0.6422304073E+00    0.8646220199E-04
    0.2100000000E+07    0.5358468262E-05    0.6959491316E+00    0.8001483603E-02    0.6444848446E+00    0.8694451036E-04
    0.2300000000E+07    0.4520429029E-05    0.6959488365E+00    0.7336917195E-02    0.6463661823E+00    0.8738524228E-04
    0.2500000000E+07    0.3866041532E-05    0.6959485539E+00    0.6773596532E-02    0.6479598571E+00    0.8779116366E-04
    0.2700000000E+07    0.3345166147E-05    0.6959482833E+00    0.6290067404E-02    0.6493270809E+00    0.8816750107E-04
    0.2900000000E+07    0.2923702472E-05    0.6959480242E+00    0.5870531755E-02    0.6505128569E+00    0.8851837745E-04
    0.3100000000E+07    0.2577798108E-05    0.6959477759E+00    0.5503099917E-02    0.6515510105E+00    0.8884710350E-04
    0.3300000000E+07    0.2290359590E-05    0.6959475379E+00    0.5178652998E-02    0.6524674560E+00    0.8915637871E-04
    0.3500000000E+07    0.2048875466E-05    0.6959473092E+00    0.4890080626E-02    0.6532823811E+00    0.8944843359E-04
    0.3700000000E+07    0.1844016129E-05    0.6959470894E+00    0.4631757128E-02    0.6540117455E+00    0.8972513283E-04
    0.3900000000E+07    0.1668708912E-05    0.6959468779E+00    0.4399173455E-02    0.6546683322E+00    0.8998805138E-04
    0.4100000000E+07    0.1517512534E-05    0.6959466740E+00    0.4188673398E-02    0.6552625004E+00    0.9023853181E-04
    0.4300000000E+07    0.1386185019E-05    0.6959464772E+00    0.3997261180E-02    0.6558027335E+00    0.9047772803E-04
    0.4500000000E+07    0.1271379567E-05    0.6959462872E+00    0.3822458867E-02    0.6562960454E+00    0.9070663919E-04
    0.4700000000E+07    0.1170426810E-05    0.6959461034E+00    0.3662199180E-02    0.6567482851E+00    0.9092613630E-04
    0.4900000000E+07    0.1081176500E-05    0.6959459256E+00    0.3514743867E-02    0.6571643692E+00    0.9113698331E-04
    0.1000000000E+07    0.2083335398E-04    0.6959508626E+00    0.1585918151E-01    0.6221136903E+00    0.8343201999E-04
    0.3000000000E+07    0.2742501850E-05    0.6959478988E+00    0.5680927374E-02    0.6510486111E+00    0.8868532812E-04
    0.5000000000E+07    0.1040380381E-05    0.6959458387E+00    0.3445348829E-02    0.6573601789E+00    0.9123937672E-04
    0.7000000000E+07    0.5480191227E-06    0.6959443377E+00    0.2467963011E-02    0.6601178461E+00    0.9296172948E-04
    0.9000000000E+07    0.3397033856E-06    0.6959431563E+00    0.1920650845E-02    0.6616622937E+00    0.9426934641E-04
    0.1100000000E+08    0.2321827514E-06    0.6959421802E+00    0.1571030427E-02    0.6626492097E+00    0.9532665081E-04
    0.1300000000E+08    0.1693964448E-06    0.6959413472E+00    0.1328508235E-02    0.6633340710E+00    0.9621587224E-04
    0.1500000000E+08    0.1295027393E-06    0.6959406197E+00    0.1150478265E-02    0.6638370095E+00    0.9698418368E-04
    0.1700000000E+08    0.1025465994E-06    0.6959399731E+00    0.1014273615E-02    0.6642219383E+00    0.9766121457E-04
    0.1900000000E+08    0.8345848423E-07    0.6959393908E+00    0.9067282411E-03    0.6645259850E+00    0.9826681929E-04
    0.2100000000E+08    0.6943355822E-07    0.6959388608E+00    0.8196731695E-03    0.6647721894E+00    0.9881496549E-04
    0.2300000000E+08    0.5881660096E-07    0.6959383740E+00    0.7477721976E-03    0.6649756042E+00    0.9931585985E-04
    0.2500000000E+08    0.5057901675E-07    0.6959379238E+00    0.6873924942E-03    0.6651464791E+00    0.9977719185E-04
    0.2700000000E+08    0.4405394749E-07    0.6959375048E+00    0.6359754815E-03    0.6652920342E+00    0.1002049015E-03
