  Pressure (Pa) 23mC5-500 (mol/kg) 24mC5-500 (mol/kg) 2mC6-500 (mol/kg) 3mC6-500 (mol/kg) C7-500 (mol/kg)
    0.1000000000E+01    0.1321665729E-05    0.1266318807E+00    0.2427449030E-04    0.5106360124E-05    0.4146037315E-02
    0.3000000000E+01    0.2725519507E-05    0.2785231377E+00    0.4799595400E-04    0.1261191320E-04    0.4172626620E-02
    0.5000000000E+01    0.3441239653E-05    0.3664299308E+00    0.5938949464E-04    0.1942712767E-04    0.4180553826E-02
    0.7000000000E+01    0.3867143420E-05    0.4237502161E+00    0.6625221740E-04    0.2592042578E-04    0.4184528773E-02
    0.9000000000E+01    0.4151585519E-05    0.4640826739E+00    0.7123023253E-04    0.3221335792E-04    0.4186780858E-02
    0.1100000000E+02    0.4360355573E-05    0.4940050073E+00    0.7538343753E-04    0.3836600771E-04    0.4188090622E-02
    0.1300000000E+02    0.4526135780E-05    0.5170871553E+00    0.7918142039E-04    0.4441382886E-04    0.4188820821E-02
    0.1500000000E+02    0.4666518325E-05    0.5354341383E+00    0.8284573778E-04    0.5038002776E-04    0.4189167069E-02
    0.1700000000E+02    0.4791552032E-05    0.5503675680E+00    0.8648455562E-04    0.5628087853E-04    0.4189245277E-02
    0.1900000000E+02    0.4907241836E-05    0.5627590768E+00    0.9015099732E-04    0.6212837223E-04    0.4189128846E-02
    0.2100000000E+02    0.5017302997E-05    0.5732068089E+00    0.9387032950E-04    0.6793167975E-04    0.4188866629E-02
    0.2300000000E+02    0.5124096395E-05    0.5821348848E+00    0.9765334800E-04    0.7369802291E-04    0.4188492443E-02
    0.2500000000E+02    0.5229152773E-05    0.5898523994E+00    0.1015032531E-03    0.7943322405E-04    0.4188030444E-02
    0.2700000000E+02    0.5333478990E-05    0.5965899418E+00    0.1054192934E-03    0.8514206907E-04    0.4187498350E-02
    0.2900000000E+02    0.5437743222E-05    0.6025230320E+00    0.1093987397E-03    0.9082855646E-04    0.4186909444E-02
    0.3100000000E+02    0.5542390303E-05    0.6077876344E+00    0.1134379673E-03    0.9649607350E-04    0.4186273873E-02
    0.3300000000E+02    0.5647715372E-05    0.6124907067E+00    0.1175330492E-03    0.1021475242E-03    0.4185599521E-02
    0.3500000000E+02    0.5753911929E-05    0.6167175439E+00    0.1216800779E-03    0.1077854246E-03    0.4184892596E-02
    0.3700000000E+02    0.5861103767E-05    0.6205369980E+00    0.1258753321E-03    0.1134119744E-03    0.4184158051E-02
    0.3900000000E+02    0.5969366538E-05    0.6240052586E+00    0.1301153566E-03    0.1190291130E-03    0.4183399882E-02
    0.4100000000E+02    0.6078742519E-05    0.6271686358E+00    0.1343969925E-03    0.1246385627E-03    0.4182621344E-02
    0.4300000000E+02    0.6189250832E-05    0.6300656400E+00    0.1387173795E-03    0.1302418631E-03    0.4181825114E-02
    0.4500000000E+02    0.6300894600E-05    0.6327285578E+00    0.1430739440E-03    0.1358403991E-03    0.4181013408E-02
    0.4700000000E+02    0.6413665976E-05    0.6351846604E+00    0.1474643795E-03    0.1414354230E-03    0.4180188077E-02
    0.4900000000E+02    0.6527549728E-05    0.6374571413E+00    0.1518866241E-03    0.1470280730E-03    0.4179350678E-02
    0.1000000000E+02    0.4262898997E-05    0.4800758076E+00    0.7337231101E-04    0.3530462286E-04    0.4187525303E-02
    0.3000000000E+02    0.5489997612E-05    0.6052316280E+00    0.1114111239E-03    0.9366449470E-04    0.4186596954E-02
    0.5000000000E+02    0.6584902606E-05    0.6385308405E+00    0.1541090915E-03    0.1498238362E-03    0.4178927870E-02
    0.7000000000E+02    0.7784572449E-05    0.6539520858E+00    0.1998773886E-03    0.2058265961E-03    0.4170069733E-02
    0.9000000000E+02    0.9069328416E-05    0.6628461385E+00    0.2476322573E-03    0.2623959721E-03    0.4160744720E-02
    0.1100000000E+03    0.1042406042E-04    0.6686332366E+00    0.2970314756E-03    0.3199270700E-03    0.4151130639E-02
    0.1300000000E+03    0.1184094410E-04    0.6726993284E+00    0.3479874826E-03    0.3786869003E-03    0.4141277652E-02
    0.1500000000E+03    0.1331638243E-04    0.6757127404E+00    0.4005122098E-03    0.4388819467E-03    0.4131195196E-02
    0.1700000000E+03    0.1484918880E-04    0.6780354124E+00    0.4546622169E-03    0.5006873421E-03    0.4120877157E-02
    0.1900000000E+03    0.1643963159E-04    0.6798804188E+00    0.5105170636E-03    0.5642615838E-03    0.4110310665E-02
    0.2100000000E+03    0.1808892374E-04    0.6813813682E+00    0.5681701378E-03    0.6297548484E-03    0.4099479545E-02
    0.2300000000E+03    0.1979894147E-04    0.6826262898E+00    0.6277246532E-03    0.6973141457E-03    0.4088365748E-02
    0.2500000000E+03    0.2157206550E-04    0.6836755422E+00    0.6892919779E-03    0.7670867851E-03    0.4076949962E-02
    0.2700000000E+03    0.2341109102E-04    0.6845718937E+00    0.7529910923E-03    0.8392228907E-03    0.4065211837E-02
    0.2900000000E+03    0.2531917793E-04    0.6853464950E+00    0.8189486327E-03    0.9138773639E-03    0.4053130036E-02
    0.3100000000E+03    0.2729982609E-04    0.6860225732E+00    0.8872992637E-03    0.9912115190E-03    0.4040682207E-02
    0.3300000000E+03    0.2935686663E-04    0.6866178003E+00    0.9581862543E-03    0.1071394533E-02    0.4027844888E-02
    0.3500000000E+03    0.3149446434E-04    0.6871458604E+00    0.1031762194E-02    0.1154604795E-02    0.4014593404E-02
    0.3700000000E+03    0.3371712826E-04    0.6876175145E+00    0.1108189823E-02    0.1241031224E-02    0.4000901730E-02
    0.3900000000E+03    0.3602972843E-04    0.6880413415E+00    0.1187642957E-02    0.1330874583E-02    0.3986742354E-02
    0.4100000000E+03    0.3843751799E-04    0.6884242645E+00    0.1270307520E-02    0.1424348843E-02    0.3972086117E-02
    0.4300000000E+03    0.4094616004E-04    0.6887719319E+00    0.1356382662E-02    0.1521682600E-02    0.3956902046E-02
    0.4500000000E+03    0.4356175883E-04    0.6890889979E+00    0.1446082004E-02    0.1623120596E-02    0.3941157174E-02
    0.4700000000E+03    0.4629089542E-04    0.6893793321E+00    0.1539634986E-02    0.1728925336E-02    0.3924816347E-02
    0.4900000000E+03    0.4914066782E-04    0.6896461781E+00    0.1637288350E-02    0.1839378845E-02    0.3907842014E-02
    0.1000000000E+03    0.9738565287E-05    0.6660165686E+00    0.2721351732E-03    0.2910226939E-03    0.4155969215E-02
    0.3000000000E+03    0.2630020016E-04    0.6856956362E+00    0.8528160670E-03    0.9521991081E-03    0.4046953315E-02
    0.5000000000E+03    0.5061316285E-04    0.6897716660E+00    0.1687734910E-02    0.1896442823E-02    0.3899104838E-02
    0.7000000000E+03    0.8870286366E-04    0.6915331959E+00    0.2991666742E-02    0.3372789120E-02    0.3679246905E-02
    0.9000000000E+03    0.1539802406E-03    0.6925155744E+00    0.5227527096E-02    0.5909953669E-02    0.3320698252E-02
    0.1100000000E+04    0.2763218275E-03    0.6931420799E+00    0.9427928848E-02    0.1069155305E-01    0.2687349680E-02
    0.1300000000E+04    0.4997753957E-03    0.6935764064E+00    0.1713635112E-01    0.1951240951E-01    0.1629652636E-02
    0.1500000000E+04    0.7665494360E-03    0.6938952035E+00    0.2643515279E-01    0.3026861587E-01    0.5743133258E-03
    0.1700000000E+04    0.9336557361E-03    0.6941391438E+00    0.3240531381E-01    0.3734794903E-01    0.1603568280E-03
    0.1900000000E+04    0.1033835966E-02    0.6943318144E+00    0.3611902163E-01    0.4191038034E-01    0.7599389394E-04
    0.2100000000E+04    0.1114229933E-02    0.6944878352E+00    0.3918330147E-01    0.4577293655E-01    0.6200051086E-04
    0.2300000000E+04    0.1187251424E-02    0.6946167506E+00    0.4202265228E-01    0.4941749015E-01    0.5993945543E-04
    0.2500000000E+04    0.1255478139E-02    0.6947250559E+00    0.4472352593E-01    0.5294046597E-01    0.5982566790E-04
    0.2700000000E+04    0.1319592911E-02    0.6948173248E+00    0.4730699769E-01    0.5636339534E-01    0.6001922280E-04
    0.2900000000E+04    0.1379923081E-02    0.6948968711E+00    0.4978198653E-01    0.5969397232E-01    0.6025043552E-04
    0.3100000000E+04    0.1436717349E-02    0.6949661546E+00    0.5215487204E-01    0.6293714570E-01    0.6047566521E-04
    0.3300000000E+04    0.1490196249E-02    0.6950270394E+00    0.5443124316E-01    0.6609713391E-01    0.6068892246E-04
    0.3500000000E+04    0.1540562402E-02    0.6950809640E+00    0.5661624075E-01    0.6917780855E-01    0.6089040723E-04
    0.3700000000E+04    0.1588003463E-02    0.6951290564E+00    0.5871464526E-01    0.7218278168E-01    0.6108119708E-04
    0.3900000000E+04    0.1632693648E-02    0.6951722131E+00    0.6073091571E-01    0.7511543734E-01    0.6126236457E-04
    0.4100000000E+04    0.1674794915E-02    0.6952111561E+00    0.6266921751E-01    0.7797895142E-01    0.6143485225E-04
    0.4300000000E+04    0.1714457980E-02    0.6952464730E+00    0.6453344628E-01    0.8077630799E-01    0.6159947425E-04
    0.4500000000E+04    0.1751823238E-02    0.6952786472E+00    0.6632724913E-01    0.8351031384E-01    0.6175693521E-04
    0.4700000000E+04    0.1787021592E-02    0.6953080796E+00    0.6805404397E-01    0.8618361166E-01    0.6190784859E-04
    0.4900000000E+04    0.1820175207E-02    0.6953351059E+00    0.6971703703E-01    0.8879869205E-01    0.6205275160E-04
    0.1000000000E+04    0.2051859266E-03    0.6928600248E+00    0.6983956000E-02    0.7907221519E-02    0.3050387462E-02
    0.3000000000E+04    0.1408747944E-02    0.6949326675E+00    0.5098083062E-01    0.6132621080E-01    0.6036445131E-04
    0.5000000000E+04    0.1836021195E-02    0.6953478071E+00    0.7052555591E-01    0.9008514014E-01    0.6212309931E-04
    0.7000000000E+04    0.2069621381E-02    0.6955254949E+00    0.8398765435E-01    0.1132632667E+00    0.6330461138E-04
    0.9000000000E+04    0.2191347258E-02    0.6956240336E+00    0.9357919357E-01    0.1326240990E+00    0.6419982029E-04
    0.1100000000E+05    0.2245665489E-02    0.6956866148E+00    0.1005749863E+00    0.1492325788E+00    0.6492283204E-04
    0.1300000000E+05    0.2258209332E-02    0.6957298487E+00    0.1057580001E+00    0.1637737103E+00    0.6553045492E-04
    0.1500000000E+05    0.2244434286E-02    0.6957614841E+00    0.1096337418E+00    0.1767105355E+00    0.6605518782E-04
    0.1700000000E+05    0.2213990360E-02    0.6957856216E+00    0.1125419722E+00    0.1883688590E+00    0.6651740475E-04
    0.1900000000E+05    0.2173069227E-02    0.6958046340E+00    0.1147187264E+00    0.1989856273E+00    0.6693073945E-04
    0.2100000000E+05    0.2125728163E-02    0.6958199891E+00    0.1163325754E+00    0.2087380090E+00    0.6730477337E-04
    0.2300000000E+05    0.2074668044E-02    0.6958326439E+00    0.1175067627E+00    0.2177616373E+00    0.6764650235E-04
    0.2500000000E+05    0.2021706543E-02    0.6958432486E+00    0.1183332211E+00    0.2261624770E+00    0.6796119343E-04
    0.2700000000E+05    0.1968074468E-02    0.6958522604E+00    0.1188817304E+00    0.2340247889E+00    0.6825291316E-04
    0.2900000000E+05    0.1914606050E-02    0.6958600104E+00    0.1192060661E+00    0.2414166208E+00    0.6852486797E-04
    0.3100000000E+05    0.1861863792E-02    0.6958667438E+00    0.1193482271E+00    0.2483936843E+00    0.6877963165E-04
    0.3300000000E+05    0.1810221936E-02    0.6958726464E+00    0.1193414044E+00    0.2550021502E+00    0.6901930214E-04
    0.3500000000E+05    0.1759923165E-02    0.6958778614E+00    0.1192121051E+00    0.2612807016E+00    0.6924561243E-04
    0.3700000000E+05    0.1711117673E-02    0.6958825009E+00    0.1189816979E+00    0.2672620680E+00    0.6946001091E-04
    0.3900000000E+05    0.1663890416E-02    0.6958866541E+00    0.1186675543E+00    0.2729741879E+00    0.6966372070E-04
    0.4100000000E+05    0.1618280313E-02    0.6958903925E+00    0.1182839036E+00    0.2784411036E+00    0.6985778419E-04
    0.4300000000E+05    0.1574293889E-02    0.6958937746E+00    0.1178424808E+00    0.2836836565E+00    0.7004309720E-04
    0.4500000000E+05    0.1531915049E-02    0.6958968480E+00    0.1173530231E+00    0.2887200354E+00    0.7022043524E-04
    0.4700000000E+05    0.1491112116E-02    0.6958996526E+00    0.1168236553E+00    0.2935662122E+00    0.7039047428E-04
    0.4900000000E+05    0.1451842912E-02    0.6959022216E+00    0.1162611908E+00    0.2982362920E+00    0.7055380715E-04
    0.1000000000E+05    0.2225019485E-02    0.6956584692E+00    0.9734430202E-01    0.1412230078E+00    0.6457850645E-04
    0.3000000000E+05    0.1888117117E-02    0.6958634914E+00    0.1192976658E+00    0.2449539164E+00    0.6865425790E-04
    0.5000000000E+05    0.1432768336E-02    0.6959034266E+00    0.1159693772E+00    0.3005092639E+00    0.7063312457E-04
    0.7000000000E+05    0.1118736755E-02    0.6959200871E+00    0.1093952974E+00    0.3391420223E+00    0.7196717220E-04
    0.9000000000E+05    0.9000623616E-03    0.6959290877E+00    0.1026426915E+00    0.3687445817E+00    0.7297984339E-04
    0.1100000000E+06    0.7419446782E-03    0.6959346510E+00    0.9636185408E-01    0.3926133100E+00    0.7379859815E-04
    0.1300000000E+06    0.6236078092E-03    0.6959383875E+00    0.9067355769E-01    0.4124804692E+00    0.7448715887E-04
    0.1500000000E+06    0.5324735607E-03    0.6959410424E+00    0.8555747557E-01    0.4293850699E+00    0.7508207400E-04
    0.1700000000E+06    0.4606152929E-03    0.6959430071E+00    0.8095636755E-01    0.4440058981E+00    0.7560629654E-04
    0.1900000000E+06    0.4028346895E-03    0.6959445059E+00    0.7680778270E-01    0.4568135696E+00    0.7607520559E-04
    0.2100000000E+06    0.3556005060E-03    0.6959456768E+00    0.7305386525E-01    0.4681489265E+00    0.7649961960E-04
    0.2300000000E+06    0.3164400438E-03    0.6959466086E+00    0.6964389327E-01    0.4782671988E+00    0.7688744359E-04
    0.2500000000E+06    0.2835760598E-03    0.6959473615E+00    0.6653433519E-01    0.4873646134E+00    0.7724463273E-04
    0.2700000000E+06    0.2557020345E-03    0.6959479773E+00    0.6368811207E-01    0.4955952928E+00    0.7757578713E-04
    0.2900000000E+06    0.2318384555E-03    0.6959484861E+00    0.6107368131E-01    0.5030824533E+00    0.7788453544E-04
    0.3100000000E+06    0.2112382171E-03    0.6959489098E+00    0.5866416159E-01    0.5099260855E+00    0.7817379142E-04
    0.3300000000E+06    0.1933227397E-03    0.6959492651E+00    0.5643656750E-01    0.5162083783E+00    0.7844593079E-04
    0.3500000000E+06    0.1776378461E-03    0.6959495645E+00    0.5437116473E-01    0.5219976435E+00    0.7870291657E-04
    0.3700000000E+06    0.1638226622E-03    0.6959498180E+00    0.5245093569E-01    0.5273512151E+00    0.7894638975E-04
    0.3900000000E+06    0.1515872990E-03    0.6959500333E+00    0.5066113996E-01    0.5323176317E+00    0.7917773635E-04
    0.4100000000E+06    0.1406965734E-03    0.6959502164E+00    0.4898895304E-01    0.5369383045E+00    0.7939813787E-04
    0.4300000000E+06    0.1309579572E-03    0.6959503724E+00    0.4742316952E-01    0.5412488102E+00    0.7960860975E-04
    0.4500000000E+06    0.1222125379E-03    0.6959505054E+00    0.4595395812E-01    0.5452799067E+00    0.7981003127E-04
    0.4700000000E+06    0.1143281537E-03    0.6959506186E+00    0.4457265913E-01    0.5490583386E+00    0.8000316890E-04
    0.4900000000E+06    0.1071941220E-03    0.6959507147E+00    0.4327161608E-01    0.5526074837E+00    0.8018869492E-04
    0.1000000000E+06    0.8149818049E-03    0.6959321678E+00    0.9943025779E-01    0.3812651195E+00    0.7340859149E-04
    0.3000000000E+06    0.2211699360E-03    0.6959487074E+00    0.5984482733E-01    0.5065792083E+00    0.7803144055E-04
    0.5000000000E+06    0.1038787476E-03    0.6959507571E+00    0.4264903714E-01    0.5543025894E+00    0.8027879162E-04
    0.7000000000E+06    0.6056191241E-04    0.6959511078E+00    0.3310820340E-01    0.5800437041E+00    0.8179429404E-04
    0.9000000000E+06    0.3975079677E-04    0.6959510070E+00    0.2704262427E-01    0.5962104726E+00    0.8294486179E-04
    0.1100000000E+07    0.2813419461E-04    0.6959507526E+00    0.2284684016E-01    0.6073189998E+00    0.8387517738E-04
    0.1300000000E+07    0.2098216943E-04    0.6959504434E+00    0.1977237105E-01    0.6154248200E+00    0.8465759643E-04
    0.1500000000E+07    0.1626250003E-04    0.6959501181E+00    0.1742315446E-01    0.6216010138E+00    0.8533362704E-04
    0.1700000000E+07    0.1298230671E-04    0.6959497935E+00    0.1556995699E-01    0.6264633122E+00    0.8592934032E-04
    0.1900000000E+07    0.1060897260E-04    0.6959494767E+00    0.1407090517E-01    0.6303905231E+00    0.8646220620E-04
    0.2100000000E+07    0.8835656224E-05    0.6959491710E+00    0.1283349428E-01    0.6336285631E+00    0.8694451479E-04
    0.2300000000E+07    0.7475334955E-05    0.6959488776E+00    0.1179483687E-01    0.6363440612E+00    0.8738524692E-04
    0.2500000000E+07    0.6408682256E-05    0.6959485965E+00    0.1091069095E-01    0.6386539398E+00    0.8779116850E-04
    0.2700000000E+07    0.5556623864E-05    0.6959483274E+00    0.1014902873E-01    0.6406426662E+00    0.8816750611E-04
    0.2900000000E+07    0.4865059659E-05    0.6959480698E+00    0.9486095170E-02    0.6423727840E+00    0.8851838267E-04
    0.3100000000E+07    0.4295952418E-05    0.6959478229E+00    0.8903899955E-02    0.6438915926E+00    0.8884710890E-04
    0.3300000000E+07    0.3821920237E-05    0.6959475862E+00    0.8388569599E-02    0.6452355247E+00    0.8915638428E-04
    0.3500000000E+07    0.3422841322E-05    0.6959473588E+00    0.7929234099E-02    0.6464330967E+00    0.8944843933E-04
    0.3700000000E+07    0.3083658100E-05    0.6959471403E+00    0.7517256269E-02    0.6475069481E+00    0.8972513873E-04
    0.3900000000E+07    0.2792919526E-05    0.6959469299E+00    0.7145686728E-02    0.6484752809E+00    0.8998805744E-04
    0.4100000000E+07    0.2541790823E-05    0.6959467272E+00    0.6808871043E-02    0.6493528954E+00    0.9023853802E-04
    0.4300000000E+07    0.2323366777E-05    0.6959465316E+00    0.6502161695E-02    0.6501519498E+00    0.9047773439E-04
    0.4500000000E+07    0.2132186659E-05    0.6959463427E+00    0.6221703619E-02    0.6508825237E+00    0.9070664570E-04
    0.4700000000E+07    0.1963885789E-05    0.6959461600E+00    0.5964272307E-02    0.6515530446E+00    0.9092614296E-04
    0.4900000000E+07    0.1814941443E-05    0.6959459832E+00    0.5727150021E-02    0.6521706124E+00    0.9113699010E-04
    0.1000000000E+07    0.3318570958E-04    0.6959508906E+00    0.2476949285E-01    0.6022356706E+00    0.8343202301E-04
    0.3000000000E+07    0.4567112888E-05    0.6959479450E+00    0.9185853764E-02    0.6431561103E+00    0.8868533343E-04
    0.5000000000E+07    0.1746810071E-05    0.6959458969E+00    0.5615470027E-02    0.6524614578E+00    0.9123938358E-04
    0.7000000000E+07    0.9218721794E-06    0.6959444053E+00    0.4036633733E-02    0.6565723223E+00    0.9296173761E-04
    0.9000000000E+07    0.5711659451E-06    0.6959432318E+00    0.3147674657E-02    0.6588866776E+00    0.9426935562E-04
    0.1100000000E+08    0.3897129956E-06    0.6959422628E+00    0.2577970204E-02    0.6603700670E+00    0.9532666099E-04
    0.1300000000E+08    0.2836233920E-06    0.6959414361E+00    0.2181932757E-02    0.6614014867E+00    0.9621588330E-04
    0.1500000000E+08    0.2161788291E-06    0.6959407143E+00    0.1890766149E-02    0.6621599720E+00    0.9698419556E-04
    0.1700000000E+08    0.1706024606E-06    0.6959400732E+00    0.1667749499E-02    0.6627410741E+00    0.9766122721E-04
    0.1900000000E+08    0.1383362423E-06    0.6959394959E+00    0.1491501926E-02    0.6632004275E+00    0.9826683265E-04
    0.2100000000E+08    0.1146395494E-06    0.6959389706E+00    0.1348732867E-02    0.6635726167E+00    0.9881497953E-04
    0.2300000000E+08    0.9671239027E-07    0.6959384884E+00    0.1230747775E-02    0.6638802683E+00    0.9931587455E-04
    0.2500000000E+08    0.8281372030E-07    0.6959380424E+00    0.1131620415E-02    0.6641388062E+00    0.9977720717E-04
    0.2700000000E+08    0.7181431301E-07    0.6959376276E+00    0.1047172839E-02    0.6643591054E+00    0.1002049174E-03
