  Pressure (Pa) 23mC5-500 (mol/kg) 24mC5-500 (mol/kg) 2mC6-500 (mol/kg) 3mC6-500 (mol/kg) C7-500 (mol/kg)
    0.1000000000E+01    0.9769582068E-06    0.2487060824E+00    0.6449389813E-05    0.7998530343E-06    0.4186373340E-02
    0.3000000000E+01    0.1557366570E-05    0.4351229847E+00    0.9872244973E-05    0.2043794822E-05    0.4210841319E-02
    0.5000000000E+01    0.1760712872E-05    0.5118558132E+00    0.1131310624E-04    0.3185997323E-05    0.4220244682E-02
    0.7000000000E+01    0.1881119019E-05    0.5537036883E+00    0.1252334571E-04    0.4278427174E-05    0.4225409007E-02
    0.9000000000E+01    0.1977881107E-05    0.5800500868E+00    0.1374704786E-04    0.5338658417E-05    0.4228704004E-02
    0.1100000000E+02    0.2067956757E-05    0.5981622277E+00    0.1501983734E-04    0.6375501553E-05    0.4230996194E-02
    0.1300000000E+02    0.2157040480E-05    0.6113786730E+00    0.1633895461E-04    0.7394209235E-05    0.4232682926E-02
    0.1500000000E+02    0.2247146442E-05    0.6214480435E+00    0.1769529754E-04    0.8398247737E-05    0.4233973566E-02
    0.1700000000E+02    0.2338934729E-05    0.6293748049E+00    0.1908022700E-04    0.9390064217E-05    0.4234989520E-02
    0.1900000000E+02    0.2432535988E-05    0.6357770618E+00    0.2048678998E-04    0.1037147191E-04    0.4235806338E-02
    0.2100000000E+02    0.2527872828E-05    0.6410560260E+00    0.2190964640E-04    0.1134386417E-04    0.4236473652E-02
    0.2300000000E+02    0.2624792705E-05    0.6454834780E+00    0.2334474761E-04    0.1230834258E-04    0.4237025514E-02
    0.2500000000E+02    0.2723124396E-05    0.6492500657E+00    0.2478902584E-04    0.1326579820E-04    0.4237486116E-02
    0.2700000000E+02    0.2822701724E-05    0.6524934765E+00    0.2624014657E-04    0.1421696548E-04    0.4237873161E-02
    0.2900000000E+02    0.2923372768E-05    0.6553156331E+00    0.2769632257E-04    0.1516245933E-04    0.4238199924E-02
    0.3100000000E+02    0.3025002572E-05    0.6577935978E+00    0.2915617692E-04    0.1610280151E-04    0.4238476572E-02
    0.3300000000E+02    0.3127472972E-05    0.6599867170E+00    0.3061864247E-04    0.1703843988E-04    0.4238711036E-02
    0.3500000000E+02    0.3230681249E-05    0.6619414348E+00    0.3208288787E-04    0.1796976264E-04    0.4238909605E-02
    0.3700000000E+02    0.3334538392E-05    0.6636946192E+00    0.3354826269E-04    0.1889710932E-04    0.4239077330E-02
    0.3900000000E+02    0.3438967329E-05    0.6652759086E+00    0.3501425646E-04    0.1982077912E-04    0.4239218326E-02
    0.4100000000E+02    0.3543901288E-05    0.6667094016E+00    0.3648046781E-04    0.2074103757E-04    0.4239335978E-02
    0.4300000000E+02    0.3649282337E-05    0.6680148931E+00    0.3794658096E-04    0.2165812173E-04    0.4239433102E-02
    0.4500000000E+02    0.3755060119E-05    0.6692087943E+00    0.3941234780E-04    0.2257224448E-04    0.4239512060E-02
    0.4700000000E+02    0.3861190768E-05    0.6703048258E+00    0.4087757395E-04    0.2348359792E-04    0.4239574850E-02
    0.4900000000E+02    0.3967635981E-05    0.6713145475E+00    0.4234210797E-04    0.2439235621E-04    0.4239623174E-02
    0.1000000000E+02    0.2023266100E-05    0.5898737230E+00    0.1437717035E-04    0.5859620056E-05    0.4229944336E-02
    0.3000000000E+02    0.2974075591E-05    0.6565935804E+00    0.2842586293E-04    0.1563324484E-04    0.4238343972E-02
    0.5000000000E+02    0.4020965906E-05    0.6717901666E+00    0.4307407773E-04    0.2484581228E-04    0.4239642376E-02
    0.7000000000E+02    0.5097850846E-05    0.6785201331E+00    0.5766082024E-04    0.3381076930E-04    0.4239532981E-02
    0.9000000000E+02    0.6185351003E-05    0.6823173692E+00    0.7214513086E-04    0.4263597880E-04    0.4238863112E-02
    0.1100000000E+03    0.7277557753E-05    0.6847558461E+00    0.8654816311E-04    0.5137602587E-04    0.4237901661E-02
    0.1300000000E+03    0.8372562503E-05    0.6864541462E+00    0.1008957954E-03    0.6006371816E-04    0.4236764185E-02
    0.1500000000E+03    0.9469869099E-05    0.6877048454E+00    0.1152104931E-03    0.6872089488E-04    0.4235509603E-02
    0.1700000000E+03    0.1056953061E-04    0.6886642756E+00    0.1295107144E-03    0.7736313133E-04    0.4234171480E-02
    0.1900000000E+03    0.1167181989E-04    0.6894235601E+00    0.1438115676E-03    0.8600210815E-04    0.4232770482E-02
    0.2100000000E+03    0.1277709258E-04    0.6900394024E+00    0.1581255440E-03    0.9464693033E-04    0.4231320085E-02
    0.2300000000E+03    0.1388572711E-04    0.6905489353E+00    0.1724631154E-03    0.1033049177E-03    0.4229829473E-02
    0.2500000000E+03    0.1499809823E-04    0.6909774936E+00    0.1868331890E-03    0.1119821066E-03    0.4228305121E-02
    0.2700000000E+03    0.1611456570E-04    0.6913429546E+00    0.2012434484E-03    0.1206835823E-03    0.4226751723E-02
    0.2900000000E+03    0.1723547012E-04    0.6916582942E+00    0.2157006088E-03    0.1294137088E-03    0.4225172758E-02
    0.3100000000E+03    0.1836113218E-04    0.6919331587E+00    0.2302106110E-03    0.1381762910E-03    0.4223570850E-02
    0.3300000000E+03    0.1949185347E-04    0.6921748685E+00    0.2447787694E-03    0.1469746937E-03    0.4221948007E-02
    0.3500000000E+03    0.2062791800E-04    0.6923890792E+00    0.2594098870E-03    0.1558119297E-03    0.4220305784E-02
    0.3700000000E+03    0.2176959392E-04    0.6925802292E+00    0.2741083460E-03    0.1646907272E-03    0.4218645392E-02
    0.3900000000E+03    0.2291713521E-04    0.6927518509E+00    0.2888781789E-03    0.1736135815E-03    0.4216967785E-02
    0.4100000000E+03    0.2407078338E-04    0.6929067900E+00    0.3037231263E-03    0.1825827958E-03    0.4215273713E-02
    0.4300000000E+03    0.2523076893E-04    0.6930473653E+00    0.3186466834E-03    0.1916005137E-03    0.4213563769E-02
    0.4500000000E+03    0.2639731270E-04    0.6931754847E+00    0.3336521381E-03    0.2006687448E-03    0.4211838416E-02
    0.4700000000E+03    0.2757062713E-04    0.6932927327E+00    0.3487426023E-03    0.2097893866E-03    0.4210098020E-02
    0.4900000000E+03    0.2875091724E-04    0.6934004360E+00    0.3639210382E-03    0.2189642415E-03    0.4208342861E-02
    0.1000000000E+03    0.6731035173E-05    0.6836563974E+00    0.7935513741E-04    0.4701425878E-04    0.4238409682E-02
    0.3000000000E+03    0.1779768716E-04    0.6918002828E+00    0.2229486593E-03    0.1337907234E-03    0.4224374534E-02
    0.5000000000E+03    0.2934374048E-04    0.6934510650E+00    0.3715441358E-03    0.2235725396E-03    0.4207459814E-02
    0.7000000000E+03    0.4161241121E-04    0.6941603845E+00    0.5292672536E-03    0.3189742919E-03    0.4189050094E-02
    0.9000000000E+03    0.5478409104E-04    0.6945547549E+00    0.6986022705E-03    0.4215023082E-03    0.4169182223E-02
    0.1100000000E+04    0.6902756595E-04    0.6948057424E+00    0.8817770911E-03    0.5325072078E-03    0.4147717673E-02
    0.1300000000E+04    0.8452132307E-04    0.6949794629E+00    0.1081118865E-02    0.6534038813E-03    0.4124452058E-02
    0.1500000000E+04    0.1014653804E-03    0.6951068047E+00    0.1299225382E-02    0.7857754701E-03    0.4099132781E-02
    0.1700000000E+04    0.1200908548E-03    0.6952041314E+00    0.1539094887E-02    0.9314521640E-03    0.4071457639E-02
    0.1900000000E+04    0.1406698155E-03    0.6952809210E+00    0.1804256258E-02    0.1092590607E-02    0.4041066609E-02
    0.2100000000E+04    0.1635267603E-03    0.6953430420E+00    0.2098919236E-02    0.1271765869E-02    0.4007529301E-02
    0.2300000000E+04    0.1890527783E-03    0.6953943227E+00    0.2428159280E-02    0.1472084903E-02    0.3970328175E-02
    0.2500000000E+04    0.2177235315E-03    0.6954373661E+00    0.2798152160E-02    0.1697330756E-02    0.3928836737E-02
    0.2700000000E+04    0.2501224325E-03    0.6954740042E+00    0.3216476429E-02    0.1952148745E-02    0.3882291388E-02
    0.2900000000E+04    0.2869707699E-03    0.6955055636E+00    0.3692506855E-02    0.2242288912E-02    0.3829755123E-02
    0.3100000000E+04    0.3291670068E-03    0.6955330285E+00    0.4237928183E-02    0.2574923027E-02    0.3770070842E-02
    0.3300000000E+04    0.3778379816E-03    0.6955571441E+00    0.4867405380E-02    0.2959058736E-02    0.3701801680E-02
    0.3500000000E+04    0.4344050748E-03    0.6955784857E+00    0.5599451307E-02    0.3406076695E-02    0.3623155944E-02
    0.3700000000E+04    0.5006680672E-03    0.6955975038E+00    0.6457529026E-02    0.3930414650E-02    0.3531895536E-02
    0.3900000000E+04    0.5789071968E-03    0.6956145566E+00    0.7471398267E-02    0.4550406160E-02    0.3425231100E-02
    0.4100000000E+04    0.6719971778E-03    0.6956299322E+00    0.8678629544E-02    0.5289229984E-02    0.3299717949E-02
    0.4300000000E+04    0.7835102034E-03    0.6956438652E+00    0.1012599413E-01    0.6175795511E-02    0.3151191219E-02
    0.4500000000E+04    0.9177481163E-03    0.6956565484E+00    0.1186996155E-01    0.7245098812E-02    0.2974828644E-02
    0.4700000000E+04    0.1079572202E-02    0.6956681418E+00    0.1397460374E-01    0.8537011724E-02    0.2765520106E-02
    0.4900000000E+04    0.1273783957E-02    0.6956787792E+00    0.1650369871E-01    0.1009153585E-01    0.2518855050E-02
    0.1000000000E+04    0.6176108507E-04    0.6946928015E+00    0.7883189578E-03    0.4758596648E-03    0.4158661120E-02
    0.3000000000E+04    0.3073360208E-03    0.6955197566E+00    0.3955706046E-02    0.2402779906E-02    0.3800888932E-02
    0.5000000000E+04    0.1384190089E-02    0.6956837753E+00    0.1794302560E-01    0.1097723676E-01    0.2380795543E-02
    0.7000000000E+04    0.3642147103E-02    0.6957534182E+00    0.4794527161E-01    0.2980443384E-01    0.1763469660E-03
    0.9000000000E+04    0.4383226360E-02    0.6957917372E+00    0.5876227004E-01    0.3722153683E-01    0.1085521416E-03
    0.1100000000E+05    0.4955002542E-02    0.6958158815E+00    0.6761379353E-01    0.4361032295E-01    0.1093140820E-03
    0.1300000000E+05    0.5435649525E-02    0.6958324283E+00    0.7545605934E-01    0.4952317328E-01    0.1103313609E-03
    0.1500000000E+05    0.5841233929E-02    0.6958444378E+00    0.8244769791E-01    0.5502756652E-01    0.1112131477E-03
    0.1700000000E+05    0.6184205071E-02    0.6958535252E+00    0.8871215191E-01    0.6017572917E-01    0.1119900992E-03
    0.1900000000E+05    0.6474584523E-02    0.6958606229E+00    0.9435026274E-01    0.6501089907E-01    0.1126850142E-03
    0.2100000000E+05    0.6720516110E-02    0.6958663062E+00    0.9944522784E-01    0.6956923101E-01    0.1133139480E-03
    0.2300000000E+05    0.6928672891E-02    0.6958709493E+00    0.1040662823E+00    0.7388121482E-01    0.1138886300E-03
    0.2500000000E+05    0.7104564269E-02    0.6958748056E+00    0.1082714977E+00    0.7797276313E-01    0.1144178945E-03
    0.2700000000E+05    0.7252770480E-02    0.6958780532E+00    0.1121099354E+00    0.8186605578E-01    0.1149085647E-03
    0.2900000000E+05    0.7377123536E-02    0.6958808204E+00    0.1156233210E+00    0.8558020231E-01    0.1153660223E-03
    0.3100000000E+05    0.7480848245E-02    0.6958832022E+00    0.1188473606E+00    0.8913176691E-01    0.1157945880E-03
    0.3300000000E+05    0.7566673095E-02    0.6958852702E+00    0.1218127828E+00    0.9253518824E-01    0.1161977846E-03
    0.3500000000E+05    0.7636918182E-02    0.6958870796E+00    0.1245461738E+00    0.9580311789E-01    0.1165785225E-03
    0.3700000000E+05    0.7693565483E-02    0.6958886735E+00    0.1270706487E+00    0.9894669555E-01    0.1169392347E-03
    0.3900000000E+05    0.7738315421E-02    0.6958900860E+00    0.1294063976E+00    0.1019757742E+00    0.1172819759E-03
    0.4100000000E+05    0.7772632699E-02    0.6958913445E+00    0.1315711318E+00    0.1048991057E+00    0.1176084974E-03
    0.4300000000E+05    0.7797783691E-02    0.6958924711E+00    0.1335804512E+00    0.1077244951E+00    0.1179203047E-03
    0.4500000000E+05    0.7814867105E-02    0.6958934841E+00    0.1354481478E+00    0.1104589288E+00    0.1182187008E-03
    0.4700000000E+05    0.7824839286E-02    0.6958943985E+00    0.1371864589E+00    0.1131086826E+00    0.1185048219E-03
    0.4900000000E+05    0.7828535191E-02    0.6958952269E+00    0.1388062793E+00    0.1156794126E+00    0.1187796645E-03
    0.1000000000E+05    0.4681765852E-02    0.6958050464E+00    0.6332689242E-01    0.4048106704E-01    0.1087713827E-03
    0.3000000000E+05    0.7431383399E-02    0.6958820546E+00    0.1172694825E+00    0.8737535943E-01    0.1155836802E-03
    0.5000000000E+05    0.7828261635E-02    0.6958956122E+00    0.1395748373E+00    0.1169367611E+00    0.1189131350E-03
    0.7000000000E+05    0.7629397913E-02    0.6959006512E+00    0.1506117437E+00    0.1389510526E+00    0.1211581518E-03
    0.9000000000E+05    0.7259933019E-02    0.6959030193E+00    0.1564598299E+00    0.1567574631E+00    0.1228624972E-03
    0.1100000000E+06    0.6852526424E-02    0.6959042494E+00    0.1595471880E+00    0.1718671483E+00    0.1242405499E-03
    0.1300000000E+06    0.6453402190E-02    0.6959049076E+00    0.1610245396E+00    0.1850878267E+00    0.1253995105E-03
    0.1500000000E+06    0.6078651806E-02    0.6959052472E+00    0.1615027965E+00    0.1969017103E+00    0.1264008729E-03
    0.1700000000E+06    0.5732833991E-02    0.6959053968E+00    0.1613336037E+00    0.2076203078E+00    0.1272832598E-03
    0.1900000000E+06    0.5415919841E-02    0.6959054274E+00    0.1607319637E+00    0.2174570896E+00    0.1280725510E-03
    0.2100000000E+06    0.5126101525E-02    0.6959053810E+00    0.1598355966E+00    0.2265651910E+00    0.1287869526E-03
    0.2300000000E+06    0.4860982569E-02    0.6959052834E+00    0.1587360205E+00    0.2350585416E+00    0.1294397684E-03
    0.2500000000E+06    0.4618089460E-02    0.6959051515E+00    0.1574958700E+00    0.2430244537E+00    0.1300410208E-03
    0.2700000000E+06    0.4395084935E-02    0.6959049964E+00    0.1561590480E+00    0.2505315045E+00    0.1305984520E-03
    0.2900000000E+06    0.4189846583E-02    0.6959048257E+00    0.1547569310E+00    0.2576346792E+00    0.1311181692E-03
    0.3100000000E+06    0.4000484411E-02    0.6959046446E+00    0.1533122999E+00    0.2643788467E+00    0.1316050766E-03
    0.3300000000E+06    0.3825331582E-02    0.6959044570E+00    0.1518419054E+00    0.2708011780E+00    0.1320631727E-03
    0.3500000000E+06    0.3662924437E-02    0.6959042654E+00    0.1503581866E+00    0.2769328744E+00    0.1324957617E-03
    0.3700000000E+06    0.3511979433E-02    0.6959040719E+00    0.1488704496E+00    0.2828004283E+00    0.1329056056E-03
    0.3900000000E+06    0.3371370452E-02    0.6959038778E+00    0.1473856904E+00    0.2884265639E+00    0.1332950372E-03
    0.4100000000E+06    0.3240107987E-02    0.6959036841E+00    0.1459091813E+00    0.2938309487E+00    0.1336660454E-03
    0.4300000000E+06    0.3117320681E-02    0.6959034916E+00    0.1444448940E+00    0.2990307428E+00    0.1340203392E-03
    0.4500000000E+06    0.3002239270E-02    0.6959033009E+00    0.1429958105E+00    0.3040410266E+00    0.1343593986E-03
    0.4700000000E+06    0.2894182763E-02    0.6959031123E+00    0.1415641527E+00    0.3088751397E+00    0.1346845139E-03
    0.4900000000E+06    0.2792546599E-02    0.6959029261E+00    0.1401515552E+00    0.3135449515E+00    0.1349968167E-03
    0.1000000000E+06    0.7057014328E-02    0.6959037302E+00    0.1582588758E+00    0.1645885282E+00    0.1235841197E-03
    0.3000000000E+06    0.4093290176E-02    0.6959047362E+00    0.1540387648E+00    0.2610491582E+00    0.1313654558E-03
    0.5000000000E+06    0.2743965599E-02    0.6959028340E+00    0.1394527874E+00    0.3158216065E+00    0.1351484798E-03
    0.7000000000E+06    0.2005745350E-02    0.6959011402E+00    0.1266143561E+00    0.3548112553E+00    0.1376995903E-03
    0.9000000000E+06    0.1546200846E-02    0.6958997081E+00    0.1158318072E+00    0.3848903663E+00    0.1396363974E-03
    0.1100000000E+07    0.1235989626E-02    0.6958984814E+00    0.1067374467E+00    0.4091356456E+00    0.1412024454E-03
    0.1300000000E+07    0.1014627654E-02    0.6958974120E+00    0.9898054266E-01    0.4292445960E+00    0.1425195322E-03
    0.1500000000E+07    0.8501160892E-03    0.6958964650E+00    0.9228834906E-01    0.4462686126E+00    0.1436575299E-03
    0.1700000000E+07    0.7239826528E-03    0.6958956154E+00    0.8645458334E-01    0.4609089080E+00    0.1446603251E-03
    0.1900000000E+07    0.6248481829E-03    0.6958948451E+00    0.8132242334E-01    0.4736579389E+00    0.1455573258E-03
    0.2100000000E+07    0.5453412982E-03    0.6958941404E+00    0.7677107052E-01    0.4848750615E+00    0.1463692205E-03
    0.2300000000E+07    0.4804909594E-03    0.6958934909E+00    0.7270610686E-01    0.4948304099E+00    0.1471111272E-03
    0.2500000000E+07    0.4268326300E-03    0.6958928885E+00    0.6905268737E-01    0.5037319408E+00    0.1477944353E-03
    0.2700000000E+07    0.3818843796E-03    0.6958923266E+00    0.6575070680E-01    0.5117429125E+00    0.1484279429E-03
    0.2900000000E+07    0.3438261770E-03    0.6958918001E+00    0.6275132383E-01    0.5189936206E+00    0.1490185906E-03
    0.3100000000E+07    0.3112962591E-03    0.6958913047E+00    0.6001442436E-01    0.5255895280E+00    0.1495719513E-03
    0.3300000000E+07    0.2832577423E-03    0.6958908369E+00    0.5750674252E-01    0.5316170462E+00    0.1500925692E-03
    0.3500000000E+07    0.2589088597E-03    0.6958903937E+00    0.5520044907E-01    0.5371477394E+00    0.1505841992E-03
    0.3700000000E+07    0.2376211184E-03    0.6958899725E+00    0.5307207681E-01    0.5422414413E+00    0.1510499801E-03
    0.3900000000E+07    0.2188957977E-03    0.6958895713E+00    0.5110169257E-01    0.5469486042E+00    0.1514925632E-03
    0.4100000000E+07    0.2023327817E-03    0.6958891882E+00    0.4927225188E-01    0.5513120963E+00    0.1519142086E-03
    0.4300000000E+07    0.1876078549E-03    0.6958888215E+00    0.4756909087E-01    0.5553685948E+00    0.1523168585E-03
    0.4500000000E+07    0.1744559169E-03    0.6958884700E+00    0.4597952232E-01    0.5591496792E+00    0.1527021951E-03
    0.4700000000E+07    0.1626584044E-03    0.6958881323E+00    0.4449251171E-01    0.5626826970E+00    0.1530716844E-03
    0.4900000000E+07    0.1520337484E-03    0.6958878075E+00    0.4309841521E-01    0.5659914575E+00    0.1534266126E-03
    0.1000000000E+07    0.1377153544E-02    0.6958990724E+00    0.1110973351E+00    0.3976157443E+00    0.1404564607E-03
    0.3000000000E+07    0.3269413839E-03    0.6958915488E+00    0.6135228483E-01    0.5223676327E+00    0.1492996268E-03
    0.5000000000E+07    0.1471127798E-03    0.6958876495E+00    0.4243352300E-01    0.5675683543E+00    0.1535989759E-03
    0.7000000000E+07    0.8387291106E-04    0.6958849780E+00    0.3241832139E-01    0.5912372614E+00    0.1564982850E-03
    0.9000000000E+07    0.5429234398E-04    0.6958829346E+00    0.2621490374E-01    0.6058278345E+00    0.1586994474E-03
    0.1100000000E+08    0.3806183627E-04    0.6958812751E+00    0.2199538792E-01    0.6157260069E+00    0.1604792462E-03
    0.1300000000E+08    0.2818868923E-04    0.6958798754E+00    0.1893989654E-01    0.6228817628E+00    0.1619761029E-03
    0.1500000000E+08    0.2173126998E-04    0.6958786635E+00    0.1662562016E-01    0.6282956079E+00    0.1632694264E-03
    0.1700000000E+08    0.1727422443E-04    0.6958775939E+00    0.1481235718E-01    0.6325340686E+00    0.1644090933E-03
    0.1900000000E+08    0.1406711518E-04    0.6958766360E+00    0.1335353478E-01    0.6359420497E+00    0.1654285256E-03
    0.2100000000E+08    0.1168158213E-04    0.6958757681E+00    0.1215464424E-01    0.6387415675E+00    0.1663512355E-03
    0.2300000000E+08    0.9858482288E-05    0.6958749744E+00    0.1115201356E-01    0.6410820057E+00    0.1671944046E-03
    0.2500000000E+08    0.8433496243E-05    0.6958742429E+00    0.1030118236E-01    0.6430675695E+00    0.1679709768E-03
    0.2700000000E+08    0.7298302084E-05    0.6958735642E+00    0.9570166508E-02    0.6447731621E+00    0.1686909512E-03
