  Pressure (Pa) 23mC5-500 (mol/kg) 24mC5-500 (mol/kg) 2mC6-500 (mol/kg) 3mC6-500 (mol/kg) C7-500 (mol/kg)
    0.1000000000E+01    0.1350848684E-05    0.9949505455E-01    0.3037902240E-05    0.4325557116E-05    0.4232010552E-02
    0.3000000000E+01    0.2980494451E-05    0.2320859267E+00    0.6437364729E-05    0.1121571721E-04    0.4325664171E-02
    0.5000000000E+01    0.3899178297E-05    0.3164208404E+00    0.8198412544E-05    0.1758999457E-04    0.4385099507E-02
    0.7000000000E+01    0.4469519509E-05    0.3747878447E+00    0.9231034355E-05    0.2371364459E-04    0.4426694235E-02
    0.9000000000E+01    0.4849891782E-05    0.4175805742E+00    0.9907554598E-05    0.2967699640E-04    0.4457564460E-02
    0.1100000000E+02    0.5118919934E-05    0.4502988419E+00    0.1040025929E-04    0.3552547934E-04    0.4481453504E-02
    0.1300000000E+02    0.5319252621E-05    0.4761256100E+00    0.1079567272E-04    0.4128622865E-04    0.4500531484E-02
    0.1500000000E+02    0.5475590038E-05    0.4970307457E+00    0.1113982308E-04    0.4697717340E-04    0.4516146593E-02
    0.1700000000E+02    0.5602976171E-05    0.5142986682E+00    0.1145820715E-04    0.5261098252E-04    0.4529181994E-02
    0.1900000000E+02    0.5710945116E-05    0.5288026308E+00    0.1176533305E-04    0.5819704946E-04    0.4540241159E-02
    0.2100000000E+02    0.5805735036E-05    0.5411570563E+00    0.1206957629E-04    0.6374259644E-04    0.4549750913E-02
    0.2300000000E+02    0.5891534806E-05    0.5518068182E+00    0.1237577732E-04    0.6925333616E-04    0.4558021948E-02
    0.2500000000E+02    0.5971217466E-05    0.5610819497E+00    0.1268668850E-04    0.7473389175E-04    0.4565285993E-02
    0.2700000000E+02    0.6046787943E-05    0.5692324539E+00    0.1300380716E-04    0.8018807543E-04    0.4571719537E-02
    0.2900000000E+02    0.6119665064E-05    0.5764511753E+00    0.1332786834E-04    0.8561908072E-04    0.4577459455E-02
    0.3100000000E+02    0.6190864061E-05    0.5828892522E+00    0.1365914272E-04    0.9102961878E-04    0.4582613603E-02
    0.3300000000E+02    0.6261117475E-05    0.5886668127E+00    0.1399761988E-04    0.9642201804E-04    0.4587268170E-02
    0.3500000000E+02    0.6330956917E-05    0.5938805402E+00    0.1434312252E-04    0.1017982983E-03    0.4591492898E-02
    0.3700000000E+02    0.6400769364E-05    0.5986091265E+00    0.1469537818E-04    0.1071602274E-03    0.4595344859E-02
    0.3900000000E+02    0.6470836547E-05    0.6029172712E+00    0.1505406462E-04    0.1125093643E-03    0.4598871225E-02
    0.4100000000E+02    0.6541362901E-05    0.6068586587E+00    0.1541883827E-04    0.1178470940E-03    0.4602111349E-02
    0.4300000000E+02    0.6612495648E-05    0.6104782072E+00    0.1578935216E-04    0.1231746542E-03    0.4605098330E-02
    0.4500000000E+02    0.6684339402E-05    0.6138137876E+00    0.1616526676E-04    0.1284931577E-03    0.4607860226E-02
    0.4700000000E+02    0.6756966879E-05    0.6168975533E+00    0.1654625646E-04    0.1338036098E-03    0.4610420979E-02
    0.4900000000E+02    0.6830426834E-05    0.6197569801E+00    0.1693201315E-04    0.1391069230E-03    0.4612801160E-02
    0.1000000000E+02    0.4995095491E-05    0.4349627585E+00    0.1017017800E-04    0.3261361650E-04    0.4470220713E-02
    0.3000000000E+02    0.6155423028E-05    0.5797596605E+00    0.1349259953E-04    0.8832675463E-04    0.4580103926E-02
    0.5000000000E+02    0.6867479165E-05    0.6211100792E+00    0.1712658806E-04    0.1417561654E-03    0.4613929186E-02
    0.7000000000E+02    0.7654226535E-05    0.6406925513E+00    0.2120869175E-04    0.1945352062E-03    0.4630275743E-02
    0.9000000000E+02    0.8518285548E-05    0.6521136116E+00    0.2554742777E-04    0.2472349336E-03    0.4639529655E-02
    0.1100000000E+03    0.9442910625E-05    0.6595951780E+00    0.3005546924E-04    0.3001528014E-03    0.4645091519E-02
    0.1300000000E+03    0.1041584263E-04    0.6648754838E+00    0.3469237552E-04    0.3534754945E-03    0.4648431636E-02
    0.1500000000E+03    0.1142916282E-04    0.6688012866E+00    0.3943856512E-04    0.4073346522E-03    0.4650299346E-02
    0.1700000000E+03    0.1247781187E-04    0.6718344209E+00    0.4428452129E-04    0.4618310605E-03    0.4651120798E-02
    0.1900000000E+03    0.1355854830E-04    0.6742482000E+00    0.4922597171E-04    0.5170468119E-03    0.4651158096E-02
    0.2100000000E+03    0.1466930639E-04    0.6762147000E+00    0.5426156283E-04    0.5730520716E-03    0.4650582172E-02
    0.2300000000E+03    0.1580880344E-04    0.6778476602E+00    0.5939166187E-04    0.6299091370E-03    0.4649509654E-02
    0.2500000000E+03    0.1697629489E-04    0.6792252721E+00    0.6461770588E-04    0.6876750240E-03    0.4648022993E-02
    0.2700000000E+03    0.1817141791E-04    0.6804030602E+00    0.6994183272E-04    0.7464031959E-03    0.4646182150E-02
    0.2900000000E+03    0.1939408894E-04    0.6814215406E+00    0.7536666475E-04    0.8061447689E-03    0.4644031725E-02
    0.3100000000E+03    0.2064443502E-04    0.6823109705E+00    0.8089517911E-04    0.8669493842E-03    0.4641605491E-02
    0.3300000000E+03    0.2192274695E-04    0.6830944020E+00    0.8653062865E-04    0.9288658605E-03    0.4638929377E-02
    0.3500000000E+03    0.2322944676E-04    0.6837897061E+00    0.9227649376E-04    0.9919426975E-03    0.4636023492E-02
    0.3700000000E+03    0.2456506488E-04    0.6844109509E+00    0.9813645347E-04    0.1056228477E-02    0.4632903535E-02
    0.3900000000E+03    0.2593022400E-04    0.6849693617E+00    0.1041143688E-03    0.1121772191E-02    0.4629581798E-02
    0.4100000000E+03    0.2732562756E-04    0.6854740049E+00    0.1102142744E-03    0.1188623517E-02    0.4626067893E-02
    0.4300000000E+03    0.2875205168E-04    0.6859322830E+00    0.1164403757E-03    0.1256833062E-02    0.4622369287E-02
    0.4500000000E+03    0.3021033954E-04    0.6863502994E+00    0.1227970495E-03    0.1326452569E-02    0.4618491711E-02
    0.4700000000E+03    0.3170139758E-04    0.6867331316E+00    0.1292888481E-03    0.1397535116E-02    0.4614439458E-02
    0.4900000000E+03    0.3322619310E-04    0.6870850378E+00    0.1359205047E-03    0.1470135296E-02    0.4610215622E-02
    0.1000000000E+03    0.8973914111E-05    0.6562074414E+00    0.2778349660E-04    0.2736532235E-03    0.4642655660E-02
    0.3000000000E+03    0.2001578782E-04    0.6818808048E+00    0.7811776412E-04    0.8364111323E-03    0.4642851307E-02
    0.5000000000E+03    0.3400156099E-04    0.6872505403E+00    0.1392903102E-03    0.1507022015E-02    0.4608040045E-02
    0.7000000000E+03    0.5156795066E-04    0.6895743714E+00    0.2153636469E-03    0.2339495756E-02    0.4555593824E-02
    0.9000000000E+03    0.7413912033E-04    0.6908702223E+00    0.3127837253E-03    0.3405973177E-02    0.4484172017E-02
    0.1100000000E+04    0.1040288019E-03    0.6916961158E+00    0.4416604389E-03    0.4818161035E-02    0.4387616397E-02
    0.1300000000E+04    0.1450784299E-03    0.6922681476E+00    0.6186705170E-03    0.6760138620E-02    0.4254581063E-02
    0.1500000000E+04    0.2039334168E-03    0.6926875723E+00    0.8726487266E-03    0.9550542476E-02    0.4065288129E-02
    0.1700000000E+04    0.2924660199E-03    0.6930081362E+00    0.1255190257E-02    0.1376074590E-01    0.3785213375E-02
    0.1900000000E+04    0.4314939047E-03    0.6932610119E+00    0.1857080504E-02    0.2039990174E-01    0.3356882954E-02
    0.2100000000E+04    0.6502088661E-03    0.6934655208E+00    0.2806760243E-02    0.3090882181E-01    0.2710303498E-02
    0.2300000000E+04    0.9524593083E-03    0.6936342750E+00    0.4125723896E-02    0.4558051158E-01    0.1876826233E-02
    0.2500000000E+04    0.1249258946E-02    0.6937758562E+00    0.5433383379E-02    0.6027033020E-01    0.1161275627E-02
    0.2700000000E+04    0.1448606350E-02    0.6938963060E+00    0.6328745613E-02    0.7052421766E-01    0.8026743432E-03
    0.2900000000E+04    0.1571778202E-02    0.6940000005E+00    0.6898946653E-02    0.7724698395E-01    0.6814669350E-03
    0.3100000000E+04    0.1662454155E-02    0.6940901871E+00    0.7331343478E-02    0.8248607999E-01    0.6478958516E-03
    0.3300000000E+04    0.1740708487E-02    0.6941693260E+00    0.7712609545E-02    0.8719544339E-01    0.6401978753E-03
    0.3500000000E+04    0.1813168249E-02    0.6942393153E+00    0.8071393293E-02    0.9169100828E-01    0.6395957840E-03
    0.3700000000E+04    0.1881877692E-02    0.6943016423E+00    0.8416456384E-02    0.9606873676E-01    0.6408570115E-03
    0.3900000000E+04    0.1947507626E-02    0.6943574893E+00    0.8750576667E-02    0.1003581103E+00    0.6425578050E-03
    0.4100000000E+04    0.2010328852E-02    0.6944078076E+00    0.9074786807E-02    0.1045691768E+00    0.6443158502E-03
    0.4300000000E+04    0.2070494218E-02    0.6944533715E+00    0.9389608068E-02    0.1087063114E+00    0.6460320524E-03
    0.4500000000E+04    0.2128119525E-02    0.6944948174E+00    0.9695405579E-02    0.1127721956E+00    0.6476841133E-03
    0.4700000000E+04    0.2183306818E-02    0.6945326733E+00    0.9992490797E-02    0.1167689673E+00    0.6492702515E-03
    0.4900000000E+04    0.2236151206E-02    0.6945673808E+00    0.1028115141E-01    0.1206985569E+00    0.6507938387E-03
    0.1000000000E+04    0.8797572800E-04    0.6913243779E+00    0.3724494378E-03    0.4059576895E-02    0.4439598255E-02
    0.3000000000E+04    0.1619448325E-02    0.6940466131E+00    0.7124907781E-02    0.7996993165E-01    0.6591540425E-03
    0.5000000000E+04    0.2261723190E-02    0.6945836725E+00    0.1042240825E-01    0.1226387308E+00    0.6515335370E-03
    0.7000000000E+04    0.2670099837E-02    0.6948099088E+00    0.1286593584E-01    0.1583221027E+00    0.6639508722E-03
    0.9000000000E+04    0.2925728048E-02    0.6949333140E+00    0.1471784584E-01    0.1889854836E+00    0.6733520021E-03
    0.1100000000E+05    0.3075758167E-02    0.6950103595E+00    0.1612881475E-01    0.2156827764E+00    0.6809413432E-03
    0.1300000000E+05    0.3152089273E-02    0.6950626546E+00    0.1720533184E-01    0.2391852598E+00    0.6873175676E-03
    0.1500000000E+05    0.3176708361E-02    0.6951002298E+00    0.1802440980E-01    0.2600711067E+00    0.6928228084E-03
    0.1700000000E+05    0.3165006084E-02    0.6951283658E+00    0.1864285625E-01    0.2787828485E+00    0.6976714011E-03
    0.1900000000E+05    0.3127893404E-02    0.6951501025E+00    0.1910329862E-01    0.2956654169E+00    0.7020066981E-03
    0.2100000000E+05    0.3073185462E-02    0.6951673110E+00    0.1943820514E-01    0.3109920124E+00    0.7059294041E-03
    0.2300000000E+05    0.3006525424E-02    0.6951812043E+00    0.1967263225E-01    0.3249821162E+00    0.7095130247E-03
    0.2500000000E+05    0.2932012590E-02    0.6951926023E+00    0.1982614128E-01    0.3378143004E+00    0.7128128870E-03
    0.2700000000E+05    0.2852636395E-02    0.6952020786E+00    0.1991416051E-01    0.3496355106E+00    0.7158716989E-03
    0.2900000000E+05    0.2770580594E-02    0.6952100460E+00    0.1994896956E-01    0.3605679093E+00    0.7187231288E-03
    0.3100000000E+05    0.2687439192E-02    0.6952168086E+00    0.1994042127E-01    0.3707139980E+00    0.7213941986E-03
    0.3300000000E+05    0.2604371463E-02    0.6952225958E+00    0.1989647859E-01    0.3801605055E+00    0.7239069309E-03
    0.3500000000E+05    0.2522214372E-02    0.6952275831E+00    0.1982361865E-01    0.3889813779E+00    0.7262795157E-03
    0.3700000000E+05    0.2441564831E-02    0.6952319072E+00    0.1972714032E-01    0.3972401046E+00    0.7285271542E-03
    0.3900000000E+05    0.2362840372E-02    0.6952356763E+00    0.1961140087E-01    0.4049915469E+00    0.7306626820E-03
    0.4100000000E+05    0.2286324217E-02    0.6952389766E+00    0.1947999958E-01    0.4122833910E+00    0.7326970376E-03
    0.4300000000E+05    0.2212198956E-02    0.6952418781E+00    0.1933592160E-01    0.4191573122E+00    0.7346396202E-03
    0.4500000000E+05    0.2140571862E-02    0.6952444376E+00    0.1918165151E-01    0.4256499164E+00    0.7364985668E-03
    0.4700000000E+05    0.2071493989E-02    0.6952467024E+00    0.1901926362E-01    0.4317935068E+00    0.7382809693E-03
    0.4900000000E+05    0.2004974650E-02    0.6952487113E+00    0.1885049425E-01    0.4376167135E+00    0.7399930467E-03
    0.1000000000E+05    0.3011666883E-02    0.6949758735E+00    0.1547096287E-01    0.2027763089E+00    0.6773273472E-03
    0.3000000000E+05    0.2729064439E-02    0.6952135621E+00    0.1994957838E-01    0.3657334910E+00    0.7200797307E-03
    0.5000000000E+05    0.1972668692E-02    0.6952496303E+00    0.1876418128E-01    0.4404162455E+00    0.7408244530E-03
    0.7000000000E+05    0.1447162917E-02    0.6952602860E+00    0.1695233755E-01    0.4845072602E+00    0.7548070979E-03
    0.9000000000E+05    0.1097116105E-02    0.6952635207E+00    0.1525865147E-01    0.5139165596E+00    0.7654203600E-03
    0.1100000000E+06    0.8574610292E-03    0.6952638547E+00    0.1379723629E-01    0.5350315519E+00    0.7740008155E-03
    0.1300000000E+06    0.6875942460E-03    0.6952628813E+00    0.1255692718E-01    0.5509670266E+00    0.7812165690E-03
    0.1500000000E+06    0.5632824129E-03    0.6952612771E+00    0.1150340781E-01    0.5634382454E+00    0.7874507784E-03
    0.1700000000E+06    0.4697504161E-03    0.6952593645E+00    0.1060284042E-01    0.5734727852E+00    0.7929440563E-03
    0.1900000000E+06    0.3976853236E-03    0.6952573097E+00    0.9826832658E-02    0.5817258029E+00    0.7978576107E-03
    0.2100000000E+06    0.3410172538E-03    0.6952552025E+00    0.9152643935E-02    0.5886356143E+00    0.8023048390E-03
    0.2300000000E+06    0.2956663773E-03    0.6952530932E+00    0.8562290266E-02    0.5945069624E+00    0.8063685977E-03
    0.2500000000E+06    0.2588139190E-03    0.6952510103E+00    0.8041548017E-02    0.5995585044E+00    0.8101113041E-03
    0.2700000000E+06    0.2284642099E-03    0.6952489697E+00    0.7579106441E-02    0.6039513138E+00    0.8135811719E-03
    0.2900000000E+06    0.2031733840E-03    0.6952469802E+00    0.7165902051E-02    0.6078067266E+00    0.8168162321E-03
    0.3100000000E+06    0.1818764789E-03    0.6952450458E+00    0.6794610438E-02    0.6112179192E+00    0.8198470224E-03
    0.3300000000E+06    0.1637743699E-03    0.6952431682E+00    0.6459261573E-02    0.6142576504E+00    0.8226984415E-03
    0.3500000000E+06    0.1482580854E-03    0.6952413472E+00    0.6154948451E-02    0.6169835767E+00    0.8253910620E-03
    0.3700000000E+06    0.1348570622E-03    0.6952395817E+00    0.5877605394E-02    0.6194419856E+00    0.8279420819E-03
    0.3900000000E+06    0.1232030843E-03    0.6952378700E+00    0.5623838196E-02    0.6216704716E+00    0.8303660266E-03
    0.4100000000E+06    0.1130047083E-03    0.6952362102E+00    0.5390792983E-02    0.6236998889E+00    0.8326752781E-03
    0.4300000000E+06    0.1040288382E-03    0.6952346000E+00    0.5176054119E-02    0.6255557995E+00    0.8348804780E-03
    0.4500000000E+06    0.9608725405E-04    0.6952330372E+00    0.4977564103E-02    0.6272595629E+00    0.8369908409E-03
    0.4700000000E+06    0.8902663275E-04    0.6952315197E+00    0.4793560188E-02    0.6288291668E+00    0.8390143990E-03
    0.4900000000E+06    0.8272106270E-04    0.6952300452E+00    0.4622523866E-02    0.6302798678E+00    0.8409581974E-03
    0.1000000000E+06    0.9665160352E-03    0.6952639178E+00    0.1449852752E-01    0.5252703412E+00    0.7699136391E-03
    0.3000000000E+06    0.1920808377E-03    0.6952460060E+00    0.6975418212E-02    0.6095628961E+00    0.8183554902E-03
    0.5000000000E+06    0.7981814386E-04    0.6952293235E+00    0.4541450654E-02    0.6309647761E+00    0.8419021575E-03
    0.7000000000E+06    0.4361453226E-04    0.6952167007E+00    0.3358881585E-02    0.6407658594E+00    0.8577800045E-03
    0.9000000000E+06    0.2750429717E-04    0.6952066289E+00    0.2662052853E-02    0.6463881854E+00    0.8698340134E-03
    0.1100000000E+07    0.1894613571E-04    0.6951982551E+00    0.2203242347E-02    0.6500344173E+00    0.8795802678E-03
    0.1300000000E+07    0.1385672973E-04    0.6951910858E+00    0.1878511242E-02    0.6525904476E+00    0.8877769345E-03
    0.1500000000E+07    0.1058328622E-04    0.6951848140E+00    0.1636686669E-02    0.6544814962E+00    0.8948589383E-03
    0.1700000000E+07    0.8352728947E-05    0.6951792368E+00    0.1449671836E-02    0.6559371083E+00    0.9010994485E-03
    0.1900000000E+07    0.6763939487E-05    0.6951742129E+00    0.1300764798E-02    0.6570920952E+00    0.9066815094E-03
    0.2100000000E+07    0.5591840428E-05    0.6951696404E+00    0.1179417266E-02    0.6580308323E+00    0.9117338911E-03
    0.2300000000E+07    0.4702145664E-05    0.6951654432E+00    0.1078641309E-02    0.6588088266E+00    0.9163506890E-03
    0.2500000000E+07    0.4010679000E-05    0.6951615632E+00    0.9936250050E-03    0.6594640895E+00    0.9206027917E-03
    0.2700000000E+07    0.3462484098E-05    0.6951579547E+00    0.9209471315E-03    0.6600235256E+00    0.9245449585E-03
    0.2900000000E+07    0.3020436654E-05    0.6951545814E+00    0.8581089153E-03    0.6605067128E+00    0.9282203858E-03
    0.3100000000E+07    0.2658720051E-05    0.6951514137E+00    0.8032429604E-03    0.6609282373E+00    0.9316637598E-03
    0.3300000000E+07    0.2358926849E-05    0.6951484274E+00    0.7549258025E-03    0.6612991886E+00    0.9349033626E-03
    0.3500000000E+07    0.2107643768E-05    0.6951456024E+00    0.7120534721E-03    0.6616281483E+00    0.9379625630E-03
    0.3700000000E+07    0.1894908120E-05    0.6951429218E+00    0.6737566748E-03    0.6619218608E+00    0.9408608966E-03
    0.3900000000E+07    0.1713193832E-05    0.6951403710E+00    0.6393416202E-03    0.6621856998E+00    0.9436148639E-03
    0.4100000000E+07    0.1556729041E-05    0.6951379379E+00    0.6082478861E-03    0.6624240001E+00    0.9462385303E-03
    0.4300000000E+07    0.1421026840E-05    0.6951356117E+00    0.5800178616E-03    0.6626402964E+00    0.9487439847E-03
    0.4500000000E+07    0.1302556300E-05    0.6951333833E+00    0.5542742199E-03    0.6628375003E+00    0.9511416949E-03
    0.4700000000E+07    0.1198507802E-05    0.6951312444E+00    0.5307030625E-03    0.6630180314E+00    0.9534407858E-03
    0.4900000000E+07    0.1106622973E-05    0.6951291880E+00    0.5090411376E-03    0.6631839172E+00    0.9556492608E-03
    0.1000000000E+07    0.2262574674E-04    0.6952022664E+00    0.2411201793E-02    0.6483869486E+00    0.8749376841E-03
    0.3000000000E+07    0.2830827448E-05    0.6951529734E+00    0.8297770806E-03    0.6607244213E+00    0.9299691816E-03
    0.5000000000E+07    0.1064655457E-05    0.6951281888E+00    0.4988552576E-03    0.6632619137E+00    0.9567217560E-03
    0.7000000000E+07    0.5599155218E-06    0.6951113283E+00    0.3559763894E-03    0.6643558047E+00    0.9747617260E-03
    0.9000000000E+07    0.3474423709E-06    0.6950984732E+00    0.2764412610E-03    0.6649649706E+00    0.9884572353E-03
    0.1100000000E+08    0.2380445746E-06    0.6950880520E+00    0.2258117155E-03    0.6653530865E+00    0.9995307422E-03
    0.1300000000E+08    0.1742356735E-06    0.6950792720E+00    0.1907722545E-03    0.6656219625E+00    0.1008843639E-02
    0.1500000000E+08    0.1337081323E-06    0.6950716759E+00    0.1650926771E-03    0.6658192171E+00    0.1016890071E-02
    0.1700000000E+08    0.1063209464E-06    0.6950649754E+00    0.1454701344E-03    0.6659700959E+00    0.1023980409E-02
    0.1900000000E+08    0.8691894354E-07    0.6950589768E+00    0.1299911357E-03    0.6660892293E+00    0.1030322624E-02
    0.2100000000E+08    0.7265338105E-07    0.6950535436E+00    0.1174707964E-03    0.6661856800E+00    0.1036063021E-02
    0.2300000000E+08    0.6184454527E-07    0.6950485758E+00    0.1071363325E-03    0.6662653616E+00    0.1041308513E-02
    0.2500000000E+08    0.5344921676E-07    0.6950439980E+00    0.9846231197E-04    0.6663322969E+00    0.1046139640E-02
    0.2700000000E+08    0.4679130486E-07    0.6950397519E+00    0.9107906773E-04    0.6663893173E+00    0.1050618622E-02
