  Pressure (Pa) 23mC5-500 (mol/kg) 24mC5-500 (mol/kg) 2mC6-500 (mol/kg) 3mC6-500 (mol/kg) C7-500 (mol/kg)
    0.1000000000E+01    0.1535391400E-05    0.3665898516E-01    0.3173715076E-04    0.4193496505E-05    0.4185347884E-02
    0.3000000000E+01    0.4047580679E-05    0.9947883898E-01    0.8185220825E-04    0.1066484443E-04    0.4238504428E-02
    0.5000000000E+01    0.6030610280E-05    0.1513513967E+00    0.1200703036E-03    0.1661106360E-04    0.4278678923E-02
    0.7000000000E+01    0.7627014441E-05    0.1949096881E+00    0.1498759404E-03    0.2230890635E-04    0.4311993291E-02
    0.9000000000E+01    0.8932428481E-05    0.2320049465E+00    0.1735372656E-03    0.2785128052E-04    0.4340260743E-02
    0.1100000000E+02    0.1001421868E-04    0.2639767292E+00    0.1926180996E-03    0.3328453700E-04    0.4364589999E-02
    0.1300000000E+02    0.1092121541E-04    0.2918182799E+00    0.2082293953E-03    0.3863620252E-04    0.4385761463E-02
    0.1500000000E+02    0.1168961286E-04    0.3162816546E+00    0.2211781697E-03    0.4392438418E-04    0.4404353962E-02
    0.1700000000E+02    0.1234674555E-04    0.3379467446E+00    0.2320614516E-03    0.4916183140E-04    0.4420809653E-02
    0.1900000000E+02    0.1291359233E-04    0.3572678790E+00    0.2413278255E-03    0.5435797019E-04    0.4435473407E-02
    0.2100000000E+02    0.1340648278E-04    0.3746060663E+00    0.2493188992E-03    0.5952003100E-04    0.4448618699E-02
    0.2300000000E+02    0.1383828712E-04    0.3902517866E+00    0.2562978969E-03    0.6465372255E-04    0.4460465413E-02
    0.2500000000E+02    0.1421926249E-04    0.4044414147E+00    0.2624697650E-03    0.6976365814E-04    0.4471192482E-02
    0.2700000000E+02    0.1455766560E-04    0.4173692575E+00    0.2679955563E-03    0.7485363803E-04    0.4480947073E-02
    0.2900000000E+02    0.1486020299E-04    0.4291965154E+00    0.2730028781E-03    0.7992684356E-04    0.4489851374E-02
    0.3100000000E+02    0.1513236688E-04    0.4400580457E+00    0.2775935854E-03    0.8498597478E-04    0.4498007714E-02
    0.3300000000E+02    0.1537868866E-04    0.4500675332E+00    0.2818495171E-03    0.9003335057E-04    0.4505502455E-02
    0.3500000000E+02    0.1560293258E-04    0.4593214889E+00    0.2858368188E-03    0.9507098324E-04    0.4512409006E-02
    0.3700000000E+02    0.1580824524E-04    0.4679023751E+00    0.2896092368E-03    0.1001006351E-03    0.4518790175E-02
    0.3900000000E+02    0.1599727212E-04    0.4758810726E+00    0.2932106489E-03    0.1051238620E-03    0.4524700025E-02
    0.4100000000E+02    0.1617224927E-04    0.4833188448E+00    0.2966770275E-03    0.1101420480E-03    0.4530185346E-02
    0.4300000000E+02    0.1633507597E-04    0.4902689159E+00    0.3000379739E-03    0.1151564317E-03    0.4535286852E-02
    0.4500000000E+02    0.1648737288E-04    0.4967777476E+00    0.3033179259E-03    0.1201681291E-03    0.4540040133E-02
    0.4700000000E+02    0.1663052871E-04    0.5028860804E+00    0.3065371152E-03    0.1251781504E-03    0.4544476446E-02
    0.4900000000E+02    0.1676573821E-04    0.5086297879E+00    0.3097123314E-03    0.1301874154E-03    0.4548623351E-02
    0.1000000000E+02    0.9497872573E-05    0.2485625302E+00    0.1835722854E-03    0.3057953688E-04    0.4352863117E-02
    0.3000000000E+02    0.1499977841E-04    0.4347404467E+00    0.2753447810E-03    0.8245801558E-04    0.4494017306E-02
    0.5000000000E+02    0.1683069111E-04    0.5113749631E+00    0.3112879085E-03    0.1326920298E-03    0.4550596013E-02
    0.7000000000E+02    0.1790026214E-04    0.5531791786E+00    0.3428422971E-03    0.1829166577E-03    0.4579519489E-02
    0.9000000000E+02    0.1879185219E-04    0.5795044924E+00    0.3770034154E-03    0.2337199128E-03    0.4595752373E-02
    0.1100000000E+03    0.1967124903E-04    0.5976059709E+00    0.4147124694E-03    0.2854271090E-03    0.4604991471E-02
    0.1300000000E+03    0.2059396492E-04    0.6108169831E+00    0.4558407949E-03    0.3382605735E-03    0.4609890043E-02
    0.1500000000E+03    0.2157992388E-04    0.6208837021E+00    0.5001123331E-03    0.3923939265E-03    0.4611853871E-02
    0.1700000000E+03    0.2263625119E-04    0.6288093504E+00    0.5472915872E-03    0.4479756257E-03    0.4611697429E-02
    0.1900000000E+03    0.2376529304E-04    0.6352113635E+00    0.5972124714E-03    0.5051408886E-03    0.4609924220E-02
    0.2100000000E+03    0.2496771149E-04    0.6404905772E+00    0.6497719650E-03    0.5640184582E-03    0.4606860828E-02
    0.2300000000E+03    0.2624374772E-04    0.6449185539E+00    0.7049181718E-03    0.6247348150E-03    0.4602726738E-02
    0.2500000000E+03    0.2759375024E-04    0.6486858116E+00    0.7626397325E-03    0.6874170250E-03    0.4597673221E-02
    0.2700000000E+03    0.2901839317E-04    0.6519299593E+00    0.8229577438E-03    0.7521948189E-03    0.4591806193E-02
    0.2900000000E+03    0.3051876041E-04    0.6547528720E+00    0.8859199294E-03    0.8192022239E-03    0.4585200261E-02
    0.3100000000E+03    0.3209637251E-04    0.6572315833E+00    0.9515965606E-03    0.8885789345E-03    0.4577907680E-02
    0.3300000000E+03    0.3375319055E-04    0.6594254224E+00    0.1020077682E-02    0.9604715339E-03    0.4569964232E-02
    0.3500000000E+03    0.3549161273E-04    0.6613808237E+00    0.1091471303E-02    0.1035034641E-02    0.4561393192E-02
    0.3700000000E+03    0.3731447096E-04    0.6631346498E+00    0.1165902305E-02    0.1112432029E-02    0.4552208048E-02
    0.3900000000E+03    0.3922503070E-04    0.6647165372E+00    0.1243511910E-02    0.1192837757E-02    0.4542414403E-02
    0.4100000000E+03    0.4122699535E-04    0.6661505841E+00    0.1324457561E-02    0.1276437340E-02    0.4532011309E-02
    0.4300000000E+03    0.4332451581E-04    0.6674565862E+00    0.1408913172E-02    0.1363428976E-02    0.4520992209E-02
    0.4500000000E+03    0.4552220536E-04    0.6686509563E+00    0.1497069658E-02    0.1454024858E-02    0.4509345602E-02
    0.4700000000E+03    0.4782515984E-04    0.6697474171E+00    0.1589135733E-02    0.1548452588E-02    0.4497055490E-02
    0.4900000000E+03    0.5023898332E-04    0.6707575306E+00    0.1685338946E-02    0.1646956704E-02    0.4484101678E-02
    0.1000000000E+03    0.1922831478E-04    0.5893219125E+00    0.3954145177E-03    0.2594450743E-03    0.4601038878E-02
    0.3000000000E+03    0.3129779858E-04    0.6560311950E+00    0.9184137497E-03    0.8535854296E-03    0.4581637233E-02
    0.5000000000E+03    0.5148936872E-04    0.6712333321E+00    0.1735068544E-02    0.1697818865E-02    0.4477368469E-02
    0.7000000000E+03    0.8421902718E-04    0.6779654913E+00    0.3022518284E-02    0.3008082638E-02    0.4299482139E-02
    0.9000000000E+03    0.1408608862E-03    0.6817631734E+00    0.5228598629E-02    0.5246758934E-02    0.3995362095E-02
    0.1100000000E+04    0.2485328675E-03    0.6842012321E+00    0.9412529305E-02    0.9497651947E-02    0.3438690153E-02
    0.1300000000E+04    0.4573927473E-03    0.6858986700E+00    0.1754892764E-01    0.1779873245E-01    0.2431876589E-02
    0.1500000000E+04    0.7381573355E-03    0.6871482748E+00    0.2858469006E-01    0.2916722921E-01    0.1264617365E-02
    0.1700000000E+04    0.9191784729E-03    0.6881064914E+00    0.3587404319E-01    0.3686004038E-01    0.7633400295E-03
    0.1900000000E+04    0.1019338029E-02    0.6888645067E+00    0.4007865427E-01    0.4147572872E-01    0.6680962234E-03
    0.2100000000E+04    0.1096877448E-02    0.6894790610E+00    0.4343929905E-01    0.4527367433E-01    0.6566430327E-03
    0.2300000000E+04    0.1166761668E-02    0.6899873087E+00    0.4653431185E-01    0.4884005484E-01    0.6579561099E-03
    0.2500000000E+04    0.1231830814E-02    0.6904145975E+00    0.4947149952E-01    0.5228233958E-01    0.6609376044E-03
    0.2700000000E+04    0.1292787064E-02    0.6907788123E+00    0.5227533614E-01    0.5562278648E-01    0.6639579025E-03
    0.2900000000E+04    0.1349965374E-02    0.6910929333E+00    0.5495611380E-01    0.5886925424E-01    0.6668006684E-03
    0.3100000000E+04    0.1403623716E-02    0.6913666092E+00    0.5752133483E-01    0.6202693306E-01    0.6694574149E-03
    0.3300000000E+04    0.1453991726E-02    0.6916071612E+00    0.5997761512E-01    0.6510030073E-01    0.6719469884E-03
    0.3500000000E+04    0.1501280088E-02    0.6918202451E+00    0.6233103606E-01    0.6809347109E-01    0.6742889037E-03
    0.3700000000E+04    0.1545683352E-02    0.6920102991E+00    0.6458723702E-01    0.7101027331E-01    0.6764999728E-03
    0.3900000000E+04    0.1587381543E-02    0.6921808545E+00    0.6675146121E-01    0.7385428400E-01    0.6785943667E-03
    0.4100000000E+04    0.1626541451E-02    0.6923347564E+00    0.6882859059E-01    0.7662884926E-01    0.6805840749E-03
    0.4300000000E+04    0.1663317772E-02    0.6924743224E+00    0.7082317620E-01    0.7933710348E-01    0.6824793203E-03
    0.4500000000E+04    0.1697854132E-02    0.6926014595E+00    0.7273946544E-01    0.8198198613E-01    0.6842888886E-03
    0.4700000000E+04    0.1730284015E-02    0.6927177509E+00    0.7458142668E-01    0.8456625690E-01    0.6860203865E-03
    0.4900000000E+04    0.1760731595E-02    0.6928245222E+00    0.7635277146E-01    0.8709250946E-01    0.6876804431E-03
    0.1000000000E+04    0.1856003475E-03    0.6831020674E+00    0.6967066074E-02    0.7011779000E-02    0.3760741868E-02
    0.3000000000E+04    0.1377219694E-02    0.6912343238E+00    0.5625274107E-01    0.6045890220E-01    0.6681512303E-03
    0.5000000000E+04    0.1775248470E-02    0.6928746943E+00    0.7721305733E-01    0.8833464714E-01    0.6884855259E-03
    0.7000000000E+04    0.1985709300E-02    0.6935759342E+00    0.9144738859E-01    0.1106537333E+00    0.7019356341E-03
    0.9000000000E+04    0.2090479162E-02    0.6939637534E+00    0.1014807219E+00    0.1292288144E+00    0.7120543109E-03
    0.1100000000E+05    0.2132923421E-02    0.6942092340E+00    0.1087359895E+00    0.1451328776E+00    0.7201927797E-03
    0.1300000000E+05    0.2137509982E-02    0.6943782019E+00    0.1140722613E+00    0.1590460003E+00    0.7270138571E-03
    0.1500000000E+05    0.2118723847E-02    0.6945013605E+00    0.1180367198E+00    0.1714227728E+00    0.7328931866E-03
    0.1700000000E+05    0.2085463105E-02    0.6945949492E+00    0.1209931350E+00    0.1825802849E+00    0.7380647396E-03
    0.1900000000E+05    0.2043351843E-02    0.6946683581E+00    0.1231919521E+00    0.1927475709E+00    0.7426843376E-03
    0.2100000000E+05    0.1996022567E-02    0.6947273921E+00    0.1248106869E+00    0.2020949487E+00    0.7468610883E-03
    0.2300000000E+05    0.1945858641E-02    0.6947758311E+00    0.1259782918E+00    0.2107522334E+00    0.7506744265E-03
    0.2500000000E+05    0.1894439906E-02    0.6948162412E+00    0.1267904284E+00    0.2188204819E+00    0.7541840172E-03
    0.2700000000E+05    0.1842818421E-02    0.6948504252E+00    0.1273193595E+00    0.2263798180E+00    0.7574358374E-03
    0.2900000000E+05    0.1791693594E-02    0.6948796860E+00    0.1276205412E+00    0.2334947934E+00    0.7604660805E-03
    0.3100000000E+05    0.1741525908E-02    0.6949049889E+00    0.1277371246E+00    0.2402181540E+00    0.7633037590E-03
    0.3300000000E+05    0.1692612213E-02    0.6949270634E+00    0.1277030992E+00    0.2465935417E+00    0.7659724929E-03
    0.3500000000E+05    0.1645136396E-02    0.6949464715E+00    0.1275455302E+00    0.2526574730E+00    0.7684917735E-03
    0.3700000000E+05    0.1599203977E-02    0.6949636527E+00    0.1272861783E+00    0.2584408104E+00    0.7708778762E-03
    0.3900000000E+05    0.1554866009E-02    0.6949789556E+00    0.1269426919E+00    0.2639698755E+00    0.7731445340E-03
    0.4100000000E+05    0.1512135770E-02    0.6949926604E+00    0.1265294957E+00    0.2692673032E+00    0.7753034426E-03
    0.4300000000E+05    0.1471000503E-02    0.6950049945E+00    0.1260584622E+00    0.2743527036E+00    0.7773646461E-03
    0.4500000000E+05    0.1431429745E-02    0.6950161448E+00    0.1255394253E+00    0.2792431835E+00    0.7793368354E-03
    0.4700000000E+05    0.1393381256E-02    0.6950262656E+00    0.1249805770E+00    0.2839537595E+00    0.7812275816E-03
    0.4900000000E+05    0.1356805251E-02    0.6950354863E+00    0.1243887761E+00    0.2884976898E+00    0.7830435211E-03
    0.1000000000E+05    0.2117655414E-02    0.6940989373E+00    0.1053925025E+00    0.1374655089E+00    0.7163202225E-03
    0.3000000000E+05    0.1766468409E-02    0.6948927820E+00    0.1276995984E+00    0.2369025106E+00    0.7619074046E-03
    0.5000000000E+05    0.1339052573E-02    0.6950397936E+00    0.1240823585E+00    0.2907108923E+00    0.7839252938E-03
    0.7000000000E+05    0.1047696258E-02    0.6950977822E+00    0.1172269447E+00    0.3284987227E+00    0.7987490940E-03
    0.9000000000E+05    0.8452942474E-03    0.6951271809E+00    0.1102115383E+00    0.3576864617E+00    0.8099949148E-03
    0.1100000000E+06    0.6988655475E-03    0.6951440762E+00    0.1036822259E+00    0.3813787621E+00    0.8190840463E-03
    0.1300000000E+06    0.5890931490E-03    0.6951545050E+00    0.9775756113E-01    0.4012127744E+00    0.8267260956E-03
    0.1500000000E+06    0.5043726037E-03    0.6951612149E+00    0.9241625211E-01    0.4181743340E+00    0.8333277255E-03
    0.1700000000E+06    0.4374157899E-03    0.6951656231E+00    0.8760055619E-01    0.4329101210E+00    0.8391441828E-03
    0.1900000000E+06    0.3834491932E-03    0.6951685287E+00    0.8324764298E-01    0.4458703289E+00    0.8443464190E-03
    0.2100000000E+06    0.3392304197E-03    0.6951704127E+00    0.7929928036E-01    0.4573823250E+00    0.8490546525E-03
    0.2300000000E+06    0.3024876479E-03    0.6951715801E+00    0.7570434179E-01    0.4676922141E+00    0.8533567055E-03
    0.2500000000E+06    0.2715863228E-03    0.6951722325E+00    0.7241886359E-01    0.4769899284E+00    0.8573187244E-03
    0.2700000000E+06    0.2453232613E-03    0.6951725071E+00    0.6940531752E-01    0.4854251945E+00    0.8609917965E-03
    0.2900000000E+06    0.2227951094E-03    0.6951725006E+00    0.6663170599E-01    0.4931181361E+00    0.8644162148E-03
    0.3100000000E+06    0.2033117832E-03    0.6951722821E+00    0.6407069656E-01    0.5001665640E+00    0.8676243301E-03
    0.3300000000E+06    0.1863380101E-03    0.6951719023E+00    0.6169886382E-01    0.5066511353E+00    0.8706425171E-03
    0.3500000000E+06    0.1714529306E-03    0.6951713991E+00    0.5949604955E-01    0.5126390956E+00    0.8734925665E-03
    0.3700000000E+06    0.1583216065E-03    0.6951708010E+00    0.5744483152E-01    0.5181870511E+00    0.8761926933E-03
    0.3900000000E+06    0.1466745554E-03    0.6951701297E+00    0.5553008573E-01    0.5233430590E+00    0.8787582811E-03
    0.4100000000E+06    0.1362928079E-03    0.6951694023E+00    0.5373862594E-01    0.5281482303E+00    0.8812024426E-03
    0.4300000000E+06    0.1269968355E-03    0.6951686318E+00    0.5205890687E-01    0.5326379748E+00    0.8835364472E-03
    0.4500000000E+06    0.1186382347E-03    0.6951678287E+00    0.5048077887E-01    0.5368429810E+00    0.8857700525E-03
    0.4700000000E+06    0.1110934049E-03    0.6951670012E+00    0.4899528455E-01    0.5407899959E+00    0.8879117638E-03
    0.4900000000E+06    0.1042586877E-03    0.6951661558E+00    0.4759448952E-01    0.5445024521E+00    0.8899690409E-03
    0.1000000000E+06    0.7665269921E-03    0.6951366978E+00    0.1068732579E+00    0.3700962940E+00    0.8147548325E-03
    0.3000000000E+06    0.2127093826E-03    0.6951724143E+00    0.6532617361E-01    0.4967175206E+00    0.8660455404E-03
    0.5000000000E+06    0.1010797343E-03    0.6951657281E+00    0.4692361914E-01    0.5462772639E+00    0.8909681032E-03
    0.7000000000E+06    0.5936341483E-04    0.6951570774E+00    0.3659613206E-01    0.5733678571E+00    0.9077723005E-03
    0.9000000000E+06    0.3916963894E-04    0.6951490362E+00    0.2998296275E-01    0.5905203784E+00    0.9205290733E-03
    0.1100000000E+07    0.2783802344E-04    0.6951418407E+00    0.2538569390E-01    0.6023706880E+00    0.9308433182E-03
    0.1300000000E+07    0.2083387771E-04    0.6951354072E+00    0.2200486424E-01    0.6110518295E+00    0.9395175444E-03
    0.1500000000E+07    0.1619743711E-04    0.6951296159E+00    0.1941445666E-01    0.6176860405E+00    0.9470120892E-03
    0.1700000000E+07    0.1296691084E-04    0.6951243601E+00    0.1736657950E-01    0.6229210459E+00    0.9536160726E-03
    0.1900000000E+07    0.1062451295E-04    0.6951195536E+00    0.1570716471E-01    0.6271571677E+00    0.9595232220E-03
    0.2100000000E+07    0.8871074014E-05    0.6951151273E+00    0.1433541439E-01    0.6306552490E+00    0.9648698201E-03
    0.2300000000E+07    0.7523802225E-05    0.6951110262E+00    0.1318261075E-01    0.6335925686E+00    0.9697554508E-03
    0.2500000000E+07    0.6465828061E-05    0.6951072058E+00    0.1220029626E-01    0.6360938366E+00    0.9742551361E-03
    0.2700000000E+07    0.5619566307E-05    0.6951036302E+00    0.1135332109E-01    0.6382493406E+00    0.9784268282E-03
    0.2900000000E+07    0.4931852040E-05    0.6951002696E+00    0.1061556957E-01    0.6401260571E+00    0.9823162415E-03
    0.3100000000E+07    0.4365253391E-05    0.6950970994E+00    0.9967233947E-02    0.6417747194E+00    0.9859600839E-03
    0.3300000000E+07    0.3892790541E-05    0.6950940989E+00    0.9393019017E-02    0.6432344597E+00    0.9893882857E-03
    0.3500000000E+07    0.3494614758E-05    0.6950912506E+00    0.8880926864E-02    0.6445359459E+00    0.9926255777E-03
    0.3700000000E+07    0.3155857496E-05    0.6950885395E+00    0.8421414151E-02    0.6457035524E+00    0.9956926336E-03
    0.3900000000E+07    0.2865200756E-05    0.6950859528E+00    0.8006795248E-02    0.6467568953E+00    0.9986069155E-03
    0.4100000000E+07    0.2613904762E-05    0.6950834794E+00    0.7630811404E-02    0.6477119390E+00    0.1001383308E-02
    0.4300000000E+07    0.2395132990E-05    0.6950811096E+00    0.7288314463E-02    0.6485818086E+00    0.1004034605E-02
    0.4500000000E+07    0.2203474903E-05    0.6950788348E+00    0.6975031121E-02    0.6493773933E+00    0.1006571883E-02
    0.4700000000E+07    0.2034602841E-05    0.6950766476E+00    0.6687384766E-02    0.6501078037E+00    0.1009004799E-02
    0.4900000000E+07    0.1885021589E-05    0.6950745413E+00    0.6422359137E-02    0.6507807197E+00    0.1011341823E-02
    0.1000000000E+07    0.3277177381E-04    0.6951453358E+00    0.2749467205E-01    0.5969412864E+00    0.9259301969E-03
    0.3000000000E+07    0.4635298392E-05    0.6950986621E+00    0.1028127003E-01    0.6409762199E+00    0.9841668506E-03
    0.5000000000E+07    0.1816553767E-05    0.6950735166E+00    0.6297513261E-02    0.6510976940E+00    0.1012476744E-02
    0.7000000000E+07    0.9843923042E-06    0.6950561272E+00    0.4530900959E-02    0.6555821518E+00    0.1031566694E-02
    0.9000000000E+07    0.6275442238E-06    0.6950427676E+00    0.3534852739E-02    0.6581103418E+00    0.1046059256E-02
    0.1100000000E+08    0.4412751932E-06    0.6950318893E+00    0.2895998788E-02    0.6597321082E+00    0.1057777183E-02
    0.1300000000E+08    0.3313620410E-06    0.6950226973E+00    0.2451651026E-02    0.6608603465E+00    0.1067632017E-02
    0.1500000000E+08    0.2608111292E-06    0.6950147281E+00    0.2124840704E-02    0.6616903441E+00    0.1076146672E-02
    0.1700000000E+08    0.2126554083E-06    0.6950076875E+00    0.1874450696E-02    0.6623264137E+00    0.1083649585E-02
    0.1900000000E+08    0.1782068942E-06    0.6950013767E+00    0.1676525797E-02    0.6628293283E+00    0.1090360833E-02
    0.2100000000E+08    0.1526344534E-06    0.6949956550E+00    0.1516168239E-02    0.6632368843E+00    0.1096435239E-02
    0.2300000000E+08    0.1330734385E-06    0.6949904191E+00    0.1383628437E-02    0.6635738185E+00    0.1101985936E-02
    0.2500000000E+08    0.1177354563E-06    0.6949855910E+00    0.1272259027E-02    0.6638569987E+00    0.1107098154E-02
    0.2700000000E+08    0.1054558099E-06    0.6949811101E+00    0.1177372495E-02    0.6640983205E+00    0.1111837733E-02
