  Pressure (Pa) 23mC5-500 (mol/kg) 24mC5-500 (mol/kg) 2mC6-500 (mol/kg) 3mC6-500 (mol/kg) C7-500 (mol/kg)
    0.1000000000E+01    0.1358230498E-05    0.9949692357E-01    0.1227238850E-04    0.4638841493E-05    0.4203991264E-02
    0.3000000000E+01    0.2997271114E-05    0.2320970246E+00    0.2602336613E-04    0.1192386336E-04    0.4264152010E-02
    0.5000000000E+01    0.3924172754E-05    0.3164429303E+00    0.3320124910E-04    0.1864263997E-04    0.4301189750E-02
    0.7000000000E+01    0.4502212056E-05    0.3748205871E+00    0.3745699380E-04    0.2508976914E-04    0.4326860279E-02
    0.9000000000E+01    0.4889977541E-05    0.4176230974E+00    0.4028348838E-04    0.3136491651E-04    0.4345768707E-02
    0.1100000000E+02    0.5166201999E-05    0.4503501929E+00    0.4237166351E-04    0.3751801885E-04    0.4360293893E-02
    0.1300000000E+02    0.5373598812E-05    0.4761848931E+00    0.4406867481E-04    0.4357882260E-04    0.4371805629E-02
    0.1500000000E+02    0.5536910958E-05    0.4970971601E+00    0.4555932702E-04    0.4956694038E-04    0.4381151957E-02
    0.1700000000E+02    0.5671212553E-05    0.5143715120E+00    0.4694608973E-04    0.5549620685E-04    0.4388887211E-02
    0.1900000000E+02    0.5786059886E-05    0.5288812922E+00    0.4828734807E-04    0.6137686526E-04    0.4395389604E-02
    0.2100000000E+02    0.5887708041E-05    0.5412410029E+00    0.4961687102E-04    0.6721678196E-04    0.4400926327E-02
    0.2300000000E+02    0.5980359149E-05    0.5518955854E+00    0.5095422854E-04    0.7302217323E-04    0.4405691686E-02
    0.2500000000E+02    0.6066896870E-05    0.5611751312E+00    0.5231059615E-04    0.7879806576E-04    0.4409830485E-02
    0.2700000000E+02    0.6149334802E-05    0.5693296926E+00    0.5369209838E-04    0.8454860214E-04    0.4413452925E-02
    0.2900000000E+02    0.6229098973E-05    0.5765521562E+00    0.5510178743E-04    0.9027725101E-04    0.4416644413E-02
    0.3100000000E+02    0.6307210672E-05    0.5829936960E+00    0.5654084030E-04    0.9598695630E-04    0.4419472204E-02
    0.3300000000E+02    0.6384407610E-05    0.5887744712E+00    0.5800929564E-04    0.1016802459E-03    0.4421990007E-02
    0.3500000000E+02    0.6461225852E-05    0.5939911915E+00    0.5950651349E-04    0.1073593127E-03    0.4424241259E-02
    0.3700000000E+02    0.6538056258E-05    0.5987225717E+00    0.6103146450E-04    0.1130260761E-03    0.4426261478E-02
    0.3900000000E+02    0.6615183972E-05    0.6030333311E+00    0.6258291285E-04    0.1186822295E-03    0.4428080009E-02
    0.4100000000E+02    0.6692816457E-05    0.6069771717E+00    0.6415953164E-04    0.1243292774E-03    0.4429721314E-02
    0.4300000000E+02    0.6771103643E-05    0.6105990267E+00    0.6575997522E-04    0.1299685656E-03    0.4431205959E-02
    0.4500000000E+02    0.6850152578E-05    0.6139367802E+00    0.6738292369E-04    0.1356013042E-03    0.4432551361E-02
    0.4700000000E+02    0.6930038189E-05    0.6170225977E+00    0.6902710937E-04    0.1412285878E-03    0.4433772380E-02
    0.4900000000E+02    0.7010811244E-05    0.6198839652E+00    0.7069133153E-04    0.1468514107E-03    0.4434881771E-02
    0.1000000000E+02    0.5038799296E-05    0.4350098128E+00    0.4139296486E-04    0.3445455123E-04    0.4353477501E-02
    0.3000000000E+02    0.6268309740E-05    0.5798624057E+00    0.5581762071E-04    0.9313430492E-04    0.4418100140E-02
    0.5000000000E+02    0.7051541322E-05    0.6212379959E+00    0.7153060127E-04    0.1496614360E-03    0.4435398108E-02
    0.7000000000E+02    0.7915112842E-05    0.6408350437E+00    0.8913535980E-04    0.2058125884E-03    0.4441886098E-02
    0.9000000000E+02    0.8862991313E-05    0.6522657865E+00    0.1078875052E-03    0.2622151032E-03    0.4443988390E-02
    0.1100000000E+03    0.9879279842E-05    0.6597543526E+00    0.1274516693E-03    0.3192036010E-03    0.4443792320E-02
    0.1300000000E+03    0.1095240487E-04    0.6650400155E+00    0.1476775517E-03    0.3769956395E-03    0.4442192325E-02
    0.1500000000E+03    0.1207507546E-04    0.6689700897E+00    0.1684974347E-03    0.4357515902E-03    0.4439639300E-02
    0.1700000000E+03    0.1324284571E-04    0.6720067361E+00    0.1898836811E-03    0.4956005830E-03    0.4436386178E-02
    0.1900000000E+03    0.1445309476E-04    0.6744234727E+00    0.2118297924E-03    0.5566535529E-03    0.4432585811E-02
    0.2100000000E+03    0.1570439704E-04    0.6763925113E+00    0.2343413044E-03    0.6190105277E-03    0.4428335619E-02
    0.2300000000E+03    0.1699613769E-04    0.6780276844E+00    0.2574311268E-03    0.6827650386E-03    0.4423700084E-02
    0.2500000000E+03    0.1832827377E-04    0.6794072503E+00    0.2811170398E-03    0.7480069723E-03    0.4418722975E-02
    0.2700000000E+03    0.1970118283E-04    0.6805867827E+00    0.3054203008E-03    0.8148245247E-03    0.4413434413E-02
    0.2900000000E+03    0.2111556490E-04    0.6816068346E+00    0.3303648552E-03    0.8833056106E-03    0.4407855156E-02
    0.3100000000E+03    0.2257237817E-04    0.6824976915E+00    0.3559768894E-03    0.9535389333E-03    0.4401999309E-02
    0.3300000000E+03    0.2407279633E-04    0.6832824280E+00    0.3822845876E-03    0.1025614835E-02    0.4395876087E-02
    0.3500000000E+03    0.2561818044E-04    0.6839789326E+00    0.4093180139E-03    0.1099626005E-02    0.4389491009E-02
    0.3700000000E+03    0.2721006063E-04    0.6846012876E+00    0.4371090742E-03    0.1175668095E-02    0.4382846711E-02
    0.3900000000E+03    0.2885012476E-04    0.6851607303E+00    0.4656915332E-03    0.1253840272E-02    0.4375943516E-02
    0.4100000000E+03    0.3054021207E-04    0.6856663365E+00    0.4951010688E-03    0.1334245743E-02    0.4368779842E-02
    0.4300000000E+03    0.3228231055E-04    0.6861255167E+00    0.5253753548E-03    0.1416992249E-02    0.4361352492E-02
    0.4500000000E+03    0.3407855729E-04    0.6865443811E+00    0.5565541673E-03    0.1502192563E-02    0.4353656860E-02
    0.4700000000E+03    0.3593124098E-04    0.6869280130E+00    0.5886795091E-03    0.1589964985E-02    0.4345687082E-02
    0.4900000000E+03    0.3784280646E-04    0.6872806755E+00    0.6217957518E-03    0.1680433850E-02    0.4337436140E-02
    0.1000000000E+03    0.9363426137E-05    0.6563633704E+00    0.1175801818E-03    0.2906207175E-03    0.4444106628E-02
    0.3000000000E+03    0.2183859894E-04    0.6820668289E+00    0.3430857208E-03    0.9181976432E-03    0.4404961132E-02
    0.5000000000E+03    0.3882147806E-04    0.6874465411E+00    0.6387400136E-03    0.1726720085E-02    0.4333202742E-02
    0.7000000000E+03    0.6223747799E-04    0.6897761283E+00    0.1042971182E-02    0.2830979613E-02    0.4231175410E-02
    0.9000000000E+03    0.9607667068E-04    0.6910759825E+00    0.1625812703E-02    0.4424642682E-02    0.4084211636E-02
    0.1100000000E+04    0.1480617657E-03    0.6919049348E+00    0.2521185416E-02    0.6876729398E-02    0.3862217100E-02
    0.1300000000E+04    0.2338775528E-03    0.6924794392E+00    0.4001091561E-02    0.1093816147E-01    0.3505648278E-02
    0.1500000000E+04    0.3844597223E-03    0.6929009384E+00    0.6604261541E-02    0.1810330729E-01    0.2905260619E-02
    0.1700000000E+04    0.6365853666E-03    0.6932232895E+00    0.1098221050E-01    0.3021117883E-01    0.1966188711E-02
    0.1900000000E+04    0.9318250021E-03    0.6934777355E+00    0.1615578320E-01    0.4465535717E-01    0.1005428728E-02
    0.2100000000E+04    0.1128841076E-02    0.6936836450E+00    0.1968099817E-01    0.5470647790E-01    0.5444778243E-03
    0.2300000000E+04    0.1242000869E-02    0.6938536637E+00    0.2177940090E-01    0.6089854663E-01    0.4230241876E-03
    0.2500000000E+04    0.1325848987E-02    0.6939963977E+00    0.2338487651E-01    0.6577743041E-01    0.3984598354E-03
    0.2700000000E+04    0.1399856861E-02    0.6941179071E+00    0.2483296062E-01    0.7026436669E-01    0.3947793459E-03
    0.2900000000E+04    0.1468831324E-02    0.6942225821E+00    0.2620618570E-01    0.7458541590E-01    0.3952773369E-03
    0.3100000000E+04    0.1533976859E-02    0.6943136812E+00    0.2752457939E-01    0.7879383506E-01    0.3965478338E-03
    0.3300000000E+04    0.1595696196E-02    0.6943936738E+00    0.2879423085E-01    0.8290423431E-01    0.3979079444E-03
    0.3500000000E+04    0.1654210395E-02    0.6944644650E+00    0.3001810455E-01    0.8692262615E-01    0.3992255812E-03
    0.3700000000E+04    0.1709693263E-02    0.6945275484E+00    0.3119839416E-01    0.9085299703E-01    0.4004799561E-03
    0.3900000000E+04    0.1762300905E-02    0.6945841111E+00    0.3233703934E-01    0.9469875063E-01    0.4016722759E-03
    0.4100000000E+04    0.1812178637E-02    0.6946351088E+00    0.3343584420E-01    0.9846303333E-01    0.4028075345E-03
    0.4300000000E+04    0.1859462970E-02    0.6946813193E+00    0.3449650853E-01    0.1021488143E+00    0.4038908643E-03
    0.4500000000E+04    0.1904282483E-02    0.6947233821E+00    0.3552063969E-01    0.1057589107E+00    0.4049268834E-03
    0.4700000000E+04    0.1946758410E-02    0.6947618278E+00    0.3650975962E-01    0.1092960008E+00    0.4059196492E-03
    0.4900000000E+04    0.1987005143E-02    0.6947971004E+00    0.3746531065E-01    0.1127626326E+00    0.4068727220E-03
    0.1000000000E+04    0.1190813010E-03    0.6915317574E+00    0.2021963559E-02    0.5509005993E-02    0.3985379714E-02
    0.3000000000E+04    0.1501850144E-02    0.6942696589E+00    0.2687172782E-01    0.7670243665E-01    0.3958820887E-03
    0.5000000000E+04    0.2006326551E-02    0.6948136661E+00    0.3793092802E-01    0.1144702893E+00    0.4073353683E-03
    0.7000000000E+04    0.2298962495E-02    0.6950444683E+00    0.4577821326E-01    0.1454565022E+00    0.4151011850E-03
    0.9000000000E+04    0.2460539947E-02    0.6951712970E+00    0.5145998507E-01    0.1715548119E+00    0.4209806779E-03
    0.1100000000E+05    0.2538806099E-02    0.6952510901E+00    0.5562671333E-01    0.1939915982E+00    0.4257271079E-03
    0.1300000000E+05    0.2563161427E-02    0.6953056848E+00    0.5870197398E-01    0.2135995244E+00    0.4297148704E-03
    0.1500000000E+05    0.2552296745E-02    0.6953452399E+00    0.6097203052E-01    0.2309656350E+00    0.4331579283E-03
    0.1700000000E+05    0.2518399945E-02    0.6953751160E+00    0.6263638868E-01    0.2465170018E+00    0.4361903231E-03
    0.1900000000E+05    0.2469579888E-02    0.6953984061E+00    0.6383772863E-01    0.2605726755E+00    0.4389017052E-03
    0.2100000000E+05    0.2411316556E-02    0.6954170184E+00    0.6468035641E-01    0.2733764903E+00    0.4413550537E-03
    0.2300000000E+05    0.2347356679E-02    0.6954321928E+00    0.6524197639E-01    0.2851185016E+00    0.4435963385E-03
    0.2500000000E+05    0.2280282134E-02    0.6954447694E+00    0.6558142859E-01    0.2959494176E+00    0.4456601604E-03
    0.2700000000E+05    0.2211879217E-02    0.6954553374E+00    0.6574390725E-01    0.3059905698E+00    0.4475732285E-03
    0.2900000000E+05    0.2143383478E-02    0.6954643217E+00    0.6576456154E-01    0.3153409601E+00    0.4493565990E-03
    0.3100000000E+05    0.2075644939E-02    0.6954720365E+00    0.6567103058E-01    0.3240823447E+00    0.4510271710E-03
    0.3300000000E+05    0.2009241332E-02    0.6954787190E+00    0.6548526041E-01    0.3322829674E+00    0.4525987176E-03
    0.3500000000E+05    0.1944556749E-02    0.6954845512E+00    0.6522482754E-01    0.3400003484E+00    0.4540826147E-03
    0.3700000000E+05    0.1881836929E-02    0.6954896756E+00    0.6490391713E-01    0.3472833962E+00    0.4554883691E-03
    0.3900000000E+05    0.1821228511E-02    0.6954942046E+00    0.6453405546E-01    0.3541740300E+00    0.4568240080E-03
    0.4100000000E+05    0.1762807149E-02    0.6954982287E+00    0.6412466506E-01    0.3607084411E+00    0.4580963726E-03
    0.4300000000E+05    0.1706597801E-02    0.6955018211E+00    0.6368348999E-01    0.3669180843E+00    0.4593113412E-03
    0.4500000000E+05    0.1652589458E-02    0.6955050417E+00    0.6321692493E-01    0.3728304658E+00    0.4604740025E-03
    0.4700000000E+05    0.1600745886E-02    0.6955079401E+00    0.6273027220E-01    0.3784697743E+00    0.4615887919E-03
    0.4900000000E+05    0.1551013491E-02    0.6955105575E+00    0.6222794423E-01    0.3838573926E+00    0.4626595988E-03
    0.1000000000E+05    0.2507931435E-02    0.6952152973E+00    0.5370224300E-01    0.1831717665E+00    0.4234668842E-03
    0.3000000000E+05    0.2109378126E-02    0.6954683215E+00    0.6573058166E-01    0.3197832327E+00    0.4502050604E-03
    0.5000000000E+05    0.1526918944E-02    0.6955117720E+00    0.6197207779E-01    0.3864628368E+00    0.4631795967E-03
    0.7000000000E+05    0.1137787108E-02    0.6955273930E+00    0.5665894528E-01    0.4290239613E+00    0.4719250164E-03
    0.9000000000E+05    0.8780241800E-03    0.6955343927E+00    0.5167531957E-01    0.4593841786E+00    0.4785631393E-03
    0.1100000000E+06    0.6978790813E-03    0.6955377686E+00    0.4731041707E-01    0.4824300880E+00    0.4839298811E-03
    0.1300000000E+06    0.5681850026E-03    0.6955393524E+00    0.4354194167E-01    0.5006465397E+00    0.4884430887E-03
    0.1500000000E+06    0.4717713708E-03    0.6955399569E+00    0.4028694507E-01    0.5154674198E+00    0.4923423990E-03
    0.1700000000E+06    0.3981451433E-03    0.6955399901E+00    0.3746080032E-01    0.5277921956E+00    0.4957782982E-03
    0.1900000000E+06    0.3406345989E-03    0.6955396754E+00    0.3499061306E-01    0.5382196651E+00    0.4988516110E-03
    0.2100000000E+06    0.2948418097E-03    0.6955391429E+00    0.3281662340E-01    0.5471666862E+00    0.5016332603E-03
    0.2300000000E+06    0.2577743871E-03    0.6955384724E+00    0.3089055674E-01    0.5549337870E+00    0.5041750676E-03
    0.2500000000E+06    0.2273392908E-03    0.6955377145E+00    0.2917348148E-01    0.5617438299E+00    0.5065160712E-03
    0.2700000000E+06    0.2020368239E-03    0.6955369023E+00    0.2763388000E-01    0.5677659829E+00    0.5086864261E-03
    0.2900000000E+06    0.1807694677E-03    0.6955360579E+00    0.2624607756E-01    0.5731312053E+00    0.5107099186E-03
    0.3100000000E+06    0.1627188966E-03    0.6955351963E+00    0.2498900893E-01    0.5779425975E+00    0.5126056482E-03
    0.3300000000E+06    0.1472647568E-03    0.6955343279E+00    0.2384526221E-01    0.5822825214E+00    0.5143891879E-03
    0.3500000000E+06    0.1339297547E-03    0.6955334599E+00    0.2280033962E-01    0.5862176195E+00    0.5160734050E-03
    0.3700000000E+06    0.1223417454E-03    0.6955325972E+00    0.2184208434E-01    0.5898024294E+00    0.5176690556E-03
    0.3900000000E+06    0.1122070589E-03    0.6955317434E+00    0.2096023390E-01    0.5930820364E+00    0.5191852251E-03
    0.4100000000E+06    0.1032914101E-03    0.6955309007E+00    0.2014606982E-01    0.5960940522E+00    0.5206296575E-03
    0.4300000000E+06    0.9540602163E-04    0.6955300709E+00    0.1939214104E-01    0.5988701127E+00    0.5220090088E-03
    0.4500000000E+06    0.8839739348E-04    0.6955292549E+00    0.1869204377E-01    0.6014370271E+00    0.5233290424E-03
    0.4700000000E+06    0.8213966241E-04    0.6955284534E+00    0.1804024525E-01    0.6038176699E+00    0.5245947820E-03
    0.4900000000E+06    0.7652882731E-04    0.6955276668E+00    0.1743194161E-01    0.6060316813E+00    0.5258106341E-03
    0.1000000000E+06    0.7801894457E-03    0.6955363829E+00    0.4941417613E-01    0.4716320968E+00    0.4813735054E-03
    0.3000000000E+06    0.1713847516E-03    0.6955356285E+00    0.2560236581E-01    0.5756005635E+00    0.5116727087E-03
    0.5000000000E+06    0.7393836561E-04    0.6955272790E+00    0.1714276957E-01    0.6070815923E+00    0.5264010849E-03
    0.7000000000E+06    0.4118059856E-04    0.6955202739E+00    0.1286229696E-01    0.6224425371E+00    0.5363328223E-03
    0.9000000000E+06    0.2627055411E-04    0.6955144664E+00    0.1028295172E-01    0.6315515887E+00    0.5438728152E-03
    0.1100000000E+07    0.1823627427E-04    0.6955095402E+00    0.8560371740E-02    0.6375809802E+00    0.5499693310E-03
    0.1300000000E+07    0.1341125450E-04    0.6955052702E+00    0.7329170188E-02    0.6418664160E+00    0.5550965866E-03
    0.1500000000E+07    0.1028548593E-04    0.6955015034E+00    0.6405692967E-02    0.6450686190E+00    0.5595266202E-03
    0.1700000000E+07    0.8143841792E-05    0.6954981333E+00    0.5687590210E-02    0.6475519740E+00    0.5634302960E-03
    0.1900000000E+07    0.6611771666E-05    0.6954950837E+00    0.5113331502E-02    0.6495339331E+00    0.5669221066E-03
    0.2100000000E+07    0.5477555321E-05    0.6954922982E+00    0.4643712061E-02    0.6511522956E+00    0.5700825969E-03
    0.2300000000E+07    0.4614125918E-05    0.6954897339E+00    0.4252574528E-02    0.6524986180E+00    0.5729706235E-03
    0.2500000000E+07    0.3941443641E-05    0.6954873577E+00    0.3921801083E-02    0.6536361083E+00    0.5756305272E-03
    0.2700000000E+07    0.3407038986E-05    0.6954851434E+00    0.3638446833E-02    0.6546098081E+00    0.5780965602E-03
    0.2900000000E+07    0.2975344377E-05    0.6954830698E+00    0.3393017669E-02    0.6554526805E+00    0.5803957419E-03
    0.3100000000E+07    0.2621551785E-05    0.6954811199E+00    0.3178392901E-02    0.6561894036E+00    0.5825497689E-03
    0.3300000000E+07    0.2327926889E-05    0.6954792793E+00    0.2989127656E-02    0.6568388188E+00    0.5845763319E-03
    0.3500000000E+07    0.2081517392E-05    0.6954775362E+00    0.2820987573E-02    0.6574155600E+00    0.5864900482E-03
    0.3700000000E+07    0.1872683562E-05    0.6954758805E+00    0.2670630313E-02    0.6579311653E+00    0.5883031378E-03
    0.3900000000E+07    0.1694130179E-05    0.6954743037E+00    0.2535382559E-02    0.6583948545E+00    0.5900259218E-03
    0.4100000000E+07    0.1540253390E-05    0.6954727984E+00    0.2413080702E-02    0.6588140833E+00    0.5916671984E-03
    0.4300000000E+07    0.1406690545E-05    0.6954713583E+00    0.2301954964E-02    0.6591949457E+00    0.5932345296E-03
    0.4500000000E+07    0.1290003969E-05    0.6954699777E+00    0.2200543745E-02    0.6595424713E+00    0.5947344629E-03
    0.4700000000E+07    0.1187454952E-05    0.6954686519E+00    0.2107629386E-02    0.6598608482E+00    0.5961727063E-03
    0.4900000000E+07    0.1096839697E-05    0.6954673765E+00    0.2022189345E-02    0.6601535912E+00    0.5975542660E-03
    0.1000000000E+07    0.2170183552E-04    0.6955119093E+00    0.9343580456E-02    0.6348446315E+00    0.5470652765E-03
    0.3000000000E+07    0.2789952602E-05    0.6954820804E+00    0.3282227985E-02    0.6558330185E+00    0.5814897126E-03
    0.5000000000E+07    0.1055434411E-05    0.6954667565E+00    0.1981996579E-02    0.6602912970E+00    0.5982251899E-03
    0.7000000000E+07    0.5564853328E-06    0.6954562753E+00    0.1417048707E-02    0.6622267028E+00    0.6095106080E-03
    0.9000000000E+07    0.3458099349E-06    0.6954482630E+00    0.1101622823E-02    0.6633075256E+00    0.6180783550E-03
    0.1100000000E+08    0.2371449039E-06    0.6954417574E+00    0.9004799479E-03    0.6639970888E+00    0.6250058909E-03
    0.1300000000E+08    0.1736892288E-06    0.6954362704E+00    0.7611126740E-03    0.6644751403E+00    0.6308320536E-03
    0.1500000000E+08    0.1333525537E-06    0.6954315194E+00    0.6588897958E-03    0.6648259814E+00    0.6358659567E-03
    0.1700000000E+08    0.1060774146E-06    0.6954273259E+00    0.5807302505E-03    0.6650943843E+00    0.6403017524E-03
    0.1900000000E+08    0.8674546134E-07    0.6954235698E+00    0.5190457198E-03    0.6653063254E+00    0.6442695392E-03
    0.2100000000E+08    0.7252591193E-07    0.6954201662E+00    0.4691326310E-03    0.6654779095E+00    0.6478608409E-03
    0.2300000000E+08    0.6174852933E-07    0.6954170531E+00    0.4279208860E-03    0.6656196510E+00    0.6511425372E-03
    0.2500000000E+08    0.5337541817E-07    0.6954141834E+00    0.3933217242E-03    0.6657387055E+00    0.6541650128E-03
    0.2700000000E+08    0.4673363659E-07    0.6954115209E+00    0.3638648218E-03    0.6658401112E+00    0.6569671894E-03
