  Pressure (Pa) 23mC5-500 (mol/kg) 24mC5-500 (mol/kg) 2mC6-500 (mol/kg) 3mC6-500 (mol/kg) C7-500 (mol/kg)
    0.1000000000E+01    0.9823236843E-06    0.2487073728E+00    0.8687053139E-05    0.8379079614E-06    0.4177452162E-02
    0.3000000000E+01    0.1569171555E-05    0.4351276928E+00    0.1335633747E-04    0.2127549868E-05    0.4198316471E-02
    0.5000000000E+01    0.1778016343E-05    0.5118629996E+00    0.1536760626E-04    0.3308838263E-05    0.4205723676E-02
    0.7000000000E+01    0.1903504016E-05    0.5537126477E+00    0.1706459835E-04    0.4437437941E-05    0.4209654108E-02
    0.9000000000E+01    0.2005097482E-05    0.5800603690E+00    0.1877548125E-04    0.5532094233E-05    0.4212088249E-02
    0.1100000000E+02    0.2099834851E-05    0.5981735359E+00    0.2054906581E-04    0.6602182616E-05    0.4213730103E-02
    0.1300000000E+02    0.2193457211E-05    0.6113908018E+00    0.2238243120E-04    0.7653283005E-05    0.4214897901E-02
    0.1500000000E+02    0.2288008719E-05    0.6214608457E+00    0.2426392969E-04    0.8689072648E-05    0.4215757784E-02
    0.1700000000E+02    0.2384170192E-05    0.6293881710E+00    0.2618238018E-04    0.9712144708E-05    0.4216405441E-02
    0.1900000000E+02    0.2482087360E-05    0.6357909083E+00    0.2812875779E-04    0.1072441874E-04    0.4216900098E-02
    0.2100000000E+02    0.2581694233E-05    0.6410702875E+00    0.3009612826E-04    0.1172736853E-04    0.4217280484E-02
    0.2300000000E+02    0.2682847150E-05    0.6454981024E+00    0.3207923829E-04    0.1272215838E-04    0.4217573061E-02
    0.2500000000E+02    0.2785381978E-05    0.6492650108E+00    0.3407411314E-04    0.1370972943E-04    0.4217796560E-02
    0.2700000000E+02    0.2889138312E-05    0.6525087075E+00    0.3607773433E-04    0.1469085690E-04    0.4217964638E-02
    0.2900000000E+02    0.2993969011E-05    0.6553311209E+00    0.3808779690E-04    0.1566618950E-04    0.4218087503E-02
    0.3100000000E+02    0.3099743132E-05    0.6578093181E+00    0.4010253046E-04    0.1663627739E-04    0.4218172949E-02
    0.3300000000E+02    0.3206345923E-05    0.6600026488E+00    0.4212056788E-04    0.1760159252E-04    0.4218227036E-02
    0.3500000000E+02    0.3313677596E-05    0.6619575603E+00    0.4414084854E-04    0.1856254386E-04    0.4218254554E-02
    0.3700000000E+02    0.3421651681E-05    0.6637109228E+00    0.4616254674E-04    0.1951948890E-04    0.4218259340E-02
    0.3900000000E+02    0.3530193330E-05    0.6652923769E+00    0.4818501817E-04    0.2047274260E-04    0.4218244511E-02
    0.4100000000E+02    0.3639237728E-05    0.6667260225E+00    0.5020775966E-04    0.2142258434E-04    0.4218212622E-02
    0.4300000000E+02    0.3748728680E-05    0.6680316562E+00    0.5223037858E-04    0.2236926348E-04    0.4218165794E-02
    0.4500000000E+02    0.3858617380E-05    0.6692256902E+00    0.5425256942E-04    0.2331300388E-04    0.4218105799E-02
    0.4700000000E+02    0.3968861350E-05    0.6703218462E+00    0.5627409576E-04    0.2425400748E-04    0.4218034133E-02
    0.4900000000E+02    0.4079423542E-05    0.6713316849E+00    0.5829477617E-04    0.2519245733E-04    0.4217952067E-02
    0.1000000000E+02    0.2052831114E-05    0.5898845485E+00    0.1965419821E-04    0.6069801894E-05    0.4212983219E-02
    0.3000000000E+02    0.3046745685E-05    0.6566091872E+00    0.3909467343E-04    0.1615185790E-04    0.4218134490E-02
    0.5000000000E+02    0.4134813687E-05    0.6718073599E+00    0.5930475475E-04    0.2566077725E-04    0.4217907481E-02
    0.7000000000E+02    0.5253322967E-05    0.6785381869E+00    0.7944188963E-04    0.3492680100E-04    0.4216666677E-02
    0.9000000000E+02    0.6383658073E-05    0.6823359897E+00    0.9946397009E-04    0.4406321441E-04    0.4215037783E-02
    0.1100000000E+03    0.7520291278E-05    0.6847748806E+00    0.1194054514E-03    0.5312731905E-04    0.4213213099E-02
    0.1300000000E+03    0.8661547848E-05    0.6864735033E+00    0.1393046893E-03    0.6215360223E-04    0.4211272630E-02
    0.1500000000E+03    0.9807095612E-05    0.6877244652E+00    0.1591943493E-03    0.7116509141E-04    0.4209255799E-02
    0.1700000000E+03    0.1095711401E-04    0.6886841159E+00    0.1791011423E-03    0.8017828652E-04    0.4207184257E-02
    0.1900000000E+03    0.1211198035E-04    0.6894435902E+00    0.1990469564E-03    0.8920563994E-04    0.4205070806E-02
    0.2100000000E+03    0.1327214123E-04    0.6900595987E+00    0.2190499719E-03    0.9825693499E-04    0.4202923431E-02
    0.2300000000E+03    0.1443805752E-04    0.6905692793E+00    0.2391255390E-03    0.1073401112E-03    0.4200747300E-02
    0.2500000000E+03    0.1561018088E-04    0.6909979704E+00    0.2592868335E-03    0.1164617873E-03    0.4198545850E-02
    0.2700000000E+03    0.1678894444E-04    0.6913635519E+00    0.2795453434E-03    0.1256276076E-03    0.4196321403E-02
    0.2900000000E+03    0.1797475998E-04    0.6916790019E+00    0.2999112315E-03    0.1348424809E-03    0.4194075539E-02
    0.3100000000E+03    0.1916801808E-04    0.6919539681E+00    0.3203936083E-03    0.1441107496E-03    0.4191809331E-02
    0.3300000000E+03    0.2036908963E-04    0.6921957723E+00    0.3410007412E-03    0.1534363129E-03    0.4189523491E-02
    0.3500000000E+03    0.2157832781E-04    0.6924100709E+00    0.3617402154E-03    0.1628227190E-03    0.4187218477E-02
    0.3700000000E+03    0.2279607019E-04    0.6926013033E+00    0.3826190608E-03    0.1722732345E-03    0.4184894557E-02
    0.3900000000E+03    0.2402264078E-04    0.6927730023E+00    0.4036438520E-03    0.1817908989E-03    0.4182551860E-02
    0.4100000000E+03    0.2525835186E-04    0.6929280146E+00    0.4248207889E-03    0.1913785663E-03    0.4180190407E-02
    0.4300000000E+03    0.2650350572E-04    0.6930686590E+00    0.4461557619E-03    0.2010389397E-03    0.4177810139E-02
    0.4500000000E+03    0.2775839614E-04    0.6931968441E+00    0.4676544055E-03    0.2107745983E-03    0.4175410931E-02
    0.4700000000E+03    0.2902330973E-04    0.6933141545E+00    0.4893221420E-03    0.2205880191E-03    0.4172992610E-02
    0.4900000000E+03    0.3029852716E-04    0.6934219174E+00    0.5111642191E-03    0.2304815957E-03    0.4170554963E-02
    0.1000000000E+03    0.6951339711E-05    0.6836752391E+00    0.1094422832E-03    0.4860179596E-04    0.4214143521E-02
    0.3000000000E+03    0.1857043509E-04    0.6918210424E+00    0.3101373244E-03    0.1394696879E-03    0.4192944926E-02
    0.5000000000E+03    0.3094008615E-04    0.6934725753E+00    0.5221522352E-03    0.2354591714E-03    0.4169328816E-02
    0.7000000000E+03    0.4437814246E-04    0.6941823673E+00    0.7522649890E-03    0.3397647564E-03    0.4143718266E-02
    0.9000000000E+03    0.5915398262E-04    0.6945770842E+00    0.1005318065E-02    0.4545910740E-03    0.4115777704E-02
    0.1100000000E+04    0.7554968469E-04    0.6948283460E+00    0.1286232774E-02    0.5821802647E-03    0.4085060283E-02
    0.1300000000E+04    0.9388998272E-04    0.6950022939E+00    0.1600632287E-02    0.7251000062E-03    0.4051030162E-02
    0.1500000000E+04    0.1145653072E-03    0.6951298302E+00    0.1955264066E-02    0.8864365196E-03    0.4013040515E-02
    0.1700000000E+04    0.1380566875E-03    0.6952273271E+00    0.2358438572E-02    0.1069995528E-02    0.3970298686E-02
    0.1900000000E+04    0.1649668943E-03    0.6953042679E+00    0.2820572034E-02    0.1280551624E-02    0.3921819569E-02
    0.2100000000E+04    0.1960617030E-03    0.6953665252E+00    0.3354903800E-02    0.1524178539E-02    0.3866363475E-02
    0.2300000000E+04    0.2323259174E-03    0.6954179298E+00    0.3978470351E-02    0.1808698305E-02    0.3802352734E-02
    0.2500000000E+04    0.2750401948E-03    0.6954610871E+00    0.4713442202E-02    0.2144298707E-02    0.3727759460E-02
    0.2700000000E+04    0.3258863626E-03    0.6954978305E+00    0.5588959400E-02    0.2544382560E-02    0.3639955618E-02
    0.2900000000E+04    0.3870898814E-03    0.6955294878E+00    0.6643619924E-02    0.3026721785E-02    0.3535517543E-02
    0.3100000000E+04    0.4616056210E-03    0.6955570442E+00    0.7928735737E-02    0.3614972865E-02    0.3409985424E-02
    0.3300000000E+04    0.5533396689E-03    0.6955812458E+00    0.9512244627E-02    0.4340509039E-02    0.3257607125E-02
    0.3500000000E+04    0.6673569219E-03    0.6956026684E+00    0.1148243173E-01    0.5244191844E-02    0.3071174671E-02
    0.3700000000E+04    0.8099117861E-03    0.6956217632E+00    0.1394867950E-01    0.6376820687E-02    0.2842250040E-02
    0.3900000000E+04    0.9878942969E-03    0.6956388887E+00    0.1703222140E-01    0.7795048155E-02    0.2562452541E-02
    0.4100000000E+04    0.1206899026E-02    0.6956543336E+00    0.2083314474E-01    0.9546424891E-02    0.2226986576E-02
    0.4300000000E+04    0.1467008404E-02    0.6956683326E+00    0.2535765099E-01    0.1163609785E-01    0.1841454544E-02
    0.4500000000E+04    0.1756979127E-02    0.6956810790E+00    0.3041681373E-01    0.1398000090E-01    0.1429982268E-02
    0.4700000000E+04    0.2052013543E-02    0.6956927329E+00    0.3558588121E-01    0.1638514131E-01    0.1035801407E-02
    0.4900000000E+04    0.2322161480E-02    0.6957034284E+00    0.4034704520E-01    0.1861392330E-01    0.7047643210E-03
    0.1000000000E+04    0.6713032884E-04    0.6947152749E+00    0.1141962869E-02    0.5166398131E-03    0.4100797325E-02
    0.3000000000E+04    0.4224646127E-03    0.6955437273E+00    0.7253562807E-02    0.3305851140E-02    0.3475714649E-02
    0.5000000000E+04    0.2441013005E-02    0.6957084527E+00    0.4245435641E-01    0.1960641210E-01    0.5717861053E-03
    0.7000000000E+04    0.3481946099E-02    0.6957785684E+00    0.6188505179E-01    0.2922780728E-01    0.8132543825E-04
    0.9000000000E+04    0.4072374223E-02    0.6958172451E+00    0.7392957097E-01    0.3568266729E-01    0.8107921114E-04
    0.1100000000E+05    0.4551405862E-02    0.6958416780E+00    0.8432732999E-01    0.4155194711E-01    0.8198579004E-04
    0.1300000000E+05    0.4942749869E-02    0.6958584672E+00    0.9339380133E-01    0.4693810057E-01    0.8275141012E-04
    0.1500000000E+05    0.5263579201E-02    0.6958706858E+00    0.1013577840E+00    0.5191445115E-01    0.8341282181E-04
    0.1700000000E+05    0.5527130640E-02    0.6958799574E+00    0.1083988209E+00    0.5653948228E-01    0.8399557730E-04
    0.1900000000E+05    0.5743744309E-02    0.6958872197E+00    0.1146597723E+00    0.6086048951E-01    0.8451680094E-04
    0.2100000000E+05    0.5921592752E-02    0.6958930520E+00    0.1202556990E+00    0.6491618021E-01    0.8498853539E-04
    0.2300000000E+05    0.6067203475E-02    0.6958978312E+00    0.1252802886E+00    0.6873857472E-01    0.8541957813E-04
    0.2500000000E+05    0.6185839587E-02    0.6959018128E+00    0.1298105806E+00    0.7235441958E-01    0.8581655544E-04
    0.2700000000E+05    0.6281781156E-02    0.6959051766E+00    0.1339104947E+00    0.7578625363E-01    0.8618458506E-04
    0.2900000000E+05    0.6358535954E-02    0.6959080520E+00    0.1376334994E+00    0.7905322297E-01    0.8652770345E-04
    0.3100000000E+05    0.6418999228E-02    0.6959105352E+00    0.1410246564E+00    0.8217171162E-01    0.8684915147E-04
    0.3300000000E+05    0.6465576167E-02    0.6959126986E+00    0.1441222041E+00    0.8515583494E-01    0.8715157133E-04
    0.3500000000E+05    0.6500276741E-02    0.6959145980E+00    0.1469587968E+00    0.8801782972E-01    0.8743714602E-04
    0.3700000000E+05    0.6524789822E-02    0.6959162772E+00    0.1495624840E+00    0.9076836544E-01    0.8770770033E-04
    0.3900000000E+05    0.6540541625E-02    0.6959177708E+00    0.1519574910E+00    0.9341679480E-01    0.8796477543E-04
    0.4100000000E+05    0.6548742144E-02    0.6959191064E+00    0.1541648467E+00    0.9597135708E-01    0.8820968498E-04
    0.4300000000E+05    0.6550422337E-02    0.6959203068E+00    0.1562028908E+00    0.9843934433E-01    0.8844355798E-04
    0.4500000000E+05    0.6546464104E-02    0.6959213903E+00    0.1580876889E+00    0.1008272383E+00    0.8866737196E-04
    0.4700000000E+05    0.6537624603E-02    0.6959223724E+00    0.1598333726E+00    0.1031408237E+00    0.8888197904E-04
    0.4900000000E+05    0.6524556109E-02    0.6959232657E+00    0.1614524201E+00    0.1053852831E+00    0.8908812657E-04
    0.1000000000E+05    0.4324115807E-02    0.6958307055E+00    0.7931154337E-01    0.3868299475E-01    0.8155229338E-04
    0.3000000000E+05    0.6390643448E-02    0.6959093376E+00    0.1393680250E+00    0.8063009701E-01    0.8669095895E-04
    0.5000000000E+05    0.6516615220E-02    0.6959236826E+00    0.1622179612E+00    0.1064830651E+00    0.8918823706E-04
    0.7000000000E+05    0.6238256569E-02    0.6959292521E+00    0.1729959443E+00    0.1257266642E+00    0.9087212871E-04
    0.9000000000E+05    0.5872227844E-02    0.6959320229E+00    0.1784780408E+00    0.1413613635E+00    0.9215048736E-04
    0.1100000000E+06    0.5504886177E-02    0.6959335785E+00    0.1812284692E+00    0.1547015569E+00    0.9318410847E-04
    0.1300000000E+06    0.5161523835E-02    0.6959345104E+00    0.1824211854E+00    0.1664386276E+00    0.9405339820E-04
    0.1500000000E+06    0.4848252696E-02    0.6959350865E+00    0.1826642563E+00    0.1769819365E+00    0.9480448038E-04
    0.1700000000E+06    0.4564720670E-02    0.6959354445E+00    0.1823011443E+00    0.1865948169E+00    0.9546632413E-04
    0.1900000000E+06    0.4308471306E-02    0.6959356615E+00    0.1815386796E+00    0.1954573694E+00    0.9605834078E-04
    0.2100000000E+06    0.4076538129E-02    0.6959357837E+00    0.1805076699E+00    0.2036987026E+00    0.9659418596E-04
    0.2300000000E+06    0.3866032652E-02    0.6959358402E+00    0.1792940857E+00    0.2114148771E+00    0.9708383816E-04
    0.2500000000E+06    0.3674344120E-02    0.6959358503E+00    0.1779561901E+00    0.2186795481E+00    0.9753481482E-04
    0.2700000000E+06    0.3499185848E-02    0.6959358268E+00    0.1765344564E+00    0.2255506100E+00    0.9795292299E-04
    0.2900000000E+06    0.3338582287E-02    0.6959357788E+00    0.1750575684E+00    0.2320745242E+00    0.9834274347E-04
    0.3100000000E+06    0.3190835650E-02    0.6959357127E+00    0.1735461849E+00    0.2382892401E+00    0.9870795463E-04
    0.3300000000E+06    0.3054488154E-02    0.6959356332E+00    0.1720153763E+00    0.2442262279E+00    0.9905155568E-04
    0.3500000000E+06    0.2928286251E-02    0.6959355438E+00    0.1704762452E+00    0.2499119292E+00    0.9937602482E-04
    0.3700000000E+06    0.2811149030E-02    0.6959354470E+00    0.1689370295E+00    0.2553688173E+00    0.9968343376E-04
    0.3900000000E+06    0.2702141214E-02    0.6959353448E+00    0.1674038681E+00    0.2606161867E+00    0.9997553232E-04
    0.4100000000E+06    0.2600450461E-02    0.6959352387E+00    0.1658813429E+00    0.2656707528E+00    0.1002538121E-03
    0.4300000000E+06    0.2505368423E-02    0.6959351299E+00    0.1643728682E+00    0.2705471123E+00    0.1005195552E-03
    0.4500000000E+06    0.2416274993E-02    0.6959350192E+00    0.1628809741E+00    0.2752581046E+00    0.1007738716E-03
    0.4700000000E+06    0.2332625198E-02    0.6959349074E+00    0.1614075167E+00    0.2798150965E+00    0.1010177290E-03
    0.4900000000E+06    0.2253938291E-02    0.6959347949E+00    0.1599538336E+00    0.2842282106E+00    0.1012519762E-03
    0.1000000000E+06    0.5686434663E-02    0.6959329042E+00    0.1801024682E+00    0.1482660089E+00    0.9269174680E-04
    0.3000000000E+06    0.3263198152E-02    0.6959357477E+00    0.1743051378E+00    0.2352184325E+00    0.9852822395E-04
    0.5000000000E+06    0.2216320971E-02    0.6959347386E+00    0.1592347134E+00    0.2863836828E+00    0.1013657334E-03
    0.7000000000E+06    0.1643217134E-02    0.6959336470E+00    0.1459882967E+00    0.3237197976E+00    0.1032792330E-03
    0.9000000000E+06    0.1283376103E-02    0.6959326721E+00    0.1347639814E+00    0.3531097309E+00    0.1047319669E-03
    0.1100000000E+07    0.1037923696E-02    0.6959318152E+00    0.1251941187E+00    0.3772106777E+00    0.1059066082E-03
    0.1300000000E+07    0.8609121974E-03    0.6959310566E+00    0.1169422588E+00    0.3975026096E+00    0.1068945128E-03
    0.1500000000E+07    0.7280191691E-03    0.6959303782E+00    0.1097485781E+00    0.4149116617E+00    0.1077480890E-03
    0.1700000000E+07    0.6251511648E-03    0.6959297654E+00    0.1034162260E+00    0.4300622341E+00    0.1085002547E-03
    0.1900000000E+07    0.5435799850E-03    0.6959292068E+00    0.9779475134E-01    0.4433977195E+00    0.1091730675E-03
    0.2100000000E+07    0.4776166666E-03    0.6959286938E+00    0.9276744248E-01    0.4552452682E+00    0.1097820453E-03
    0.2300000000E+07    0.4233996255E-03    0.6959282194E+00    0.8824235321E-01    0.4658534917E+00    0.1103385275E-03
    0.2500000000E+07    0.3782195909E-03    0.6959277782E+00    0.8414599429E-01    0.4754158112E+00    0.1108510568E-03
    0.2700000000E+07    0.3401227863E-03    0.6959273659E+00    0.8041885549E-01    0.4840856298E+00    0.1113262325E-03
    0.2900000000E+07    0.3076671234E-03    0.6959269788E+00    0.7701217856E-01    0.4919865825E+00    0.1117692603E-03
    0.3100000000E+07    0.2797667578E-03    0.6959266140E+00    0.7388559323E-01    0.4992196821E+00    0.1121843203E-03
    0.3300000000E+07    0.2555898089E-03    0.6959262691E+00    0.7100535813E-01    0.5058684372E+00    0.1125748212E-03
    0.3500000000E+07    0.2344892115E-03    0.6959259419E+00    0.6834303211E-01    0.5120025999E+00    0.1129435791E-03
    0.3700000000E+07    0.2159548468E-03    0.6959256307E+00    0.6587445699E-01    0.5176809636E+00    0.1132929484E-03
    0.3900000000E+07    0.1995797106E-03    0.6959253339E+00    0.6357896903E-01    0.5229534878E+00    0.1136249178E-03
    0.4100000000E+07    0.1850355553E-03    0.6959250503E+00    0.6143878053E-01    0.5278629352E+00    0.1139411824E-03
    0.4300000000E+07    0.1720550634E-03    0.6959247787E+00    0.5943848993E-01    0.5324461500E+00    0.1142431992E-03
    0.4500000000E+07    0.1604186053E-03    0.6959245182E+00    0.5756468988E-01    0.5367350670E+00    0.1145322298E-03
    0.4700000000E+07    0.1499442711E-03    0.6959242677E+00    0.5580565098E-01    0.5407575182E+00    0.1148093739E-03
    0.4900000000E+07    0.1404802742E-03    0.6959240266E+00    0.5415106449E-01    0.5445378815E+00    0.1150755960E-03
    0.1000000000E+07    0.1149941979E-02    0.6959322301E+00    0.1297951158E+00    0.3657113766E+00    0.1053470694E-03
    0.3000000000E+07    0.2932045363E-03    0.6959267938E+00    0.7541612131E-01    0.4956810337E+00    0.1119800575E-03
    0.5000000000E+07    0.1360864869E-03    0.6959239094E+00    0.5336005520E-01    0.5463440859E+00    0.1152048812E-03
    0.7000000000E+07    0.7894089788E-04    0.6959219222E+00    0.4129282383E-01    0.5738201195E+00    0.1173795783E-03
    0.9000000000E+07    0.5166715336E-04    0.6959203983E+00    0.3366770222E-01    0.5911155837E+00    0.1190306162E-03
    0.1100000000E+08    0.3649981431E-04    0.6959191589E+00    0.2841120968E-01    0.6030134082E+00    0.1203656013E-03
    0.1300000000E+08    0.2718416624E-04    0.6959181125E+00    0.2456802679E-01    0.6117008818E+00    0.1214883595E-03
    0.1500000000E+08    0.2104713234E-04    0.6959172059E+00    0.2163598819E-01    0.6183228882E+00    0.1224584528E-03
    0.1700000000E+08    0.1678727408E-04    0.6959164053E+00    0.1932568917E-01    0.6235374433E+00    0.1233132924E-03
    0.1900000000E+08    0.1370817391E-04    0.6959156880E+00    0.1745854999E-01    0.6277498155E+00    0.1240779471E-03
    0.2100000000E+08    0.1140936488E-04    0.6959150379E+00    0.1591838951E-01    0.6312233025E+00    0.1247700529E-03
    0.2300000000E+08    0.9647109465E-05    0.6959144432E+00    0.1462635883E-01    0.6341364101E+00    0.1254024971E-03
    0.2500000000E+08    0.8266074542E-05    0.6959138950E+00    0.1352706201E-01    0.6366144469E+00    0.1259849885E-03
    0.2700000000E+08    0.7163422956E-05    0.6959133863E+00    0.1258044099E-01    0.6387479670E+00    0.1265250274E-03
