  Pressure (Pa) 23mC5-500 (mol/kg) 24mC5-500 (mol/kg) 2mC6-500 (mol/kg) 3mC6-500 (mol/kg) C7-500 (mol/kg)
    0.1000000000E+01    0.1094967200E-05    0.2142814313E+00    0.1490086233E-04    0.3062363727E-05    0.4145445992E-02
    0.3000000000E+01    0.1874370616E-05    0.3978538132E+00    0.2455037089E-04    0.7557456882E-05    0.4168911009E-02
    0.5000000000E+01    0.2180684503E-05    0.4801182617E+00    0.2872017555E-04    0.1163260256E-04    0.4174394307E-02
    0.7000000000E+01    0.2360331434E-05    0.5268024896E+00    0.3187487587E-04    0.1550941945E-04    0.4176662826E-02
    0.9000000000E+01    0.2496173048E-05    0.5568857278E+00    0.3485394635E-04    0.1926112828E-04    0.4177719664E-02
    0.1100000000E+02    0.2615236499E-05    0.5778863534E+00    0.3785561458E-04    0.2292396425E-04    0.4178182790E-02
    0.1300000000E+02    0.2727938771E-05    0.5933782079E+00    0.4092435409E-04    0.2651932927E-04    0.4178310472E-02
    0.1500000000E+02    0.2838698882E-05    0.6052775383E+00    0.4406284739E-04    0.3006124288E-04    0.4178230553E-02
    0.1700000000E+02    0.2949483227E-05    0.6147041651E+00    0.4726273848E-04    0.3355954254E-04    0.4178013699E-02
    0.1900000000E+02    0.3061168375E-05    0.6223563007E+00    0.5051382120E-04    0.3702147959E-04    0.4177702163E-02
    0.2100000000E+02    0.3174119595E-05    0.6286918990E+00    0.5380675080E-04    0.4045260117E-04    0.4177322737E-02
    0.2300000000E+02    0.3288454882E-05    0.6340238122E+00    0.5713368305E-04    0.4385727560E-04    0.4176893210E-02
    0.2500000000E+02    0.3404171992E-05    0.6385730422E+00    0.6048825185E-04    0.4723902406E-04    0.4176425837E-02
    0.2700000000E+02    0.3521211877E-05    0.6425001438E+00    0.6386536043E-04    0.5060073984E-04    0.4175929320E-02
    0.2900000000E+02    0.3639491097E-05    0.6459245684E+00    0.6726094745E-04    0.5394483879E-04    0.4175409991E-02
    0.3100000000E+02    0.3758918506E-05    0.6489370264E+00    0.7067177834E-04    0.5727336582E-04    0.4174872565E-02
    0.3300000000E+02    0.3879403748E-05    0.6516076411E+00    0.7409527333E-04    0.6058807236E-04    0.4174320609E-02
    0.3500000000E+02    0.4000861395E-05    0.6539914752E+00    0.7752937041E-04    0.6389047386E-04    0.4173756870E-02
    0.3700000000E+02    0.4123212750E-05    0.6561323683E+00    0.8097241759E-04    0.6718189346E-04    0.4173183490E-02
    0.3900000000E+02    0.4246386417E-05    0.6580656578E+00    0.8442308874E-04    0.7046349565E-04    0.4172602162E-02
    0.4100000000E+02    0.4370318201E-05    0.6598201445E+00    0.8788031771E-04    0.7373631258E-04    0.4172014234E-02
    0.4300000000E+02    0.4494950700E-05    0.6614195371E+00    0.9134324679E-04    0.7700126500E-04    0.4171420792E-02
    0.4500000000E+02    0.4620232743E-05    0.6628835303E+00    0.9481118613E-04    0.8025917902E-04    0.4170822721E-02
    0.4700000000E+02    0.4746118793E-05    0.6642286196E+00    0.9828358168E-04    0.8351079978E-04    0.4170220741E-02
    0.4900000000E+02    0.4872568357E-05    0.6654687254E+00    0.1017599897E-03    0.8675680258E-04    0.4169615447E-02
    0.1000000000E+02    0.2556941792E-05    0.5682432927E+00    0.3634754983E-04    0.2110208914E-04    0.4178004823E-02
    0.3000000000E+02    0.3699067007E-05    0.6474775028E+00    0.6896463223E-04    0.5561093321E-04    0.4175143295E-02
    0.5000000000E+02    0.4935993042E-05    0.6660531770E+00    0.1034995849E-03    0.8837789150E-04    0.4169311714E-02
    0.7000000000E+02    0.6227224986E-05    0.6743446796E+00    0.1384489007E-03    0.1206292022E-03    0.4163146481E-02
    0.9000000000E+02    0.7551477931E-05    0.6790409188E+00    0.1736725134E-03    0.1527846654E-03    0.4156904175E-02
    0.1100000000E+03    0.8901840552E-05    0.6820636405E+00    0.2092113428E-03    0.1850605511E-03    0.4150629896E-02
    0.1300000000E+03    0.1027620428E-04    0.6841720975E+00    0.2451310651E-03    0.2175916995E-03    0.4144327377E-02
    0.1500000000E+03    0.1167429974E-04    0.6857265921E+00    0.2814954985E-03    0.2504728553E-03    0.4137990057E-02
    0.1700000000E+03    0.1309664419E-04    0.6869200873E+00    0.3183624423E-03    0.2837764747E-03    0.4131608883E-02
    0.1900000000E+03    0.1454412059E-04    0.6878652495E+00    0.3557840744E-03    0.3175616237E-03    0.4125174561E-02
    0.2100000000E+03    0.1601779460E-04    0.6886322794E+00    0.3938081513E-03    0.3518789056E-03    0.4118678197E-02
    0.2300000000E+03    0.1751883078E-04    0.6892671966E+00    0.4324791647E-03    0.3867734084E-03    0.4112111439E-02
    0.2500000000E+03    0.1904845344E-04    0.6898014257E+00    0.4718392902E-03    0.4222865775E-03    0.4105466442E-02
    0.2700000000E+03    0.2060792869E-04    0.6902571574E+00    0.5119291379E-03    0.4584574670E-03    0.4098735789E-02
    0.2900000000E+03    0.2219855710E-04    0.6906505078E+00    0.5527883411E-03    0.4953236129E-03    0.4091912403E-02
    0.3100000000E+03    0.2382167180E-04    0.6909934639E+00    0.5944560237E-03    0.5329216657E-03    0.4084989463E-02
    0.3300000000E+03    0.2547863943E-04    0.6912951264E+00    0.6369711776E-03    0.5712878669E-03    0.4077960335E-02
    0.3500000000E+03    0.2717086264E-04    0.6915625293E+00    0.6803729735E-03    0.6104584182E-03    0.4070818509E-02
    0.3700000000E+03    0.2889978345E-04    0.6918011948E+00    0.7247010231E-03    0.6504697791E-03    0.4063557540E-02
    0.3900000000E+03    0.3066688699E-04    0.6920155187E+00    0.7699956056E-03    0.6913589131E-03    0.4056171011E-02
    0.4100000000E+03    0.3247370562E-04    0.6922090440E+00    0.8162978675E-03    0.7331634981E-03    0.4048652486E-02
    0.4300000000E+03    0.3432182317E-04    0.6923846578E+00    0.8636500041E-03    0.7759221120E-03    0.4040995474E-02
    0.4500000000E+03    0.3621287932E-04    0.6925447364E+00    0.9120954272E-03    0.8196744000E-03    0.4033193402E-02
    0.4700000000E+03    0.3814857412E-04    0.6926912539E+00    0.9616789242E-03    0.8644612301E-03    0.4025239579E-02
    0.4900000000E+03    0.4013067263E-04    0.6928258631E+00    0.1012446810E-02    0.9103248407E-03    0.4017127176E-02
    0.1000000000E+03    0.8223590407E-05    0.6807000933E+00    0.1913984953E-03    0.1688978792E-03    0.4153770391E-02
    0.3000000000E+03    0.2300596906E-04    0.6908276599E+00    0.5735186863E-03    0.5140288810E-03    0.4088463795E-02
    0.5000000000E+03    0.4113969382E-04    0.6928891467E+00    0.1038289828E-02    0.9336740481E-03    0.4013009327E-02
    0.7000000000E+03    0.6425612937E-04    0.6937762616E+00    0.1630338658E-02    0.1469043324E-02    0.3920473708E-02
    0.9000000000E+03    0.9480330896E-04    0.6942699964E+00    0.2413166675E-02    0.2178022884E-02    0.3802050143E-02
    0.1100000000E+04    0.1367527026E-03    0.6945844984E+00    0.3489346083E-02    0.3154209051E-02    0.3644231652E-02
    0.1300000000E+04    0.1968650644E-03    0.6948023557E+00    0.5033605921E-02    0.4557337332E-02    0.3424922071E-02
    0.1500000000E+04    0.2868890573E-03    0.6949621733E+00    0.7350269249E-02    0.6666351273E-02    0.3107507903E-02
    0.1700000000E+04    0.4261701776E-03    0.6950844120E+00    0.1094262210E-01    0.9944683870E-02    0.2636433129E-02
    0.1900000000E+04    0.6374704447E-03    0.6951809271E+00    0.1641028060E-01    0.1495155909E-01    0.1961254360E-02
    0.2100000000E+04    0.9122949549E-03    0.6952590621E+00    0.2355959429E-01    0.2153468944E-01    0.1158126785E-02
    0.2300000000E+04    0.1170563766E-02    0.6953236083E+00    0.3034405123E-01    0.2784479112E-01    0.5172649480E-03
    0.2500000000E+04    0.1349249781E-02    0.6953778251E+00    0.3512267770E-01    0.3237000843E-01    0.1982565705E-03
    0.2700000000E+04    0.1467908675E-02    0.6954240067E+00    0.3837751423E-01    0.3552919538E-01    0.8310344354E-04
    0.2900000000E+04    0.1559205696E-02    0.6954638150E+00    0.4094275934E-01    0.3807589627E-01    0.4695169360E-04
    0.3100000000E+04    0.1639013638E-02    0.6954984831E+00    0.4322620152E-01    0.4038087988E-01    0.3612829808E-04
    0.3300000000E+04    0.1713073141E-02    0.6955289453E+00    0.4537541040E-01    0.4257848213E-01    0.3296366056E-04
    0.3500000000E+04    0.1783338202E-02    0.6955559226E+00    0.4744018421E-01    0.4471369672E-01    0.3208358138E-04
    0.3700000000E+04    0.1850514667E-02    0.6955799799E+00    0.4943798183E-01    0.4680185095E-01    0.3188407973E-04
    0.3900000000E+04    0.1914908435E-02    0.6956015666E+00    0.5137589302E-01    0.4884874643E-01    0.3188657809E-04
    0.4100000000E+04    0.1976695355E-02    0.6956210441E+00    0.5325765858E-01    0.5085712334E-01    0.3194758932E-04
    0.4300000000E+04    0.2036006219E-02    0.6956387069E+00    0.5508588800E-01    0.5282870976E-01    0.3202390468E-04
    0.4500000000E+04    0.2092953661E-02    0.6956547968E+00    0.5686276223E-01    0.5476487228E-01    0.3210254219E-04
    0.4700000000E+04    0.2147640870E-02    0.6956695148E+00    0.5859025983E-01    0.5666682466E-01    0.3217969512E-04
    0.4900000000E+04    0.2200164570E-02    0.6956830289E+00    0.6027023277E-01    0.5853569646E-01    0.3225435301E-04
    0.1000000000E+04    0.1140159481E-03    0.6944429446E+00    0.2905889328E-02    0.2624770908E-02    0.3729185733E-02
    0.3000000000E+04    0.1600048353E-02    0.6954817274E+00    0.4210690751E-01    0.3924694473E-01    0.3993968043E-04
    0.5000000000E+04    0.2225643860E-02    0.6956893797E+00    0.6109294884E-01    0.5945806337E-01    0.3229068257E-04
    0.7000000000E+04    0.2641507590E-02    0.6957782083E+00    0.7543574110E-01    0.7640401728E-01    0.3290225170E-04
    0.9000000000E+04    0.2920622990E-02    0.6958274530E+00    0.8657814528E-01    0.9100301763E-01    0.3336619011E-04
    0.1100000000E+05    0.3106384284E-02    0.6958587204E+00    0.9539559860E-01    0.1038139738E+00    0.3374112269E-04
    0.1300000000E+05    0.3226865437E-02    0.6958803171E+00    0.1024760435E+00    0.1152241571E+00    0.3405634571E-04
    0.1500000000E+05    0.3300829814E-02    0.6958961172E+00    0.1082282477E+00    0.1255112506E+00    0.3432864400E-04
    0.1700000000E+05    0.3341160117E-02    0.6959081706E+00    0.1129447524E+00    0.1348801439E+00    0.3456855096E-04
    0.1900000000E+05    0.3356902925E-02    0.6959176633E+00    0.1168401230E+00    0.1434857377E+00    0.3478312047E-04
    0.2100000000E+05    0.3354532920E-02    0.6959253289E+00    0.1200750882E+00    0.1514476157E+00    0.3497731261E-04
    0.2300000000E+05    0.3338759462E-02    0.6959316455E+00    0.1227722724E+00    0.1588597904E+00    0.3515475055E-04
    0.2500000000E+05    0.3313055302E-02    0.6959369381E+00    0.1250267421E+00    0.1657973587E+00    0.3531816308E-04
    0.2700000000E+05    0.3280011424E-02    0.6959414352E+00    0.1269132495E+00    0.1723211596E+00    0.3546965766E-04
    0.2900000000E+05    0.3241580189E-02    0.6959453021E+00    0.1284913185E+00    0.1784811029E+00    0.3561089638E-04
    0.3100000000E+05    0.3199245028E-02    0.6959486613E+00    0.1298088836E+00    0.1843185961E+00    0.3574321369E-04
    0.3300000000E+05    0.3154140831E-02    0.6959516057E+00    0.1309049394E+00    0.1898683416E+00    0.3586769749E-04
    0.3500000000E+05    0.3107140610E-02    0.6959542068E+00    0.1318114995E+00    0.1951596904E+00    0.3598524661E-04
    0.3700000000E+05    0.3058918723E-02    0.6959565205E+00    0.1325550659E+00    0.2002176753E+00    0.3609661235E-04
    0.3900000000E+05    0.3009997533E-02    0.6959585914E+00    0.1331577446E+00    0.2050638087E+00    0.3620242922E-04
    0.4100000000E+05    0.2960782234E-02    0.6959604553E+00    0.1336381031E+00    0.2097167077E+00    0.3630323805E-04
    0.4300000000E+05    0.2911587088E-02    0.6959621413E+00    0.1340118363E+00    0.2141925865E+00    0.3639950367E-04
    0.4500000000E+05    0.2862655369E-02    0.6959636733E+00    0.1342922888E+00    0.2185056512E+00    0.3649162851E-04
    0.4700000000E+05    0.2814174651E-02    0.6959650711E+00    0.1344908683E+00    0.2226684162E+00    0.3657996337E-04
    0.4900000000E+05    0.2766288614E-02    0.6959663512E+00    0.1346173758E+00    0.2266919618E+00    0.3666481592E-04
    0.1000000000E+05    0.3023146368E-02    0.6958446589E+00    0.9123556849E-01    0.9760466304E-01    0.3356254286E-04
    0.3000000000E+05    0.3220822650E-02    0.6959470388E+00    0.1291800431E+00    0.1814378474E+00    0.3567809720E-04
    0.5000000000E+05    0.2742603798E-02    0.6959669517E+00    0.1346562924E+00    0.2286546505E+00    0.3670602240E-04
    0.7000000000E+05    0.2314837350E-02    0.6959752484E+00    0.1331943905E+00    0.2625072817E+00    0.3739912197E-04
    0.9000000000E+05    0.1975748169E-02    0.6959797246E+00    0.1296337285E+00    0.2892103911E+00    0.3792529513E-04
    0.1100000000E+06    0.1708291545E-02    0.6959824875E+00    0.1254192793E+00    0.3113570634E+00    0.3835073136E-04
    0.1300000000E+06    0.1494482574E-02    0.6959843405E+00    0.1210811290E+00    0.3302973060E+00    0.3870852777E-04
    0.1500000000E+06    0.1320791379E-02    0.6959856551E+00    0.1168333757E+00    0.3468344980E+00    0.3901766964E-04
    0.1700000000E+06    0.1177531173E-02    0.6959866262E+00    0.1127637200E+00    0.3614913466E+00    0.3929008096E-04
    0.1900000000E+06    0.1057757328E-02    0.6959873658E+00    0.1089045069E+00    0.3746302143E+00    0.3953375158E-04
    0.2100000000E+06    0.9564186725E-03    0.6959879424E+00    0.1052625612E+00    0.3865144328E+00    0.3975430218E-04
    0.2300000000E+06    0.8697761537E-03    0.6959884004E+00    0.1018327574E+00    0.3973424309E+00    0.3995583995E-04
    0.2500000000E+06    0.7950131481E-03    0.6959887696E+00    0.9860454268E-01    0.4072680735E+00    0.4014145905E-04
    0.2700000000E+06    0.7299728417E-03    0.6959890708E+00    0.9556518492E-01    0.4164134601E+00    0.4031354966E-04
    0.2900000000E+06    0.6729787185E-03    0.6959893190E+00    0.9270141598E-01    0.4248773434E+00    0.4047399722E-04
    0.3100000000E+06    0.6227097651E-03    0.6959895251E+00    0.9000025782E-01    0.4327408726E+00    0.4062431574E-04
    0.3300000000E+06    0.5781122056E-03    0.6959896973E+00    0.8744942009E-01    0.4400716362E+00    0.4076573969E-04
    0.3500000000E+06    0.5383360292E-03    0.6959898420E+00    0.8503747006E-01    0.4469265823E+00    0.4089928908E-04
    0.3700000000E+06    0.5026886293E-03    0.6959899640E+00    0.8275388100E-01    0.4533541769E+00    0.4102581660E-04
    0.3900000000E+06    0.4706004457E-03    0.6959900671E+00    0.8058901676E-01    0.4593960303E+00    0.4114604250E-04
    0.4100000000E+06    0.4415991607E-03    0.6959901544E+00    0.7853408441E-01    0.4650881450E+00    0.4126058069E-04
    0.4300000000E+06    0.4152900767E-03    0.6959902284E+00    0.7658107247E-01    0.4704618863E+00    0.4136995885E-04
    0.4500000000E+06    0.3913410255E-03    0.6959902909E+00    0.7472268455E-01    0.4755447491E+00    0.4147463389E-04
    0.4700000000E+06    0.3694706383E-03    0.6959903438E+00    0.7295227360E-01    0.4803609695E+00    0.4157500409E-04
    0.4900000000E+06    0.3494391404E-03    0.6959903883E+00    0.7126377954E-01    0.4849320192E+00    0.4167141881E-04
    0.1000000000E+06    0.1834288623E-02    0.6959812548E+00    0.1275639699E+00    0.3007512571E+00    0.3814807661E-04
    0.3000000000E+06    0.6470748772E-03    0.6959894267E+00    0.9133129759E-01    0.4288796488E+00    0.4055033977E-04
    0.5000000000E+06    0.3400475928E-03    0.6959904078E+00    0.7044850375E-01    0.4871316597E+00    0.4171824058E-04
    0.7000000000E+06    0.2116351171E-03    0.6959905546E+00    0.5733118199E-01    0.5219509111E+00    0.4250582601E-04
    0.9000000000E+06    0.1450282718E-03    0.6959904829E+00    0.4832998880E-01    0.5453426126E+00    0.4310376395E-04
    0.1100000000E+07    0.1058391095E-03    0.6959903388E+00    0.4176745624E-01    0.5621995159E+00    0.4358724110E-04
    0.1300000000E+07    0.8076221737E-04    0.6959901701E+00    0.3676954364E-01    0.5749441382E+00    0.4399385879E-04
    0.1500000000E+07    0.6371742436E-04    0.6959899954E+00    0.3283588838E-01    0.5849252129E+00    0.4434518787E-04
    0.1700000000E+07    0.5159094637E-04    0.6959898225E+00    0.2965917830E-01    0.5929568358E+00    0.4465477701E-04
    0.1900000000E+07    0.4264899571E-04    0.6959896547E+00    0.2704013625E-01    0.5995607180E+00    0.4493170504E-04
    0.2100000000E+07    0.3586199899E-04    0.6959894934E+00    0.2484383541E-01    0.6050871135E+00    0.4518235895E-04
    0.2300000000E+07    0.3058643685E-04    0.6959893390E+00    0.2297564420E-01    0.6097801117E+00    0.4541140595E-04
    0.2500000000E+07    0.2640291455E-04    0.6959891914E+00    0.2136721957E-01    0.6138151231E+00    0.4562236220E-04
    0.2700000000E+07    0.2302841818E-04    0.6959890504E+00    0.1996796685E-01    0.6173214926E+00    0.4581794390E-04
    0.2900000000E+07    0.2026625125E-04    0.6959889156E+00    0.1873962764E-01    0.6203967136E+00    0.4600029367E-04
    0.3100000000E+07    0.1797620545E-04    0.6959887865E+00    0.1765273509E-01    0.6231156764E+00    0.4617113208E-04
    0.3300000000E+07    0.1605611890E-04    0.6959886629E+00    0.1668422552E-01    0.6255368666E+00    0.4633186200E-04
    0.3500000000E+07    0.1443010508E-04    0.6959885443E+00    0.1581578871E-01    0.6277066271E+00    0.4648364262E-04
    0.3700000000E+07    0.1304082744E-04    0.6959884303E+00    0.1503270331E-01    0.6296621568E+00    0.4662744299E-04
    0.3900000000E+07    0.1184430345E-04    0.6959883207E+00    0.1432299876E-01    0.6314336605E+00    0.4676408162E-04
    0.4100000000E+07    0.1080633279E-04    0.6959882151E+00    0.1367684152E-01    0.6330459200E+00    0.4689425623E-04
    0.4300000000E+07    0.9899993910E-05    0.6959881133E+00    0.1308607871E-01    0.6345194590E+00    0.4701856648E-04
    0.4500000000E+07    0.9103858279E-05    0.6959880150E+00    0.1254389384E-01    0.6358714203E+00    0.4713753163E-04
    0.4700000000E+07    0.8400696227E-05    0.6959879200E+00    0.1204454384E-01    0.6371162348E+00    0.4725160435E-04
    0.4900000000E+07    0.7776525480E-05    0.6959878281E+00    0.1158315586E-01    0.6382661369E+00    0.4736118163E-04
    0.1000000000E+07    0.1230915288E-03    0.6959904158E+00    0.4481047629E-01    0.5544015391E+00    0.4335693732E-04
    0.3000000000E+07    0.1906932748E-04    0.6959888504E+00    0.1818006989E-01    0.6217967449E+00    0.4608705766E-04
    0.5000000000E+07    0.7490402101E-05    0.6959877833E+00    0.1136537302E-01    0.6388088196E+00    0.4741439555E-04
    0.7000000000E+07    0.3991910390E-05    0.6959870093E+00    0.8253274995E-02    0.6465579759E+00    0.4830950463E-04
    0.9000000000E+07    0.2482015295E-05    0.6959864016E+00    0.6473087920E-02    0.6509866690E+00    0.4898907655E-04
    0.1100000000E+08    0.1694188209E-05    0.6959859004E+00    0.5321375145E-02    0.6538508217E+00    0.4953856141E-04
    0.1300000000E+08    0.1231199775E-05    0.6959854733E+00    0.4515674228E-02    0.6558542212E+00    0.5000069365E-04
    0.1500000000E+08    0.9359112705E-06    0.6959851007E+00    0.3920640306E-02    0.6573337596E+00    0.5039998896E-04
    0.1700000000E+08    0.7359649052E-06    0.6959847699E+00    0.3463329133E-02    0.6584708982E+00    0.5075184572E-04
    0.1900000000E+08    0.5942437646E-06    0.6959844723E+00    0.3100964248E-02    0.6593720119E+00    0.5106658221E-04
    0.2100000000E+08    0.4901017333E-06    0.6959842015E+00    0.2806808745E-02    0.6601035734E+00    0.5135145742E-04
    0.2300000000E+08    0.4113056212E-06    0.6959839531E+00    0.2563294999E-02    0.6607092523E+00    0.5161177576E-04
    0.2500000000E+08    0.3502299691E-06    0.6959837235E+00    0.2358406140E-02    0.6612189176E+00    0.5185153345E-04
    0.2700000000E+08    0.3019193579E-06    0.6959835099E+00    0.2183645287E-02    0.6616536880E+00    0.5207381750E-04
