  Pressure (Pa) 23mC5-500 (mol/kg) 24mC5-500 (mol/kg) 2mC6-500 (mol/kg) 3mC6-500 (mol/kg) C7-500 (mol/kg)
    0.1000000000E+01    0.1198011399E-05    0.1741139218E+00    0.8195535969E-05    0.8170351040E-05    0.4145354271E-02
    0.3000000000E+01    0.2220969389E-05    0.3481466937E+00    0.1455200047E-04    0.2018038861E-04    0.4169651460E-02
    0.5000000000E+01    0.2663056055E-05    0.4351339937E+00    0.1728303859E-04    0.3108688212E-04    0.4175639380E-02
    0.7000000000E+01    0.2914236422E-05    0.4873176453E+00    0.1907240939E-04    0.4147924568E-04    0.4178129014E-02
    0.9000000000E+01    0.3087907929E-05    0.5221033299E+00    0.2058642040E-04    0.5155191863E-04    0.4179231182E-02
    0.1100000000E+02    0.3226422027E-05    0.5469486698E+00    0.2203142111E-04    0.6140100749E-04    0.4179628713E-02
    0.1300000000E+02    0.3348122518E-05    0.5655818579E+00    0.2347778500E-04    0.7108321984E-04    0.4179617677E-02
    0.1500000000E+02    0.3461758760E-05    0.5800738772E+00    0.2494935575E-04    0.8063567321E-04    0.4179348800E-02
    0.1700000000E+02    0.3571782493E-05    0.5916672158E+00    0.2645271655E-04    0.9008439741E-04    0.4178907226E-02
    0.1900000000E+02    0.3680555978E-05    0.6011524991E+00    0.2798788211E-04    0.9944857207E-04    0.4178344730E-02
    0.2100000000E+02    0.3789362038E-05    0.6090567858E+00    0.2955248680E-04    0.1087428666E-03    0.4177694588E-02
    0.2300000000E+02    0.3898900026E-05    0.6157449486E+00    0.3114348458E-04    0.1179788334E-03    0.4176979136E-02
    0.2500000000E+02    0.4009543254E-05    0.6214776031E+00    0.3275783701E-04    0.1271657871E-03    0.4176213892E-02
    0.2700000000E+02    0.4121478641E-05    0.6264458626E+00    0.3439277332E-04    0.1363113847E-03    0.4175409952E-02
    0.2900000000E+02    0.4234785152E-05    0.6307930591E+00    0.3604586722E-04    0.1454220244E-03    0.4174575443E-02
    0.3100000000E+02    0.4349479104E-05    0.6346287975E+00    0.3771503642E-04    0.1545031271E-03    0.4173716433E-02
    0.3300000000E+02    0.4465540891E-05    0.6380383246E+00    0.3939851200E-04    0.1635593411E-03    0.4172837539E-02
    0.3500000000E+02    0.4582930992E-05    0.6410889400E+00    0.4109479877E-04    0.1725946940E-03    0.4171942319E-02
    0.3700000000E+02    0.4701599639E-05    0.6438344823E+00    0.4280263546E-04    0.1816127084E-03    0.4171033557E-02
    0.3900000000E+02    0.4821492684E-05    0.6463185352E+00    0.4452095856E-04    0.1906164904E-03    0.4170113451E-02
    0.4100000000E+02    0.4942555122E-05    0.6485767574E+00    0.4624887087E-04    0.1996087989E-03    0.4169183759E-02
    0.4300000000E+02    0.5064733177E-05    0.6506386061E+00    0.4798561475E-04    0.2085921013E-03    0.4168245894E-02
    0.4500000000E+02    0.5187975493E-05    0.6525286287E+00    0.4973054968E-04    0.2175686172E-03    0.4167301002E-02
    0.4700000000E+02    0.5312233754E-05    0.6542674449E+00    0.5148313356E-04    0.2265403547E-03    0.4166350022E-02
    0.4900000000E+02    0.5437462961E-05    0.6558725021E+00    0.5324290717E-04    0.2355091394E-03    0.4165393723E-02
    0.1000000000E+02    0.3160089311E-05    0.5354817482E+00    0.2131148335E-04    0.5650025998E-04    0.4179494590E-02
    0.3000000000E+02    0.4291959308E-05    0.6327690483E+00    0.3687855986E-04    0.1499659613E-03    0.4174148684E-02
    0.5000000000E+02    0.5500428534E-05    0.6566296031E+00    0.5412536604E-04    0.2399929512E-03    0.4164913783E-02
    0.7000000000E+02    0.6802319575E-05    0.6674156010E+00    0.7208456033E-04    0.3298548385E-03    0.4155142672E-02
    0.9000000000E+02    0.8171155116E-05    0.6735623602E+00    0.9055893800E-04    0.4207144328E-03    0.4145160926E-02
    0.1100000000E+03    0.9596359680E-05    0.6775332202E+00    0.1095273013E-03    0.5132109401E-03    0.4135016065E-02
    0.1300000000E+03    0.1107422564E-04    0.6803097995E+00    0.1290126665E-03    0.6077797038E-03    0.4124701404E-02
    0.1500000000E+03    0.1260414327E-04    0.6823604484E+00    0.1490514609E-03    0.7047602570E-03    0.4114196856E-02
    0.1700000000E+03    0.1418707082E-04    0.6839369375E+00    0.1696849148E-03    0.8044430228E-03    0.4103478950E-02
    0.1900000000E+03    0.1582486109E-04    0.6851866758E+00    0.1909565115E-03    0.9070929176E-03    0.4092523582E-02
    0.2100000000E+03    0.1751994387E-04    0.6862017071E+00    0.2129113431E-03    0.1012962740E-02    0.4081306681E-02
    0.2300000000E+03    0.1927517002E-04    0.6870424720E+00    0.2355961196E-03    0.1122301524E-02    0.4069804246E-02
    0.2500000000E+03    0.2109373481E-04    0.6877502993E+00    0.2590594124E-03    0.1235360208E-02    0.4057992168E-02
    0.2700000000E+03    0.2297914296E-04    0.6883544066E+00    0.2833519836E-03    0.1352395807E-02    0.4045846012E-02
    0.2900000000E+03    0.2493519707E-04    0.6888760340E+00    0.3085271487E-03    0.1473674716E-02    0.4033340778E-02
    0.3100000000E+03    0.2696600034E-04    0.6893309927E+00    0.3346411553E-03    0.1599475511E-02    0.4020450683E-02
    0.3300000000E+03    0.2907596847E-04    0.6897312955E+00    0.3617535755E-03    0.1730091484E-02    0.4007148939E-02
    0.3500000000E+03    0.3126984823E-04    0.6900862327E+00    0.3899277143E-03    0.1865833037E-02    0.3993407550E-02
    0.3700000000E+03    0.3355274123E-04    0.6904031017E+00    0.4192310378E-03    0.2007030055E-02    0.3979197102E-02
    0.3900000000E+03    0.3593013222E-04    0.6906877149E+00    0.4497356284E-03    0.2154034315E-02    0.3964486557E-02
    0.4100000000E+03    0.3840792161E-04    0.6909447585E+00    0.4815186721E-03    0.2307222002E-02    0.3949243045E-02
    0.4300000000E+03    0.4099246219E-04    0.6911780529E+00    0.5146629826E-03    0.2466996362E-02    0.3933431637E-02
    0.4500000000E+03    0.4369060014E-04    0.6913907438E+00    0.5492575711E-03    0.2633790558E-02    0.3917015121E-02
    0.4700000000E+03    0.4650972066E-04    0.6915854449E+00    0.5853982666E-03    0.2808070750E-02    0.3899953755E-02
    0.4900000000E+03    0.4945779856E-04    0.6917643457E+00    0.6231883932E-03    0.2990339444E-02    0.3882205006E-02
    0.1000000000E+03    0.8877043383E-05    0.6757405569E+00    0.9998042740E-04    0.4667278096E-03    0.4140108771E-02
    0.3000000000E+03    0.2594098659E-04    0.6891110218E+00    0.3214631561E-03    0.1535991920E-02    0.4026945486E-02
    0.5000000000E+03    0.5098286354E-04    0.6918484601E+00    0.6427365129E-03    0.3084637344E-02    0.3873058739E-02
    0.7000000000E+03    0.9086896046E-04    0.6930281187E+00    0.1154081426E-02    0.5554331159E-02    0.3640481195E-02
    0.9000000000E+03    0.1610543754E-03    0.6936851076E+00    0.2055225216E-02    0.9917828555E-02    0.3251729652E-02
    0.1100000000E+04    0.2967006124E-03    0.6941037633E+00    0.3802048024E-02    0.1840591374E-01    0.2546558086E-02
    0.1300000000E+04    0.5423380231E-03    0.6943938431E+00    0.6983029939E-02    0.3395519539E-01    0.1392401744E-02
    0.1500000000E+04    0.8025940139E-03    0.6946066814E+00    0.1039639020E-01    0.5086070791E-01    0.4098491223E-03
    0.1700000000E+04    0.9513198440E-03    0.6947694963E+00    0.1240622838E-01    0.6111633287E-01    0.1031850138E-03
    0.1900000000E+04    0.1046323418E-02    0.6948980628E+00    0.1373937117E-01    0.6816640171E-01    0.4974134197E-04
    0.2100000000E+04    0.1126529207E-02    0.6950021544E+00    0.1489442549E-01    0.7442174759E-01    0.4179962304E-04
    0.2300000000E+04    0.1200372089E-02    0.6950881491E+00    0.1597936326E-01    0.8040476144E-01    0.4078140442E-04
    0.2500000000E+04    0.1269504675E-02    0.6951603864E+00    0.1701457148E-01    0.8621080535E-01    0.4078655970E-04
    0.2700000000E+04    0.1334412643E-02    0.6952219210E+00    0.1800533224E-01    0.9186133235E-01    0.4093476764E-04
    0.2900000000E+04    0.1395377548E-02    0.6952749658E+00    0.1895433505E-01    0.9736528821E-01    0.4109496425E-04
    0.3100000000E+04    0.1452634409E-02    0.6953211630E+00    0.1986373349E-01    0.1027292550E+00    0.4124840386E-04
    0.3300000000E+04    0.1506398191E-02    0.6953617571E+00    0.2073548801E-01    0.1079591342E+00    0.4139322164E-04
    0.3500000000E+04    0.1556869045E-02    0.6953977082E+00    0.2157142973E-01    0.1130604435E+00    0.4152998589E-04
    0.3700000000E+04    0.1604234038E-02    0.6954297690E+00    0.2237327797E-01    0.1180383854E+00    0.4165950724E-04
    0.3900000000E+04    0.1648668220E-02    0.6954585379E+00    0.2314264977E-01    0.1228978757E+00    0.4178252386E-04
    0.4100000000E+04    0.1690335534E-02    0.6954844965E+00    0.2388106735E-01    0.1276435640E+00    0.4189967304E-04
    0.4300000000E+04    0.1729389624E-02    0.6955080370E+00    0.2458996482E-01    0.1322798521E+00    0.4201150329E-04
    0.4500000000E+04    0.1765974580E-02    0.6955294817E+00    0.2527069437E-01    0.1368109105E+00    0.4211848921E-04
    0.4700000000E+04    0.1800225619E-02    0.6955490983E+00    0.2592453182E-01    0.1412406930E+00    0.4222104412E-04
    0.4900000000E+04    0.1832269710E-02    0.6955671105E+00    0.2655268186E-01    0.1455729514E+00    0.4231953015E-04
    0.1000000000E+04    0.2173803748E-03    0.6939153153E+00    0.2779777434E-02    0.1343423049E-01    0.2952581615E-02
    0.3000000000E+04    0.1424455672E-02    0.6952988348E+00    0.1941385892E-01    0.1000643910E+00    0.4117275923E-04
    0.5000000000E+04    0.1847501716E-02    0.6955755752E+00    0.2685748227E-01    0.1477036293E+00    0.4236734855E-04
    0.7000000000E+04    0.2061684275E-02    0.6956939791E+00    0.3185044123E-01    0.1859739380E+00    0.4317091969E-04
    0.9000000000E+04    0.2154284783E-02    0.6957596263E+00    0.3524929901E-01    0.2176195715E+00    0.4378021768E-04
    0.1100000000E+05    0.2174554386E-02    0.6958013114E+00    0.3757024109E-01    0.2443805239E+00    0.4427252285E-04
    0.1300000000E+05    0.2151442023E-02    0.6958301053E+00    0.3914000629E-01    0.2674172761E+00    0.4468637205E-04
    0.1500000000E+05    0.2102496777E-02    0.6958511720E+00    0.4017373752E-01    0.2875362041E+00    0.4504383363E-04
    0.1700000000E+05    0.2038603492E-02    0.6958672439E+00    0.4081773831E-01    0.3053169503E+00    0.4535875207E-04
    0.1900000000E+05    0.1966622481E-02    0.6958799019E+00    0.4117419471E-01    0.3211882076E+00    0.4564039636E-04
    0.2100000000E+05    0.1890918738E-02    0.6958901239E+00    0.4131609669E-01    0.3354748015E+00    0.4589528294E-04
    0.2300000000E+05    0.1814276788E-02    0.6958985475E+00    0.4129657780E-01    0.3484280362E+00    0.4612817122E-04
    0.2500000000E+05    0.1738463008E-02    0.6959056057E+00    0.4115494634E-01    0.3602458825E+00    0.4634264531E-04
    0.2700000000E+05    0.1664579257E-02    0.6959116033E+00    0.4092068674E-01    0.3710867846E+00    0.4654147295E-04
    0.2900000000E+05    0.1593289626E-02    0.6959167605E+00    0.4061617753E-01    0.3810793329E+00    0.4672683686E-04
    0.3100000000E+05    0.1524968212E-02    0.6959212409E+00    0.4025857654E-01    0.3903291892E+00    0.4690048932E-04
    0.3300000000E+05    0.1459796759E-02    0.6959251680E+00    0.3986115267E-01    0.3989241386E+00    0.4706385882E-04
    0.3500000000E+05    0.1397829889E-02    0.6959286374E+00    0.3943424222E-01    0.4069378408E+00    0.4721812550E-04
    0.3700000000E+05    0.1339039062E-02    0.6959317237E+00    0.3898594595E-01    0.4144326565E+00    0.4736427575E-04
    0.3900000000E+05    0.1283342398E-02    0.6959344861E+00    0.3852264381E-01    0.4214618096E+00    0.4750314262E-04
    0.4100000000E+05    0.1230624982E-02    0.6959369725E+00    0.3804937961E-01    0.4280710608E+00    0.4763543615E-04
    0.4300000000E+05    0.1180752702E-02    0.6959392217E+00    0.3757015167E-01    0.4343000181E+00    0.4776176653E-04
    0.4500000000E+05    0.1133581664E-02    0.6959412654E+00    0.3708813456E-01    0.4401831756E+00    0.4788266207E-04
    0.4700000000E+05    0.1088964557E-02    0.6959431302E+00    0.3660584984E-01    0.4457507431E+00    0.4799858328E-04
    0.4900000000E+05    0.1046754895E-02    0.6959448381E+00    0.3612529850E-01    0.4510293161E+00    0.4810993404E-04
    0.1000000000E+05    0.2171307846E-02    0.6957825645E+00    0.3652079226E-01    0.2315278038E+00    0.4403804830E-04
    0.3000000000E+05    0.1558742915E-02    0.6959190768E+00    0.4044310576E-01    0.3857912412E+00    0.4681503115E-04
    0.5000000000E+05    0.1026508013E-02    0.6959456392E+00    0.3588618181E-01    0.4535676886E+00    0.4816400847E-04
    0.7000000000E+05    0.7167569744E-03    0.6959567100E+00    0.3143420070E-01    0.4936659890E+00    0.4907353073E-04
    0.9000000000E+05    0.5271834857E-03    0.6959626847E+00    0.2775768830E-01    0.5206305511E+00    0.4976398497E-04
    0.1100000000E+06    0.4037452054E-03    0.6959663737E+00    0.2477558104E-01    0.5401532739E+00    0.5032224195E-04
    0.1300000000E+06    0.3191035856E-03    0.6959688484E+00    0.2233810585E-01    0.5549979674E+00    0.5079173751E-04
    0.1500000000E+06    0.2585963739E-03    0.6959706046E+00    0.2031968065E-01    0.5666910322E+00    0.5119738655E-04
    0.1700000000E+06    0.2138569035E-03    0.6959719024E+00    0.1862567077E-01    0.5761518683E+00    0.5155483684E-04
    0.1900000000E+06    0.1798453472E-03    0.6959728910E+00    0.1718607960E-01    0.5839702738E+00    0.5187457321E-04
    0.2100000000E+06    0.1533836376E-03    0.6959736620E+00    0.1594888415E-01    0.5905432671E+00    0.5216397144E-04
    0.2300000000E+06    0.1323886738E-03    0.6959742746E+00    0.1487494798E-01    0.5961484938E+00    0.5242842110E-04
    0.2500000000E+06    0.1154493731E-03    0.6959747685E+00    0.1393440948E-01    0.6009862498E+00    0.5267198246E-04
    0.2700000000E+06    0.1015824719E-03    0.6959751717E+00    0.1310415759E-01    0.6052048194E+00    0.5289779195E-04
    0.2900000000E+06    0.9008582703E-04    0.6959755040E+00    0.1236606190E-01    0.6089164143E+00    0.5310832368E-04
    0.3100000000E+06    0.8044718907E-04    0.6959757800E+00    0.1170571889E-01    0.6122075630E+00    0.5330556431E-04
    0.3300000000E+06    0.7228572694E-04    0.6959760108E+00    0.1111155214E-01    0.6151460902E+00    0.5349113373E-04
    0.3500000000E+06    0.6531353078E-04    0.6959762048E+00    0.1057415765E-01    0.6177859298E+00    0.5366637038E-04
    0.3700000000E+06    0.5930965853E-04    0.6959763684E+00    0.1008582120E-01    0.6201705185E+00    0.5383239318E-04
    0.3900000000E+06    0.5410226431E-04    0.6959765067E+00    0.9640157612E-02    0.6223352388E+00    0.5399014718E-04
    0.4100000000E+06    0.4955605524E-04    0.6959766239E+00    0.9231838068E-02    0.6243092077E+00    0.5414043799E-04
    0.4300000000E+06    0.4556333530E-04    0.6959767232E+00    0.8856381445E-02    0.6261166080E+00    0.5428395800E-04
    0.4500000000E+06    0.4203750985E-04    0.6959768073E+00    0.8509992967E-02    0.6277776932E+00    0.5442130676E-04
    0.4700000000E+06    0.3890830723E-04    0.6959768785E+00    0.8189438187E-02    0.6293095558E+00    0.5455300689E-04
    0.4900000000E+06    0.3611821740E-04    0.6959769384E+00    0.7891943632E-02    0.6307267222E+00    0.5467951680E-04
    0.1000000000E+06    0.4593155841E-03    0.6959647276E+00    0.2618945302E-01    0.5311088128E+00    0.5005631941E-04
    0.3000000000E+06    0.8506061279E-04    0.6959756483E+00    0.1202695244E-01    0.6106099318E+00    0.5320849668E-04
    0.5000000000E+06    0.3483518247E-04    0.6959769647E+00    0.7751083490E-02    0.6313962486E+00    0.5474095364E-04
    0.7000000000E+06    0.1891612884E-04    0.6959771641E+00    0.5707325900E-02    0.6410089342E+00    0.5577437647E-04
    0.9000000000E+06    0.1188731350E-04    0.6959770701E+00    0.4512036270E-02    0.6465498187E+00    0.5655895341E-04
    0.1100000000E+07    0.8170081011E-05    0.6959768785E+00    0.3728426305E-02    0.6501533876E+00    0.5719334115E-04
    0.1300000000E+07    0.5965927117E-05    0.6959766534E+00    0.3175379002E-02    0.6526841186E+00    0.5772687832E-04
    0.1500000000E+07    0.4551151510E-05    0.6959764200E+00    0.2764350068E-02    0.6545587980E+00    0.5818786905E-04
    0.1700000000E+07    0.3588584310E-05    0.6959761886E+00    0.2446952577E-02    0.6560031104E+00    0.5859409116E-04
    0.1900000000E+07    0.2903777955E-05    0.6959759639E+00    0.2194520714E-02    0.6571498972E+00    0.5895745737E-04
    0.2100000000E+07    0.2399055873E-05    0.6959757476E+00    0.1988996631E-02    0.6580824426E+00    0.5928634832E-04
    0.2300000000E+07    0.2016240316E-05    0.6959755404E+00    0.1818441535E-02    0.6588556088E+00    0.5958688805E-04
    0.2500000000E+07    0.1718912616E-05    0.6959753422E+00    0.1674647592E-02    0.6595070055E+00    0.5986369026E-04
    0.2700000000E+07    0.1483322692E-05    0.6959751527E+00    0.1551786882E-02    0.6600632764E+00    0.6012031895E-04
    0.2900000000E+07    0.1293441918E-05    0.6959749714E+00    0.1445607582E-02    0.6605438231E+00    0.6035958558E-04
    0.3100000000E+07    0.1138132778E-05    0.6959747978E+00    0.1352935206E-02    0.6609631093E+00    0.6058374773E-04
    0.3300000000E+07    0.1009459644E-05    0.6959746313E+00    0.1271351904E-02    0.6613321371E+00    0.6079464619E-04
    0.3500000000E+07    0.9016434216E-06    0.6959744716E+00    0.1198983837E-02    0.6616594238E+00    0.6099380197E-04
    0.3700000000E+07    0.8103939846E-06    0.6959743180E+00    0.1134356419E-02    0.6619516660E+00    0.6118248660E-04
    0.3900000000E+07    0.7324719965E-06    0.6959741702E+00    0.1076293417E-02    0.6622142011E+00    0.6136177406E-04
    0.4100000000E+07    0.6653942122E-06    0.6959740278E+00    0.1023845175E-02    0.6624513355E+00    0.6153257985E-04
    0.4300000000E+07    0.6072309532E-06    0.6959738905E+00    0.9762365960E-03    0.6626665819E+00    0.6169569084E-04
    0.4500000000E+07    0.5564642039E-06    0.6959737578E+00    0.9328288231E-03    0.6628628343E+00    0.6185178834E-04
    0.4700000000E+07    0.5118864338E-06    0.6959736295E+00    0.8930905817E-03    0.6630424982E+00    0.6200146631E-04
    0.4900000000E+07    0.4725273088E-06    0.6959735053E+00    0.8565764639E-03    0.6632075895E+00    0.6214524569E-04
    0.1000000000E+07    0.9766754453E-05    0.6959769811E+00    0.4083277888E-02    0.6485242231E+00    0.5689115137E-04
    0.3000000000E+07    0.1212022337E-05    0.6959748837E+00    0.1397748979E-02    0.6607603684E+00    0.6047343119E-04
    0.5000000000E+07    0.4545528124E-06    0.6959734446E+00    0.8394085587E-03    0.6632852130E+00    0.6221506913E-04
    0.7000000000E+07    0.2385172272E-06    0.6959723965E+00    0.5987115687E-03    0.6643738483E+00    0.6338956553E-04
    0.9000000000E+07    0.1476847226E-06    0.6959715709E+00    0.4648216618E-03    0.6649799769E+00    0.6428124892E-04
    0.1100000000E+08    0.1009609448E-06    0.6959708880E+00    0.3796276400E-03    0.6653660572E+00    0.6500224117E-04
    0.1300000000E+08    0.7373095775E-07    0.6959703047E+00    0.3206834029E-03    0.6656334503E+00    0.6560861552E-04
    0.1500000000E+08    0.5644984734E-07    0.6959697947E+00    0.2774931498E-03    0.6658295650E+00    0.6613253976E-04
    0.1700000000E+08    0.4478093170E-07    0.6959693410E+00    0.2444950591E-03    0.6659795342E+00    0.6659421853E-04
    0.1900000000E+08    0.3652070700E-07    0.6959689320E+00    0.2184679206E-03    0.6660979213E+00    0.6700719081E-04
    0.2100000000E+08    0.3045203359E-07    0.6959685593E+00    0.1974175513E-03    0.6661937465E+00    0.6738098129E-04
    0.2300000000E+08    0.2585752526E-07    0.6959682168E+00    0.1800435877E-03    0.6662728948E+00    0.6772255007E-04
    0.2500000000E+08    0.2229179972E-07    0.6959678998E+00    0.1654620213E-03    0.6663393689E+00    0.6803714067E-04
    0.2700000000E+08    0.1946631604E-07    0.6959676045E+00    0.1530509883E-03    0.6663959857E+00    0.6832880367E-04
