  Pressure (Pa) 23mC5-500 (mol/kg) 24mC5-500 (mol/kg) 2mC6-500 (mol/kg) 3mC6-500 (mol/kg) C7-500 (mol/kg)
    0.1000000000E+01    0.1362094980E-05    0.9949754659E-01    0.1541955850E-04    0.4803069021E-05    0.4193904966E-02
    0.3000000000E+01    0.3005914815E-05    0.2321007240E+00    0.3270584845E-04    0.1228999292E-04    0.4243334042E-02
    0.5000000000E+01    0.3936956435E-05    0.3164502940E+00    0.4176262188E-04    0.1918339033E-04    0.4272970078E-02
    0.7000000000E+01    0.4518853773E-05    0.3748315020E+00    0.4716098670E-04    0.2579352200E-04    0.4293346119E-02
    0.9000000000E+01    0.4910310497E-05    0.4176372730E+00    0.5076944029E-04    0.3222501896E-04    0.4308264922E-02
    0.1100000000E+02    0.5190116349E-05    0.4503673116E+00    0.5345281935E-04    0.3853021246E-04    0.4319659717E-02
    0.1300000000E+02    0.5401018418E-05    0.4762046562E+00    0.5564575779E-04    0.4474023576E-04    0.4328636937E-02
    0.1500000000E+02    0.5567781768E-05    0.4971193009E+00    0.5757970998E-04    0.5087559573E-04    0.4335879434E-02
    0.1700000000E+02    0.5705495982E-05    0.5143957964E+00    0.5938307501E-04    0.5695074650E-04    0.4341832702E-02
    0.1900000000E+02    0.5823728707E-05    0.5289075163E+00    0.6112906222E-04    0.6297638312E-04    0.4346800287E-02
    0.2100000000E+02    0.5928743670E-05    0.5412689892E+00    0.6286005561E-04    0.6896071460E-04    0.4350996411E-02
    0.2300000000E+02    0.6024749774E-05    0.5519251791E+00    0.6460065251E-04    0.7491022523E-04    0.4354576733E-02
    0.2500000000E+02    0.6114636105E-05    0.5612061968E+00    0.6636493014E-04    0.8083015668E-04    0.4357657172E-02
    0.2700000000E+02    0.6200420699E-05    0.5693621110E+00    0.6816063219E-04    0.8672482753E-04    0.4360325890E-02
    0.2900000000E+02    0.6283533270E-05    0.5765858224E+00    0.6999164701E-04    0.9259785312E-04    0.4362651175E-02
    0.3100000000E+02    0.6364998220E-05    0.5830285170E+00    0.7185950745E-04    0.9845230151E-04    0.4364686772E-02
    0.3300000000E+02    0.6445555915E-05    0.5888103641E+00    0.7376431447E-04    0.1042908070E-03    0.4366475580E-02
    0.3500000000E+02    0.6525744718E-05    0.5940280824E+00    0.7570531362E-04    0.1101156549E-03    0.4368052273E-02
    0.3700000000E+02    0.6605957493E-05    0.5987603943E+00    0.7768125798E-04    0.1159288454E-03    0.4369445194E-02
    0.3900000000E+02    0.6686481149E-05    0.6030720257E+00    0.7969063781E-04    0.1217321435E-03    0.4370677744E-02
    0.4100000000E+02    0.6767524719E-05    0.6070166842E+00    0.8173182568E-04    0.1275271179E-03    0.4371769424E-02
    0.4300000000E+02    0.6849239538E-05    0.6106393084E+00    0.8380316751E-04    0.1333151715E-03    0.4372736620E-02
    0.4500000000E+02    0.6931733921E-05    0.6139777866E+00    0.8590303868E-04    0.1390975669E-03    0.4373593204E-02
    0.4700000000E+02    0.7015083944E-05    0.6170642883E+00    0.8802987756E-04    0.1448754459E-03    0.4374351003E-02
    0.4900000000E+02    0.7099341427E-05    0.6199263029E+00    0.9018220429E-04    0.1506498465E-03    0.4375020166E-02
    0.1000000000E+02    0.5060934215E-05    0.4350254989E+00    0.5219308733E-04    0.3539112953E-04    0.4314320572E-02
    0.3000000000E+02    0.6324419880E-05    0.5798966603E+00    0.7092093971E-04    0.9552722576E-04    0.4363702284E-02
    0.5000000000E+02    0.7141821530E-05    0.6212806443E+00    0.9126748792E-04    0.1535360417E-03    0.4375324294E-02
    0.7000000000E+02    0.8041644878E-05    0.6408825531E+00    0.1140246208E-03    0.2112705870E-03    0.4378359675E-02
    0.9000000000E+02    0.9028561263E-05    0.6523165252E+00    0.1382761012E-03    0.2693880483E-03    0.4377909543E-02
    0.1100000000E+03    0.1008711810E-04    0.6598074258E+00    0.1636118866E-03    0.3282425510E-03    0.4375621313E-02
    0.1300000000E+03    0.1120609950E-04    0.6650948755E+00    0.1898515845E-03    0.3880677187E-03    0.4372195806E-02
    0.1500000000E+03    0.1237854133E-04    0.6690263744E+00    0.2169174440E-03    0.4490388143E-03    0.4367983073E-02
    0.1700000000E+03    0.1360031720E-04    0.6720641922E+00    0.2447816976E-03    0.5112996568E-03    0.4363177108E-02
    0.1900000000E+03    0.1486913044E-04    0.6744819153E+00    0.2734431240E-03    0.5749761732E-03    0.4357893228E-02
    0.2100000000E+03    0.1618389157E-04    0.6764518005E+00    0.3029158131E-03    0.6401839916E-03    0.4352203265E-02
    0.2300000000E+03    0.1754433856E-04    0.6780877118E+00    0.3332234420E-03    0.7070330671E-03    0.4346153233E-02
    0.2500000000E+03    0.1895080196E-04    0.6794679295E+00    0.3643962241E-03    0.7756307031E-03    0.4339772898E-02
    0.2700000000E+03    0.2040405664E-04    0.6806480437E+00    0.3964692373E-03    0.8460836537E-03    0.4333081285E-02
    0.2900000000E+03    0.2190522692E-04    0.6816686198E+00    0.4294815015E-03    0.9184996730E-03    0.4326089998E-02
    0.3100000000E+03    0.2345572518E-04    0.6825599527E+00    0.4634754841E-03    0.9929887239E-03    0.4318805311E-02
    0.3300000000E+03    0.2505721234E-04    0.6833451244E+00    0.4984968613E-03    0.1069663972E-02    0.4311229514E-02
    0.3500000000E+03    0.2671157285E-04    0.6840420295E+00    0.5345944393E-03    0.1148642643E-02    0.4303361811E-02
    0.3700000000E+03    0.2842089988E-04    0.6846647549E+00    0.5718201803E-03    0.1230046799E-02    0.4295198933E-02
    0.3900000000E+03    0.3018748755E-04    0.6852245417E+00    0.6102293020E-03    0.1314004065E-02    0.4286735545E-02
    0.4100000000E+03    0.3201382860E-04    0.6857304691E+00    0.6498804311E-03    0.1400648340E-02    0.4277964536E-02
    0.4300000000E+03    0.3390261610E-04    0.6861899503E+00    0.6908357997E-03    0.1490120494E-02    0.4268877213E-02
    0.4500000000E+03    0.3585674837E-04    0.6866090976E+00    0.7331614792E-03    0.1582569090E-02    0.4259463430E-02
    0.4700000000E+03    0.3787933674E-04    0.6869929962E+00    0.7769276466E-03    0.1678151124E-02    0.4249711667E-02
    0.4900000000E+03    0.3997371567E-04    0.6873459109E+00    0.8222088840E-03    0.1777032797E-02    0.4239609078E-02
    0.1000000000E+03    0.9549702955E-05    0.6564153612E+00    0.1508230874E-03    0.2987067343E-03    0.4376939418E-02
    0.3000000000E+03    0.2267421172E-04    0.6821288576E+00    0.4463529969E-03    0.9554780823E-03    0.4322484106E-02
    0.5000000000E+03    0.4104893260E-04    0.6875118978E+00    0.8454422461E-03    0.1827765656E-02    0.4234421850E-02
    0.7000000000E+03    0.6736585833E-04    0.6898434051E+00    0.1412592717E-02    0.3066408352E-02    0.4107954682E-02
    0.9000000000E+03    0.1073419744E-03    0.6911445946E+00    0.2272541894E-02    0.4946724155E-02    0.3919099820E-02
    0.1100000000E+04    0.1728290932E-03    0.6919745673E+00    0.3681906132E-02    0.8034218714E-02    0.3618076172E-02
    0.1300000000E+04    0.2891115713E-03    0.6925498965E+00    0.6189201633E-02    0.1354156236E-01    0.3104125500E-02
    0.1500000000E+04    0.4993821820E-03    0.6929720878E+00    0.1073984954E-01    0.2357867661E-01    0.2229998184E-02
    0.1700000000E+04    0.7927728668E-03    0.6932950351E+00    0.1713742242E-01    0.3780140350E-01    0.1143259222E-02
    0.1900000000E+04    0.1015002305E-02    0.6935500049E+00    0.2207011718E-01    0.4896713829E-01    0.5196489870E-03
    0.2100000000E+04    0.1137441835E-02    0.6937563816E+00    0.2488478014E-01    0.5555941377E-01    0.3515546580E-03
    0.2300000000E+04    0.1223298050E-02    0.6939268222E+00    0.2692875201E-01    0.6050418949E-01    0.3195299829E-03
    0.2500000000E+04    0.1297857785E-02    0.6940699408E+00    0.2874578859E-01    0.6499358143E-01    0.3147839694E-03
    0.2700000000E+04    0.1366996943E-02    0.6941918036E+00    0.3046190456E-01    0.6930345015E-01    0.3150079235E-03
    0.2900000000E+04    0.1432070877E-02    0.6942968057E+00    0.3210521480E-01    0.7349346844E-01    0.3160738105E-03
    0.3100000000E+04    0.1493514475E-02    0.6943882093E+00    0.3368386209E-01    0.7757907642E-01    0.3172317534E-03
    0.3300000000E+04    0.1551570852E-02    0.6944684866E+00    0.3520188438E-01    0.8156671535E-01    0.3183502832E-03
    0.3500000000E+04    0.1606435198E-02    0.6945395454E+00    0.3666235987E-01    0.8546084395E-01    0.3194111433E-03
    0.3700000000E+04    0.1658283780E-02    0.6946028811E+00    0.3806803878E-01    0.8926534578E-01    0.3204162805E-03
    0.3900000000E+04    0.1707280378E-02    0.6946596826E+00    0.3942147900E-01    0.9298382327E-01    0.3213706512E-03
    0.4100000000E+04    0.1753578213E-02    0.6947109069E+00    0.4072508234E-01    0.9661966840E-01    0.3222791182E-03
    0.4300000000E+04    0.1797320922E-02    0.6947573331E+00    0.4198111019E-01    0.1001760876E+00    0.3231459788E-03
    0.4500000000E+04    0.1838643297E-02    0.6947996017E+00    0.4319169434E-01    0.1036561162E+00    0.3239749710E-03
    0.4700000000E+04    0.1877671921E-02    0.6948382442E+00    0.4435884614E-01    0.1070626307E+00    0.3247693508E-03
    0.4900000000E+04    0.1914525757E-02    0.6948737054E+00    0.4548446476E-01    0.1103983585E+00    0.3255319691E-03
    0.1000000000E+04    0.1357518410E-03    0.6916009097E+00    0.2883757210E-02    0.6284886538E-02    0.3787328978E-02
    0.3000000000E+04    0.1463229464E-02    0.6943440374E+00    0.3290233144E-01    0.7554884115E-01    0.3166544247E-03
    0.5000000000E+04    0.1932172354E-02    0.6948903625E+00    0.4603226383E-01    0.1120404916E+00    0.3259021639E-03
    0.7000000000E+04    0.2194807692E-02    0.6951226879E+00    0.5519498497E-01    0.1417307600E+00    0.3321161330E-03
    0.9000000000E+04    0.2333440856E-02    0.6952506587E+00    0.6174254255E-01    0.1666104697E+00    0.3368207377E-03
    0.1100000000E+05    0.2395195026E-02    0.6953313685E+00    0.6649252919E-01    0.1879375439E+00    0.3406187068E-03
    0.1300000000E+05    0.2408322766E-02    0.6953867303E+00    0.6996559401E-01    0.2065492442E+00    0.3438096165E-03
    0.1500000000E+05    0.2390381608E-02    0.6954269460E+00    0.7250731530E-01    0.2230266381E+00    0.3465646719E-03
    0.1700000000E+05    0.2352594331E-02    0.6954574027E+00    0.7435499099E-01    0.2377871318E+00    0.3489911278E-03
    0.1900000000E+05    0.2302294112E-02    0.6954812111E+00    0.7567624166E-01    0.2511393577E+00    0.3511607195E-03
    0.2100000000E+05    0.2244353838E-02    0.6955002917E+00    0.7659233236E-01    0.2633171973E+00    0.3531238406E-03
    0.2300000000E+05    0.2182051221E-02    0.6955158935E+00    0.7719280023E-01    0.2745016729E+00    0.3549172745E-03
    0.2500000000E+05    0.2117608129E-02    0.6955288633E+00    0.7754492836E-01    0.2848354924E+00    0.3565687077E-03
    0.2700000000E+05    0.2052535430E-02    0.6955397955E+00    0.7770005483E-01    0.2944329859E+00    0.3580995120E-03
    0.2900000000E+05    0.1987858342E-02    0.6955491192E+00    0.7769787770E-01    0.3033870604E+00    0.3595265357E-03
    0.3100000000E+05    0.1924266503E-02    0.6955571517E+00    0.7756945628E-01    0.3117741756E+00    0.3608633012E-03
    0.3300000000E+05    0.1862215551E-02    0.6955641328E+00    0.7733934362E-01    0.3196579712E+00    0.3621208290E-03
    0.3500000000E+05    0.1801996880E-02    0.6955702470E+00    0.7702712802E-01    0.3270919574E+00    0.3633082219E-03
    0.3700000000E+05    0.1743786113E-02    0.6955756383E+00    0.7664856423E-01    0.3341215428E+00    0.3644330870E-03
    0.3900000000E+05    0.1687677161E-02    0.6955804209E+00    0.7621641536E-01    0.3407855828E+00    0.3655018475E-03
    0.4100000000E+05    0.1633706358E-02    0.6955846865E+00    0.7574108725E-01    0.3471175789E+00    0.3665199773E-03
    0.4300000000E+05    0.1581869689E-02    0.6955885094E+00    0.7523111203E-01    0.3531466170E+00    0.3674921801E-03
    0.4500000000E+05    0.1532135170E-02    0.6955919505E+00    0.7469352057E-01    0.3588981103E+00    0.3684225279E-03
    0.4700000000E+05    0.1484451772E-02    0.6955950603E+00    0.7413413206E-01    0.3643943936E+00    0.3693145696E-03
    0.4900000000E+05    0.1438755879E-02    0.6955978809E+00    0.7355778132E-01    0.3696552014E+00    0.3701714176E-03
    0.1000000000E+05    0.2371840970E-02    0.6952951397E+00    0.6430452472E-01    0.1776582975E+00    0.3388101339E-03
    0.3000000000E+05    0.1955893747E-02    0.6955532803E+00    0.7764778090E-01    0.3076472453E+00    0.3602054611E-03
    0.5000000000E+05    0.1416631102E-02    0.6955991939E+00    0.7326453181E-01    0.3722028557E+00    0.3705875143E-03
    0.7000000000E+05    0.1060016976E-02    0.6956164716E+00    0.6719404258E-01    0.4141761959E+00    0.3775855224E-03
    0.9000000000E+05    0.8218921763E-03    0.6956247275E+00    0.6149727527E-01    0.4445777927E+00    0.3828973107E-03
    0.1100000000E+06    0.6562314176E-03    0.6956291184E+00    0.5648940897E-01    0.4679463033E+00    0.3871917601E-03
    0.1300000000E+06    0.5364898464E-03    0.6956315555E+00    0.5214684857E-01    0.4866115705E+00    0.3908032233E-03
    0.1500000000E+06    0.4471095648E-03    0.6956328969E+00    0.4837951239E-01    0.5019321269E+00    0.3939234533E-03
    0.1700000000E+06    0.3785845493E-03    0.6956335793E+00    0.4509491530E-01    0.5147689904E+00    0.3966728666E-03
    0.1900000000E+06    0.3248603662E-03    0.6956338452E+00    0.4221293952E-01    0.5257009767E+00    0.3991321417E-03
    0.2100000000E+06    0.2819357972E-03    0.6956338382E+00    0.3966754414E-01    0.5351346995E+00    0.4013580299E-03
    0.2300000000E+06    0.2470803992E-03    0.6956336479E+00    0.3740510265E-01    0.5433657578E+00    0.4033919983E-03
    0.2500000000E+06    0.2183785074E-03    0.6956333321E+00    0.3538215412E-01    0.5506150452E+00    0.4052652848E-03
    0.2700000000E+06    0.1944533212E-03    0.6956329298E+00    0.3356335096E-01    0.5570514184E+00    0.4070020191E-03
    0.2900000000E+06    0.1742942544E-03    0.6956324675E+00    0.3191977335E-01    0.5628064420E+00    0.4086212346E-03
    0.3100000000E+06    0.1571456346E-03    0.6956319638E+00    0.3042759702E-01    0.5679843101E+00    0.4101382149E-03
    0.3300000000E+06    0.1424330311E-03    0.6956314322E+00    0.2906705467E-01    0.5726687142E+00    0.4115654210E-03
    0.3500000000E+06    0.1297133296E-03    0.6956308822E+00    0.2782162875E-01    0.5769277154E+00    0.4129131493E-03
    0.3700000000E+06    0.1186401798E-03    0.6956303207E+00    0.2667742270E-01    0.5808172730E+00    0.4141900070E-03
    0.3900000000E+06    0.1089396268E-03    0.6956297531E+00    0.2562266882E-01    0.5843838485E+00    0.4154032639E-03
    0.4100000000E+06    0.1003926294E-03    0.6956291832E+00    0.2464734064E-01    0.5876663579E+00    0.4165591168E-03
    0.4300000000E+06    0.9282232320E-04    0.6956286137E+00    0.2374284570E-01    0.5906976570E+00    0.4176628918E-03
    0.4500000000E+06    0.8608460994E-04    0.6956280469E+00    0.2290178022E-01    0.5935056865E+00    0.4187192006E-03
    0.4700000000E+06    0.8006111354E-04    0.6956274844E+00    0.2211773192E-01    0.5961143645E+00    0.4197320634E-03
    0.4900000000E+06    0.7465384575E-04    0.6956269272E+00    0.2138512050E-01    0.5985442901E+00    0.4207050061E-03
    0.1000000000E+06    0.7320012530E-03    0.6956272493E+00    0.5890571055E-01    0.4569642019E+00    0.3851461551E-03
    0.3000000000E+06    0.1653831122E-03    0.6956322199E+00    0.3115608012E-01    0.5654618742E+00    0.4093916680E-03
    0.5000000000E+06    0.7215522581E-04    0.6956266510E+00    0.2103655478E-01    0.5996978907E+00    0.4211774937E-03
    0.7000000000E+06    0.4042516033E-04    0.6956215204E+00    0.1585373372E-01    0.6166731833E+00    0.4291250409E-03
    0.9000000000E+06    0.2588218506E-04    0.6956171359E+00    0.1270907207E-01    0.6268275071E+00    0.4351586997E-03
    0.1100000000E+07    0.1801068831E-04    0.6956133602E+00    0.1059960747E-01    0.6335856905E+00    0.4400372753E-03
    0.1300000000E+07    0.1326872082E-04    0.6956100578E+00    0.9087197732E-02    0.6384072371E+00    0.4441402378E-03
    0.1500000000E+07    0.1018971316E-04    0.6956071269E+00    0.7950195475E-02    0.6420199367E+00    0.4476852739E-03
    0.1700000000E+07    0.8076395078E-05    0.6956044934E+00    0.7064496052E-02    0.6448274887E+00    0.4508091104E-03
    0.1900000000E+07    0.6562481616E-05    0.6956021026E+00    0.6355223120E-02    0.6470718607E+00    0.4536033655E-03
    0.2100000000E+07    0.5440439244E-05    0.6955999134E+00    0.5774533612E-02    0.6489069128E+00    0.4561324922E-03
    0.2300000000E+07    0.4585477568E-05    0.6955978940E+00    0.5290433770E-02    0.6504351534E+00    0.4584435882E-03
    0.2500000000E+07    0.3918867536E-05    0.6955960197E+00    0.4880721376E-02    0.6517275114E+00    0.4605721356E-03
    0.2700000000E+07    0.3388930946E-05    0.6955942707E+00    0.4529508141E-02    0.6528346261E+00    0.4625455434E-03
    0.2900000000E+07    0.2960597304E-05    0.6955926309E+00    0.4225125445E-02    0.6537936160E+00    0.4643854332E-03
    0.3100000000E+07    0.2609381607E-05    0.6955910874E+00    0.3958811489E-02    0.6546323087E+00    0.4661091667E-03
    0.3300000000E+07    0.2317765681E-05    0.6955896292E+00    0.3723859714E-02    0.6553719758E+00    0.4677309005E-03
    0.3500000000E+07    0.2072945597E-05    0.6955882471E+00    0.3515049915E-02    0.6560291554E+00    0.4692623316E-03
    0.3700000000E+07    0.1865385777E-05    0.6955869335E+00    0.3328258328E-02    0.6566168994E+00    0.4707132386E-03
    0.3900000000E+07    0.1687865589E-05    0.6955856817E+00    0.3160184297E-02    0.6571456457E+00    0.4720918807E-03
    0.4100000000E+07    0.1534835547E-05    0.6955844861E+00    0.3008154793E-02    0.6576238412E+00    0.4734052984E-03
    0.4300000000E+07    0.1401973274E-05    0.6955833416E+00    0.2869982095E-02    0.6580583947E+00    0.4746595429E-03
    0.4500000000E+07    0.1285871355E-05    0.6955822440E+00    0.2743858498E-02    0.6584550117E+00    0.4758598537E-03
    0.4700000000E+07    0.1183814121E-05    0.6955811895E+00    0.2628277292E-02    0.6588184453E+00    0.4770107985E-03
    0.4900000000E+07    0.1093615525E-05    0.6955801748E+00    0.2521972652E-02    0.6591526871E+00    0.4781163833E-03
    0.1000000000E+07    0.2140949184E-04    0.6956151812E+00    0.1155966231E-01    0.6305149136E+00    0.4377133806E-03
    0.3000000000E+07    0.2776576528E-05    0.6955918479E+00    0.4087669467E-02    0.6542265412E+00    0.4652608695E-03
    0.5000000000E+07    0.1052394843E-05    0.6955796814E+00    0.2471957735E-02    0.6593099368E+00    0.4786532864E-03
    0.7000000000E+07    0.5553510485E-06    0.6955713292E+00    0.1768474189E-02    0.6615215453E+00    0.4876844065E-03
    0.9000000000E+07    0.3452691761E-06    0.6955649333E+00    0.1375312163E-02    0.6627577970E+00    0.4945407538E-03
    0.1100000000E+08    0.2368465478E-06    0.6955597345E+00    0.1124452277E-02    0.6635469323E+00    0.5000845425E-03
    0.1300000000E+08    0.1735078738E-06    0.6955553465E+00    0.9505705211E-03    0.6640941841E+00    0.5047469681E-03
    0.1500000000E+08    0.1332344785E-06    0.6955515451E+00    0.8229972456E-03    0.6644958913E+00    0.5087753938E-03
    0.1700000000E+08    0.1059965126E-06    0.6955481884E+00    0.7254349291E-03    0.6648032489E+00    0.5123251873E-03
    0.1900000000E+08    0.8668781168E-07    0.6955451808E+00    0.6484253082E-03    0.6650459716E+00    0.5155004585E-03
    0.2100000000E+08    0.7248354228E-07    0.6955424546E+00    0.5861037971E-03    0.6652424879E+00    0.5183744483E-03
    0.2300000000E+08    0.6171660819E-07    0.6955399605E+00    0.5346414837E-03    0.6654048319E+00    0.5210006766E-03
    0.2500000000E+08    0.5335087955E-07    0.6955376610E+00    0.4914327896E-03    0.6655411947E+00    0.5234194635E-03
    0.2700000000E+08    0.4671445912E-07    0.6955355270E+00    0.4546432686E-03    0.6656573448E+00    0.5256619556E-03
