  Pressure (Pa) 23mC5-500 (mol/kg) 24mC5-500 (mol/kg) 2mC6-500 (mol/kg) 3mC6-500 (mol/kg) C7-500 (mol/kg)
    0.1000000000E+01    0.1231089685E-05    0.1514018119E+00    0.1661812436E-04    0.3353535486E-05    0.4180947157E-02
    0.3000000000E+01    0.2392401780E-05    0.3164843667E+00    0.3080862141E-04    0.8523214699E-05    0.4212101577E-02
    0.5000000000E+01    0.2920818272E-05    0.4047512107E+00    0.3685335195E-04    0.1326748657E-04    0.4226706460E-02
    0.7000000000E+01    0.3215668687E-05    0.4596993117E+00    0.4040278951E-04    0.1780826916E-04    0.4235517123E-02
    0.9000000000E+01    0.3407280266E-05    0.4971994210E+00    0.4308469966E-04    0.2222014848E-04    0.4241396978E-02
    0.1100000000E+02    0.3548284464E-05    0.5244236349E+00    0.4546853104E-04    0.2654036606E-04    0.4245564639E-02
    0.1300000000E+02    0.3662942667E-05    0.5450868409E+00    0.4777525572E-04    0.3079105324E-04    0.4248638778E-02
    0.1500000000E+02    0.3763487418E-05    0.5613058243E+00    0.5009434349E-04    0.3498677522E-04    0.4250969383E-02
    0.1700000000E+02    0.3856489267E-05    0.5743751869E+00    0.5246114287E-04    0.3913779097E-04    0.4252770132E-02
    0.1900000000E+02    0.3945640310E-05    0.5851312019E+00    0.5488755748E-04    0.4325168662E-04    0.4254179199E-02
    0.2100000000E+02    0.4033080924E-05    0.5941381522E+00    0.5737514630E-04    0.4733428142E-04    0.4255290060E-02
    0.2300000000E+02    0.4120076058E-05    0.6017905943E+00    0.5992101076E-04    0.5139016920E-04    0.4256168305E-02
    0.2500000000E+02    0.4207378909E-05    0.6083727098E+00    0.6252052276E-04    0.5542306114E-04    0.4256861367E-02
    0.2700000000E+02    0.4295435165E-05    0.6140943785E+00    0.6516860062E-04    0.5943601284E-04    0.4257404431E-02
    0.2900000000E+02    0.4384501863E-05    0.6191139728E+00    0.6786029440E-04    0.6343158053E-04    0.4257824172E-02
    0.3100000000E+02    0.4474718606E-05    0.6235532448E+00    0.7059103583E-04    0.6741193180E-04    0.4258141193E-02
    0.3300000000E+02    0.4566151294E-05    0.6275073330E+00    0.7335672452E-04    0.7137892633E-04    0.4258371671E-02
    0.3500000000E+02    0.4658819498E-05    0.6310516570E+00    0.7615373553E-04    0.7533417587E-04    0.4258528493E-02
    0.3700000000E+02    0.4752713875E-05    0.6342467748E+00    0.7897889084E-04    0.7927908989E-04    0.4258622055E-02
    0.3900000000E+02    0.4847807375E-05    0.6371418717E+00    0.8182941660E-04    0.8321491075E-04    0.4258660841E-02
    0.4100000000E+02    0.4944062519E-05    0.6397773101E+00    0.8470289662E-04    0.8714274134E-04    0.4258651848E-02
    0.4300000000E+02    0.5041436139E-05    0.6421865232E+00    0.8759722740E-04    0.9106356699E-04    0.4258600896E-02
    0.4500000000E+02    0.5139882473E-05    0.6443974405E+00    0.9051057699E-04    0.9497827307E-04    0.4258512872E-02
    0.4700000000E+02    0.5239355162E-05    0.6464335757E+00    0.9344134839E-04    0.9888765935E-04    0.4258391906E-02
    0.4900000000E+02    0.5339808534E-05    0.6483148663E+00    0.9638814762E-04    0.1027924518E-03    0.4258241518E-02
    0.1000000000E+02    0.3482193595E-05    0.5118126046E+00    0.4429551182E-04    0.2439009795E-04    0.4243647490E-02
    0.3000000000E+02    0.4429461014E-05    0.6213996720E+00    0.6922105173E-04    0.6542353556E-04    0.4257994423E-02
    0.5000000000E+02    0.5390389093E-05    0.6492028617E+00    0.9786717066E-04    0.1047433343E-03    0.4258156251E-02
    0.7000000000E+02    0.6443954639E-05    0.6618952297E+00    0.1280637857E-03    0.1436542445E-03    0.4255453059E-02
    0.9000000000E+02    0.7559134633E-05    0.6691632818E+00    0.1591161129E-03    0.1826111867E-03    0.4251618557E-02
    0.1100000000E+03    0.8720018909E-05    0.6738719973E+00    0.1908255641E-03    0.2218528847E-03    0.4247184595E-02
    0.1300000000E+03    0.9918822065E-05    0.6771707932E+00    0.2231398275E-03    0.2615313937E-03    0.4242369130E-02
    0.1500000000E+03    0.1115168652E-04    0.6796104295E+00    0.2560578731E-03    0.3017561727E-03    0.4237277103E-02
    0.1700000000E+03    0.1241678045E-04    0.6814878583E+00    0.2895989680E-03    0.3426131457E-03    0.4231964247E-02
    0.1900000000E+03    0.1371339597E-04    0.6829773232E+00    0.3237911460E-03    0.3841742618E-03    0.4226461930E-02
    0.2100000000E+03    0.1504149234E-04    0.6841878073E+00    0.3586665366E-03    0.4265028127E-03    0.4220788272E-02
    0.2300000000E+03    0.1640145069E-04    0.6851909702E+00    0.3942593890E-03    0.4696566312E-03    0.4214953637E-02
    0.2500000000E+03    0.1779393571E-04    0.6860358654E+00    0.4306052419E-03    0.5136901384E-03    0.4208963573E-02
    0.2700000000E+03    0.1921981482E-04    0.6867572031E+00    0.4677406090E-03    0.5586557259E-03    0.4202820478E-02
    0.2900000000E+03    0.2068010962E-04    0.6873802354E+00    0.5057029051E-03    0.6046047338E-03    0.4196524587E-02
    0.3100000000E+03    0.2217596622E-04    0.6879237722E+00    0.5445304889E-03    0.6515881737E-03    0.4190074585E-02
    0.3300000000E+03    0.2370863730E-04    0.6884021127E+00    0.5842627607E-03    0.6996572842E-03    0.4183468002E-02
    0.3500000000E+03    0.2527947128E-04    0.6888263207E+00    0.6249402890E-03    0.7488639764E-03    0.4176701461E-02
    0.3700000000E+03    0.2688990646E-04    0.6892050908E+00    0.6666049499E-03    0.7992612044E-03    0.4169770848E-02
    0.3900000000E+03    0.2854146825E-04    0.6895453504E+00    0.7093000743E-03    0.8509032842E-03    0.4162671426E-02
    0.4100000000E+03    0.3023576875E-04    0.6898526868E+00    0.7530705991E-03    0.9038461784E-03    0.4155397910E-02
    0.4300000000E+03    0.3197450787E-04    0.6901316565E+00    0.7979632219E-03    0.9581477584E-03    0.4147944513E-02
    0.4500000000E+03    0.3375947581E-04    0.6903860122E+00    0.8440265605E-03    0.1013868052E-02    0.4140304978E-02
    0.4700000000E+03    0.3559255647E-04    0.6906188727E+00    0.8913113162E-03    0.1071069484E-02    0.4132472596E-02
    0.4900000000E+03    0.3747573165E-04    0.6908328514E+00    0.9398704424E-03    0.1129817111E-02    0.4124440209E-02
    0.1000000000E+03    0.8134475706E-05    0.6717449153E+00    0.1748937757E-03    0.2021856092E-03    0.4249458998E-02
    0.3000000000E+03    0.2142351675E-04    0.6876609587E+00    0.5250060994E-03    0.6279639583E-03    0.4193318981E-02
    0.5000000000E+03    0.3843675200E-04    0.6909334631E+00    0.9646451015E-03    0.1159791857E-02    0.4120346655E-02
    0.7000000000E+03    0.6086992711E-04    0.6923447530E+00    0.1542383878E-02    0.1859235881E-02    0.4025824313E-02
    0.9000000000E+03    0.9168452142E-04    0.6931308541E+00    0.2335675344E-02    0.2820982848E-02    0.3898811505E-02
    0.1100000000E+04    0.1360946576E-03    0.6936317410E+00    0.3479775516E-02    0.4210256788E-02    0.3720224163E-02
    0.1300000000E+04    0.2037539368E-03    0.6939787289E+00    0.5225150712E-02    0.6333565133E-02    0.3455793158E-02
    0.1500000000E+04    0.3128348847E-03    0.6942332553E+00    0.8044575559E-02    0.9771319547E-02    0.3044219521E-02
    0.1700000000E+04    0.4932365189E-03    0.6944279014E+00    0.1272106851E-01    0.1549147930E-01    0.2395549791E-02
    0.1900000000E+04    0.7619030355E-03    0.6945815525E+00    0.1971971453E-01    0.2409600403E-01    0.1500535387E-02
    0.2100000000E+04    0.1041238299E-02    0.6947059097E+00    0.2706580731E-01    0.3321663868E-01    0.6962914141E-03
    0.2300000000E+04    0.1228636341E-02    0.6948086093E+00    0.3209211118E-01    0.3958195369E-01    0.3071147715E-03
    0.2500000000E+04    0.1343552892E-02    0.6948948463E+00    0.3527092845E-01    0.4372940521E-01    0.1869634714E-03
    0.2700000000E+04    0.1429665884E-02    0.6949682780E+00    0.3772206300E-01    0.4701326213E-01    0.1562075827E-03
    0.2900000000E+04    0.1505102234E-02    0.6950315534E+00    0.3991315707E-01    0.5000295322E-01    0.1489922744E-03
    0.3100000000E+04    0.1575260445E-02    0.6950866384E+00    0.4198334019E-01    0.5286786042E-01    0.1476083629E-03
    0.3300000000E+04    0.1641700306E-02    0.6951350225E+00    0.4397212201E-01    0.5565533845E-01    0.1476423630E-03
    0.3500000000E+04    0.1704945628E-02    0.6951778550E+00    0.4589204712E-01    0.5837959334E-01    0.1480084251E-03
    0.3700000000E+04    0.1765242714E-02    0.6952160366E+00    0.4774845926E-01    0.6104599287E-01    0.1484394394E-03
    0.3900000000E+04    0.1822759092E-02    0.6952502834E+00    0.4954470220E-01    0.6365749352E-01    0.1488703454E-03
    0.4100000000E+04    0.1877635681E-02    0.6952811717E+00    0.5128348753E-01    0.6621633532E-01    0.1492862483E-03
    0.4300000000E+04    0.1930000823E-02    0.6953091707E+00    0.5296726076E-01    0.6872449410E-01    0.1496846998E-03
    0.4500000000E+04    0.1979974359E-02    0.6953346659E+00    0.5459830460E-01    0.7118380628E-01    0.1500662510E-03
    0.4700000000E+04    0.2027669046E-02    0.6953579776E+00    0.5617877245E-01    0.7359600653E-01    0.1504320790E-03
    0.4900000000E+04    0.2073191262E-02    0.6953793734E+00    0.5771070286E-01    0.7596274192E-01    0.1507833990E-03
    0.1000000000E+04    0.1117279564E-03    0.6934062883E+00    0.2851890930E-02    0.3447529777E-02    0.3817633393E-02
    0.3000000000E+04    0.1540702764E-02    0.6950600173E+00    0.4095982996E-01    0.5144673879E-01    0.1479813349E-03
    0.5000000000E+04    0.2095169312E-02    0.6953894248E+00    0.5845907443E-01    0.7712955293E-01    0.1509539731E-03
    0.7000000000E+04    0.2442334796E-02    0.6955297308E+00    0.7129850098E-01    0.9842228860E-01    0.1538198049E-03
    0.9000000000E+04    0.2658098995E-02    0.6956071620E+00    0.8096916362E-01    0.1165602016E+00    0.1559921475E-03
    0.1100000000E+05    0.2787587672E-02    0.6956560973E+00    0.8839390535E-01    0.1323328300E+00    0.1577470737E-03
    0.1300000000E+05    0.2859013973E-02    0.6956897360E+00    0.9417656897E-01    0.1462757443E+00    0.1592221633E-03
    0.1500000000E+05    0.2890652238E-02    0.6957142263E+00    0.9872775344E-01    0.1587663805E+00    0.1604961704E-03
    0.1700000000E+05    0.2894684452E-02    0.6957328165E+00    0.1023356847E+00    0.1700792918E+00    0.1616184873E-03
    0.1900000000E+05    0.2879425254E-02    0.6957473832E+00    0.1052081763E+00    0.1804195975E+00    0.1626221762E-03
    0.2100000000E+05    0.2850661263E-02    0.6957590858E+00    0.1074985214E+00    0.1899440795E+00    0.1635304774E-03
    0.2300000000E+05    0.2812484892E-02    0.6957686787E+00    0.1093220430E+00    0.1987749605E+00    0.1643603628E-03
    0.2500000000E+05    0.2767828669E-02    0.6957766738E+00    0.1107669965E+00    0.2070091752E+00    0.1651246121E-03
    0.2700000000E+05    0.2718816309E-02    0.6957834306E+00    0.1119019454E+00    0.2147247766E+00    0.1658330933E-03
    0.2900000000E+05    0.2666998475E-02    0.6957892087E+00    0.1127808671E+00    0.2219854636E+00    0.1664935881E-03
    0.3100000000E+05    0.2613514165E-02    0.6957942005E+00    0.1134467607E+00    0.2288438477E+00    0.1671123431E-03
    0.3300000000E+05    0.2559203088E-02    0.6957985511E+00    0.1139342442E+00    0.2353438534E+00    0.1676944507E-03
    0.3500000000E+05    0.2504685084E-02    0.6958023725E+00    0.1142714535E+00    0.2415225103E+00    0.1682441174E-03
    0.3700000000E+05    0.2450417026E-02    0.6958057521E+00    0.1144814537E+00    0.2474113114E+00    0.1687648594E-03
    0.3900000000E+05    0.2396734076E-02    0.6958087592E+00    0.1145832999E+00    0.2530372569E+00    0.1692596458E-03
    0.4100000000E+05    0.2343879911E-02    0.6958114496E+00    0.1145928464E+00    0.2584236652E+00    0.1697310075E-03
    0.4300000000E+05    0.2292029096E-02    0.6958138684E+00    0.1145233697E+00    0.2635908109E+00    0.1701811191E-03
    0.4500000000E+05    0.2241303777E-02    0.6958160528E+00    0.1143860530E+00    0.2685564314E+00    0.1706118638E-03
    0.4700000000E+05    0.2191786235E-02    0.6958180335E+00    0.1141903676E+00    0.2733361334E+00    0.1710248826E-03
    0.4900000000E+05    0.2143528393E-02    0.6958198360E+00    0.1139443746E+00    0.2779437216E+00    0.1714216151E-03
    0.1000000000E+05    0.2731570359E-02    0.6956341187E+00    0.8491889059E-01    0.1247041373E+00    0.1569112685E-03
    0.3000000000E+05    0.2640406195E-02    0.6957917929E+00    0.1131381074E+00    0.2254620181E+00    0.1668078413E-03
    0.5000000000E+05    0.2119881602E-02    0.6958206774E+00    0.1138047066E+00    0.2801868613E+00    0.1716142766E-03
    0.7000000000E+05    0.1712948716E-02    0.6958319444E+00    0.1096049780E+00    0.3183865399E+00    0.1748547438E-03
    0.9000000000E+05    0.1411717424E-02    0.6958375817E+00    0.1043721531E+00    0.3477948085E+00    0.1773146440E-03
    0.1100000000E+06    0.1185253168E-02    0.6958407693E+00    0.9911457192E-01    0.3716380149E+00    0.1793035291E-03
    0.1300000000E+06    0.1010943999E-02    0.6958426967E+00    0.9413731873E-01    0.3916006504E+00    0.1809761679E-03
    0.1500000000E+06    0.8737624617E-03    0.6958439037E+00    0.8952447679E-01    0.4086871279E+00    0.1824213333E-03
    0.1700000000E+06    0.7636827302E-03    0.6958446675E+00    0.8528245705E-01    0.4235509571E+00    0.1836947777E-03
    0.1900000000E+06    0.6738624786E-03    0.6958451442E+00    0.8138983109E-01    0.4366442164E+00    0.1848338574E-03
    0.2100000000E+06    0.5995115030E-03    0.6958454270E+00    0.7781633885E-01    0.4482940993E+00    0.1858648513E-03
    0.2300000000E+06    0.5371941417E-03    0.6958455751E+00    0.7453045797E-01    0.4587457506E+00    0.1868069614E-03
    0.2500000000E+06    0.4843916868E-03    0.6958456274E+00    0.7150238024E-01    0.4681879224E+00    0.1876746536E-03
    0.2700000000E+06    0.4392212370E-03    0.6958456100E+00    0.6870505412E-01    0.4767691901E+00    0.1884791022E-03
    0.2900000000E+06    0.4002505442E-03    0.6958455416E+00    0.6611439824E-01    0.4846086536E+00    0.1892291216E-03
    0.3100000000E+06    0.3663731808E-03    0.6958454352E+00    0.6370916821E-01    0.4918032572E+00    0.1899317901E-03
    0.3300000000E+06    0.3367225283E-03    0.6958453005E+00    0.6147069233E-01    0.4984329478E+00    0.1905928785E-03
    0.3500000000E+06    0.3106113316E-03    0.6958451444E+00    0.5938257356E-01    0.5045644026E+00    0.1912171555E-03
    0.3700000000E+06    0.2874884487E-03    0.6958449725E+00    0.5743040038E-01    0.5102537823E+00    0.1918086073E-03
    0.3900000000E+06    0.2669073934E-03    0.6958447885E+00    0.5560148356E-01    0.5155488023E+00    0.1923706009E-03
    0.4100000000E+06    0.2485031148E-03    0.6958445958E+00    0.5388462419E-01    0.5204903179E+00    0.1929060063E-03
    0.4300000000E+06    0.2319746205E-03    0.6958443967E+00    0.5226991239E-01    0.5251135539E+00    0.1934172903E-03
    0.4500000000E+06    0.2170718131E-03    0.6958441931E+00    0.5074855444E-01    0.5294490714E+00    0.1939065888E-03
    0.4700000000E+06    0.2035854016E-03    0.6958439864E+00    0.4931272482E-01    0.5335235362E+00    0.1943757638E-03
    0.4900000000E+06    0.1913390909E-03    0.6958437778E+00    0.4795543980E-01    0.5373603371E+00    0.1948264484E-03
    0.1000000000E+06    0.1290763645E-02    0.6958393843E+00    0.1017193223E+00    0.3602848429E+00    0.1783561382E-03
    0.3000000000E+06    0.3827341717E-03    0.6958454925E+00    0.6488982880E-01    0.4882812171E+00    0.1895859875E-03
    0.5000000000E+06    0.1856333724E-03    0.6958436731E+00    0.4730427236E-01    0.5391961515E+00    0.1950453136E-03
    0.7000000000E+06    0.1101273546E-03    0.6958416218E+00    0.3718900825E-01    0.5673502725E+00    0.1987268058E-03
    0.9000000000E+06    0.7308380395E-04    0.6958397712E+00    0.3062352611E-01    0.5853147543E+00    0.2015217830E-03
    0.1100000000E+07    0.5211986573E-04    0.6958381368E+00    0.2601935045E-01    0.5977944163E+00    0.2037817142E-03
    0.1300000000E+07    0.3908603402E-04    0.6958366862E+00    0.2261252543E-01    0.6069740620E+00    0.2056823692E-03
    0.1500000000E+07    0.3042166496E-04    0.6958353865E+00    0.1999019123E-01    0.6140114307E+00    0.2073245815E-03
    0.1700000000E+07    0.2436548632E-04    0.6958342108E+00    0.1790968204E-01    0.6195785383E+00    0.2087716843E-03
    0.1900000000E+07    0.1996362364E-04    0.6958331381E+00    0.1621902452E-01    0.6240926253E+00    0.2100661163E-03
    0.2100000000E+07    0.1666234980E-04    0.6958321521E+00    0.1481819379E-01    0.6278265845E+00    0.2112377332E-03
    0.2300000000E+07    0.1412205801E-04    0.6958312398E+00    0.1363866793E-01    0.6309664692E+00    0.2123083515E-03
    0.2500000000E+07    0.1212494277E-04    0.6958303910E+00    0.1263193354E-01    0.6336435125E+00    0.2132944073E-03
    0.2700000000E+07    0.1052603657E-04    0.6958295973E+00    0.1176268152E-01    0.6359529426E+00    0.2142085971E-03
    0.2900000000E+07    0.9225783656E-05    0.6958288518E+00    0.1100460226E-01    0.6379655421E+00    0.2150609366E-03
    0.3100000000E+07    0.8153958944E-05    0.6958281491E+00    0.1033769125E-01    0.6397350207E+00    0.2158594682E-03
    0.3300000000E+07    0.7259864951E-05    0.6958274844E+00    0.9746467846E-02    0.6413028707E+00    0.2166107496E-03
    0.3500000000E+07    0.6506152305E-05    0.6958268537E+00    0.9218765408E-02    0.6427016540E+00    0.2173201992E-03
    0.3700000000E+07    0.5864809009E-05    0.6958262536E+00    0.8744889982E-02    0.6439572822E+00    0.2179923467E-03
    0.3900000000E+07    0.5314489642E-05    0.6958256813E+00    0.8317022797E-02    0.6450906315E+00    0.2186310182E-03
    0.4100000000E+07    0.4838695929E-05    0.6958251342E+00    0.7928787993E-02    0.6461187093E+00    0.2192394749E-03
    0.4300000000E+07    0.4424511854E-05    0.6958246102E+00    0.7574934622E-02    0.6470555103E+00    0.2198205200E-03
    0.4500000000E+07    0.4061708103E-05    0.6958241073E+00    0.7251099175E-02    0.6479126555E+00    0.2203765806E-03
    0.4700000000E+07    0.3742097466E-05    0.6958236239E+00    0.6953625805E-02    0.6486998746E+00    0.2209097726E-03
    0.4900000000E+07    0.3459063865E-05    0.6958231585E+00    0.6679428543E-02    0.6494253756E+00    0.2214219518E-03
    0.1000000000E+07    0.6126498362E-04    0.6958389288E+00    0.2813556672E-01    0.5920694879E+00    0.2027052002E-03
    0.3000000000E+07    0.8664858368E-05    0.6958284955E+00    0.1066080793E-01    0.6388778364E+00    0.2154664884E-03
    0.5000000000E+07    0.3329537783E-05    0.6958229321E+00    0.6550223125E-02    0.6497672027E+00    0.2216706808E-03
    0.7000000000E+07    0.1758071606E-05    0.6958190929E+00    0.4719233003E-02    0.6546090162E+00    0.2258545204E-03
    0.9000000000E+07    0.1088050454E-05    0.6958161458E+00    0.3684663748E-02    0.6573434952E+00    0.2290308911E-03
    0.1100000000E+08    0.7409151618E-06    0.6958137470E+00    0.3020254086E-02    0.6590994701E+00    0.2315992099E-03
    0.1300000000E+08    0.5378398030E-06    0.6958117204E+00    0.2557738639E-02    0.6603219587E+00    0.2337592278E-03
    0.1500000000E+08    0.4087241437E-06    0.6958099636E+00    0.2217360038E-02    0.6612217616E+00    0.2356255366E-03
    0.1700000000E+08    0.3214901606E-06    0.6958084115E+00    0.1956455945E-02    0.6619115987E+00    0.2372701112E-03
    0.1900000000E+08    0.2597578107E-06    0.6958070203E+00    0.1750147065E-02    0.6624571931E+00    0.2387411815E-03
    0.2100000000E+08    0.2144472668E-06    0.6958057589E+00    0.1582949538E-02    0.6628994453E+00    0.2400726770E-03
    0.2300000000E+08    0.1801931347E-06    0.6958046045E+00    0.1444724298E-02    0.6632651373E+00    0.2412893915E-03
    0.2500000000E+08    0.1536581891E-06    0.6958035400E+00    0.1328555139E-02    0.6635725385E+00    0.2424100039E-03
    0.2700000000E+08    0.1326775559E-06    0.6958025519E+00    0.1229563044E-02    0.6638345376E+00    0.2434489432E-03
