  Pressure (Pa) 23mC5-500 (mol/kg) 24mC5-500 (mol/kg) 2mC6-500 (mol/kg) 3mC6-500 (mol/kg) C7-500 (mol/kg)
    0.1000000000E+01    0.1535443466E-05    0.3665969352E-01    0.2115906785E-04    0.6710779676E-05    0.4185172952E-02
    0.3000000000E+01    0.4047942304E-05    0.9948388520E-01    0.5457480035E-04    0.1707199029E-04    0.4238124172E-02
    0.5000000000E+01    0.6031443716E-05    0.1513627061E+00    0.8006237900E-04    0.2659822866E-04    0.4278125656E-02
    0.7000000000E+01    0.7628413813E-05    0.1949278623E+00    0.9994373658E-04    0.3573186031E-04    0.4311281186E-02
    0.9000000000E+01    0.8934455603E-05    0.2320299193E+00    0.1157304882E-03    0.4462131160E-04    0.4339398048E-02
    0.1100000000E+02    0.1001692063E-04    0.2640081086E+00    0.1284649745E-03    0.5334060278E-04    0.4363582102E-02
    0.1300000000E+02    0.1092463345E-04    0.2918555299E+00    0.1388877590E-03    0.6193368099E-04    0.4384612125E-02
    0.1500000000E+02    0.1169378694E-04    0.3163241923E+00    0.1475368470E-03    0.7042945004E-04    0.4403065926E-02
    0.1700000000E+02    0.1235171660E-04    0.3379939916E+00    0.1548102820E-03    0.7884826037E-04    0.4419384988E-02
    0.1900000000E+02    0.1291940326E-04    0.3573192869E+00    0.1610071573E-03    0.8720515851E-04    0.4433913708E-02
    0.2100000000E+02    0.1341317892E-04    0.3746611291E+00    0.1663552522E-03    0.9551168823E-04    0.4446925217E-02
    0.2300000000E+02    0.1384591627E-04    0.3903100444E+00    0.1710300892E-03    0.1037769664E-03    0.4458639138E-02
    0.2500000000E+02    0.1422787483E-04    0.4045024537E+00    0.1751683366E-03    0.1120083634E-03    0.4469234207E-02
    0.2700000000E+02    0.1456731352E-04    0.4174327082E+00    0.1788773968E-03    0.1202119541E-03    0.4478857427E-02
    0.2900000000E+02    0.1487094089E-04    0.4292620486E+00    0.1822423714E-03    0.1283928270E-03    0.4487630862E-02
    0.3100000000E+02    0.1514425099E-04    0.4401253691E+00    0.1853311911E-03    0.1365553044E-03    0.4495656731E-02
    0.3300000000E+02    0.1539177683E-04    0.4501363878E+00    0.1881984392E-03    0.1447031017E-03    0.4503021306E-02
    0.3500000000E+02    0.1561728414E-04    0.4593916451E+00    0.1908882350E-03    0.1528394465E-03    0.4509797922E-02
    0.3700000000E+02    0.1582392081E-04    0.4679736298E+00    0.1934364288E-03    0.1609671686E-03    0.4516049317E-02
    0.3900000000E+02    0.1601433353E-04    0.4759532458E+00    0.1958722907E-03    0.1690887698E-03    0.4521829496E-02
    0.4100000000E+02    0.1619075943E-04    0.4833917772E+00    0.1982198190E-03    0.1772064784E-03    0.4527185199E-02
    0.4300000000E+02    0.1635509878E-04    0.4903424664E+00    0.2004987634E-03    0.1853222925E-03    0.4532157092E-02
    0.4500000000E+02    0.1650897313E-04    0.4968517912E+00    0.2027254305E-03    0.1934380147E-03    0.4536780724E-02
    0.4700000000E+02    0.1665377205E-04    0.5029605063E+00    0.2049133223E-03    0.2015552803E-03    0.4541087312E-02
    0.4900000000E+02    0.1679069106E-04    0.5087044979E+00    0.2070736451E-03    0.2096755808E-03    0.4545104384E-02
    0.1000000000E+02    0.9500231732E-05    0.2485907674E+00    0.1224272987E-03    0.4899901543E-04    0.4351927269E-02
    0.3000000000E+02    0.1501108228E-04    0.4348069094E+00    0.1838176140E-03    0.1324761203E-03    0.4491731515E-02
    0.5000000000E+02    0.1685652386E-04    0.5114497819E+00    0.2081464448E-03    0.2137373006E-03    0.4547012078E-02
    0.7000000000E+02    0.1794734421E-04    0.5532531159E+00    0.2297257979E-03    0.2954121140E-03    0.4574623712E-02
    0.9000000000E+02    0.1886754019E-04    0.5795748300E+00    0.2532322740E-03    0.3784679060E-03    0.4589507368E-02
    0.1100000000E+03    0.1978348334E-04    0.5976720687E+00    0.2793073745E-03    0.4634590059E-03    0.4597345013E-02
    0.1300000000E+03    0.2075132308E-04    0.6108789046E+00    0.3078814564E-03    0.5507807924E-03    0.4600778469E-02
    0.1500000000E+03    0.2179169871E-04    0.6209417429E+00    0.3387888559E-03    0.6407561670E-03    0.4601203597E-02
    0.1700000000E+03    0.2291253771E-04    0.6288638649E+00    0.3718932627E-03    0.7336732884E-03    0.4599425591E-02
    0.1900000000E+03    0.2411708198E-04    0.6352627001E+00    0.4071070695E-03    0.8298049425E-03    0.4595938823E-02
    0.2100000000E+03    0.2540699011E-04    0.6405390556E+00    0.4443873130E-03    0.9294198122E-03    0.4591060594E-02
    0.2300000000E+03    0.2678360952E-04    0.6449644589E+00    0.4837279379E-03    0.1032789783E-02    0.4585000734E-02
    0.2500000000E+03    0.2824851524E-04    0.6487293937E+00    0.5251530089E-03    0.1140195180E-02    0.4577900318E-02
    0.2700000000E+03    0.2980374037E-04    0.6519714380E+00    0.5687116424E-03    0.1251928878E-02    0.4569854380E-02
    0.2900000000E+03    0.3145187453E-04    0.6547924394E+00    0.6144744885E-03    0.1368299823E-02    0.4560925824E-02
    0.3100000000E+03    0.3319610693E-04    0.6572694080E+00    0.6625314320E-03    0.1489636258E-02    0.4551154243E-02
    0.3300000000E+03    0.3504024873E-04    0.6594616522E+00    0.7129902226E-03    0.1616288851E-02    0.4540561664E-02
    0.3500000000E+03    0.3698875060E-04    0.6614155892E+00    0.7659758130E-03    0.1748633866E-02    0.4529156368E-02
    0.3700000000E+03    0.3904672322E-04    0.6631680667E+00    0.8216302510E-03    0.1887076462E-02    0.4516935453E-02
    0.3900000000E+03    0.4121996407E-04    0.6647487082E+00    0.8801130210E-03    0.2032054223E-02    0.4503886562E-02
    0.4100000000E+03    0.4351499251E-04    0.6661816006E+00    0.9416017652E-03    0.2184040970E-02    0.4489989033E-02
    0.4300000000E+03    0.4593909407E-04    0.6674865303E+00    0.1006293346E-02    0.2343550938E-02    0.4475214626E-02
    0.4500000000E+03    0.4850037476E-04    0.6686799015E+00    0.1074405226E-02    0.2511143372E-02    0.4459527954E-02
    0.4700000000E+03    0.5120782593E-04    0.6697754297E+00    0.1146177158E-02    0.2687427634E-02    0.4442886673E-02
    0.4900000000E+03    0.5407140063E-04    0.6707846706E+00    0.1221873191E-02    0.2873068872E-02    0.4425241482E-02
    0.1000000000E+03    0.1932124525E-04    0.5893901493E+00    0.2659478347E-03    0.4206944830E-03    0.4594100440E-02
    0.3000000000E+03    0.3231175504E-04    0.6560698714E+00    0.6382098717E-03    0.1428326000E-02    0.4556143675E-02
    0.5000000000E+03    0.5556512912E-04    0.6712600565E+00    0.1261282472E-02    0.2969623014E-02    0.4416025079E-02
    0.7000000000E+03    0.9716170619E-04    0.6779860006E+00    0.2347932868E-02    0.5620909866E-02    0.4160182976E-02
    0.9000000000E+03    0.1798022396E-03    0.6817798706E+00    0.4490447249E-02    0.1084091093E-01    0.3667670166E-02
    0.1100000000E+04    0.3587952322E-03    0.6842153468E+00    0.9133597795E-02    0.2219080558E-01    0.2670035297E-02
    0.1300000000E+04    0.6414834503E-03    0.6859109158E+00    0.1652784269E-01    0.4043582879E-01    0.1309162769E-02
    0.1500000000E+04    0.8248613270E-03    0.6871591032E+00    0.2145102282E-01    0.5290449403E-01    0.7392005739E-03
    0.1700000000E+04    0.9218212164E-03    0.6881162066E+00    0.2418017225E-01    0.6013128725E-01    0.6566855571E-03
    0.1900000000E+04    0.9985394891E-03    0.6888733237E+00    0.2641274917E-01    0.6622436049E-01    0.6511220867E-03
    0.2100000000E+04    0.1068150624E-02    0.6894871372E+00    0.2848656131E-01    0.7200429720E-01    0.6540267545E-03
    0.2300000000E+04    0.1132664123E-02    0.6899947632E+00    0.3045128968E-01    0.7758732676E-01    0.6575531508E-03
    0.2500000000E+04    0.1192624134E-02    0.6904215223E+00    0.3231857046E-01    0.8299634063E-01    0.6608787734E-03
    0.2700000000E+04    0.1248371647E-02    0.6907852804E+00    0.3409492942E-01    0.8824202336E-01    0.6639533200E-03
    0.2900000000E+04    0.1300200866E-02    0.6910990033E+00    0.3578587660E-01    0.9333298302E-01    0.6668045905E-03
    0.3100000000E+04    0.1348380285E-02    0.6913723289E+00    0.3739644558E-01    0.9827705953E-01    0.6694624956E-03
    0.3300000000E+04    0.1393157080E-02    0.6916125703E+00    0.3893129180E-01    0.1030815332E+00    0.6719520429E-03
    0.3500000000E+04    0.1434759262E-02    0.6918253768E+00    0.4039473283E-01    0.1077531908E+00    0.6742937548E-03
    0.3700000000E+04    0.1473397408E-02    0.6920151813E+00    0.4179077853E-01    0.1122983688E+00    0.6765046093E-03
    0.3900000000E+04    0.1509266183E-02    0.6921855113E+00    0.4312315749E-01    0.1167229914E+00    0.6785988030E-03
    0.4100000000E+04    0.1542545725E-02    0.6923392084E+00    0.4439534067E-01    0.1210326036E+00    0.6805883279E-03
    0.4300000000E+04    0.1573402885E-02    0.6924785875E+00    0.4561056283E-01    0.1252324012E+00    0.6824834052E-03
    0.4500000000E+04    0.1601992358E-02    0.6926055532E+00    0.4677184186E-01    0.1293272586E+00    0.6842928192E-03
    0.4700000000E+04    0.1628457692E-02    0.6927216870E+00    0.4788199627E-01    0.1333217533E+00    0.6860241746E-03
    0.4900000000E+04    0.1652932220E-02    0.6928283128E+00    0.4894366103E-01    0.1372201886E+00    0.6876840995E-03
    0.1000000000E+04    0.2524643482E-03    0.6831173605E+00    0.6373356586E-02    0.1543636647E-01    0.3251858079E-02
    0.3000000000E+04    0.1324730881E-02    0.6912402132E+00    0.3660090909E-01    0.9582291450E-01    0.6681560342E-03
    0.5000000000E+04    0.1664462010E-02    0.6928784162E+00    0.4945708661E-01    0.1391346588E+00    0.6884891200E-03
    0.7000000000E+04    0.1816373363E-02    0.6935786753E+00    0.5770151058E-01    0.1732480277E+00    0.7019383302E-03
    0.9000000000E+04    0.1867454596E-02    0.6939659305E+00    0.6312066162E-01    0.2011729161E+00    0.7120564823E-03
    0.1100000000E+05    0.1862691522E-02    0.6942110430E+00    0.6671341392E-01    0.2246923801E+00    0.7201946043E-03
    0.1300000000E+05    0.1826702441E-02    0.6943797508E+00    0.6907669482E-01    0.2449364219E+00    0.7270154340E-03
    0.1500000000E+05    0.1773527192E-02    0.6945027153E+00    0.7058616262E-01    0.2626600133E+00    0.7328945772E-03
    0.1700000000E+05    0.1711410825E-02    0.6945961533E+00    0.7148817446E-01    0.2783894514E+00    0.7380659845E-03
    0.1900000000E+05    0.1645288550E-02    0.6946694418E+00    0.7194979620E-01    0.2925046533E+00    0.7426854652E-03
    0.2100000000E+05    0.1578141679E-02    0.6947283771E+00    0.7208749971E-01    0.3052879845E+00    0.7468621192E-03
    0.2300000000E+05    0.1511767865E-02    0.6947767336E+00    0.7198438246E-01    0.3169545588E+00    0.7506753761E-03
    0.2500000000E+05    0.1447233371E-02    0.6948170738E+00    0.7170089675E-01    0.3276717650E+00    0.7541848976E-03
    0.2700000000E+05    0.1385146056E-02    0.6948511976E+00    0.7128175357E-01    0.3375722673E+00    0.7574366579E-03
    0.2900000000E+05    0.1325823925E-02    0.6948804061E+00    0.7076049029E-01    0.3467629075E+00    0.7604668488E-03
    0.3100000000E+05    0.1269401172E-02    0.6949056629E+00    0.7016256690E-01    0.3553309534E+00    0.7633044811E-03
    0.3300000000E+05    0.1215895910E-02    0.6949276967E+00    0.6950751001E-01    0.3633485804E+00    0.7659731740E-03
    0.3500000000E+05    0.1165253930E-02    0.6949470685E+00    0.6881042575E-01    0.3708761504E+00    0.7684924178E-03
    0.3700000000E+05    0.1117377216E-02    0.6949642169E+00    0.6808308549E-01    0.3779646506E+00    0.7708784874E-03
    0.3900000000E+05    0.1072142607E-02    0.6949794903E+00    0.6733471668E-01    0.3846575380E+00    0.7731451151E-03
    0.4100000000E+05    0.1029414027E-02    0.6949931683E+00    0.6657258692E-01    0.3909921530E+00    0.7753039963E-03
    0.4300000000E+05    0.9890504565E-03    0.6950054779E+00    0.6580244044E-01    0.3970008174E+00    0.7773651748E-03
    0.4500000000E+05    0.9509110809E-03    0.6950166056E+00    0.6502882803E-01    0.4027116970E+00    0.7793373410E-03
    0.4700000000E+05    0.9148585429E-03    0.6950267058E+00    0.6425535894E-01    0.4081494868E+00    0.7812280658E-03
    0.4900000000E+05    0.8807609269E-03    0.6950359073E+00    0.6348489490E-01    0.4133359607E+00    0.7830439855E-03
    0.1000000000E+05    0.1870186792E-02    0.6941009129E+00    0.6510133169E-01    0.2134015426E+00    0.7163222046E-03
    0.3000000000E+05    0.1297246878E-02    0.6948934784E+00    0.7046977185E-01    0.3511199333E+00    0.7619081491E-03
    0.5000000000E+05    0.8644057703E-03    0.6950402056E+00    0.6310151748E-01    0.4158410710E+00    0.7839257489E-03
    0.7000000000E+05    0.6134598564E-03    0.6950980640E+00    0.5593468166E-01    0.4564618294E+00    0.7987494131E-03
    0.9000000000E+05    0.4580672431E-03    0.6951273862E+00    0.4993582788E-01    0.4850474145E+00    0.8099951523E-03
    0.1100000000E+06    0.3554393050E-03    0.6951442302E+00    0.4499495286E-01    0.5064914249E+00    0.8190842285E-03
    0.1300000000E+06    0.2840984042E-03    0.6951546219E+00    0.4089808037E-01    0.5232665382E+00    0.8267262369E-03
    0.1500000000E+06    0.2324618401E-03    0.6951613032E+00    0.3746169325E-01    0.5367903385E+00    0.8333278351E-03
    0.1700000000E+06    0.1938559971E-03    0.6951656885E+00    0.3454471788E-01    0.5479457619E+00    0.8391442667E-03
    0.1900000000E+06    0.1642172233E-03    0.6951685752E+00    0.3204090763E-01    0.5573162418E+00    0.8443464815E-03
    0.2100000000E+06    0.1409552429E-03    0.6951704432E+00    0.2986999581E-01    0.5653049081E+00    0.8490546968E-03
    0.2300000000E+06    0.1223546590E-03    0.6951715969E+00    0.2797069931E-01    0.5722002654E+00    0.8533567339E-03
    0.2500000000E+06    0.1072422141E-03    0.6951722372E+00    0.2629562916E-01    0.5782147511E+00    0.8573187388E-03
    0.2700000000E+06    0.9479302113E-04    0.6951725012E+00    0.2480766257E-01    0.5835085363E+00    0.8609917984E-03
    0.2900000000E+06    0.8441314602E-04    0.6951724850E+00    0.2347735530E-01    0.5882048258E+00    0.8644162055E-03
    0.3100000000E+06    0.7566596800E-04    0.6951722578E+00    0.2228108048E-01    0.5924000332E+00    0.8676243104E-03
    0.3300000000E+06    0.6822459071E-04    0.6951718701E+00    0.2119967444E-01    0.5961707438E+00    0.8706424880E-03
    0.3500000000E+06    0.6184026796E-04    0.6951713596E+00    0.2021743900E-01    0.5995785968E+00    0.8734925287E-03
    0.3700000000E+06    0.5632096079E-04    0.6951707547E+00    0.1932139733E-01    0.6026737841E+00    0.8761926473E-03
    0.3900000000E+06    0.5151646896E-04    0.6951700771E+00    0.1850073203E-01    0.6054976043E+00    0.8787582275E-03
    0.4100000000E+06    0.4730792736E-04    0.6951693438E+00    0.1774635604E-01    0.6080843583E+00    0.8812023818E-03
    0.4300000000E+06    0.4360025992E-04    0.6951685678E+00    0.1705058141E-01    0.6104627780E+00    0.8835363797E-03
    0.4500000000E+06    0.4031667503E-04    0.6951677594E+00    0.1640686095E-01    0.6126571166E+00    0.8857699785E-03
    0.4700000000E+06    0.3739459403E-04    0.6951669270E+00    0.1580958491E-01    0.6146879917E+00    0.8879116837E-03
    0.4900000000E+06    0.3478260114E-04    0.6951660769E+00    0.1525391945E-01    0.6165730445E+00    0.8899689550E-03
    0.1000000000E+06    0.4018204641E-03    0.6951368752E+00    0.4734675680E-01    0.4964733777E+00    0.8147550400E-03
    0.3000000000E+06    0.7985804191E-04    0.6951723943E+00    0.2286375303E-01    0.5903598788E+00    0.8660455258E-03
    0.5000000000E+06    0.3357929199E-04    0.6951656469E+00    0.1499035992E-01    0.6174657167E+00    0.8909680146E-03
    0.7000000000E+06    0.1851765470E-04    0.6951569594E+00    0.1113247306E-01    0.6304334310E+00    0.9077721655E-03
    0.9000000000E+06    0.1176966844E-04    0.6951488910E+00    0.8845965504E-02    0.6380397786E+00    0.9205289033E-03
    0.1100000000E+07    0.8166475366E-05    0.6951416736E+00    0.7334448102E-02    0.6430395753E+00    0.9308431193E-03
    0.1300000000E+07    0.6014782299E-05    0.6951352214E+00    0.6261566793E-02    0.6465760725E+00    0.9395173205E-03
    0.1500000000E+07    0.4625913039E-05    0.6951294135E+00    0.5460874956E-02    0.6492092582E+00    0.9470118430E-03
    0.1700000000E+07    0.3676519412E-05    0.6951241430E+00    0.4840621728E-02    0.6512457639E+00    0.9536158061E-03
    0.1900000000E+07    0.2998304948E-05    0.6951193228E+00    0.4346095539E-02    0.6528675833E+00    0.9595229368E-03
    0.2100000000E+07    0.2496585395E-05    0.6951148839E+00    0.3942655304E-02    0.6541895527E+00    0.9648695173E-03
    0.2300000000E+07    0.2114741103E-05    0.6951107710E+00    0.3607304571E-02    0.6552877070E+00    0.9697551316E-03
    0.2500000000E+07    0.1817208801E-05    0.6951069396E+00    0.3324180309E-02    0.6562143886E+00    0.9742548013E-03
    0.2700000000E+07    0.1580727925E-05    0.6951033535E+00    0.3081987439E-02    0.6570068065E+00    0.9784264786E-03
    0.2900000000E+07    0.1389559213E-05    0.6950999829E+00    0.2872465870E-02    0.6576921355E+00    0.9823158777E-03
    0.3100000000E+07    0.1232740484E-05    0.6950968031E+00    0.2689435846E-02    0.6582906843E+00    0.9859597065E-03
    0.3300000000E+07    0.1102444262E-05    0.6950937935E+00    0.2528182176E-02    0.6588179347E+00    0.9893878952E-03
    0.3500000000E+07    0.9929588984E-06    0.6950909363E+00    0.2385044885E-02    0.6592858943E+00    0.9926251745E-03
    0.3700000000E+07    0.9000364883E-06    0.6950882168E+00    0.2257139835E-02    0.6597040195E+00    0.9956922182E-03
    0.3900000000E+07    0.8204639793E-06    0.6950856219E+00    0.2142163620E-02    0.6600798584E+00    0.9986064881E-03
    0.4100000000E+07    0.7517742011E-06    0.6950831405E+00    0.2038254489E-02    0.6604195090E+00    0.1001382869E-02
    0.4300000000E+07    0.6920469359E-06    0.6950807629E+00    0.1943891402E-02    0.6607279510E+00    0.1004034155E-02
    0.4500000000E+07    0.6397693156E-06    0.6950784806E+00    0.1857819544E-02    0.6610092915E+00    0.1006571422E-02
    0.4700000000E+07    0.5937361384E-06    0.6950762861E+00    0.1778994558E-02    0.6612669474E+00    0.1009004327E-02
    0.4900000000E+07    0.5529775620E-06    0.6950741727E+00    0.1706540226E-02    0.6615037848E+00    0.1011341340E-02
    0.1000000000E+07    0.9717667420E-05    0.6951451792E+00    0.8020172637E-02    0.6407739711E+00    0.9259300118E-03
    0.3000000000E+07    0.1307404590E-05    0.6950983705E+00    0.2777962864E-02    0.6580011951E+00    0.9841664799E-03
    0.5000000000E+07    0.5343241400E-06    0.6950731446E+00    0.1672466056E-02    0.6616151684E+00    0.1012476257E-02
    0.7000000000E+07    0.3072358297E-06    0.6950556928E+00    0.1194187116E-02    0.6631789719E+00    0.1031566114E-02
    0.9000000000E+07    0.2087867499E-06    0.6950422806E+00    0.9276915677E-03    0.6640509335E+00    0.1046058596E-02
    0.1100000000E+08    0.1564861461E-06    0.6950313561E+00    0.7579531333E-03    0.6646067479E+00    0.1057776452E-02
    0.1300000000E+08    0.1249644571E-06    0.6950221226E+00    0.6404376536E-03    0.6649918554E+00    0.1067631222E-02
    0.1500000000E+08    0.1042544379E-06    0.6950141154E+00    0.5542906897E-03    0.6652743757E+00    0.1076145818E-02
    0.1700000000E+08    0.8976649095E-07    0.6950070396E+00    0.4884502508E-03    0.6654904531E+00    0.1083648676E-02
    0.1900000000E+08    0.7913629115E-07    0.6950006959E+00    0.4365049388E-03    0.6656610436E+00    0.1090359872E-02
    0.2100000000E+08    0.7103926210E-07    0.6949949432E+00    0.3944833720E-03    0.6657991328E+00    0.1096434228E-02
    0.2300000000E+08    0.6468328311E-07    0.6949896779E+00    0.3597947518E-03    0.6659131949E+00    0.1101984878E-02
    0.2500000000E+08    0.5956921876E-07    0.6949848218E+00    0.3306771778E-03    0.6660089951E+00    0.1107097051E-02
    0.2700000000E+08    0.5536876944E-07    0.6949803141E+00    0.3058908564E-03    0.6660905915E+00    0.1111836586E-02
