  Pressure (Pa) 23mC5-500 (mol/kg) 24mC5-500 (mol/kg) 2mC6-500 (mol/kg) 3mC6-500 (mol/kg) C7-500 (mol/kg)
    0.1000000000E+01    0.1218867932E-05    0.1513983774E+00    0.1087870375E-04    0.2255466318E-05    0.4209525769E-02
    0.3000000000E+01    0.2365172889E-05    0.3164682700E+00    0.2009372544E-04    0.5814805109E-05    0.4264131576E-02
    0.5000000000E+01    0.2880641109E-05    0.4047235061E+00    0.2391182337E-04    0.9098200152E-05    0.4292901069E-02
    0.7000000000E+01    0.3163438894E-05    0.4596621608E+00    0.2608083789E-04    0.1224726028E-04    0.4311038543E-02
    0.9000000000E+01    0.3343516370E-05    0.4971546115E+00    0.2767978681E-04    0.1531006676E-04    0.4323598586E-02
    0.1100000000E+02    0.3473320935E-05    0.5243725301E+00    0.2908531612E-04    0.1831076622E-04    0.4332844669E-02
    0.1300000000E+02    0.3577006945E-05    0.5450304777E+00    0.3044301175E-04    0.2126376829E-04    0.4339951640E-02
    0.1500000000E+02    0.3666737956E-05    0.5612450024E+00    0.3181140917E-04    0.2417858752E-04    0.4345592616E-02
    0.1700000000E+02    0.3749036873E-05    0.5743105335E+00    0.3321330795E-04    0.2706194355E-04    0.4350182102E-02
    0.1900000000E+02    0.3827561188E-05    0.5850632175E+00    0.3465608788E-04    0.2991881654E-04    0.4353989880E-02
    0.2100000000E+02    0.3904425166E-05    0.5940672420E+00    0.3614036883E-04    0.3275303404E-04    0.4357199427E-02
    0.2300000000E+02    0.3980873443E-05    0.6017170911E+00    0.3766389201E-04    0.3556762249E-04    0.4359940068E-02
    0.2500000000E+02    0.4057643021E-05    0.6082968902E+00    0.3922331161E-04    0.3836503022E-04    0.4362305715E-02
    0.2700000000E+02    0.4135166406E-05    0.6140164752E+00    0.4081502771E-04    0.4114727538E-04    0.4364366292E-02
    0.2900000000E+02    0.4213689713E-05    0.6190341831E+00    0.4243556448E-04    0.4391604794E-04    0.4366174998E-02
    0.3100000000E+02    0.4293343366E-05    0.6234717380E+00    0.4408172838E-04    0.4667278203E-04    0.4367773065E-02
    0.3300000000E+02    0.4374185444E-05    0.6274242552E+00    0.4575065958E-04    0.4941870878E-04    0.4369192976E-02
    0.3500000000E+02    0.4456228781E-05    0.6309671351E+00    0.4743983254E-04    0.5215489565E-04    0.4370460689E-02
    0.3700000000E+02    0.4539458165E-05    0.6341609201E+00    0.4914703367E-04    0.5488227639E-04    0.4371597217E-02
    0.3900000000E+02    0.4623841392E-05    0.6370547822E+00    0.5087033024E-04    0.5760167413E-04    0.4372619761E-02
    0.4100000000E+02    0.4709336417E-05    0.6396890727E+00    0.5260803736E-04    0.6031381956E-04    0.4373542551E-02
    0.4300000000E+02    0.4795895995E-05    0.6420972151E+00    0.5435868652E-04    0.6301936536E-04    0.4374377466E-02
    0.4500000000E+02    0.4883470698E-05    0.6443071308E+00    0.5612099683E-04    0.6571889782E-04    0.4375134507E-02
    0.4700000000E+02    0.4972010854E-05    0.6463423266E+00    0.5789384967E-04    0.6841294626E-04    0.4375822158E-02
    0.4900000000E+02    0.5061467774E-05    0.6482227339E+00    0.5967626654E-04    0.7110199084E-04    0.4376447671E-02
    0.1000000000E+02    0.3412795945E-05    0.5117644998E+00    0.2839461395E-04    0.1681712820E-04    0.4328546363E-02
    0.3000000000E+02    0.4253370298E-05    0.6213190042E+00    0.4325562977E-04    0.4529583861E-04    0.4366998156E-02
    0.5000000000E+02    0.5106525266E-05    0.6491103068E+00    0.6057078927E-04    0.7244477488E-04    0.4376739108E-02
    0.7000000000E+02    0.6045705837E-05    0.6617961838E+00    0.7880386028E-04    0.9912639912E-04    0.4380443123E-02
    0.9000000000E+02    0.7037919722E-05    0.6690600034E+00    0.9745935195E-04    0.1256394684E-03    0.4381729004E-02
    0.1100000000E+03    0.8066086129E-05    0.6737656689E+00    0.1163854383E-03    0.1521372588E-03    0.4381752079E-02
    0.1300000000E+03    0.9121531574E-05    0.6770621214E+00    0.1355323597E-03    0.1787139171E-03    0.4381007800E-02
    0.1500000000E+03    0.1019962704E-04    0.6794998757E+00    0.1548864074E-03    0.2054340244E-03    0.4379748054E-02
    0.1700000000E+03    0.1129781690E-04    0.6813757433E+00    0.1744481481E-03    0.2323454352E-03    0.4378116030E-02
    0.1900000000E+03    0.1241468323E-04    0.6828638809E+00    0.1942241845E-03    0.2594857294E-03    0.4376199799E-02
    0.2100000000E+03    0.1354947011E-04    0.6840732146E+00    0.2142237336E-03    0.2868857982E-03    0.4374056777E-02
    0.2300000000E+03    0.1470182667E-04    0.6850753650E+00    0.2344571168E-03    0.3145719918E-03    0.4371726097E-02
    0.2500000000E+03    0.1587166075E-04    0.6859193577E+00    0.2549350753E-03    0.3425674808E-03    0.4369235364E-02
    0.2700000000E+03    0.1705905208E-04    0.6866398824E+00    0.2756684595E-03    0.3708931614E-03    0.4366604583E-02
    0.2900000000E+03    0.1826419883E-04    0.6872621759E+00    0.2966680990E-03    0.3995682794E-03    0.4363848556E-02
    0.3100000000E+03    0.1948738371E-04    0.6878050362E+00    0.3179447588E-03    0.4286108764E-03    0.4360978416E-02
    0.3300000000E+03    0.2072895202E-04    0.6882827532E+00    0.3395091379E-03    0.4580381167E-03    0.4358002629E-02
    0.3500000000E+03    0.2198929711E-04    0.6887063832E+00    0.3613718890E-03    0.4878665332E-03    0.4354927685E-02
    0.3700000000E+03    0.2326885067E-04    0.6890846149E+00    0.3835436467E-03    0.5181122173E-03    0.4351758570E-02
    0.3900000000E+03    0.2456807612E-04    0.6894243708E+00    0.4060350595E-03    0.5487909686E-03    0.4348499110E-02
    0.4100000000E+03    0.2588746419E-04    0.6897312340E+00    0.4288568223E-03    0.5799184141E-03    0.4345152218E-02
    0.4300000000E+03    0.2722752992E-04    0.6900097576E+00    0.4520197079E-03    0.6115101075E-03    0.4341720077E-02
    0.4500000000E+03    0.2858881069E-04    0.6902636916E+00    0.4755345978E-03    0.6435816103E-03    0.4338204275E-02
    0.4700000000E+03    0.2997186501E-04    0.6904961521E+00    0.4994125102E-03    0.6761485623E-03    0.4334605916E-02
    0.4900000000E+03    0.3137727176E-04    0.6907097505E+00    0.5236646278E-03    0.7092267420E-03    0.4330925693E-02
    0.1000000000E+03    0.7548180281E-05    0.6716400016E+00    0.1068929496E-03    0.1388834742E-03    0.4381859117E-02
    0.3000000000E+03    0.1887351619E-04    0.6875425538E+00    0.3072711313E-03    0.4140425529E-03    0.4362427168E-02
    0.5000000000E+03    0.3208854369E-04    0.6908101790E+00    0.5359345596E-03    0.7259625240E-03    0.4329055005E-02
    0.7000000000E+03    0.4764660771E-04    0.6922185005E+00    0.8039176122E-03    0.1091614514E-02    0.4287283153E-02
    0.9000000000E+03    0.6628208015E-04    0.6930024663E+00    0.1124511408E-02    0.1529450104E-02    0.4236339371E-02
    0.1100000000E+04    0.8901946974E-04    0.6935016833E+00    0.1515623706E-02    0.2064140277E-02    0.4173975762E-02
    0.1300000000E+04    0.1173274327E-03    0.6938472982E+00    0.2002739050E-02    0.2730780884E-02    0.4096626324E-02
    0.1500000000E+04    0.1533762281E-03    0.6941006577E+00    0.2623462770E-02    0.3581199921E-02    0.3998925240E-02
    0.1700000000E+04    0.2004671221E-03    0.6942942881E+00    0.3435016873E-02    0.4694351625E-02    0.3872756947E-02
    0.1900000000E+04    0.2637497266E-03    0.6944470396E+00    0.4526762707E-02    0.6193718611E-02    0.3705676344E-02
    0.2100000000E+04    0.3513656951E-03    0.6945705889E+00    0.6040241825E-02    0.8275283529E-02    0.3478540944E-02
    0.2300000000E+04    0.4759298635E-03    0.6946725549E+00    0.8195410860E-02    0.1124455091E-01    0.3162990986E-02
    0.2500000000E+04    0.6547944827E-03    0.6947581198E+00    0.1129659331E-01    0.1552673800E-01    0.2723430315E-02
    0.2700000000E+04    0.9023895318E-03    0.6948309313E+00    0.1560227501E-01    0.2149073353E-01    0.2140356015E-02
    0.2900000000E+04    0.1203378898E-02    0.6948936307E+00    0.2086086448E-01    0.2880979671E-01    0.1476518098E-02
    0.3100000000E+04    0.1491841314E-02    0.6949481780E+00    0.2594055809E-01    0.3593733700E-01    0.9076153629E-03
    0.3300000000E+04    0.1707661765E-02    0.6949960576E+00    0.2979370557E-01    0.4141931101E-01    0.5611739898E-03
    0.3500000000E+04    0.1853200394E-02    0.6950384150E+00    0.3244758487E-01    0.4527402909E-01    0.4001745484E-03
    0.3700000000E+04    0.1958015184E-02    0.6950761475E+00    0.3440644265E-01    0.4818610149E-01    0.3359228781E-03
    0.3900000000E+04    0.2043384017E-02    0.6951099685E+00    0.3603651239E-01    0.5065749469E-01    0.3121529767E-03
    0.4100000000E+04    0.2119479912E-02    0.6951404519E+00    0.3751353869E-01    0.5293006940E-01    0.3038617998E-03
    0.4300000000E+04    0.2190538985E-02    0.6951680648E+00    0.3891074186E-01    0.5510469790E-01    0.3012942244E-03
    0.4500000000E+04    0.2258266440E-02    0.6951931912E+00    0.4025744960E-01    0.5722161972E-01    0.3008136833E-03
    0.4700000000E+04    0.2323366399E-02    0.6952161497E+00    0.4156557268E-01    0.5929693082E-01    0.3010833448E-03
    0.4900000000E+04    0.2386155847E-02    0.6952372067E+00    0.4284027378E-01    0.6133735104E-01    0.3016132637E-03
    0.1000000000E+04    0.7705904704E-04    0.6932770205E+00    0.1309880302E-02    0.1782798700E-02    0.4206773487E-02
    0.3000000000E+04    0.1354228729E-02    0.6949218213E+00    0.2351059466E-01    0.3251822050E-01    0.1168289531E-02
    0.5000000000E+04    0.2416739247E-02    0.6952470937E+00    0.4346593896E-01    0.6234551319E-01    0.3019141269E-03
    0.7000000000E+04    0.2931418618E-02    0.6953846471E+00    0.5456721717E-01    0.8104949289E-01    0.3075792051E-03
    0.9000000000E+04    0.3299450710E-02    0.6954600014E+00    0.6346789238E-01    0.9742330836E-01    0.3119221642E-03
    0.1100000000E+05    0.3561683599E-02    0.6955072634E+00    0.7069914683E-01    0.1119572952E+00    0.3154306097E-03
    0.1300000000E+05    0.3746210310E-02    0.6955394983E+00    0.7663715495E-01    0.1250075522E+00    0.3183795944E-03
    0.1500000000E+05    0.3872838986E-02    0.6955627777E+00    0.8155559698E-01    0.1368398825E+00    0.3209265680E-03
    0.1700000000E+05    0.3955824172E-02    0.6955803022E+00    0.8565802670E-01    0.1476570869E+00    0.3231702786E-03
    0.1900000000E+05    0.4005604904E-02    0.6955939165E+00    0.8909876288E-01    0.1576168695E+00    0.3251768252E-03
    0.2100000000E+05    0.4029942292E-02    0.6956047578E+00    0.9199677125E-01    0.1668439283E+00    0.3269926711E-03
    0.2300000000E+05    0.4034682542E-02    0.6956135641E+00    0.9444512616E-01    0.1754383262E+00    0.3286517470E-03
    0.2500000000E+05    0.4024279896E-02    0.6956208352E+00    0.9651760544E-01    0.1834814179E+00    0.3301796027E-03
    0.2700000000E+05    0.4002161925E-02    0.6956269210E+00    0.9827337953E-01    0.1910401284E+00    0.3315959664E-03
    0.2900000000E+05    0.3970989087E-02    0.6956320738E+00    0.9976040527E-01    0.1981700975E+00    0.3329163954E-03
    0.3100000000E+05    0.3932841988E-02    0.6956364798E+00    0.1010179220E+00    0.2049180279E+00    0.3341533785E-03
    0.3300000000E+05    0.3889358344E-02    0.6956402796E+00    0.1020783138E+00    0.2113234631E+00    0.3353170960E-03
    0.3500000000E+05    0.3841834413E-02    0.6956435809E+00    0.1029685180E+00    0.2174201518E+00    0.3364159581E-03
    0.3700000000E+05    0.3791300970E-02    0.6956464679E+00    0.1037111023E+00    0.2232371079E+00    0.3374569939E-03
    0.3900000000E+05    0.3738580791E-02    0.6956490070E+00    0.1043250984E+00    0.2287994420E+00    0.3384461398E-03
    0.4100000000E+05    0.3684332572E-02    0.6956512516E+00    0.1048266535E+00    0.2341290214E+00    0.3393884551E-03
    0.4300000000E+05    0.3629084760E-02    0.6956532448E+00    0.1052295442E+00    0.2392449980E+00    0.3402882879E-03
    0.4500000000E+05    0.3573261832E-02    0.6956550220E+00    0.1055455854E+00    0.2441642350E+00    0.3411494024E-03
    0.4700000000E+05    0.3517204851E-02    0.6956566122E+00    0.1057849581E+00    0.2489016535E+00    0.3419750799E-03
    0.4900000000E+05    0.3461187653E-02    0.6956580397E+00    0.1059564746E+00    0.2534705169E+00    0.3427681980E-03
    0.1000000000E+05    0.3441800776E-02    0.6954860813E+00    0.6726579810E-01    0.1048955015E+00    0.3137596713E-03
    0.3000000000E+05    0.3952675916E-02    0.6956343605E+00    0.1004156859E+00    0.2015891960E+00    0.3335446345E-03
    0.5000000000E+05    0.3433264377E-02    0.6956586990E+00    0.1060192202E+00    0.2556954908E+00    0.3431533522E-03
    0.7000000000E+05    0.2910853028E-02    0.6956669043E+00    0.1051249975E+00    0.2936501290E+00    0.3496314205E-03
    0.9000000000E+05    0.2480981434E-02    0.6956702185E+00    0.1021724935E+00    0.3229668207E+00    0.3545490097E-03
    0.1100000000E+06    0.2136588847E-02    0.6956715284E+00    0.9855078977E-01    0.3468289761E+00    0.3585249693E-03
    0.1300000000E+06    0.1859539441E-02    0.6956718771E+00    0.9478342377E-01    0.3668977285E+00    0.3618687087E-03
    0.1500000000E+06    0.1634129374E-02    0.6956717202E+00    0.9108580039E-01    0.3841587740E+00    0.3647576990E-03
    0.1700000000E+06    0.1448421630E-02    0.6956712824E+00    0.8754760256E-01    0.3992500381E+00    0.3673033978E-03
    0.1900000000E+06    0.1293576340E-02    0.6956706843E+00    0.8420269262E-01    0.4126108333E+00    0.3695804859E-03
    0.2100000000E+06    0.1163038138E-02    0.6956699945E+00    0.8105894195E-01    0.4245580615E+00    0.3716414982E-03
    0.2300000000E+06    0.1051895892E-02    0.6956692538E+00    0.7811195760E-01    0.4353286544E+00    0.3735248223E-03
    0.2500000000E+06    0.9564224208E-03    0.6956684875E+00    0.7535173690E-01    0.4451048522E+00    0.3752593773E-03
    0.2700000000E+06    0.8737510241E-03    0.6956677114E+00    0.7276600164E-01    0.4540300874E+00    0.3768675021E-03
    0.2900000000E+06    0.8016482003E-03    0.6956669356E+00    0.7034189239E-01    0.4622194107E+00    0.3783668181E-03
    0.3100000000E+06    0.7383525943E-03    0.6956661664E+00    0.6806682224E-01    0.4697665880E+00    0.3797714750E-03
    0.3300000000E+06    0.6824595291E-03    0.6956654082E+00    0.6592888836E-01    0.4767490791E+00    0.3810930098E-03
    0.3500000000E+06    0.6328371465E-03    0.6956646634E+00    0.6391704779E-01    0.4832316241E+00    0.3823409555E-03
    0.3700000000E+06    0.5885647156E-03    0.6956639336E+00    0.6202116716E-01    0.4892688836E+00    0.3835232809E-03
    0.3900000000E+06    0.5488866775E-03    0.6956632197E+00    0.6023200648E-01    0.4949074215E+00    0.3846467170E-03
    0.4100000000E+06    0.5131780052E-03    0.6956625221E+00    0.5854116977E-01    0.5001872188E+00    0.3857170014E-03
    0.4300000000E+06    0.4809177982E-03    0.6956618409E+00    0.5694104110E-01    0.5051428473E+00    0.3867390654E-03
    0.4500000000E+06    0.4516689440E-03    0.6956611759E+00    0.5542471594E-01    0.5098043919E+00    0.3877171788E-03
    0.4700000000E+06    0.4250622982E-03    0.6956605268E+00    0.5398593340E-01    0.5141981837E+00    0.3886550639E-03
    0.4900000000E+06    0.4007842663E-03    0.6956598932E+00    0.5261901222E-01    0.5183473885E+00    0.3895559854E-03
    0.1000000000E+06    0.2299241319E-02    0.6956710378E+00    0.1004018056E+00    0.3354541256E+00    0.3566310525E-03
    0.3000000000E+06    0.7689945369E-03    0.6956665499E+00    0.6918649026E-01    0.4660680917E+00    0.3790802047E-03
    0.5000000000E+06    0.3894332095E-03    0.6956595821E+00    0.5196086805E-01    0.5203367642E+00    0.3899934980E-03
    0.7000000000E+06    0.2365562609E-03    0.6956540600E+00    0.4154247845E-01    0.5511967398E+00    0.3973527830E-03
    0.9000000000E+06    0.1593745465E-03    0.6956495747E+00    0.3458450562E-01    0.5712603564E+00    0.4029398827E-03
    0.1100000000E+07    0.1148609748E-03    0.6956458102E+00    0.2961223350E-01    0.5853856743E+00    0.4074574080E-03
    0.1300000000E+07    0.8680873930E-04    0.6956425684E+00    0.2588306087E-01    0.5958800547E+00    0.4112567324E-03
    0.1500000000E+07    0.6796979103E-04    0.6956397211E+00    0.2298326283E-01    0.6039878350E+00    0.4145394266E-03
    0.1700000000E+07    0.5469659804E-04    0.6956371818E+00    0.2066424368E-01    0.6104414339E+00    0.4174320959E-03
    0.1900000000E+07    0.4498722595E-04    0.6956348896E+00    0.1876767120E-01    0.6157007591E+00    0.4200195767E-03
    0.2100000000E+07    0.3766710638E-04    0.6956327997E+00    0.1718793467E-01    0.6200694245E+00    0.4223615512E-03
    0.2300000000E+07    0.3200955448E-04    0.6956308788E+00    0.1585189493E-01    0.6237560522E+00    0.4245016310E-03
    0.2500000000E+07    0.2754510772E-04    0.6956291011E+00    0.1470729975E-01    0.6269087747E+00    0.4264726720E-03
    0.2700000000E+07    0.2395936409E-04    0.6956274462E+00    0.1371582731E-01    0.6296356988E+00    0.4283000548E-03
    0.2900000000E+07    0.2103526039E-04    0.6956258979E+00    0.1284873578E-01    0.6320175794E+00    0.4300038004E-03
    0.3100000000E+07    0.1861897568E-04    0.6956244431E+00    0.1208404704E-01    0.6341159609E+00    0.4315999859E-03
    0.3300000000E+07    0.1659901213E-04    0.6956230708E+00    0.1140466845E-01    0.6359785713E+00    0.4331017199E-03
    0.3500000000E+07    0.1489293361E-04    0.6956217719E+00    0.1079710751E-01    0.6376429949E+00    0.4345198339E-03
    0.3700000000E+07    0.1343871573E-04    0.6956205388E+00    0.1025057181E-01    0.6391392317E+00    0.4358633826E-03
    0.3900000000E+07    0.1218895997E-04    0.6956193651E+00    0.9756326198E-02    0.6404915190E+00    0.4371400143E-03
    0.4100000000E+07    0.1110693665E-04    0.6956182450E+00    0.9307225071E-02    0.6417196517E+00    0.4383562482E-03
    0.4300000000E+07    0.1016382390E-04    0.6956171739E+00    0.8897366776E-02    0.6428399559E+00    0.4395176877E-03
    0.4500000000E+07    0.9336746608E-05    0.6956161474E+00    0.8521834337E-02    0.6438660164E+00    0.4406291846E-03
    0.4700000000E+07    0.8607360647E-05    0.6956151620E+00    0.8176498435E-02    0.6448092290E+00    0.4416949686E-03
    0.4900000000E+07    0.7960815654E-05    0.6956142143E+00    0.7857865852E-02    0.6456792245E+00    0.4427187492E-03
    0.1000000000E+07    0.1343638913E-03    0.6956476168E+00    0.3190721923E-01    0.5788860021E+00    0.4053054966E-03
    0.3000000000E+07    0.1977141768E-04    0.6956251596E+00    0.1245475651E-01    0.6330989504E+00    0.4308144585E-03
    0.5000000000E+07    0.7664729409E-05    0.6956137537E+00    0.7707616052E-02    0.6460893751E+00    0.4432159260E-03
    0.7000000000E+07    0.4061071968E-05    0.6956059760E+00    0.5571072980E-02    0.6519158970E+00    0.4515788305E-03
    0.9000000000E+07    0.2517047649E-05    0.6956000395E+00    0.4357755644E-02    0.6552206918E+00    0.4579278879E-03
    0.1100000000E+08    0.1714869778E-05    0.6955952242E+00    0.3576207425E-02    0.6573484053E+00    0.4630615093E-03
    0.1300000000E+08    0.1244779287E-05    0.6955911656E+00    0.3031058831E-02    0.6588322706E+00    0.4673789827E-03
    0.1500000000E+08    0.9455560900E-06    0.6955876535E+00    0.2629294274E-02    0.6599258239E+00    0.4711093673E-03
    0.1700000000E+08    0.7432404293E-06    0.6955845548E+00    0.2321006621E-02    0.6607649919E+00    0.4743965345E-03
    0.1900000000E+08    0.5999978082E-06    0.6955817804E+00    0.2077025734E-02    0.6614291831E+00    0.4773368904E-03
    0.2100000000E+08    0.4948272259E-06    0.6955792673E+00    0.1879165700E-02    0.6619678886E+00    0.4799982569E-03
    0.2300000000E+08    0.4153058913E-06    0.6955769692E+00    0.1715501641E-02    0.6624135544E+00    0.4824301935E-03
    0.2500000000E+08    0.3537005630E-06    0.6955748515E+00    0.1577890038E-02    0.6627883350E+00    0.4846700370E-03
    0.2700000000E+08    0.3049913411E-06    0.6955728870E+00    0.1460580706E-02    0.6631078730E+00    0.4867466296E-03
