  Pressure (Pa) 23mC5-500 (mol/kg) 24mC5-500 (mol/kg) 2mC6-500 (mol/kg) 3mC6-500 (mol/kg) C7-500 (mol/kg)
    0.1000000000E+01    0.1362152862E-05    0.9949979030E-01    0.3084094019E-05    0.8006953483E-05    0.4193691512E-02
    0.3000000000E+01    0.3006241198E-05    0.2321118336E+00    0.6542239968E-05    0.2049618517E-04    0.4242863911E-02
    0.5000000000E+01    0.3937633772E-05    0.3164692234E+00    0.8354860397E-05    0.3200444512E-04    0.4272280479E-02
    0.7000000000E+01    0.4519944780E-05    0.3748560096E+00    0.9436128786E-05    0.4304815000E-04    0.4292453133E-02
    0.9000000000E+01    0.4911883053E-05    0.4176655174E+00    0.1015975594E-04    0.5380132721E-04    0.4307178170E-02
    0.1100000000E+02    0.5192244507E-05    0.4503979638E+00    0.1069872090E-04    0.6435096943E-04    0.4318385805E-02
    0.1300000000E+02    0.5403780490E-05    0.4762367875E+00    0.1113995695E-04    0.7474880993E-04    0.4327180752E-02
    0.1500000000E+02    0.5571258659E-05    0.4971522660E+00    0.1152975772E-04    0.8502891495E-04    0.4334244763E-02
    0.1700000000E+02    0.5709770088E-05    0.5144291467E+00    0.1189380363E-04    0.9521529221E-04    0.4340022571E-02
    0.1900000000E+02    0.5828883247E-05    0.5289409390E+00    0.1224673609E-04    0.1053257054E-03    0.4344817161E-02
    0.2100000000E+02    0.5934862290E-05    0.5413022664E+00    0.1259703102E-04    0.1153737904E-03    0.4348842329E-02
    0.2300000000E+02    0.6031916327E-05    0.5519581593E+00    0.1294960690E-04    0.1253703212E-03    0.4352253396E-02
    0.2500000000E+02    0.6122934534E-05    0.5612387755E+00    0.1330727827E-04    0.1353240099E-03    0.4355166011E-02
    0.2700000000E+02    0.6209934980E-05    0.5693942175E+00    0.1367159314E-04    0.1452420385E-03    0.4357668111E-02
    0.2900000000E+02    0.6294347398E-05    0.5766174101E+00    0.1404332865E-04    0.1551304234E-03    0.4359827798E-02
    0.3100000000E+02    0.6377196212E-05    0.5830595570E+00    0.1442279107E-04    0.1649942743E-03    0.4361698658E-02
    0.3300000000E+02    0.6459221828E-05    0.5888408401E+00    0.1481000050E-04    0.1748379828E-03    0.4363323454E-02
    0.3500000000E+02    0.6540962676E-05    0.5940579873E+00    0.1520480617E-04    0.1846653629E-03    0.4364736740E-02
    0.3700000000E+02    0.6622811712E-05    0.5987897277E+00    0.1560695899E-04    0.1944797571E-03    0.4365966757E-02
    0.3900000000E+02    0.6705055972E-05    0.6031007922E+00    0.1601615750E-04    0.2042841191E-03    0.4367036814E-02
    0.4100000000E+02    0.6787904639E-05    0.6070448918E+00    0.1643207686E-04    0.2140810780E-03    0.4367966331E-02
    0.4300000000E+02    0.6871509233E-05    0.6106669673E+00    0.1685438705E-04    0.2238729895E-03    0.4368771621E-02
    0.4500000000E+02    0.6955978279E-05    0.6140049091E+00    0.1728276406E-04    0.2336619774E-03    0.4369466490E-02
    0.4700000000E+02    0.7041388090E-05    0.6170908874E+00    0.1771689664E-04    0.2434499666E-03    0.4370062707E-02
    0.4900000000E+02    0.7127790750E-05    0.6199523927E+00    0.1815648999E-04    0.2532387107E-03    0.4370570366E-02
    0.1000000000E+02    0.5062775003E-05    0.4350550853E+00    0.1044558531E-04    0.5909781098E-04    0.4313139542E-02
    0.3000000000E+02    0.6335915436E-05    0.5799279769E+00    0.1423208764E-04    0.1600651261E-03    0.4360796440E-02
    0.5000000000E+02    0.7171375550E-05    0.6213064847E+00    0.1837824730E-04    0.2581338727E-03    0.4370793756E-02
    0.7000000000E+02    0.8097858338E-05    0.6409041352E+00    0.2304312056E-04    0.3564059630E-03    0.4372208402E-02
    0.9000000000E+02    0.9120429779E-05    0.6523349905E+00    0.2804519912E-04    0.4560098137E-03    0.4370106991E-02
    0.1100000000E+03    0.1022417479E-04    0.6598235540E+00    0.3330481597E-04    0.5575789899E-03    0.4366117677E-02
    0.1300000000E+03    0.1139852002E-04    0.6651091966E+00    0.3878867320E-04    0.6615539316E-03    0.4360927811E-02
    0.1500000000E+03    0.1263723505E-04    0.6690392593E+00    0.4448438601E-04    0.7682846959E-03    0.4354876582E-02
    0.1700000000E+03    0.1393701476E-04    0.6720759091E+00    0.5038993832E-04    0.8780756551E-03    0.4348148352E-02
    0.1900000000E+03    0.1529647257E-04    0.6744926639E+00    0.5650900268E-04    0.9912082472E-03    0.4340849335E-02
    0.2100000000E+03    0.1671552207E-04    0.6764617333E+00    0.6284871222E-04    0.1107953996E-02    0.4333042393E-02
    0.2300000000E+03    0.1819500351E-04    0.6780969476E+00    0.6941854310E-04    0.1228582730E-02    0.4324764443E-02
    0.2500000000E+03    0.1973645661E-04    0.6794765629E+00    0.7622973828E-04    0.1353368242E-02    0.4316035848E-02
    0.2700000000E+03    0.2134198165E-04    0.6806561512E+00    0.8329501324E-04    0.1482592537E-02    0.4306865777E-02
    0.2900000000E+03    0.2301415521E-04    0.6816762638E+00    0.9062841768E-04    0.1616549259E-02    0.4297255407E-02
    0.3100000000E+03    0.2475598094E-04    0.6825671854E+00    0.9824528922E-04    0.1755546676E-02    0.4287199901E-02
    0.3300000000E+03    0.2657086370E-04    0.6833519894E+00    0.1061622650E-03    0.1899910420E-02    0.4276689650E-02
    0.3500000000E+03    0.2846260013E-04    0.6840485636E+00    0.1143973324E-03    0.2049986146E-02    0.4265711065E-02
    0.3700000000E+03    0.3043538101E-04    0.6846709899E+00    0.1229699096E-03    0.2206142197E-02    0.4254247072E-02
    0.3900000000E+03    0.3249380304E-04    0.6852305048E+00    0.1319009492E-03    0.2368772359E-02    0.4242277405E-02
    0.4100000000E+03    0.3464288825E-04    0.6857361838E+00    0.1412130629E-03    0.2538298770E-02    0.4229778771E-02
    0.4300000000E+03    0.3688811007E-04    0.6861954373E+00    0.1509306667E-03    0.2715175030E-02    0.4216724899E-02
    0.4500000000E+03    0.3923542575E-04    0.6866143751E+00    0.1610801458E-03    0.2899889568E-02    0.4203086522E-02
    0.4700000000E+03    0.4169131466E-04    0.6869980802E+00    0.1716900408E-03    0.3092969317E-02    0.4188831289E-02
    0.4900000000E+03    0.4426282296E-04    0.6873508157E+00    0.1827912563E-03    0.3294983745E-02    0.4173923625E-02
    0.1000000000E+03    0.9662935990E-05    0.6564325787E+00    0.3064557715E-04    0.5065183190E-03    0.4368293476E-02
    0.3000000000E+03    0.2387615798E-04    0.6821362900E+00    0.9440041114E-04    0.1685397967E-02    0.4292283795E-02
    0.5000000000E+03    0.4559430366E-04    0.6875167178E+00    0.1885364704E-03    0.3399532136E-02    0.4166213087E-02
    0.7000000000E+03    0.8065317893E-04    0.6898470000E+00    0.3394960747E-03    0.6148027589E-02    0.3965675269E-02
    0.9000000000E+03    0.1434181428E-03    0.6911474738E+00    0.6095788742E-03    0.1107489659E-01    0.3618040357E-02
    0.1100000000E+04    0.2698054424E-03    0.6919769751E+00    0.1154563085E-02    0.2104862121E-01    0.2951908225E-02
    0.1300000000E+04    0.5189345534E-03    0.6925519694E+00    0.2234454921E-02    0.4092722986E-01    0.1748614520E-02
    0.1500000000E+04    0.7950044857E-03    0.6929739101E+00    0.3447082901E-02    0.6355709064E-01    0.6605222789E-03
    0.1700000000E+04    0.9403888853E-03    0.6932966625E+00    0.4108360094E-02    0.7633095735E-01    0.3567701578E-03
    0.1900000000E+04    0.1030022896E-02    0.6935514761E+00    0.4534448500E-02    0.8490735162E-01    0.3147630962E-03
    0.2100000000E+04    0.1106186145E-02    0.6937577249E+00    0.4906888497E-02    0.9259739838E-01    0.3110368455E-03
    0.2300000000E+04    0.1176303164E-02    0.6939280585E+00    0.5257456267E-02    0.9997979405E-01    0.3119736819E-03
    0.2500000000E+04    0.1241652855E-02    0.6940710865E+00    0.5591312572E-02    0.1071434870E+00    0.3133766098E-03
    0.2700000000E+04    0.1302647560E-02    0.6941928713E+00    0.5909864425E-02    0.1141082106E+00    0.3147430687E-03
    0.2900000000E+04    0.1359567444E-02    0.6942978056E+00    0.6213968175E-02    0.1208838507E+00    0.3160235033E-03
    0.3100000000E+04    0.1412659989E-02    0.6943891496E+00    0.6504364718E-02    0.1274785453E+00    0.3172223066E-03
    0.3300000000E+04    0.1462154425E-02    0.6944693743E+00    0.6781741151E-02    0.1338998127E+00    0.3183487290E-03
    0.3500000000E+04    0.1508264694E-02    0.6945403861E+00    0.7046741900E-02    0.1401547323E+00    0.3194111271E-03
    0.3700000000E+04    0.1551190801E-02    0.6946036797E+00    0.7299972769E-02    0.1462499938E+00    0.3204165585E-03
    0.3900000000E+04    0.1591119859E-02    0.6946604431E+00    0.7542003813E-02    0.1521919263E+00    0.3213709766E-03
    0.4100000000E+04    0.1628227030E-02    0.6947116329E+00    0.7773371865E-02    0.1579865223E+00    0.3222794421E-03
    0.4300000000E+04    0.1662676379E-02    0.6947580276E+00    0.7994582834E-02    0.1636394604E+00    0.3231462922E-03
    0.4500000000E+04    0.1694621670E-02    0.6948002674E+00    0.8206113821E-02    0.1691561254E+00    0.3239752727E-03
    0.4700000000E+04    0.1724207085E-02    0.6948388833E+00    0.8408415063E-02    0.1745416274E+00    0.3247696413E-03
    0.4900000000E+04    0.1751567898E-02    0.6948743200E+00    0.8601911732E-02    0.1798008189E+00    0.3255322492E-03
    0.1000000000E+04    0.1949912486E-03    0.6916035313E+00    0.8317543510E-03    0.1513615547E-01    0.3341347750E-02
    0.3000000000E+04    0.1386577429E-02    0.6943450065E+00    0.6360835838E-02    0.1242033351E+00    0.3166325260E-03
    0.5000000000E+04    0.1764454069E-02    0.6948909656E+00    0.8695484772E-02    0.1823844983E+00    0.3259024391E-03
    0.7000000000E+04    0.1932360267E-02    0.6951231265E+00    0.1019135393E-01    0.2284339271E+00    0.3321163370E-03
    0.9000000000E+04    0.1982606942E-02    0.6952510026E+00    0.1115046474E-01    0.2659150887E+00    0.3368209001E-03
    0.1100000000E+05    0.1966369518E-02    0.6953316505E+00    0.1175407582E-01    0.2970996130E+00    0.3406188416E-03
    0.1300000000E+05    0.1912984198E-02    0.6953869684E+00    0.1211602270E-01    0.3235075338E+00    0.3438097315E-03
    0.1500000000E+05    0.1839670559E-02    0.6954271512E+00    0.1231044286E-01    0.3461968214E+00    0.3465647719E-03
    0.1700000000E+05    0.1756687971E-02    0.6954575822E+00    0.1238706628E-01    0.3659282232E+00    0.3489912161E-03
    0.1900000000E+05    0.1670186431E-02    0.6954813700E+00    0.1238006969E-01    0.3832639241E+00    0.3511607983E-03
    0.2100000000E+05    0.1583837380E-02    0.6955004336E+00    0.1231341679E-01    0.3986291363E+00    0.3531239115E-03
    0.2300000000E+05    0.1499793276E-02    0.6955160211E+00    0.1220419211E-01    0.4123519523E+00    0.3549173387E-03
    0.2500000000E+05    0.1419265532E-02    0.6955289788E+00    0.1206474476E-01    0.4246899448E+00    0.3565687662E-03
    0.2700000000E+05    0.1342879355E-02    0.6955399004E+00    0.1190410244E-01    0.4358484068E+00    0.3580995654E-03
    0.2900000000E+05    0.1270895008E-02    0.6955492148E+00    0.1172892520E-01    0.4459931590E+00    0.3595265848E-03
    0.3100000000E+05    0.1203347463E-02    0.6955572392E+00    0.1154416131E-01    0.4552597333E+00    0.3608633463E-03
    0.3300000000E+05    0.1140135322E-02    0.6955642130E+00    0.1135350622E-01    0.4637600825E+00    0.3621208706E-03
    0.3500000000E+05    0.1081077726E-02    0.6955703206E+00    0.1115972860E-01    0.4715875641E+00    0.3633082604E-03
    0.3700000000E+05    0.1025950826E-02    0.6955757060E+00    0.1096490511E-01    0.4788206993E+00    0.3644331226E-03
    0.3900000000E+05    0.9745110679E-03    0.6955804832E+00    0.1077059159E-01    0.4855260462E+00    0.3655018804E-03
    0.4100000000E+05    0.9265099146E-03    0.6955847438E+00    0.1057794917E-01    0.4917604244E+00    0.3665200078E-03
    0.4300000000E+05    0.8817029679E-03    0.6955885622E+00    0.1038783812E-01    0.4975726547E+00    0.3674922084E-03
    0.4500000000E+05    0.8398554336E-03    0.6955919991E+00    0.1020088830E-01    0.5030049369E+00    0.3684225541E-03
    0.4700000000E+05    0.8007451906E-03    0.6955951050E+00    0.1001755249E-01    0.5080939478E+00    0.3693145939E-03
    0.4900000000E+05    0.7641643023E-03    0.6955979219E+00    0.9838146976E-02    0.5128717273E+00    0.3701714401E-03
    0.1000000000E+05    0.1980597612E-02    0.6952954497E+00    0.1148841956E-01    0.2821860192E+00    0.3388102812E-03
    0.3000000000E+05    0.1236570566E-02    0.6955533718E+00    0.1163748561E-01    0.4507287341E+00    0.3602055081E-03
    0.5000000000E+05    0.7467614040E-03    0.6955992332E+00    0.9749987416E-02    0.5151528292E+00    0.3705875360E-03
    0.7000000000E+05    0.4921619854E-03    0.6956164852E+00    0.8210755078E-02    0.5497350157E+00    0.3775855312E-03
    0.9000000000E+05    0.3474160812E-03    0.6956247249E+00    0.7046255307E-02    0.5714141760E+00    0.3828973111E-03
    0.1100000000E+06    0.2580258517E-03    0.6956291041E+00    0.6154569069E-02    0.5863045656E+00    0.3871917544E-03
    0.1300000000E+06    0.1991389003E-03    0.6956315321E+00    0.5455738584E-02    0.5971730454E+00    0.3908032127E-03
    0.1500000000E+06    0.1583468465E-03    0.6956328661E+00    0.4895508147E-02    0.6054591267E+00    0.3939234387E-03
    0.1700000000E+06    0.1289411685E-03    0.6956335423E+00    0.4437341417E-02    0.6119872094E+00    0.3966728486E-03
    0.1900000000E+06    0.1070496840E-03    0.6956338027E+00    0.4056161688E-02    0.6172639572E+00    0.3991321206E-03
    0.2100000000E+06    0.9031413082E-04    0.6956337908E+00    0.3734332519E-02    0.6216181323E+00    0.4013580061E-03
    0.2300000000E+06    0.7723294807E-04    0.6956335961E+00    0.3459147504E-02    0.6252724702E+00    0.4033919720E-03
    0.2500000000E+06    0.6681369667E-04    0.6956332763E+00    0.3221246268E-02    0.6283832766E+00    0.4052652563E-03
    0.2700000000E+06    0.5837929931E-04    0.6956328703E+00    0.3013593767E-02    0.6310634971E+00    0.4070019884E-03
    0.2900000000E+06    0.5145506775E-04    0.6956324045E+00    0.2830807012E-02    0.6333967888E+00    0.4086212020E-03
    0.3100000000E+06    0.4570023891E-04    0.6956318977E+00    0.2668700638E-02    0.6354464428E+00    0.4101381803E-03
    0.3300000000E+06    0.4086506872E-04    0.6956313630E+00    0.2523973466E-02    0.6372612295E+00    0.4115653847E-03
    0.3500000000E+06    0.3676314139E-04    0.6956308101E+00    0.2393987986E-02    0.6388793395E+00    0.4129131114E-03
    0.3700000000E+06    0.3325302906E-04    0.6956302460E+00    0.2276612332E-02    0.6403311061E+00    0.4141899674E-03
    0.3900000000E+06    0.3022586131E-04    0.6956296757E+00    0.2170105153E-02    0.6416409279E+00    0.4154032227E-03
    0.4100000000E+06    0.2759672489E-04    0.6956291033E+00    0.2073030435E-02    0.6428286529E+00    0.4165590741E-03
    0.4300000000E+06    0.2529860194E-04    0.6956285315E+00    0.1984193614E-02    0.6439105929E+00    0.4176628477E-03
    0.4500000000E+06    0.2327802538E-04    0.6956279624E+00    0.1902593030E-02    0.6449002774E+00    0.4187191552E-03
    0.4700000000E+06    0.2149191714E-04    0.6956273976E+00    0.1827382603E-02    0.6458090225E+00    0.4197320167E-03
    0.4900000000E+06    0.1990525500E-04    0.6956268383E+00    0.1757842839E-02    0.6466463663E+00    0.4207049581E-03
    0.1000000000E+06    0.2977709717E-03    0.6956272404E+00    0.6571999204E-02    0.5794905350E+00    0.3851461522E-03
    0.3000000000E+06    0.4844883914E-04    0.6956321553E+00    0.2747392875E-02    0.6344537355E+00    0.4093916343E-03
    0.5000000000E+06    0.1917753616E-04    0.6956265610E+00    0.1725003521E-02    0.6470408414E+00    0.4211774451E-03
    0.7000000000E+06    0.1025870285E-04    0.6956214122E+00    0.1254722745E-02    0.6526261619E+00    0.4291249810E-03
    0.9000000000E+06    0.6395932772E-05    0.6956170128E+00    0.9849365684E-03    0.6557802585E+00    0.4351586306E-03
    0.1100000000E+07    0.4376258250E-05    0.6956132243E+00    0.8101257040E-03    0.6578065902E+00    0.4400371981E-03
    0.1300000000E+07    0.3187594801E-05    0.6956099105E+00    0.6877158093E-03    0.6592181634E+00    0.4441401533E-03
    0.1500000000E+07    0.2428589357E-05    0.6956069693E+00    0.5972527754E-03    0.6602578290E+00    0.4476851827E-03
    0.1700000000E+07    0.1914130091E-05    0.6956043263E+00    0.5276942301E-03    0.6610554212E+00    0.4508090130E-03
    0.1900000000E+07    0.1549149001E-05    0.6956019267E+00    0.4725570525E-03    0.6616866465E+00    0.4536032624E-03
    0.2100000000E+07    0.1280716176E-05    0.6955997292E+00    0.4277855605E-03    0.6621986270E+00    0.4561323835E-03
    0.2300000000E+07    0.1077445995E-05    0.6955977020E+00    0.3907131880E-03    0.6626222265E+00    0.4584434744E-03
    0.2500000000E+07    0.9197618748E-06    0.6955958202E+00    0.3595149564E-03    0.6629785050E+00    0.4605720167E-03
    0.2700000000E+07    0.7949347266E-06    0.6955940641E+00    0.3328999116E-03    0.6632823248E+00    0.4625454198E-03
    0.2900000000E+07    0.6943948990E-06    0.6955924175E+00    0.3099292103E-03    0.6635444739E+00    0.4643853050E-03
    0.3100000000E+07    0.6122000338E-06    0.6955908675E+00    0.2899037989E-03    0.6637729727E+00    0.4661090341E-03
    0.3300000000E+07    0.5441235369E-06    0.6955894030E+00    0.2722924955E-03    0.6639739075E+00    0.4677307636E-03
    0.3500000000E+07    0.4870920137E-06    0.6955880148E+00    0.2566844801E-03    0.6641519807E+00    0.4692621906E-03
    0.3700000000E+07    0.4388268633E-06    0.6955866953E+00    0.2427570512E-03    0.6643108828E+00    0.4707130935E-03
    0.3900000000E+07    0.3976095022E-06    0.6955854378E+00    0.2302532151E-03    0.6644535506E+00    0.4720917317E-03
    0.4100000000E+07    0.3621237527E-06    0.6955842366E+00    0.2189657823E-03    0.6645823503E+00    0.4734051456E-03
    0.4300000000E+07    0.3313476979E-06    0.6955830868E+00    0.2087258670E-03    0.6646992096E+00    0.4746593864E-03
    0.4500000000E+07    0.3044780160E-06    0.6955819840E+00    0.1993944322E-03    0.6648057150E+00    0.4758596936E-03
    0.4700000000E+07    0.2808760970E-06    0.6955809244E+00    0.1908559781E-03    0.6649031837E+00    0.4770106348E-03
    0.4900000000E+07    0.2600290570E-06    0.6955799047E+00    0.1830137670E-03    0.6649927187E+00    0.4781162162E-03
    0.1000000000E+07    0.5241593221E-05    0.6956150515E+00    0.8890875703E-03    0.6568928942E+00    0.4377133073E-03
    0.3000000000E+07    0.6513008698E-06    0.6955916312E+00    0.2995848283E-03    0.6636625114E+00    0.4652607391E-03
    0.5000000000E+07    0.2505055151E-06    0.6955794088E+00    0.1793277339E-03    0.6650348077E+00    0.4786531176E-03
    0.7000000000E+07    0.1357488980E-06    0.6955710125E+00    0.1277264707E-03    0.6656245359E+00    0.4876842066E-03
    0.9000000000E+07    0.8712355868E-07    0.6955645791E+00    0.9908539106E-04    0.6659525268E+00    0.4945405271E-03
    0.1100000000E+08    0.6186681264E-07    0.6955593474E+00    0.8088436901E-04    0.6661613723E+00    0.5000842919E-03
    0.1300000000E+08    0.4698458435E-07    0.6955549296E+00    0.6830199223E-04    0.6663060124E+00    0.5047466957E-03
    0.1500000000E+08    0.3742604914E-07    0.6955511010E+00    0.5908799546E-04    0.6664121116E+00    0.5087751013E-03
    0.1700000000E+08    0.3088907031E-07    0.6955477189E+00    0.5205147792E-04    0.6664932651E+00    0.5123248760E-03
    0.1900000000E+08    0.2619954249E-07    0.6955446876E+00    0.4650336214E-04    0.6665573471E+00    0.5155001294E-03
    0.2100000000E+08    0.2270623636E-07    0.6955419391E+00    0.4201736270E-04    0.6666092335E+00    0.5183741024E-03
    0.2300000000E+08    0.2002359111E-07    0.6955394238E+00    0.3831566679E-04    0.6666521049E+00    0.5210003146E-03
    0.2500000000E+08    0.1791109186E-07    0.6955371041E+00    0.3520950010E-04    0.6666881243E+00    0.5234190862E-03
    0.2700000000E+08    0.1621213872E-07    0.6955349509E+00    0.3256611861E-04    0.6667188140E+00    0.5256615636E-03
