  Pressure (Pa) 23mC5-500 (mol/kg) 24mC5-500 (mol/kg) 2mC6-500 (mol/kg) 3mC6-500 (mol/kg) C7-500 (mol/kg)
    0.1000000000E+01    0.1094994574E-05    0.2142832340E+00    0.9934293100E-05    0.5104599960E-05    0.4145277499E-02
    0.3000000000E+01    0.1874513471E-05    0.3978587980E+00    0.1636910669E-04    0.1260021736E-04    0.4168559483E-02
    0.5000000000E+01    0.2181003347E-05    0.4801243233E+00    0.1915189331E-04    0.1939862022E-04    0.4173890595E-02
    0.7000000000E+01    0.2360887433E-05    0.5268087616E+00    0.2125901212E-04    0.2586891228E-04    0.4176020506E-02
    0.9000000000E+01    0.2497026214E-05    0.5568918805E+00    0.2325007061E-04    0.3213299025E-04    0.4176946987E-02
    0.1100000000E+02    0.2616445202E-05    0.5778922638E+00    0.2525718444E-04    0.3825115727E-04    0.4177285469E-02
    0.1300000000E+02    0.2729559884E-05    0.5933838374E+00    0.2730997440E-04    0.4425902027E-04    0.4177292758E-02
    0.1500000000E+02    0.2840788037E-05    0.6052828838E+00    0.2941020693E-04    0.5017989827E-04    0.4177095757E-02
    0.1700000000E+02    0.2952095045E-05    0.6147092382E+00    0.3155229423E-04    0.5603015086E-04    0.4176764486E-02
    0.1900000000E+02    0.3064356663E-05    0.6223611191E+00    0.3372941861E-04    0.6182183509E-04    0.4176340727E-02
    0.2100000000E+02    0.3177937492E-05    0.6286964817E+00    0.3593533930E-04    0.6756417334E-04    0.4175850916E-02
    0.2300000000E+02    0.3292954987E-05    0.6340281779E+00    0.3816481801E-04    0.7326442770E-04    0.4175312566E-02
    0.2500000000E+02    0.3409406457E-05    0.6385772087E+00    0.4041360352E-04    0.7892845187E-04    0.4174737711E-02
    0.2700000000E+02    0.3527232492E-05    0.6425041271E+00    0.4267829214E-04    0.8456105586E-04    0.4174134871E-02
    0.2900000000E+02    0.3646349355E-05    0.6459283833E+00    0.4495617161E-04    0.9016625627E-04    0.4173510232E-02
    0.3100000000E+02    0.3766665659E-05    0.6489406861E+00    0.4724508173E-04    0.9574745345E-04    0.4172868381E-02
    0.3300000000E+02    0.3888090854E-05    0.6516111574E+00    0.4954329964E-04    0.1013075602E-03    0.4172212781E-02
    0.3500000000E+02    0.4010539357E-05    0.6539948588E+00    0.5184944827E-04    0.1068490976E-03    0.4171546085E-02
    0.3700000000E+02    0.4133932357E-05    0.6561356290E+00    0.5416242454E-04    0.1123742672E-03    0.4170870357E-02
    0.3900000000E+02    0.4258198366E-05    0.6580688041E+00    0.5648134305E-04    0.1178850075E-03    0.4170187220E-02
    0.4100000000E+02    0.4383273132E-05    0.6598231841E+00    0.5880549220E-04    0.1233830371E-03    0.4169497960E-02
    0.4300000000E+02    0.4509099213E-05    0.6614224772E+00    0.6113429974E-04    0.1288698901E-03    0.4168803610E-02
    0.4500000000E+02    0.4635625426E-05    0.6628863773E+00    0.6346730566E-04    0.1343469434E-03    0.4168105004E-02
    0.4700000000E+02    0.4762806238E-05    0.6642313793E+00    0.6580414081E-04    0.1398154398E-03    0.4167402820E-02
    0.4900000000E+02    0.4890601175E-05    0.6654714032E+00    0.6814450988E-04    0.1452765060E-03    0.4166697613E-02
    0.1000000000E+02    0.2557965530E-05    0.5682493327E+00    0.2424868526E-04    0.3520770664E-04    0.4177169218E-02
    0.3000000000E+02    0.3706363319E-05    0.6474812385E+00    0.4609936459E-04    0.9295966304E-04    0.4173191220E-02
    0.5000000000E+02    0.4954717538E-05    0.6660558156E+00    0.6931594415E-04    0.1480045773E-03    0.4166344022E-02
    0.7000000000E+02    0.6262456941E-05    0.6743467251E+00    0.9289497800E-04    0.2023841498E-03    0.4159189673E-02
    0.9000000000E+02    0.7608396899E-05    0.6790425937E+00    0.1167448951E-03    0.2568023474E-03    0.4151960451E-02
    0.1100000000E+03    0.8985804202E-05    0.6820650617E+00    0.1408960764E-03    0.3116267793E-03    0.4144689072E-02
    0.1300000000E+03    0.1039279753E-04    0.6841733338E+00    0.1653962313E-03    0.3670911729E-03    0.4137371468E-02
    0.1500000000E+03    0.1182937235E-04    0.6857276875E+00    0.1902924648E-03    0.4233638500E-03    0.4129995451E-02
    0.1700000000E+03    0.1329634318E-04    0.6869210716E+00    0.2156284183E-03    0.4805772194E-03    0.4122547501E-02
    0.1900000000E+03    0.1479492026E-04    0.6878661439E+00    0.2414444964E-03    0.5388425249E-03    0.4115014508E-02
    0.2100000000E+03    0.1632652577E-04    0.6886330995E+00    0.2677786548E-03    0.5982580333E-03    0.4107384150E-02
    0.2300000000E+03    0.1789271019E-04    0.6892679542E+00    0.2946671735E-03    0.6589139544E-03    0.4099644860E-02
    0.2500000000E+03    0.1949511377E-04    0.6898021300E+00    0.3221453029E-03    0.7208955926E-03    0.4091785694E-02
    0.2700000000E+03    0.2113544978E-04    0.6902578157E+00    0.3502477832E-03    0.7842854796E-03    0.4083796175E-02
    0.2900000000E+03    0.2281549862E-04    0.6906511259E+00    0.3790092638E-03    0.8491648895E-03    0.4075666157E-02
    0.3100000000E+03    0.2453710777E-04    0.6909940466E+00    0.4084646454E-03    0.9156149649E-03    0.4067385701E-02
    0.3300000000E+03    0.2630219475E-04    0.6912956777E+00    0.4386493675E-03    0.9837175920E-03    0.4058944972E-02
    0.3500000000E+03    0.2811275196E-04    0.6915630526E+00    0.4695996554E-03    0.1053556109E-02    0.4050334151E-02
    0.3700000000E+03    0.2997085260E-04    0.6918016928E+00    0.5013527396E-03    0.1125215901E-02    0.4041543359E-02
    0.3900000000E+03    0.3187865725E-04    0.6920159939E+00    0.5339470555E-03    0.1198784927E-02    0.4032562586E-02
    0.4100000000E+03    0.3383842111E-04    0.6922094984E+00    0.5674224302E-03    0.1274354188E-02    0.4023381635E-02
    0.4300000000E+03    0.3585250159E-04    0.6923850932E+00    0.6018202620E-03    0.1352018172E-02    0.4013990063E-02
    0.4500000000E+03    0.3792336645E-04    0.6925451545E+00    0.6371836960E-03    0.1431875282E-02    0.4004377132E-02
    0.4700000000E+03    0.4005360226E-04    0.6926916560E+00    0.6735577991E-03    0.1514028246E-02    0.3994531756E-02
    0.4900000000E+03    0.4224592350E-04    0.6928262504E+00    0.7109897374E-03    0.1598584543E-02    0.3984442458E-02
    0.1000000000E+03    0.8293348777E-05    0.6807016305E+00    0.1287799116E-03    0.2841471314E-03    0.4148329946E-02
    0.3000000000E+03    0.2367099000E-04    0.6908282597E+00    0.3936480177E-03    0.8821885025E-03    0.4071545349E-02
    0.5000000000E+03    0.4336625173E-04    0.6928895271E+00    0.7301177526E-03    0.1641798931E-02    0.3979302633E-02
    0.7000000000E+03    0.6983112931E-04    0.6937765422E+00    0.1182019497E-02    0.2663710316E-02    0.3860439287E-02
    0.9000000000E+03    0.1071686614E-03    0.6942702196E+00    0.1820123253E-02    0.4109226963E-02    0.3698656406E-02
    0.1100000000E+04    0.1627930416E-03    0.6945846841E+00    0.2772088148E-02    0.6269784026E-02    0.3466013782E-02
    0.1300000000E+04    0.2506650450E-03    0.6948025149E+00    0.4278775788E-02    0.9696750644E-02    0.3112564681E-02
    0.1500000000E+04    0.3957800875E-03    0.6949623127E+00    0.6773442885E-02    0.1538686764E-01    0.2556548757E-02
    0.1700000000E+04    0.6263955008E-03    0.6950845361E+00    0.1075388974E-01    0.2450441589E-01    0.1732928912E-02
    0.1900000000E+04    0.9100384136E-03    0.6951810389E+00    0.1568530659E-01    0.3588579372E-01    0.8366905092E-03
    0.2100000000E+04    0.1132839494E-02    0.6952591638E+00    0.1961676019E-01    0.4509747056E-01    0.2923787077E-03
    0.2300000000E+04    0.1270525563E-02    0.6953237017E+00    0.2211105624E-01    0.5109546109E-01    0.1002217874E-03
    0.2500000000E+04    0.1367746047E-02    0.6953779113E+00    0.2392399816E-01    0.5557616419E-01    0.4831087248E-04
    0.2700000000E+04    0.1450114732E-02    0.6954240869E+00    0.2549365313E-01    0.5953379172E-01    0.3544484301E-04
    0.2900000000E+04    0.1525901006E-02    0.6954638898E+00    0.2696170478E-01    0.6329072044E-01    0.3237292574E-04
    0.3100000000E+04    0.1597481371E-02    0.6954985532E+00    0.2836846282E-01    0.6693789299E-01    0.3170157821E-04
    0.3300000000E+04    0.1665596349E-02    0.6955290113E+00    0.2972597772E-01    0.7050143832E-01    0.3161569062E-04
    0.3500000000E+04    0.1730549899E-02    0.6955559849E+00    0.3103875843E-01    0.7399016788E-01    0.3167045343E-04
    0.3700000000E+04    0.1792526369E-02    0.6955800389E+00    0.3230927323E-01    0.7740825089E-01    0.3175645236E-04
    0.3900000000E+04    0.1851673272E-02    0.6956016226E+00    0.3353939134E-01    0.8075854911E-01    0.3184680559E-04
    0.4100000000E+04    0.1908123143E-02    0.6956210974E+00    0.3473076298E-01    0.8404349640E-01    0.3193508159E-04
    0.4300000000E+04    0.1961999569E-02    0.6956387576E+00    0.3588492273E-01    0.8726533505E-01    0.3201993468E-04
    0.4500000000E+04    0.2013419077E-02    0.6956548453E+00    0.3700332012E-01    0.9042618274E-01    0.3210127077E-04
    0.4700000000E+04    0.2062491930E-02    0.6956695612E+00    0.3808733109E-01    0.9352805463E-01    0.3217928483E-04
    0.4900000000E+04    0.2109322601E-02    0.6956830734E+00    0.3913826403E-01    0.9657287321E-01    0.3225422017E-04
    0.1000000000E+04    0.1320283589E-03    0.6944431473E+00    0.2245387017E-02    0.5073871922E-02    0.3593643134E-02
    0.3000000000E+04    0.1562153468E-02    0.6954817998E+00    0.2767169524E-01    0.6512571044E-01    0.3190595426E-04
    0.5000000000E+04    0.2131928280E-02    0.6956894232E+00    0.3965171775E-01    0.9807446452E-01    0.3229060714E-04
    0.7000000000E+04    0.2487846591E-02    0.6957782388E+00    0.4845703026E-01    0.1255164764E+00    0.3290225311E-04
    0.9000000000E+04    0.2705608311E-02    0.6958274758E+00    0.5505855058E-01    0.1489112820E+00    0.3336619119E-04
    0.1100000000E+05    0.2831684090E-02    0.6958587381E+00    0.6007749271E-01    0.1692250807E+00    0.3374112355E-04
    0.1300000000E+05    0.2895746246E-02    0.6958803311E+00    0.6392927177E-01    0.1871277197E+00    0.3405634640E-04
    0.1500000000E+05    0.2917313400E-02    0.6958961284E+00    0.6690115303E-01    0.2030995157E+00    0.3432864456E-04
    0.1700000000E+05    0.2909540639E-02    0.6959081796E+00    0.6919743931E-01    0.2174947893E+00    0.3456855142E-04
    0.1900000000E+05    0.2881472429E-02    0.6959176705E+00    0.7096693324E-01    0.2305813145E+00    0.3478312084E-04
    0.2100000000E+05    0.2839429176E-02    0.6959253345E+00    0.7232025253E-01    0.2425657260E+00    0.3497731291E-04
    0.2300000000E+05    0.2787886313E-02    0.6959316499E+00    0.7334109821E-01    0.2536104045E+00    0.3515475079E-04
    0.2500000000E+05    0.2730046115E-02    0.6959369413E+00    0.7409379174E-01    0.2638450100E+00    0.3531816327E-04
    0.2700000000E+05    0.2668218033E-02    0.6959414374E+00    0.7462843923E-01    0.2733745505E+00    0.3546965780E-04
    0.2900000000E+05    0.2604076650E-02    0.6959453034E+00    0.7498454598E-01    0.2822851478E+00    0.3561089647E-04
    0.3100000000E+05    0.2538839686E-02    0.6959486618E+00    0.7519359465E-01    0.2906482376E+00    0.3574321374E-04
    0.3300000000E+05    0.2473392693E-02    0.6959516055E+00    0.7528091571E-01    0.2985236801E+00    0.3586769751E-04
    0.3500000000E+05    0.2408377621E-02    0.6959542059E+00    0.7526706534E-01    0.3059621002E+00    0.3598524660E-04
    0.3700000000E+05    0.2344256461E-02    0.6959565190E+00    0.7516885456E-01    0.3130066729E+00    0.3609661231E-04
    0.3900000000E+05    0.2281357480E-02    0.6959585893E+00    0.7500012765E-01    0.3196945018E+00    0.3620242914E-04
    0.4100000000E+05    0.2219909131E-02    0.6959604527E+00    0.7477235761E-01    0.3260576973E+00    0.3630323796E-04
    0.4300000000E+05    0.2160065132E-02    0.6959621382E+00    0.7449510669E-01    0.3321242276E+00    0.3639950355E-04
    0.4500000000E+05    0.2101923147E-02    0.6959636697E+00    0.7417638573E-01    0.3379185981E+00    0.3649162836E-04
    0.4700000000E+05    0.2045538805E-02    0.6959650671E+00    0.7382293733E-01    0.3434623977E+00    0.3657996320E-04
    0.4900000000E+05    0.1990936269E-02    0.6959663468E+00    0.7344046066E-01    0.3487747427E+00    0.3666481574E-04
    0.1000000000E+05    0.2777955067E-02    0.6958446789E+00    0.5773617623E-01    0.1594060248E+00    0.3356254382E-04
    0.3000000000E+05    0.2571533166E-02    0.6959470397E+00    0.7510574337E-01    0.2865311491E+00    0.3567809728E-04
    0.5000000000E+05    0.1964304136E-02    0.6959669470E+00    0.7323987742E-01    0.3513495082E+00    0.3670602220E-04
    0.7000000000E+05    0.1518585028E-02    0.6959752406E+00    0.6855555792E-01    0.3939850771E+00    0.3739912161E-04
    0.9000000000E+05    0.1204537664E-02    0.6959797145E+00    0.6365784489E-01    0.4251548367E+00    0.3792529465E-04
    0.1100000000E+06    0.9782835601E-03    0.6959824756E+00    0.5912296074E-01    0.4493125980E+00    0.3835073078E-04
    0.1300000000E+06    0.8105502213E-03    0.6959843271E+00    0.5506051539E-01    0.4687525470E+00    0.3870852710E-04
    0.1500000000E+06    0.6828804148E-03    0.6959856403E+00    0.5145379075E-01    0.4848166716E+00    0.3901766890E-04
    0.1700000000E+06    0.5834562209E-03    0.6959866103E+00    0.4825325117E-01    0.4983586465E+00    0.3929008016E-04
    0.1900000000E+06    0.5044931968E-03    0.6959873488E+00    0.4540514049E-01    0.5099547621E+00    0.3953375071E-04
    0.2100000000E+06    0.4407120073E-03    0.6959879244E+00    0.4286020641E-01    0.5200116930E+00    0.3975430126E-04
    0.2300000000E+06    0.3884344012E-03    0.6959883815E+00    0.4057583030E-01    0.5288264716E+00    0.3995583898E-04
    0.2500000000E+06    0.3450349614E-03    0.6959887498E+00    0.3851593787E-01    0.5366221130E+00    0.4014145802E-04
    0.2700000000E+06    0.3085990899E-03    0.6959890502E+00    0.3665023000E-01    0.5435698934E+00    0.4031354858E-04
    0.2900000000E+06    0.2777036909E-03    0.6959892976E+00    0.3495328732E-01    0.5498038717E+00    0.4047399610E-04
    0.3100000000E+06    0.2512728928E-03    0.6959895030E+00    0.3340373912E-01    0.5554306860E+00    0.4062431458E-04
    0.3300000000E+06    0.2284808938E-03    0.6959896745E+00    0.3198355103E-01    0.5605363547E+00    0.4076573849E-04
    0.3500000000E+06    0.2086851384E-03    0.6959898185E+00    0.3067743487E-01    0.5651911151E+00    0.4089928784E-04
    0.3700000000E+06    0.1913794674E-03    0.6959899398E+00    0.2947236702E-01    0.5694529402E+00    0.4102581533E-04
    0.3900000000E+06    0.1761606945E-03    0.6959900423E+00    0.2835719775E-01    0.5733701412E+00    0.4114604118E-04
    0.4100000000E+06    0.1627043796E-03    0.6959901290E+00    0.2732233462E-01    0.5769833257E+00    0.4126057934E-04
    0.4300000000E+06    0.1507470154E-03    0.6959902023E+00    0.2635948546E-01    0.5803268927E+00    0.4136995746E-04
    0.4500000000E+06    0.1400727533E-03    0.6959902644E+00    0.2546144914E-01    0.5834301883E+00    0.4147463247E-04
    0.4700000000E+06    0.1305033915E-03    0.6959903167E+00    0.2462194441E-01    0.5863184101E+00    0.4157500264E-04
    0.4900000000E+06    0.1218907402E-03    0.6959903606E+00    0.2383546945E-01    0.5890133215E+00    0.4167141732E-04
    0.1000000000E+06    0.1082579648E-02    0.6959812438E+00    0.6133328258E-01    0.4379360963E+00    0.3814807608E-04
    0.3000000000E+06    0.2639867896E-03    0.6959894050E+00    0.3416128677E-01    0.5526873794E+00    0.4055033864E-04
    0.5000000000E+06    0.1179036013E-03    0.6959903799E+00    0.2346058294E-01    0.5902942908E+00    0.4171823907E-04
    0.7000000000E+06    0.6681773433E-04    0.6959905219E+00    0.1783368197E-01    0.6092643545E+00    0.4250582421E-04
    0.9000000000E+06    0.4306846641E-04    0.6959904462E+00    0.1437132270E-01    0.6207246668E+00    0.4310376191E-04
    0.1100000000E+07    0.3010022630E-04    0.6959902985E+00    0.1202820005E-01    0.6284013098E+00    0.4358723883E-04
    0.1300000000E+07    0.2224080817E-04    0.6959901267E+00    0.1033804955E-01    0.6339029884E+00    0.4399385632E-04
    0.1500000000E+07    0.1711537530E-04    0.6959899491E+00    0.9061776212E-02    0.6380391853E+00    0.4434518521E-04
    0.1700000000E+07    0.1358590188E-04    0.6959897735E+00    0.8064212793E-02    0.6412619204E+00    0.4465477418E-04
    0.1900000000E+07    0.1105103210E-04    0.6959896032E+00    0.7263219061E-02    0.6438435175E+00    0.4493170205E-04
    0.2100000000E+07    0.9168475803E-05    0.6959894396E+00    0.6606015299E-02    0.6459578460E+00    0.4518235580E-04
    0.2300000000E+07    0.7731655048E-05    0.6959892830E+00    0.6057147300E-02    0.6477211302E+00    0.4541140266E-04
    0.2500000000E+07    0.6609848797E-05    0.6959891333E+00    0.5591920401E-02    0.6492140109E+00    0.4562235877E-04
    0.2700000000E+07    0.5717035363E-05    0.6959889902E+00    0.5192608035E-02    0.6504941947E+00    0.4581794033E-04
    0.2900000000E+07    0.4994713576E-05    0.6959888534E+00    0.4846157354E-02    0.6516040647E+00    0.4600028998E-04
    0.3100000000E+07    0.4401965625E-05    0.6959887225E+00    0.4542745061E-02    0.6525754497E+00    0.4617112825E-04
    0.3300000000E+07    0.3909470156E-05    0.6959885971E+00    0.4274837359E-02    0.6534327162E+00    0.4633185805E-04
    0.3500000000E+07    0.3495766936E-05    0.6959884767E+00    0.4036560065E-02    0.6541948340E+00    0.4648363856E-04
    0.3700000000E+07    0.3144854403E-05    0.6959883611E+00    0.3823265744E-02    0.6548767912E+00    0.4662743882E-04
    0.3900000000E+07    0.2844602739E-05    0.6959882498E+00    0.3631229560E-02    0.6554905869E+00    0.4676407734E-04
    0.4100000000E+07    0.2585680594E-05    0.6959881427E+00    0.3457431301E-02    0.6560459405E+00    0.4689425183E-04
    0.4300000000E+07    0.2360813787E-05    0.6959880393E+00    0.3299396393E-02    0.6565508084E+00    0.4701856198E-04
    0.4500000000E+07    0.2164263560E-05    0.6959879395E+00    0.3155078078E-02    0.6570117663E+00    0.4713752703E-04
    0.4700000000E+07    0.1991453034E-05    0.6959878431E+00    0.3022768856E-02    0.6574342962E+00    0.4725159964E-04
    0.4900000000E+07    0.1838695640E-05    0.6959877497E+00    0.2901033031E-02    0.6578230047E+00    0.4736117683E-04
    0.1000000000E+07    0.3571084569E-04    0.6959903773E+00    0.1309664965E-01    0.6249082208E+00    0.4335693516E-04
    0.3000000000E+07    0.4684195290E-05    0.6959887873E+00    0.4689587373E-02    0.6521053981E+00    0.4608705390E-04
    0.5000000000E+07    0.1768877868E-05    0.6959877042E+00    0.2843742769E-02    0.6580059181E+00    0.4741439070E-04
    0.7000000000E+07    0.9267922648E-06    0.6959869174E+00    0.2036896557E-02    0.6605811149E+00    0.4830949889E-04
    0.9000000000E+07    0.5710583345E-06    0.6959862990E+00    0.1585125539E-02    0.6620227713E+00    0.4898907005E-04
    0.1100000000E+08    0.3877555020E-06    0.6959857883E+00    0.1296552957E-02    0.6629438372E+00    0.4953855422E-04
    0.1300000000E+08    0.2809090452E-06    0.6959853525E+00    0.1096385642E-02    0.6635829528E+00    0.5000068584E-04
    0.1500000000E+08    0.2131505200E-06    0.6959849720E+00    0.9494513969E-03    0.6640522845E+00    0.5039998058E-04
    0.1700000000E+08    0.1674594316E-06    0.6959846339E+00    0.8370392905E-03    0.6644114921E+00    0.5075183679E-04
    0.1900000000E+08    0.1351741828E-06    0.6959843294E+00    0.7482815703E-03    0.6646952267E+00    0.5106657278E-04
    0.2100000000E+08    0.1115059974E-06    0.6959840523E+00    0.6764354805E-03    0.6649249887E+00    0.5135144750E-04
    0.2300000000E+08    0.9363098176E-07    0.6959837977E+00    0.6170965807E-03    0.6651148243E+00    0.5161176539E-04
    0.2500000000E+08    0.7979565841E-07    0.6959835623E+00    0.5672664382E-03    0.6652742972E+00    0.5185152263E-04
    0.2700000000E+08    0.6886412783E-07    0.6959833431E+00    0.5248333150E-03    0.6654101443E+00    0.5207380626E-04
