  Pressure (Pa) 23mC5-500 (mol/kg) 24mC5-500 (mol/kg) 2mC6-500 (mol/kg) 3mC6-500 (mol/kg) C7-500 (mol/kg)
    0.1000000000E+01    0.1162959148E-05    0.1741066512E+00    0.7765171404E-05    0.3091511841E-05    0.4199110318E-02
    0.3000000000E+01    0.2145178597E-05    0.3481173524E+00    0.1362152551E-04    0.7941970624E-05    0.4240469710E-02
    0.5000000000E+01    0.2552586275E-05    0.4350878094E+00    0.1592654355E-04    0.1241039557E-04    0.4260428858E-02
    0.7000000000E+01    0.2771681295E-05    0.4872593453E+00    0.1732141744E-04    0.1669359481E-04    0.4272473556E-02
    0.9000000000E+01    0.2914766669E-05    0.5220360326E+00    0.1845907696E-04    0.2085822284E-04    0.4280571182E-02
    0.1100000000E+02    0.3023668532E-05    0.5468744451E+00    0.1953946651E-04    0.2493770602E-04    0.4286395540E-02
    0.1300000000E+02    0.3116428177E-05    0.5655021310E+00    0.2062927504E-04    0.2895197120E-04    0.4290783390E-02
    0.1500000000E+02    0.3201601015E-05    0.5799896667E+00    0.2174998467E-04    0.3291416531E-04    0.4294201793E-02
    0.1700000000E+02    0.3283505166E-05    0.5915792736E+00    0.2290655123E-04    0.3683356721E-04    0.4296932889E-02
    0.1900000000E+02    0.3364405922E-05    0.6010613958E+00    0.2409780800E-04    0.4071704995E-04    0.4299157621E-02
    0.2100000000E+02    0.3445512901E-05    0.6089629647E+00    0.2532049691E-04    0.4456989332E-04    0.4300997623E-02
    0.2300000000E+02    0.3527468442E-05    0.6156487615E+00    0.2657087650E-04    0.4839627038E-04    0.4302537830E-02
    0.2500000000E+02    0.3610600326E-05    0.6213793338E+00    0.2784535246E-04    0.5219955579E-04    0.4303839441E-02
    0.2700000000E+02    0.3695058329E-05    0.6263457436E+00    0.2914070038E-04    0.5598253048E-04    0.4304947730E-02
    0.2900000000E+02    0.3780890585E-05    0.6306912834E+00    0.3045411707E-04    0.5974752244E-04    0.4305896956E-02
    0.3100000000E+02    0.3868087423E-05    0.6345255271E+00    0.3178320233E-04    0.6349650687E-04    0.4306713545E-02
    0.3300000000E+02    0.3956607039E-05    0.6379336971E+00    0.3312591551E-04    0.6723117902E-04    0.4307418232E-02
    0.3500000000E+02    0.4046390728E-05    0.6409830731E+00    0.3448052640E-04    0.7095300853E-04    0.4308027530E-02
    0.3700000000E+02    0.4137371972E-05    0.6437274780E+00    0.3584556838E-04    0.7466328081E-04    0.4308554762E-02
    0.3900000000E+02    0.4229481859E-05    0.6462104819E+00    0.3721979679E-04    0.7836312887E-04    0.4309010807E-02
    0.4100000000E+02    0.4322652261E-05    0.6484677328E+00    0.3860215329E-04    0.8205355842E-04    0.4309404640E-02
    0.4300000000E+02    0.4416817650E-05    0.6505286785E+00    0.3999173581E-04    0.8573546776E-04    0.4309743739E-02
    0.4500000000E+02    0.4511916064E-05    0.6524178588E+00    0.4138777344E-04    0.8940966380E-04    0.4310034384E-02
    0.4700000000E+02    0.4607889562E-05    0.6541558867E+00    0.4278960558E-04    0.9307687508E-04    0.4310281898E-02
    0.4900000000E+02    0.4704684354E-05    0.6557602040E+00    0.4419666470E-04    0.9673776250E-04    0.4310490817E-02
    0.1000000000E+02    0.2972042491E-05    0.5354107758E+00    0.1900063839E-04    0.2290715280E-04    0.4283703217E-02
    0.3000000000E+02    0.3824320507E-05    0.6326665066E+00    0.3111683652E-04    0.6162390380E-04    0.4306320421E-02
    0.5000000000E+02    0.4753374050E-05    0.6565169518E+00    0.4490199888E-04    0.9856602500E-04    0.4310582044E-02
    0.7000000000E+02    0.5760214732E-05    0.6672975354E+00    0.5919495214E-04    0.1349213297E-03    0.4311089636E-02
    0.9000000000E+02    0.6812494473E-05    0.6734407493E+00    0.7372582320E-04    0.1711014307E-03    0.4310098763E-02
    0.1100000000E+03    0.7895980672E-05    0.6774090253E+00    0.8842772398E-04    0.2073182344E-03    0.4308321490E-02
    0.1300000000E+03    0.9004065712E-05    0.6801835926E+00    0.1032871585E-03    0.2437026916E-03    0.4306060615E-02
    0.1500000000E+03    0.1013352220E-04    0.6822326036E+00    0.1183074085E-03    0.2803453943E-03    0.4303468742E-02
    0.1700000000E+03    0.1128277073E-04    0.6838077162E+00    0.1334974436E-03    0.3173141852E-03    0.4300631734E-02
    0.1900000000E+03    0.1245110272E-04    0.6850562699E+00    0.1488680965E-03    0.3546630017E-03    0.4297601742E-02
    0.2100000000E+03    0.1363830108E-04    0.6860702629E+00    0.1644306539E-03    0.3924367881E-03    0.4294412232E-02
    0.2300000000E+03    0.1484444196E-04    0.6869101044E+00    0.1801963398E-03    0.4306744382E-03    0.4291085559E-02
    0.2500000000E+03    0.1606978542E-04    0.6876171006E+00    0.1961761487E-03    0.4694106615E-03    0.4287637097E-02
    0.2700000000E+03    0.1731471242E-04    0.6882204527E+00    0.2123808220E-03    0.5086772255E-03    0.4284077624E-02
    0.2900000000E+03    0.1857968726E-04    0.6887413882E+00    0.2288208791E-03    0.5485038151E-03    0.4280414779E-02
    0.3100000000E+03    0.1986523468E-04    0.6891957087E+00    0.2455066700E-03    0.5889186480E-03    0.4276653987E-02
    0.3300000000E+03    0.2117192552E-04    0.6895954190E+00    0.2624484319E-03    0.6299489283E-03    0.4272799063E-02
    0.3500000000E+03    0.2250036786E-04    0.6899498035E+00    0.2796563443E-03    0.6716211904E-03    0.4268852623E-02
    0.3700000000E+03    0.2385120135E-04    0.6902661547E+00    0.2971405799E-03    0.7139615674E-03    0.4264816367E-02
    0.3900000000E+03    0.2522509387E-04    0.6905502806E+00    0.3149113512E-03    0.7569960030E-03    0.4260691285E-02
    0.4100000000E+03    0.2662273950E-04    0.6908068641E+00    0.3329789526E-03    0.8007504261E-03    0.4256477796E-02
    0.4300000000E+03    0.2804485753E-04    0.6910397226E+00    0.3513537986E-03    0.8452508953E-03    0.4252175861E-02
    0.4500000000E+03    0.2949219215E-04    0.6912519996E+00    0.3700464590E-03    0.8905237220E-03    0.4247785057E-02
    0.4700000000E+03    0.3096551254E-04    0.6914463064E+00    0.3890676912E-03    0.9365955781E-03    0.4243304639E-02
    0.4900000000E+03    0.3246561339E-04    0.6916248310E+00    0.4084284711E-03    0.9834935914E-03    0.4238733585E-02
    0.1000000000E+03    0.7350860250E-05    0.6756175648E+00    0.8105685469E-04    0.1891958096E-03    0.4309284370E-02
    0.3000000000E+03    0.1921985468E-04    0.6889760507E+00    0.2371324160E-03    0.5686359816E-03    0.4278546356E-02
    0.5000000000E+03    0.3322596199E-04    0.6917087634E+00    0.4182396880E-03    0.1007261030E-02    0.4236413683E-02
    0.7000000000E+03    0.5005758139E-04    0.6928854303E+00    0.6352306045E-03    0.1533207115E-02    0.4184832798E-02
    0.9000000000E+03    0.7073801167E-04    0.6935402176E+00    0.9017017592E-03    0.2179818983E-02    0.4121534803E-02
    0.1100000000E+04    0.9675151451E-04    0.6939571257E+00    0.1236992900E-02    0.2994387964E-02    0.4042567978E-02
    0.1300000000E+04    0.1303388195E-03    0.6942457537E+00    0.1670200931E-02    0.4048107422E-02    0.3941829425E-02
    0.1500000000E+04    0.1750090148E-03    0.6944573485E+00    0.2246891127E-02    0.5452597329E-02    0.3809832146E-02
    0.1700000000E+04    0.2364372850E-03    0.6946190746E+00    0.3040836391E-02    0.7388857527E-02    0.3631525167E-02
    0.1900000000E+04    0.3239818770E-03    0.6947466721E+00    0.4173919814E-02    0.1015656323E-01    0.3382826864E-02
    0.2100000000E+04    0.4527560147E-03    0.6948498901E+00    0.5843610518E-02    0.1424287123E-01    0.3026740591E-02
    0.2300000000E+04    0.6437392202E-03    0.6949350891E+00    0.8325900239E-02    0.2033343355E-01    0.2517280254E-02
    0.2500000000E+04    0.9102701479E-03    0.6950065955E+00    0.1180260045E-01    0.2889597159E-01    0.1842610945E-02
    0.2700000000E+04    0.1217133838E-02    0.6950674540E+00    0.1582944008E-01    0.3887492325E-01    0.1129834350E-02
    0.2900000000E+04    0.1477805765E-02    0.6951198697E+00    0.1928752735E-01    0.4753995962E-01    0.6133936160E-03
    0.3100000000E+04    0.1653628679E-02    0.6951654785E+00    0.2166486671E-01    0.5361094067E-01    0.3580417046E-03
    0.3300000000E+04    0.1771757290E-02    0.6952055198E+00    0.2330412226E-01    0.5790271986E-01    0.2592367977E-03
    0.3500000000E+04    0.1862742106E-02    0.6952409495E+00    0.2459833537E-01    0.6136957681E-01    0.2251698849E-03
    0.3700000000E+04    0.1941812392E-02    0.6952725169E+00    0.2574448488E-01    0.6449253996E-01    0.2141204861E-03
    0.3900000000E+04    0.2014955777E-02    0.6953008175E+00    0.2682013305E-01    0.6746140880E-01    0.2108329240E-03
    0.4100000000E+04    0.2084382450E-02    0.6953263303E+00    0.2785378431E-01    0.7034570049E-01    0.2101150057E-03
    0.4300000000E+04    0.2150925847E-02    0.6953494454E+00    0.2885599706E-01    0.7317075479E-01    0.2102365276E-03
    0.4500000000E+04    0.2214933983E-02    0.6953704834E+00    0.2983098829E-01    0.7594625840E-01    0.2106235630E-03
    0.4700000000E+04    0.2276583907E-02    0.6953897101E+00    0.3078074416E-01    0.7867639192E-01    0.2110859341E-03
    0.4900000000E+04    0.2335991028E-02    0.6954073482E+00    0.3170645418E-01    0.8136338346E-01    0.2115609796E-03
    0.1000000000E+04    0.8296043756E-04    0.6937695070E+00    0.1059215863E-02    0.2562369416E-02    0.4084330277E-02
    0.3000000000E+04    0.1575319419E-02    0.6951434397E+00    0.2059904072E-01    0.5087166562E-01    0.4583775484E-03
    0.5000000000E+04    0.2364882684E-02    0.6954156312E+00    0.3216057658E-01    0.8269118832E-01    0.2117962423E-03
    0.7000000000E+04    0.2843738142E-02    0.6955309863E+00    0.4015868076E-01    0.1072696572E+00    0.2158069916E-03
    0.9000000000E+04    0.3173480479E-02    0.6955943254E+00    0.4646459242E-01    0.1286708097E+00    0.2188521325E-03
    0.1100000000E+05    0.3396967481E-02    0.6956341472E+00    0.5149312444E-01    0.1475623949E+00    0.2213125543E-03
    0.1300000000E+05    0.3543545497E-02    0.6956613758E+00    0.5553797553E-01    0.1644306494E+00    0.2233808623E-03
    0.1500000000E+05    0.3633771704E-02    0.6956810911E+00    0.5881240147E-01    0.1796387205E+00    0.2251673529E-03
    0.1700000000E+05    0.3682325516E-02    0.6956959728E+00    0.6147462319E-01    0.1934637722E+00    0.2267412196E-03
    0.1900000000E+05    0.3699861851E-02    0.6957075665E+00    0.6364424546E-01    0.2061213760E+00    0.2281487877E-03
    0.2100000000E+05    0.3694223223E-02    0.6957168257E+00    0.6541317308E-01    0.2177820019E+00    0.2294226259E-03
    0.2300000000E+05    0.3671251458E-02    0.6957243696E+00    0.6685305184E-01    0.2285824479E+00    0.2305865210E-03
    0.2500000000E+05    0.3635342708E-02    0.6957306179E+00    0.6802045353E-01    0.2386339371E+00    0.2316583858E-03
    0.2700000000E+05    0.3589833970E-02    0.6957358647E+00    0.6896056044E-01    0.2480279658E+00    0.2326520532E-03
    0.2900000000E+05    0.3537276727E-02    0.6957403221E+00    0.6970982987E-01    0.2568406028E+00    0.2335784319E-03
    0.3100000000E+05    0.3479633533E-02    0.6957441468E+00    0.7029795175E-01    0.2651356989E+00    0.2344462797E-03
    0.3300000000E+05    0.3418421105E-02    0.6957474573E+00    0.7074930755E-01    0.2729673188E+00    0.2352627358E-03
    0.3500000000E+05    0.3354815739E-02    0.6957503444E+00    0.7108407175E-01    0.2803816066E+00    0.2360336983E-03
    0.3700000000E+05    0.3289731803E-02    0.6957528790E+00    0.7131905348E-01    0.2874182342E+00    0.2367640971E-03
    0.3900000000E+05    0.3223880759E-02    0.6957551174E+00    0.7146834644E-01    0.2941115390E+00    0.2374580955E-03
    0.4100000000E+05    0.3157815942E-02    0.6957571045E+00    0.7154383608E-01    0.3004914251E+00    0.2381192422E-03
    0.4300000000E+05    0.3091966807E-02    0.6957588769E+00    0.7155559882E-01    0.3065840857E+00    0.2387505868E-03
    0.4500000000E+05    0.3026665322E-02    0.6957604644E+00    0.7151221914E-01    0.3124125849E+00    0.2393547696E-03
    0.4700000000E+05    0.2962166432E-02    0.6957618918E+00    0.7142104337E-01    0.3179973323E+00    0.2399340922E-03
    0.4900000000E+05    0.2898664047E-02    0.6957631795E+00    0.7128838433E-01    0.3233564716E+00    0.2404905731E-03
    0.1000000000E+05    0.3296421763E-02    0.6956162876E+00    0.4911790814E-01    0.1383964716E+00    0.2201407090E-03
    0.3000000000E+05    0.3508987019E-02    0.6957423054E+00    0.7002240038E-01    0.2610492592E+00    0.2340191931E-03
    0.5000000000E+05    0.2867333592E-02    0.6957637766E+00    0.7120823029E-01    0.3259565685E+00    0.2407608125E-03
    0.7000000000E+05    0.2311849079E-02    0.6957714163E+00    0.6841634371E-01    0.3692664096E+00    0.2453061683E-03
    0.9000000000E+05    0.1888684129E-02    0.6957747870E+00    0.6471730746E-01    0.4012549297E+00    0.2487566991E-03
    0.1100000000E+06    0.1568392253E-02    0.6957763709E+00    0.6096399187E-01    0.4262661915E+00    0.2515465591E-03
    0.1300000000E+06    0.1322434232E-02    0.6957770755E+00    0.5742098036E-01    0.4465528396E+00    0.2538928262E-03
    0.1500000000E+06    0.1130123162E-02    0.6957773026E+00    0.5416226121E-01    0.4634379242E+00    0.2559200163E-03
    0.1700000000E+06    0.9771134174E-03    0.6957772530E+00    0.5119398960E-01    0.4777661435E+00    0.2577063311E-03
    0.1900000000E+06    0.8534310213E-03    0.6957770366E+00    0.4849803249E-01    0.4901099133E+00    0.2593041696E-03
    0.2100000000E+06    0.7520355252E-03    0.6957767169E+00    0.4604870873E-01    0.5008748379E+00    0.2607503929E-03
    0.2300000000E+06    0.6678654953E-03    0.6957763330E+00    0.4381943754E-01    0.5103584576E+00    0.2620719359E-03
    0.2500000000E+06    0.5972149849E-03    0.6957759092E+00    0.4178531223E-01    0.5187851736E+00    0.2632890900E-03
    0.2700000000E+06    0.5373232377E-03    0.6957754616E+00    0.3992396177E-01    0.5263281120E+00    0.2644175296E-03
    0.2900000000E+06    0.4861006016E-03    0.6957750007E+00    0.3821568707E-01    0.5331233971E+00    0.2654696191E-03
    0.3100000000E+06    0.4419422123E-03    0.6957745337E+00    0.3664330155E-01    0.5392797964E+00    0.2664552872E-03
    0.3300000000E+06    0.4035990846E-03    0.6957740654E+00    0.3519186668E-01    0.5448854325E+00    0.2673826289E-03
    0.3500000000E+06    0.3700873920E-03    0.6957735993E+00    0.3384840694E-01    0.5500125695E+00    0.2682583334E-03
    0.3700000000E+06    0.3406235917E-03    0.6957731375E+00    0.3260164005E-01    0.5547211006E+00    0.2690879924E-03
    0.3900000000E+06    0.3145773342E-03    0.6957726817E+00    0.3144173577E-01    0.5590611377E+00    0.2698763287E-03
    0.4100000000E+06    0.2914368058E-03    0.6957722329E+00    0.3036010635E-01    0.5630749646E+00    0.2706273684E-03
    0.4300000000E+06    0.2707828923E-03    0.6957717917E+00    0.2934922724E-01    0.5667985334E+00    0.2713445718E-03
    0.4500000000E+06    0.2522696895E-03    0.6957713586E+00    0.2840248484E-01    0.5702626246E+00    0.2720309350E-03
    0.4700000000E+06    0.2356096383E-03    0.6957709338E+00    0.2751404777E-01    0.5734937579E+00    0.2726890697E-03
    0.4900000000E+06    0.2205620710E-03    0.6957705173E+00    0.2667875801E-01    0.5765149139E+00    0.2733212670E-03
    0.1000000000E+06    0.1717647924E-02    0.6957757276E+00    0.6282398350E-01    0.4144619751E+00    0.2502176271E-03
    0.3000000000E+06    0.4632235648E-03    0.6957747676E+00    0.3741349115E-01    0.5362755296E+00    0.2659702126E-03
    0.5000000000E+06    0.2135783479E-03    0.6957703122E+00    0.2627959270E-01    0.5779531092E+00    0.2736282798E-03
    0.7000000000E+06    0.1229948504E-03    0.6957666212E+00    0.2021022080E-01    0.5994203891E+00    0.2787924828E-03
    0.9000000000E+06    0.8005178186E-04    0.6957635746E+00    0.1640299949E-01    0.6125509940E+00    0.2827131214E-03
    0.1100000000E+07    0.5631333681E-04    0.6957609963E+00    0.1379502985E-01    0.6214189835E+00    0.2858832212E-03
    0.1300000000E+07    0.4180450029E-04    0.6957587645E+00    0.1189799098E-01    0.6278117285E+00    0.2885493449E-03
    0.1500000000E+07    0.3228397497E-04    0.6957567975E+00    0.1045664471E-01    0.6326389058E+00    0.2908529372E-03
    0.1700000000E+07    0.2569685251E-04    0.6957550389E+00    0.9324732008E-02    0.6364128234E+00    0.2928828394E-03
    0.1900000000E+07    0.2094826008E-04    0.6957534484E+00    0.8412467040E-02    0.6394441719E+00    0.2946985825E-03
    0.2100000000E+07    0.1741095777E-04    0.6957519961E+00    0.7661700120E-02    0.6419323671E+00    0.2963420469E-03
    0.2300000000E+07    0.1470442237E-04    0.6957506596E+00    0.7033121611E-02    0.6440112874E+00    0.2978438357E-03
    0.2500000000E+07    0.1258682957E-04    0.6957494215E+00    0.6499208701E-02    0.6457741579E+00    0.2992270049E-03
    0.2700000000E+07    0.1089847457E-04    0.6957482680E+00    0.6040118579E-02    0.6472878941E+00    0.3005093643E-03
    0.2900000000E+07    0.9530414901E-05    0.6957471881E+00    0.5641186063E-02    0.6486017718E+00    0.3017049636E-03
    0.3100000000E+07    0.8406252308E-05    0.6957461727E+00    0.5291339346E-02    0.6497528798E+00    0.3028250842E-03
    0.3300000000E+07    0.7471115429E-05    0.6957452144E+00    0.4982063635E-02    0.6507696678E+00    0.3038789248E-03
    0.3500000000E+07    0.6684763517E-05    0.6957443069E+00    0.4706703753E-02    0.6516743235E+00    0.3048740864E-03
    0.3700000000E+07    0.6017138302E-05    0.6957434451E+00    0.4459983076E-02    0.6524844047E+00    0.3058169228E-03
    0.3900000000E+07    0.5445418370E-05    0.6957426243E+00    0.4237664403E-02    0.6532139874E+00    0.3067128009E-03
    0.4100000000E+07    0.4952022515E-05    0.6957418409E+00    0.4036306190E-02    0.6538744877E+00    0.3075662957E-03
    0.4300000000E+07    0.4523227904E-05    0.6957410915E+00    0.3853084292E-02    0.6544752616E+00    0.3083813391E-03
    0.4500000000E+07    0.4148195719E-05    0.6957403731E+00    0.3685659547E-02    0.6550240494E+00    0.3091613359E-03
    0.4700000000E+07    0.3818272459E-05    0.6957396833E+00    0.3532078025E-02    0.6555273103E+00    0.3099092541E-03
    0.4900000000E+07    0.3526481177E-05    0.6957390197E+00    0.3390694910E-02    0.6559904764E+00    0.3106276968E-03
    0.1000000000E+07    0.6661213561E-04    0.6957622357E+00    0.1498740704E-01    0.6173763992E+00    0.2843731508E-03
    0.3000000000E+07    0.8941684638E-05    0.6957466728E+00    0.5460709622E-02    0.6491957237E+00    0.3022738414E-03
    0.5000000000E+07    0.3393068652E-05    0.6957386972E+00    0.3324133534E-02    0.6562084899E+00    0.3109765931E-03
    0.7000000000E+07    0.1781239442E-05    0.6957332455E+00    0.2385022439E-02    0.6592821489E+00    0.3168453228E-03
    0.9000000000E+07    0.1098556181E-05    0.6957290795E+00    0.1857805655E-02    0.6610063970E+00    0.3213008454E-03
    0.1100000000E+08    0.7462607418E-06    0.6957256976E+00    0.1520517504E-02    0.6621093602E+00    0.3249034377E-03
    0.1300000000E+08    0.5407163327E-06    0.6957228457E+00    0.1286318072E-02    0.6628753183E+00    0.3279332973E-03
    0.1500000000E+08    0.4102845258E-06    0.6957203767E+00    0.1114276479E-02    0.6634381263E+00    0.3305511653E-03
    0.1700000000E+08    0.3222928793E-06    0.6957181976E+00    0.9825839041E-03    0.6638690674E+00    0.3328580033E-03
    0.1900000000E+08    0.2600989140E-06    0.6957162459E+00    0.8785585966E-03    0.6642095812E+00    0.3349214640E-03
    0.2100000000E+08    0.2144948662E-06    0.6957144776E+00    0.7943253382E-03    0.6644853983E+00    0.3367891416E-03
    0.2300000000E+08    0.1800480006E-06    0.6957128602E+00    0.7247363323E-03    0.6647133378E+00    0.3384958145E-03
    0.2500000000E+08    0.1533834111E-06    0.6957113695E+00    0.6662850841E-03    0.6649048569E+00    0.3400676841E-03
    0.2700000000E+08    0.1323140617E-06    0.6957099864E+00    0.6165008670E-03    0.6650680289E+00    0.3415249903E-03
