  Pressure (Pa) 23mC5-500 (mol/kg) 24mC5-500 (mol/kg) 2mC6-500 (mol/kg) 3mC6-500 (mol/kg) C7-500 (mol/kg)
    0.1000000000E+01    0.1393216839E-05    0.9949829381E-01    0.3211337006E-04    0.4085177851E-05    0.4146383354E-02
    0.3000000000E+01    0.3072769427E-05    0.2321062678E+00    0.6814916088E-04    0.1009010543E-04    0.4174507545E-02
    0.5000000000E+01    0.4034054810E-05    0.3164629210E+00    0.8750069801E-04    0.1554306171E-04    0.4183969089E-02
    0.7000000000E+01    0.4643775826E-05    0.3748519940E+00    0.9943626306E-04    0.2073874400E-04    0.4189237841E-02
    0.9000000000E+01    0.5061594536E-05    0.4176656795E+00    0.1077323149E-03    0.2577437529E-04    0.4192553654E-02
    0.1100000000E+02    0.5366762205E-05    0.4504033441E+00    0.1141375338E-03    0.3069801254E-04    0.4194741081E-02
    0.1300000000E+02    0.5602293960E-05    0.4762478837E+00    0.1195322107E-03    0.3553801219E-04    0.4196203225E-02
    0.1500000000E+02    0.5793128331E-05    0.4971692453E+00    0.1243863727E-03    0.4031293461E-04    0.4197167287E-02
    0.1700000000E+02    0.5954475426E-05    0.5144519801E+00    0.1289617522E-03    0.4503579559E-04    0.4197773048E-02
    0.1900000000E+02    0.6095990976E-05    0.5289694839E+00    0.1334083656E-03    0.4971618520E-04    0.4198111884E-02
    0.2100000000E+02    0.6224005576E-05    0.5413363173E+00    0.1378137062E-03    0.5436143804E-04    0.4198246300E-02
    0.2300000000E+02    0.6342780409E-05    0.5519974790E+00    0.1422290959E-03    0.5897732989E-04    0.4198220594E-02
    0.2500000000E+02    0.6455246434E-05    0.5612831142E+00    0.1466843899E-03    0.6356851729E-04    0.4198067081E-02
    0.2700000000E+02    0.6563455886E-05    0.5694433241E+00    0.1511964636E-03    0.6813882797E-04    0.4197809903E-02
    0.2900000000E+02    0.6668866885E-05    0.5766710394E+00    0.1557742451E-03    0.7269145997E-04    0.4197467467E-02
    0.3100000000E+02    0.6772527764E-05    0.5831174733E+00    0.1604217697E-03    0.7722912256E-04    0.4197054052E-02
    0.3300000000E+02    0.6875199305E-05    0.5889028193E+00    0.1651400661E-03    0.8175413861E-04    0.4196580905E-02
    0.3500000000E+02    0.6977437473E-05    0.5941238181E+00    0.1699283380E-03    0.8626852064E-04    0.4196057003E-02
    0.3700000000E+02    0.7079650462E-05    0.5988592117E+00    0.1747847123E-03    0.9077402848E-04    0.4195489597E-02
    0.3900000000E+02    0.7182138646E-05    0.6031737433E+00    0.1797067146E-03    0.9527221365E-04    0.4194884604E-02
    0.4100000000E+02    0.7285122975E-05    0.6071211365E+00    0.1846915726E-03    0.9976445414E-04    0.4194246899E-02
    0.4300000000E+02    0.7388765412E-05    0.6107463433E+00    0.1897364088E-03    0.1042519820E-03    0.4193580534E-02
    0.4500000000E+02    0.7493183809E-05    0.6140872649E+00    0.1948383603E-03    0.1087359053E-03    0.4192888901E-02
    0.4700000000E+02    0.7598462848E-05    0.6171760817E+00    0.1999946529E-03    0.1132172265E-03    0.4192174862E-02
    0.4900000000E+02    0.7704662168E-05    0.6200402934E+00    0.2052026439E-03    0.1176968566E-03    0.4191440843E-02
    0.1000000000E+02    0.5225004485E-05    0.4350577665E+00    0.1111031143E-03    0.2824811744E-04    0.4193757467E-02
    0.3000000000E+02    0.6720862923E-05    0.5799837784E+00    0.1580891712E-03    0.7496200921E-04    0.4197268868E-02
    0.5000000000E+02    0.7758120247E-05    0.6213956919E+00    0.2078252423E-03    0.1199363003E-03    0.4191067002E-02
    0.7000000000E+02    0.8879632312E-05    0.6410143201E+00    0.2624772697E-03    0.1648062706E-03    0.4182913406E-02
    0.9000000000E+02    0.1009506623E-04    0.6524595439E+00    0.3204162528E-03    0.2101513497E-03    0.4173976564E-02
    0.1100000000E+03    0.1139179205E-04    0.6599586211E+00    0.3809380874E-03    0.2562888772E-03    0.4164583970E-02
    0.1300000000E+03    0.1276062458E-04    0.6652523382E+00    0.4437661453E-03    0.3034339932E-03    0.4154850567E-02
    0.1500000000E+03    0.1419629106E-04    0.6691888322E+00    0.5088155181E-03    0.3517536555E-03    0.4144818474E-02
    0.1700000000E+03    0.1569620950E-04    0.6722307508E+00    0.5760954806E-03    0.4013899700E-03    0.4134499815E-02
    0.1900000000E+03    0.1725957784E-04    0.6746519197E+00    0.6456665640E-03    0.4524719642E-03    0.4123892619E-02
    0.2100000000E+03    0.1888680753E-04    0.6766247549E+00    0.7176203790E-03    0.5051222505E-03    0.4112987521E-02
    0.2300000000E+03    0.2057918057E-04    0.6782632306E+00    0.7920696737E-03    0.5594611637E-03    0.4101770844E-02
    0.2500000000E+03    0.2233864118E-04    0.6796457064E+00    0.8691433356E-03    0.6156095544E-03    0.4090226091E-02
    0.2700000000E+03    0.2416766908E-04    0.6808278305E+00    0.9489839418E-03    0.6736908250E-03    0.4078334689E-02
    0.2900000000E+03    0.2606920337E-04    0.6818502119E+00    0.1031746703E-02    0.7338325271E-03    0.4066076353E-02
    0.3100000000E+03    0.2804659880E-04    0.6827431798E+00    0.1117599220E-02    0.7961677012E-03    0.4053429238E-02
    0.3300000000E+03    0.3010360357E-04    0.6835298422E+00    0.1206721742E-02    0.8608360723E-03    0.4040369979E-02
    0.3500000000E+03    0.3224435221E-04    0.6842281149E+00    0.1299307772E-02    0.9279851701E-03    0.4026873663E-02
    0.3700000000E+03    0.3447336934E-04    0.6848521019E+00    0.1395564909E-02    0.9977714256E-03    0.4012913747E-02
    0.3900000000E+03    0.3679558193E-04    0.6854130581E+00    0.1495715908E-02    0.1070361276E-02    0.3998461951E-02
    0.4100000000E+03    0.3921633841E-04    0.6859200740E+00    0.1599999901E-02    0.1145932306E-02    0.3983488121E-02
    0.4300000000E+03    0.4174143379E-04    0.6863805724E+00    0.1708673801E-02    0.1224674453E-02    0.3967960077E-02
    0.4500000000E+03    0.4437714020E-04    0.6868006738E+00    0.1822013867E-02    0.1306791283E-02    0.3951843430E-02
    0.4700000000E+03    0.4713024275E-04    0.6871854701E+00    0.1940317441E-02    0.1392501370E-02    0.3935101395E-02
    0.4900000000E+03    0.5000808050E-04    0.6875392319E+00    0.2063904883E-02    0.1482039781E-02    0.3917694571E-02
    0.1000000000E+03    0.1073394777E-04    0.6565627624E+00    0.3503778640E-03    0.2331060780E-03    0.4169327499E-02
    0.3000000000E+03    0.2704819326E-04    0.6823112867E+00    0.1074275778E-02    0.7647173674E-03    0.4059802817E-02
    0.5000000000E+03    0.5149623131E-04    0.6877056248E+00    0.2127786979E-02    0.1528322974E-02    0.3908728779E-02
    0.7000000000E+03    0.9021065554E-04    0.6900435096E+00    0.3786909165E-02    0.2731117669E-02    0.3681986626E-02
    0.9000000000E+03    0.1572434229E-03    0.6913490666E+00    0.6658788959E-02    0.4817309401E-02    0.3308810202E-02
    0.1100000000E+04    0.2839006598E-03    0.6921823386E+00    0.1209677235E-01    0.8780191441E-02    0.2645455538E-02
    0.1300000000E+04    0.5126577323E-03    0.6927603117E+00    0.2196647111E-01    0.1601195908E-01    0.1554856550E-02
    0.1500000000E+04    0.7720508898E-03    0.6931847061E+00    0.3328297556E-01    0.2440019434E-01    0.5351728732E-03
    0.1700000000E+04    0.9289656538E-03    0.6935095410E+00    0.4031077022E-01    0.2974827978E-01    0.1646552481E-03
    0.1900000000E+04    0.1025148075E-02    0.6937661616E+00    0.4478028831E-01    0.3327139106E-01    0.9186354394E-04
    0.2100000000E+04    0.1103629951E-02    0.6939740053E+00    0.4852634364E-01    0.3629809874E-01    0.8002463123E-04
    0.2300000000E+04    0.1175174098E-02    0.6941457659E+00    0.5200868135E-01    0.3916219038E-01    0.7840212142E-04
    0.2500000000E+04    0.1242029043E-02    0.6942900846E+00    0.5532112330E-01    0.4193030554E-01    0.7843481641E-04
    0.2700000000E+04    0.1304825105E-02    0.6944130477E+00    0.5848773073E-01    0.4461795399E-01    0.7872126605E-04
    0.2900000000E+04    0.1363886244E-02    0.6945190657E+00    0.6151951961E-01    0.4723117598E-01    0.7903176406E-04
    0.3100000000E+04    0.1419465259E-02    0.6946114131E+00    0.6442467150E-01    0.4977407877E-01    0.7932988316E-04
    0.3300000000E+04    0.1471787055E-02    0.6946925718E+00    0.6721040164E-01    0.5225021075E-01    0.7961134307E-04
    0.3500000000E+04    0.1521057773E-02    0.6947644574E+00    0.6988333606E-01    0.5466282851E-01    0.7987705268E-04
    0.3700000000E+04    0.1567467684E-02    0.6948285717E+00    0.7244961675E-01    0.5701496186E-01    0.8012856143E-04
    0.3900000000E+04    0.1611192826E-02    0.6948861092E+00    0.7491495347E-01    0.5930944027E-01    0.8036731825E-04
    0.4100000000E+04    0.1652396300E-02    0.6949380313E+00    0.7728466246E-01    0.6154891075E-01    0.8059458142E-04
    0.4300000000E+04    0.1691229394E-02    0.6949851209E+00    0.7956369986E-01    0.6373585274E-01    0.8081143443E-04
    0.4500000000E+04    0.1727832597E-02    0.6950280218E+00    0.8175669144E-01    0.6587259147E-01    0.8101881406E-04
    0.4700000000E+04    0.1762336507E-02    0.6950672684E+00    0.8386795951E-01    0.6796130998E-01    0.8121753520E-04
    0.4900000000E+04    0.1794862655E-02    0.6951033079E+00    0.8590154716E-01    0.7000405998E-01    0.8140831109E-04
    0.1000000000E+04    0.2101840293E-03    0.6918071324E+00    0.8929700279E-02    0.6470350571E-02    0.3025861526E-02
    0.3000000000E+04    0.1392096468E-02    0.6945667776E+00    0.6298745839E-01    0.4851118730E-01    0.7918287475E-04
    0.5000000000E+04    0.1810419750E-02    0.6951202452E+00    0.8689040342E-01    0.7100880450E-01    0.8150091874E-04
    0.7000000000E+04    0.2041438107E-02    0.6953572267E+00    0.1033914482E+00    0.8910353040E-01    0.8305540730E-04
    0.9000000000E+04    0.2165495771E-02    0.6954886740E+00    0.1152441284E+00    0.1042295194E+00    0.8423232198E-04
    0.1100000000E+05    0.2225413910E-02    0.6955721672E+00    0.1240039877E+00    0.1172361158E+00    0.8518243685E-04
    0.1300000000E+05    0.2245553233E-02    0.6956298546E+00    0.1306130247E+00    0.1286619936E+00    0.8598069187E-04
    0.1500000000E+05    0.2240478309E-02    0.6956720701E+00    0.1356732935E+00    0.1388674650E+00    0.8666991464E-04
    0.1700000000E+05    0.2219239785E-02    0.6957042829E+00    0.1395865204E+00    0.1481040169E+00    0.8727693550E-04
    0.1900000000E+05    0.2187635180E-02    0.6957296578E+00    0.1426303693E+00    0.1565533999E+00    0.8781969938E-04
    0.2100000000E+05    0.2149467810E-02    0.6957501532E+00    0.1450024650E+00    0.1643508337E+00    0.8831081255E-04
    0.2300000000E+05    0.2107279278E-02    0.6957670455E+00    0.1468469940E+00    0.1715994204E+00    0.8875947662E-04
    0.2500000000E+05    0.2062791623E-02    0.6957812022E+00    0.1482714095E+00    0.1783794444E+00    0.8917261760E-04
    0.2700000000E+05    0.2017182648E-02    0.6957932334E+00    0.1493572725E+00    0.1847545718E+00    0.8955558179E-04
    0.2900000000E+05    0.1971262002E-02    0.6958035805E+00    0.1501674903E+00    0.1907761009E+00    0.8991258395E-04
    0.3100000000E+05    0.1925586408E-02    0.6958125710E+00    0.1507512717E+00    0.1964859486E+00    0.9024700680E-04
    0.3300000000E+05    0.1880536584E-02    0.6958204527E+00    0.1511475933E+00    0.2019187957E+00    0.9056160727E-04
    0.3500000000E+05    0.1836369502E-02    0.6958274167E+00    0.1513876731E+00    0.2071036571E+00    0.9085866249E-04
    0.3700000000E+05    0.1793254412E-02    0.6958336127E+00    0.1514967653E+00    0.2120650510E+00    0.9114007543E-04
    0.3900000000E+05    0.1751298029E-02    0.6958391594E+00    0.1514954840E+00    0.2168238838E+00    0.9140745295E-04
    0.4100000000E+05    0.1710562330E-02    0.6958441526E+00    0.1514007928E+00    0.2213981285E+00    0.9166216442E-04
    0.4300000000E+05    0.1671077258E-02    0.6958486700E+00    0.1512267543E+00    0.2258033515E+00    0.9190538651E-04
    0.4500000000E+05    0.1632849866E-02    0.6958527755E+00    0.1509851049E+00    0.2300531276E+00    0.9213813787E-04
    0.4700000000E+05    0.1595870956E-02    0.6958565221E+00    0.1506856994E+00    0.2341593685E+00    0.9236130634E-04
    0.4900000000E+05    0.1560119901E-02    0.6958599541E+00    0.1503368591E+00    0.2381325869E+00    0.9257567046E-04
    0.1000000000E+05    0.2201648775E-02    0.6955346153E+00    0.1199415268E+00    0.1109587684E+00    0.8472999642E-04
    0.3000000000E+05    0.1948366361E-02    0.6958082283E+00    0.1504850426E+00    0.1936676685E+00    0.9008243276E-04
    0.5000000000E+05    0.1542696144E-02    0.6958615640E+00    0.1501461509E+00    0.2400722688E+00    0.9267976866E-04
    0.7000000000E+05    0.1249965287E-02    0.6958838294E+00    0.1449873903E+00    0.2736820259E+00    0.9443052737E-04
    0.9000000000E+05    0.1038466669E-02    0.6958958657E+00    0.1388919676E+00    0.3003696089E+00    0.9575944365E-04
    0.1100000000E+06    0.8804938892E-03    0.6959033105E+00    0.1328301243E+00    0.3225828129E+00    0.9683384934E-04
    0.1300000000E+06    0.7587668209E-03    0.6959083143E+00    0.1270852289E+00    0.3416105060E+00    0.9773738906E-04
    0.1500000000E+06    0.6625054879E-03    0.6959118726E+00    0.1217314597E+00    0.3582298958E+00    0.9851803379E-04
    0.1700000000E+06    0.5847433842E-03    0.6959145079E+00    0.1167710654E+00    0.3729529106E+00    0.9920590841E-04
    0.1900000000E+06    0.5208070863E-03    0.6959165202E+00    0.1121810236E+00    0.3861382152E+00    0.9982119652E-04
    0.2100000000E+06    0.4674544069E-03    0.6959180936E+00    0.1079305483E+00    0.3980487581E+00    0.1003780959E-03
    0.2300000000E+06    0.4223696580E-03    0.6959193472E+00    0.1039879702E+00    0.4088841054E+00    0.1008869805E-03
    0.2500000000E+06    0.3838569187E-03    0.6959203612E+00    0.1003234068E+00    0.4187998972E+00    0.1013556654E-03
    0.2700000000E+06    0.3506469869E-03    0.6959211916E+00    0.9690967899E-01    0.4279202058E+00    0.1017901872E-03
    0.2900000000E+06    0.3217719747E-03    0.6959218785E+00    0.9372248242E-01    0.4363457361E+00    0.1021953078E-03
    0.3100000000E+06    0.2964815229E-03    0.6959224515E+00    0.9074025022E-01    0.4441594661E+00    0.1025748507E-03
    0.3300000000E+06    0.2741854081E-03    0.6959229327E+00    0.8794390053E-01    0.4514306470E+00    0.1029319334E-03
    0.3500000000E+06    0.2544133471E-03    0.6959233391E+00    0.8531655568E-01    0.4582177112E+00    0.1032691319E-03
    0.3700000000E+06    0.2367862871E-03    0.6959236838E+00    0.8284327063E-01    0.4645704356E+00    0.1035885996E-03
    0.3900000000E+06    0.2209955309E-03    0.6959239771E+00    0.8051078583E-01    0.4705315798E+00    0.1038921552E-03
    0.4100000000E+06    0.2067873181E-03    0.6959242273E+00    0.7830730870E-01    0.4761381490E+00    0.1041813490E-03
    0.4300000000E+06    0.1939512711E-03    0.6959244411E+00    0.7622232369E-01    0.4814223804E+00    0.1044575135E-03
    0.4500000000E+06    0.1823116226E-03    0.6959246238E+00    0.7424642819E-01    0.4864125252E+00    0.1047218026E-03
    0.4700000000E+06    0.1717204769E-03    0.6959247800E+00    0.7237119159E-01    0.4911334751E+00    0.1049752219E-03
    0.4900000000E+06    0.1620525760E-03    0.6959249132E+00    0.7058903413E-01    0.4956072683E+00    0.1052186537E-03
    0.1000000000E+06    0.9540640618E-03    0.6958999869E+00    0.1358314423E+00    0.3119384844E+00    0.9632206911E-04
    0.3000000000E+06    0.3087187826E-03    0.6959221777E+00    0.9220699335E-01    0.4403244646E+00    0.1023880672E-03
    0.5000000000E+06    0.1575308605E-03    0.6959249722E+00    0.6973069816E-01    0.4977576918E+00    0.1053368710E-03
    0.7000000000E+06    0.9645880848E-04    0.6959254807E+00    0.5610314100E-01    0.5315758648E+00    0.1073253783E-03
    0.9000000000E+06    0.6540659774E-04    0.6959253773E+00    0.4693700406E-01    0.5540421840E+00    0.1088350437E-03
    0.1100000000E+07    0.4737864395E-04    0.6959250633E+00    0.4034281395E-01    0.5700958128E+00    0.1100557116E-03
    0.1300000000E+07    0.3595356528E-04    0.6959246724E+00    0.3536911955E-01    0.5821535463E+00    0.1110823223E-03
    0.1500000000E+07    0.2824482276E-04    0.6959242573E+00    0.3148328330E-01    0.5915472604E+00    0.1119693397E-03
    0.1700000000E+07    0.2279216619E-04    0.6959238409E+00    0.2836342117E-01    0.5990739765E+00    0.1127509721E-03
    0.1900000000E+07    0.1879025922E-04    0.6959234335E+00    0.2580338077E-01    0.6052407610E+00    0.1134501421E-03
    0.2100000000E+07    0.1576454706E-04    0.6959230394E+00    0.2366495289E-01    0.6103859365E+00    0.1140829757E-03
    0.2300000000E+07    0.1342030067E-04    0.6959226606E+00    0.2185198477E-01    0.6147440299E+00    0.1146612568E-03
    0.2500000000E+07    0.1156646576E-04    0.6959222974E+00    0.2029550247E-01    0.6184828069E+00    0.1151938630E-03
    0.2700000000E+07    0.1007470439E-04    0.6959219494E+00    0.1894473659E-01    0.6217254803E+00    0.1156876520E-03
    0.2900000000E+07    0.8856172682E-05    0.6959216160E+00    0.1776148581E-01    0.6245645941E+00    0.1161480337E-03
    0.3100000000E+07    0.7847759495E-05    0.6959212964E+00    0.1671645355E-01    0.6270710145E+00    0.1165793519E-03
    0.3300000000E+07    0.7003618837E-05    0.6959209898E+00    0.1578679591E-01    0.6292999303E+00    0.1169851488E-03
    0.3500000000E+07    0.6289787740E-05    0.6959206952E+00    0.1495443780E-01    0.6312949627E+00    0.1173683509E-03
    0.3700000000E+07    0.5680667057E-05    0.6959204120E+00    0.1420489031E-01    0.6330910466E+00    0.1177314049E-03
    0.3900000000E+07    0.5156662330E-05    0.6959201393E+00    0.1352640346E-01    0.6347164908E+00    0.1180763774E-03
    0.4100000000E+07    0.4702566956E-05    0.6959198765E+00    0.1290934831E-01    0.6361944777E+00    0.1184050298E-03
    0.4300000000E+07    0.4306431982E-05    0.6959196229E+00    0.1234575915E-01    0.6375441741E+00    0.1187188763E-03
    0.4500000000E+07    0.3958761911E-05    0.6959193779E+00    0.1182898934E-01    0.6387815642E+00    0.1190192279E-03
    0.4700000000E+07    0.3651933197E-05    0.6959191410E+00    0.1135344923E-01    0.6399200839E+00    0.1193072273E-03
    0.4900000000E+07    0.3379767596E-05    0.6959189117E+00    0.1091440412E-01    0.6409711094E+00    0.1195838770E-03
    0.1000000000E+07    0.5529075538E-04    0.6959252353E+00    0.4339144240E-01    0.5626840684E+00    0.1094742487E-03
    0.3000000000E+07    0.8328896875E-05    0.6959214545E+00    0.1722324865E-01    0.6258556297E+00    0.1163670881E-03
    0.5000000000E+07    0.3255068176E-05    0.6959187997E+00    0.1070728192E-01    0.6414668989E+00    0.1197182260E-03
    0.7000000000E+07    0.1733788223E-05    0.6959168646E+00    0.7755534413E-02    0.6485302602E+00    0.1219781011E-03
    0.9000000000E+07    0.1079379379E-05    0.6959153424E+00    0.6073797919E-02    0.6525532583E+00    0.1236938049E-03
    0.1100000000E+08    0.7384555659E-06    0.6959140857E+00    0.4988385792E-02    0.6551496134E+00    0.1250810763E-03
    0.1300000000E+08    0.5382364629E-06    0.6959130140E+00    0.4230284503E-02    0.6569631265E+00    0.1262478080E-03
    0.1500000000E+08    0.4105568652E-06    0.6959120788E+00    0.3671048245E-02    0.6583010565E+00    0.1272558953E-03
    0.1700000000E+08    0.3240836966E-06    0.6959112483E+00    0.3241621254E-02    0.6593285554E+00    0.1281442146E-03
    0.1900000000E+08    0.2627632663E-06    0.6959105008E+00    0.2901581020E-02    0.6601422856E+00    0.1289388167E-03
    0.2100000000E+08    0.2176730285E-06    0.6959098209E+00    0.2625697375E-02    0.6608025767E+00    0.1296580282E-03
    0.2300000000E+08    0.1835291274E-06    0.6959091969E+00    0.2397411199E-02    0.6613490241E+00    0.1303152414E-03
    0.2500000000E+08    0.1570390984E-06    0.6959086202E+00    0.2205405780E-02    0.6618086882E+00    0.1309205454E-03
    0.2700000000E+08    0.1360637840E-06    0.6959080837E+00    0.2041685350E-02    0.6622006892E+00    0.1314817340E-03
