  Pressure (Pa) 23mC5-500 (mol/kg) 24mC5-500 (mol/kg) 2mC6-500 (mol/kg) 3mC6-500 (mol/kg) C7-500 (mol/kg)
    0.1000000000E+01    0.1530096374E-05    0.3665992068E-01    0.1051377976E-04    0.8008199456E-05    0.4197031453E-02
    0.3000000000E+01    0.4036241181E-05    0.9948538103E-01    0.2714323325E-04    0.2050481515E-04    0.4264686401E-02
    0.5000000000E+01    0.6014352333E-05    0.1513657819E+00    0.3982038159E-04    0.3202578384E-04    0.4317887241E-02
    0.7000000000E+01    0.7606355623E-05    0.1949323577E+00    0.4969966518E-04    0.4308699090E-04    0.4362327276E-02
    0.9000000000E+01    0.8907682479E-05    0.2320354784E+00    0.5753483051E-04    0.5386220169E-04    0.4400156606E-02
    0.1100000000E+02    0.9985603933E-05    0.2640143142E+00    0.6384607356E-04    0.6443825345E-04    0.4432783000E-02
    0.1300000000E+02    0.1088889989E-04    0.2918619681E+00    0.6900312698E-04    0.7486677845E-04    0.4461221048E-02
    0.1500000000E+02    0.1165373587E-04    0.3163304815E+00    0.7327464872E-04    0.8518177399E-04    0.4486231084E-02
    0.1700000000E+02    0.1230742926E-04    0.3379997941E+00    0.7685942724E-04    0.9540719953E-04    0.4508397019E-02
    0.1900000000E+02    0.1287094824E-04    0.3573243113E+00    0.7990684180E-04    0.1055607848E-03    0.4528175706E-02
    0.2100000000E+02    0.1336061551E-04    0.3746651281E+00    0.8253065636E-04    0.1156561422E-03    0.4545930128E-02
    0.2300000000E+02    0.1378929664E-04    0.3903128114E+00    0.8481853437E-04    0.1257040300E-03    0.4561952533E-02
    0.2500000000E+02    0.1416724556E-04    0.4045038178E+00    0.8683873144E-04    0.1357131512E-03    0.4576480970E-02
    0.2700000000E+02    0.1450271656E-04    0.4174325296E+00    0.8864488419E-04    0.1456906832E-03    0.4589711362E-02
    0.2900000000E+02    0.1480241440E-04    0.4292602146E+00    0.9027948948E-04    0.1556426422E-03    0.4601806476E-02
    0.3100000000E+02    0.1507182987E-04    0.4401217901E+00    0.9177646657E-04    0.1655741412E-03    0.4612902680E-02
    0.3300000000E+02    0.1531549317E-04    0.4501309937E+00    0.9316306743E-04    0.1754895782E-03    0.4623115108E-02
    0.3500000000E+02    0.1553716755E-04    0.4593843825E+00    0.9446131694E-04    0.1853927758E-03    0.4632541656E-02
    0.3700000000E+02    0.1573999874E-04    0.4679644595E+00    0.9568910987E-04    0.1952870877E-03    0.4641266102E-02
    0.3900000000E+02    0.1592663147E-04    0.4759421403E+00    0.9686105417E-04    0.2051754807E-03    0.4649360576E-02
    0.4100000000E+02    0.1609930110E-04    0.4833787192E+00    0.9798912484E-04    0.2150605989E-03    0.4656887522E-02
    0.4300000000E+02    0.1625990633E-04    0.4903274470E+00    0.9908317507E-04    0.2249448144E-03    0.4663901278E-02
    0.4500000000E+02    0.1641006725E-04    0.4968348084E+00    0.1001513386E-03    0.2348302690E-03    0.4670449355E-02
    0.4700000000E+02    0.1655117210E-04    0.5029415641E+00    0.1012003485E-03    0.2447189070E-03    0.4676573483E-02
    0.4900000000E+02    0.1668441519E-04    0.5086836051E+00    0.1022357921E-03    0.2546125027E-03    0.4682310466E-02
    0.1000000000E+02    0.9471168732E-05    0.2485967027E+00    0.6085500017E-04    0.5917135049E-04    0.4417049602E-02
    0.3000000000E+02    0.1494060430E-04    0.4348042128E+00    0.9104334086E-04    0.1606106594E-03    0.4607471800E-02
    0.5000000000E+02    0.1674841648E-04    0.5114279184E+00    0.1027499101E-03    0.2595616732E-03    0.4685044109E-02
    0.7000000000E+02    0.1780332793E-04    0.5532129672E+00    0.1131024164E-03    0.3591405178E-03    0.4725621836E-02
    0.9000000000E+02    0.1868855234E-04    0.5795190757E+00    0.1244292138E-03    0.4605026620E-03    0.4749195366E-02
    0.1100000000E+03    0.1957005342E-04    0.5976032475E+00    0.1370462221E-03    0.5643160520E-03    0.4763381223E-02
    0.1300000000E+03    0.2050374654E-04    0.6107991061E+00    0.1509159772E-03    0.6710614626E-03    0.4771728533E-02
    0.1500000000E+03    0.2151013098E-04    0.6208526351E+00    0.1659541307E-03    0.7811349190E-03    0.4776117988E-02
    0.1700000000E+03    0.2259705093E-04    0.6287667765E+00    0.1820916734E-03    0.8948925020E-03    0.4777638745E-02
    0.1900000000E+03    0.2376770280E-04    0.6351586978E+00    0.1992843854E-03    0.1012673437E-02    0.4776963216E-02
    0.2100000000E+03    0.2502372731E-04    0.6404290048E+00    0.2175106916E-03    0.1134813611E-02    0.4774526343E-02
    0.2300000000E+03    0.2636647612E-04    0.6448490695E+00    0.2367677333E-03    0.1261654413E-02    0.4770618985E-02
    0.2500000000E+03    0.2779754779E-04    0.6486092548E+00    0.2570679454E-03    0.1393549149E-02    0.4765439918E-02
    0.2700000000E+03    0.2931901707E-04    0.6518470431E+00    0.2784365126E-03    0.1530868147E-02    0.4759126392E-02
    0.2900000000E+03    0.3093353327E-04    0.6546642062E+00    0.3009096133E-03    0.1674003197E-02    0.4751772878E-02
    0.3100000000E+03    0.3264436413E-04    0.6571376928E+00    0.3245332833E-03    0.1823371671E-02    0.4743442983E-02
    0.3300000000E+03    0.3445541967E-04    0.6593267619E+00    0.3493627523E-03    0.1979420578E-02    0.4734177246E-02
    0.3500000000E+03    0.3637127188E-04    0.6612777896E+00    0.3754621420E-03    0.2142630709E-02    0.4723998335E-02
    0.3700000000E+03    0.3839717797E-04    0.6630275897E+00    0.4029044496E-03    0.2313520999E-02    0.4712914584E-02
    0.3900000000E+03    0.4053911057E-04    0.6646057575E+00    0.4317717635E-03    0.2492653217E-02    0.4700922387E-02
    0.4100000000E+03    0.4280379694E-04    0.6660363561E+00    0.4621556787E-03    0.2680637073E-02    0.4688007834E-02
    0.4300000000E+03    0.4519876823E-04    0.6673391516E+00    0.4941578936E-03    0.2878135842E-02    0.4674147786E-02
    0.4500000000E+03    0.4773241961E-04    0.6685305311E+00    0.5278909763E-03    0.3085872588E-02    0.4659310543E-02
    0.4700000000E+03    0.5041408212E-04    0.6696241952E+00    0.5634793010E-03    0.3304637109E-02    0.4643456214E-02
    0.4900000000E+03    0.5325410723E-04    0.6706316867E+00    0.6010601590E-03    0.3535293687E-02    0.4626536830E-02
    0.1000000000E+03    0.1912498764E-04    0.5893275714E+00    0.1305761854E-03    0.5120701462E-03    0.4757184527E-02
    0.3000000000E+03    0.3177668027E-04    0.6559398560E+00    0.3125743857E-03    0.1747881060E-02    0.4747726975E-02
    0.5000000000E+03    0.5473704347E-04    0.6711062374E+00    0.6206445379E-03    0.3655374072E-02    0.4617660526E-02
    0.7000000000E+03    0.9641438378E-04    0.6778194496E+00    0.1165521353E-02    0.6982156003E-02    0.4364834056E-02
    0.9000000000E+03    0.1811028056E-03    0.6816051241E+00    0.2264270582E-02    0.1368132513E-01    0.3860214844E-02
    0.1100000000E+04    0.3694544053E-03    0.6840347480E+00    0.4709962565E-02    0.2864582638E-01    0.2807589324E-02
    0.1300000000E+04    0.6582288939E-03    0.6857258524E+00    0.8494647072E-02    0.5204354179E-01    0.1426503401E-02
    0.1500000000E+04    0.8303631609E-03    0.6869704748E+00    0.1081894818E-01    0.6684528636E-01    0.9279965667E-03
    0.1700000000E+04    0.9232704642E-03    0.6879246353E+00    0.1213760880E-01    0.7564303043E-01    0.8679273852E-03
    0.1900000000E+04    0.9990678409E-03    0.6886792609E+00    0.1324907117E-01    0.8327932838E-01    0.8670129553E-03
    0.2100000000E+04    0.1068199823E-02    0.6892909230E+00    0.1428757148E-01    0.9056931057E-01    0.8716874364E-03
    0.2300000000E+04    0.1132195622E-02    0.6897966616E+00    0.1527164495E-01    0.9761935165E-01    0.8764859284E-03
    0.2500000000E+04    0.1191526976E-02    0.6902217435E+00    0.1620609727E-01    0.1044515523E+00    0.8809296215E-03
    0.2700000000E+04    0.1246525358E-02    0.6905839948E+00    0.1709400187E-01    0.1110778240E+00    0.8850278306E-03
    0.2900000000E+04    0.1297485550E-02    0.6908963518E+00    0.1793805768E-01    0.1175083009E+00    0.8888271565E-03
    0.3100000000E+04    0.1344678886E-02    0.6911684295E+00    0.1874075621E-01    0.1237523412E+00    0.8923686672E-03
    0.3300000000E+04    0.1388356341E-02    0.6914075232E+00    0.1950441414E-01    0.1298186885E+00    0.8956858389E-03
    0.3500000000E+04    0.1428750350E-02    0.6916192679E+00    0.2023118938E-01    0.1357155314E+00    0.8988060348E-03
    0.3700000000E+04    0.1466076356E-02    0.6918080851E+00    0.2092309419E-01    0.1414505491E+00    0.9017518776E-03
    0.3900000000E+04    0.1500534203E-02    0.6919774929E+00    0.2158200680E-01    0.1470309503E+00    0.9045422825E-03
    0.4100000000E+04    0.1532309409E-02    0.6921303252E+00    0.2220968210E-01    0.1524635092E+00    0.9071932267E-03
    0.4300000000E+04    0.1561574324E-02    0.6922688903E+00    0.2280776125E-01    0.1577545979E+00    0.9097183287E-03
    0.4500000000E+04    0.1588489186E-02    0.6923950874E+00    0.2337778045E-01    0.1629102160E+00    0.9121292919E-03
    0.4700000000E+04    0.1613203077E-02    0.6925104933E+00    0.2392117895E-01    0.1679360181E+00    0.9144362488E-03
    0.4900000000E+04    0.1635854802E-02    0.6926164279E+00    0.2443930633E-01    0.1728373378E+00    0.9166480303E-03
    0.1000000000E+04    0.2571063875E-03    0.6829394706E+00    0.3249990434E-02    0.1970247344E-01    0.3423929881E-02
    0.3000000000E+04    0.1321536935E-02    0.6910369242E+00    0.1834442792E-01    0.1206530656E+00    0.8906278847E-03
    0.5000000000E+04    0.1646448116E-02    0.6926661984E+00    0.2468929224E-01    0.1752429015E+00    0.9177206878E-03
    0.7000000000E+04    0.1777110709E-02    0.6933610936E+00    0.2863168083E-01    0.2179042191E+00    0.9356412881E-03
    0.9000000000E+04    0.1804842236E-02    0.6937445198E+00    0.3109833955E-01    0.2524276016E+00    0.9491234205E-03
    0.1100000000E+05    0.1777278010E-02    0.6939866536E+00    0.3261679836E-01    0.2811130059E+00    0.9599672301E-03
    0.1300000000E+05    0.1720400596E-02    0.6941529217E+00    0.3350525199E-01    0.3054431611E+00    0.9690557807E-03
    0.1500000000E+05    0.1648827448E-02    0.6942738187E+00    0.3396453768E-01    0.3264210631E+00    0.9768895528E-03
    0.1700000000E+05    0.1570940092E-02    0.6943654616E+00    0.3412609707E-01    0.3447522219E+00    0.9837802785E-03
    0.1900000000E+05    0.1491578891E-02    0.6944371629E+00    0.3407851856E-01    0.3609491894E+00    0.9899355703E-03
    0.2100000000E+05    0.1413519940E-02    0.6944946750E+00    0.3388296172E-01    0.3753945681E+00    0.9955008019E-03
    0.2300000000E+05    0.1338312805E-02    0.6945417412E+00    0.3358249447E-01    0.3883806167E+00    0.1000581812E-02
    0.2500000000E+05    0.1266769229E-02    0.6945809007E+00    0.3320794399E-01    0.4001350461E+00    0.1005258099E-02
    0.2700000000E+05    0.1199254745E-02    0.6946139359E+00    0.3278167335E-01    0.4108383484E+00    0.1009590923E-02
    0.2900000000E+05    0.1135865860E-02    0.6946421343E+00    0.3232008238E-01    0.4206357516E+00    0.1013628508E-02
    0.3100000000E+05    0.1076539171E-02    0.6946664488E+00    0.3183530100E-01    0.4296456647E+00    0.1017409513E-02
    0.3300000000E+05    0.1021119194E-02    0.6946875992E+00    0.3133635857E-01    0.4379657688E+00    0.1020965409E-02
    0.3500000000E+05    0.9694007284E-03    0.6947061394E+00    0.3083000529E-01    0.4456774928E+00    0.1024322166E-02
    0.3700000000E+05    0.9211552891E-03    0.6947225024E+00    0.3032129830E-01    0.4528493565E+00    0.1027501471E-02
    0.3900000000E+05    0.8761474811E-03    0.6947370314E+00    0.2981402534E-01    0.4595395073E+00    0.1030521622E-02
    0.4100000000E+05    0.8341449625E-03    0.6947500017E+00    0.2931101506E-01    0.4657976687E+00    0.1033398204E-02
    0.4300000000E+05    0.7949243103E-03    0.6947616371E+00    0.2881436650E-01    0.4716666584E+00    0.1036144598E-02
    0.4500000000E+05    0.7582742637E-03    0.6947721208E+00    0.2832562066E-01    0.4771835820E+00    0.1038772385E-02
    0.4700000000E+05    0.7239972956E-03    0.6947816046E+00    0.2784588983E-01    0.4823807829E+00    0.1041291654E-02
    0.4900000000E+05    0.6919101287E-03    0.6947902148E+00    0.2737595580E-01    0.4872866050E+00    0.1043711247E-02
    0.1000000000E+05    0.1795996404E-02    0.6938779309E+00    0.3195267532E-01    0.2673932186E+00    0.9548073710E-03
    0.3000000000E+05    0.1105702893E-02    0.6946547275E+00    0.3207996449E-01    0.4252326125E+00    0.1015548970E-02
    0.5000000000E+05    0.6766343183E-03    0.6947942264E+00    0.2714483541E-01    0.4896381673E+00    0.1044886137E-02
    0.7000000000E+05    0.4519299081E-03    0.6948472890E+00    0.2308279300E-01    0.5261110365E+00    0.1064637564E-02
    0.9000000000E+05    0.3225583665E-03    0.6948729988E+00    0.1996759394E-01    0.5498880818E+00    0.1079621531E-02
    0.1100000000E+06    0.2417194489E-03    0.6948869354E+00    0.1755291519E-01    0.5667041314E+00    0.1091731840E-02
    0.1300000000E+06    0.1879272687E-03    0.6948948894E+00    0.1564091948E-01    0.5792577681E+00    0.1101914006E-02
    0.1500000000E+06    0.1503464258E-03    0.6948994690E+00    0.1409489215E-01    0.5890007105E+00    0.1110709887E-02
    0.1700000000E+06    0.1230599065E-03    0.6949020054E+00    0.1282134747E-01    0.5967880920E+00    0.1118459584E-02
    0.1900000000E+06    0.1026208529E-03    0.6949032402E+00    0.1175528052E-01    0.6031581033E+00    0.1125390879E-02
    0.2100000000E+06    0.8691270163E-04    0.6949036146E+00    0.1085045995E-01    0.6084670934E+00    0.1131663958E-02
    0.2300000000E+06    0.7457790952E-04    0.6949034045E+00    0.1007325460E-01    0.6129607090E+00    0.1137395837E-02
    0.2500000000E+06    0.6471338927E-04    0.6949027896E+00    0.9398680190E-02    0.6168139398E+00    0.1142674651E-02
    0.2700000000E+06    0.5669945758E-04    0.6949018905E+00    0.8807819839E-02    0.6201548986E+00    0.1147568471E-02
    0.2900000000E+06    0.5009941867E-04    0.6949007905E+00    0.8286104074E-02    0.6230795757E+00    0.1152130984E-02
    0.3100000000E+06    0.4459832894E-04    0.6948995482E+00    0.7822138798E-02    0.6256613371E+00    0.1156405294E-02
    0.3300000000E+06    0.3996440221E-04    0.6948982059E+00    0.7406890091E-02    0.6279572328E+00    0.1160426545E-02
    0.3500000000E+06    0.3602397190E-04    0.6948967941E+00    0.7033106294E-02    0.6300123023E+00    0.1164223771E-02
    0.3700000000E+06    0.3264482890E-04    0.6948953356E+00    0.6694901080E-02    0.6318625823E+00    0.1167821241E-02
    0.3900000000E+06    0.2972487936E-04    0.6948938472E+00    0.6387447813E-02    0.6335372522E+00    0.1171239453E-02
    0.4100000000E+06    0.2718426591E-04    0.6948923415E+00    0.6106752169E-02    0.6350601934E+00    0.1174495878E-02
    0.4300000000E+06    0.2495979394E-04    0.6948908281E+00    0.5849480697E-02    0.6364511410E+00    0.1177605532E-02
    0.4500000000E+06    0.2300092320E-04    0.6948893141E+00    0.5612829955E-02    0.6377265469E+00    0.1180581416E-02
    0.4700000000E+06    0.2126684149E-04    0.6948878052E+00    0.5394425469E-02    0.6389002359E+00    0.1183434862E-02
    0.4900000000E+06    0.1972429889E-04    0.6948863054E+00    0.5192242901E-02    0.6399839107E+00    0.1186175810E-02
    0.1000000000E+06    0.2777704983E-03    0.6948809640E+00    0.1868667386E-01    0.5589562704E+00    0.1085963628E-02
    0.3000000000E+06    0.4722759678E-04    0.6949001842E+00    0.8047514852E-02    0.6244094310E+00    0.1154301806E-02
    0.5000000000E+06    0.1901612401E-04    0.6948855599E+00    0.5096682414E-02    0.6404951680E+00    0.1187506877E-02
    0.7000000000E+06    0.1029524646E-04    0.6948715679E+00    0.3722338237E-02    0.6477849327E+00    0.1209895221E-02
    0.9000000000E+06    0.6486847789E-05    0.6948594747E+00    0.2928897121E-02    0.6519438896E+00    0.1226890941E-02
    0.1100000000E+07    0.4483761613E-05    0.6948490038E+00    0.2412786921E-02    0.6546318954E+00    0.1240632370E-02
    0.1300000000E+07    0.3299154819E-05    0.6948398156E+00    0.2050441786E-02    0.6565117593E+00    0.1252188745E-02
    0.1500000000E+07    0.2539515439E-05    0.6948316439E+00    0.1782159288E-02    0.6579001315E+00    0.1262173401E-02
    0.1700000000E+07    0.2022595498E-05    0.6948242903E+00    0.1575579857E-02    0.6589673753E+00    0.1270971546E-02
    0.1900000000E+07    0.1654486955E-05    0.6948176069E+00    0.1411648455E-02    0.6598132910E+00    0.1278841293E-02
    0.2100000000E+07    0.1382759490E-05    0.6948114814E+00    0.1278417375E-02    0.6605002169E+00    0.1285964214E-02
    0.2300000000E+07    0.1176247663E-05    0.6948058273E+00    0.1168016760E-02    0.6610690967E+00    0.1292472990E-02
    0.2500000000E+07    0.1015469403E-05    0.6948005762E+00    0.1075052492E-02    0.6615479310E+00    0.1298467574E-02
    0.2700000000E+07    0.8877313588E-06    0.6947956739E+00    0.9957041295E-03    0.6619565167E+00    0.1304025176E-02
    0.2900000000E+07    0.7844716704E-06    0.6947910761E+00    0.9271903449E-03    0.6623092453E+00    0.1309206702E-02
    0.3100000000E+07    0.6997426265E-06    0.6947867464E+00    0.8674383223E-03    0.6626168302E+00    0.1314061060E-02
    0.3300000000E+07    0.6293064524E-06    0.6947826549E+00    0.8148717831E-03    0.6628874104E+00    0.1318628125E-02
    0.3500000000E+07    0.5700764091E-06    0.6947787760E+00    0.7682707907E-03    0.6631272800E+00    0.1322940846E-02
    0.3700000000E+07    0.5197602153E-06    0.6947750883E+00    0.7266764986E-03    0.6633413831E+00    0.1327026768E-02
    0.3900000000E+07    0.4766261563E-06    0.6947715735E+00    0.6893248904E-03    0.6635336566E+00    0.1330909153E-02
    0.4100000000E+07    0.4393458653E-06    0.6947682157E+00    0.6555997163E-03    0.6637072747E+00    0.1334607835E-02
    0.4300000000E+07    0.4068863172E-06    0.6947650010E+00    0.6249984384E-03    0.6638648250E+00    0.1338139856E-02
    0.4500000000E+07    0.3784341703E-06    0.6947619176E+00    0.5971071747E-03    0.6640084378E+00    0.1341519975E-02
    0.4700000000E+07    0.3533418268E-06    0.6947589549E+00    0.5715819865E-03    0.6641398827E+00    0.1344761057E-02
    0.4900000000E+07    0.3310883631E-06    0.6947561035E+00    0.5481347120E-03    0.6642606423E+00    0.1347874387E-02
    0.1000000000E+07    0.5343257778E-05    0.6948540591E+00    0.2646108691E-02    0.6534182916E+00    0.1234086748E-02
    0.3000000000E+07    0.7400879587E-06    0.6947888797E+00    0.8963273555E-03    0.6624681216E+00    0.1311672101E-02
    0.5000000000E+07    0.3208908335E-06    0.6947547169E+00    0.5371127676E-03    0.6643174139E+00    0.1349386301E-02
    0.7000000000E+07    0.1956827211E-06    0.6947312343E+00    0.3827380925E-03    0.6651131181E+00    0.1374817227E-02
    0.9000000000E+07    0.1401946518E-06    0.6947132406E+00    0.2969908755E-03    0.6655558029E+00    0.1394123386E-02
    0.1100000000E+08    0.1100033474E-06    0.6946986096E+00    0.2424765628E-03    0.6658376881E+00    0.1409733147E-02
    0.1300000000E+08    0.9135628069E-07    0.6946862571E+00    0.2047802771E-03    0.6660329010E+00    0.1422860901E-02
    0.1500000000E+08    0.7880391881E-07    0.6946755539E+00    0.1771700652E-03    0.6661760831E+00    0.1434203289E-02
    0.1700000000E+08    0.6981255356E-07    0.6946661013E+00    0.1560816732E-03    0.6662855889E+00    0.1444197858E-02
    0.1900000000E+08    0.6306335140E-07    0.6946576307E+00    0.1394521119E-03    0.6663720499E+00    0.1453137796E-02
    0.2100000000E+08    0.5780942401E-07    0.6946499522E+00    0.1260048444E-03    0.6664420494E+00    0.1461229359E-02
    0.2300000000E+08    0.5359913543E-07    0.6946429265E+00    0.1149077865E-03    0.6664998818E+00    0.1468623261E-02
    0.2500000000E+08    0.5014467666E-07    0.6946364484E+00    0.1055954488E-03    0.6665484673E+00    0.1475433046E-02
    0.2700000000E+08    0.4725458861E-07    0.6946304365E+00    0.9767013466E-04    0.6665898612E+00    0.1481746423E-02
