  Pressure (Pa) 23mC5-500 (mol/kg) 24mC5-500 (mol/kg) 2mC6-500 (mol/kg) 3mC6-500 (mol/kg) C7-500 (mol/kg)
    0.1000000000E+01    0.1106241111E-05    0.1949948505E+00    0.2446262787E-05    0.3007009641E-05    0.4205966991E-02
    0.3000000000E+01    0.1950458944E-05    0.3748854669E+00    0.4098198264E-05    0.7751180416E-05    0.4249547533E-02
    0.5000000000E+01    0.2276115207E-05    0.4597048090E+00    0.4724438394E-05    0.1212628853E-04    0.4269837752E-02
    0.7000000000E+01    0.2449470792E-05    0.5090670069E+00    0.5131144106E-05    0.1632125271E-04    0.4281854481E-02
    0.9000000000E+01    0.2566455670E-05    0.5413616069E+00    0.5490576293E-05    0.2040023597E-04    0.4289865384E-02
    0.1100000000E+02    0.2660298323E-05    0.5641358026E+00    0.5848597913E-05    0.2439546983E-04    0.4295612216E-02
    0.1300000000E+02    0.2744466442E-05    0.5810586489E+00    0.6217729433E-05    0.2832619340E-04    0.4299946127E-02
    0.1500000000E+02    0.2824963490E-05    0.5941284782E+00    0.6600414441E-05    0.3220511308E-04    0.4303334657E-02
    0.1700000000E+02    0.2904616353E-05    0.6045266728E+00    0.6995946700E-05    0.3604120467E-04    0.4306056960E-02
    0.1900000000E+02    0.2984783972E-05    0.6129964316E+00    0.7402746625E-05    0.3984112170E-04    0.4308290511E-02
    0.2100000000E+02    0.3066106991E-05    0.6200286875E+00    0.7819137284E-05    0.4360997870E-04    0.4310153823E-02
    0.2300000000E+02    0.3148861104E-05    0.6259607690E+00    0.8243596993E-05    0.4735182033E-04    0.4311729229E-02
    0.2500000000E+02    0.3233132861E-05    0.6310321172E+00    0.8674822480E-05    0.5106991904E-04    0.4313075818E-02
    0.2700000000E+02    0.3318910773E-05    0.6354173910E+00    0.9111724452E-05    0.5476697263E-04    0.4314237169E-02
    0.2900000000E+02    0.3406133910E-05    0.6392469880E+00    0.9553401634E-05    0.5844524033E-04    0.4315246176E-02
    0.3100000000E+02    0.3494718319E-05    0.6426202296E+00    0.9999110715E-05    0.6210663951E-04    0.4316128169E-02
    0.3300000000E+02    0.3584571483E-05    0.6456140983E+00    0.1044823847E-04    0.6575281618E-04    0.4316902993E-02
    0.3500000000E+02    0.3675600180E-05    0.6482891834E+00    0.1090027788E-04    0.6938519759E-04    0.4317586436E-02
    0.3700000000E+02    0.3767714642E-05    0.6506938246E+00    0.1135480845E-04    0.7300503214E-04    0.4318191228E-02
    0.3900000000E+02    0.3860830608E-05    0.6528670580E+00    0.1181148021E-04    0.7661342035E-04    0.4318727755E-02
    0.4100000000E+02    0.3954870188E-05    0.6548407524E+00    0.1227000076E-04    0.8021133909E-04    0.4319204586E-02
    0.4300000000E+02    0.4049762055E-05    0.6566411813E+00    0.1273012498E-04    0.8379966085E-04    0.4319628860E-02
    0.4500000000E+02    0.4145441267E-05    0.6582901998E+00    0.1319164660E-04    0.8737916930E-04    0.4320006572E-02
    0.4700000000E+02    0.4241848901E-05    0.6598061357E+00    0.1365439153E-04    0.9095057188E-04    0.4320342804E-02
    0.4900000000E+02    0.4338931601E-05    0.6612044734E+00    0.1411821234E-04    0.9451451024E-04    0.4320641888E-02
    0.1000000000E+02    0.2615171394E-05    0.5536547044E+00    0.5668603496E-05    0.2240691753E-04    0.4292956058E-02
    0.3000000000E+02    0.3450261653E-05    0.6409853986E+00    0.9775793262E-05    0.6027793994E-04    0.4315701700E-02
    0.5000000000E+02    0.4387710831E-05    0.6618637376E+00    0.1435048632E-04    0.9629386499E-04    0.4320778685E-02
    0.7000000000E+02    0.5389252597E-05    0.6712330439E+00    0.1903048468E-04    0.1316074660E-03    0.4322242839E-02
    0.9000000000E+02    0.6424678460E-05    0.6765532501E+00    0.2374938423E-04    0.1666173848E-03    0.4322254356E-02
    0.1100000000E+03    0.7481953650E-05    0.6799826378E+00    0.2849417714E-04    0.2015272144E-03    0.4321501422E-02
    0.1300000000E+03    0.8555794428E-05    0.6823770290E+00    0.3326434888E-04    0.2364610902E-03    0.4320280138E-02
    0.1500000000E+03    0.9643737972E-05    0.6841434809E+00    0.3806273531E-04    0.2715033066E-03    0.4318741697E-02
    0.1700000000E+03    0.1074463698E-04    0.6855003397E+00    0.4289298695E-04    0.3067155363E-03    0.4316972401E-02
    0.1900000000E+03    0.1185801091E-04    0.6865752387E+00    0.4775879278E-04    0.3421454909E-03    0.4315025524E-02
    0.2100000000E+03    0.1298373924E-04    0.6874477744E+00    0.5266364804E-04    0.3778317357E-03    0.4312935901E-02
    0.2300000000E+03    0.1412190556E-04    0.6881701615E+00    0.5761080394E-04    0.4138065734E-03    0.4310727331E-02
    0.2500000000E+03    0.1527271386E-04    0.6887780750E+00    0.6260327909E-04    0.4500978721E-03    0.4308416630E-02
    0.2700000000E+03    0.1643644164E-04    0.6892967183E+00    0.6764388965E-04    0.4867302793E-03    0.4306016003E-02
    0.2900000000E+03    0.1761341262E-04    0.6897444024E+00    0.7273528259E-04    0.5237260572E-03    0.4303534489E-02
    0.3100000000E+03    0.1880398068E-04    0.6901347516E+00    0.7787996672E-04    0.5611056788E-03    0.4300978888E-02
    0.3300000000E+03    0.2000852001E-04    0.6904781124E+00    0.8308033975E-04    0.5988882617E-03    0.4298354375E-02
    0.3500000000E+03    0.2122741931E-04    0.6907824831E+00    0.8833871139E-04    0.6370918947E-03    0.4295664916E-02
    0.3700000000E+03    0.2246107815E-04    0.6910541447E+00    0.9365732292E-04    0.6757338859E-03    0.4292913560E-02
    0.3900000000E+03    0.2370990492E-04    0.6912980978E+00    0.9903836356E-04    0.7148309577E-03    0.4290102648E-02
    0.4100000000E+03    0.2497431560E-04    0.6915183734E+00    0.1044839845E-03    0.7543994005E-03    0.4287233963E-02
    0.4300000000E+03    0.2625473326E-04    0.6917182568E+00    0.1099963108E-03    0.7944551971E-03    0.4284308842E-02
    0.4500000000E+03    0.2755158784E-04    0.6919004525E+00    0.1155774513E-03    0.8350141250E-03    0.4281328266E-02
    0.4700000000E+03    0.2886531624E-04    0.6920672070E+00    0.1212295080E-03    0.8760918408E-03    0.4278292916E-02
    0.4900000000E+03    0.3019636256E-04    0.6922204019E+00    0.1269545832E-03    0.9177039526E-03    0.4275203230E-02
    0.1000000000E+03    0.6951008975E-05    0.6784351621E+00    0.2611870761E-04    0.1840758207E-03    0.4321950000E-02
    0.3000000000E+03    0.1820697402E-04    0.6899460331E+00    0.7530081109E-04    0.5423666652E-03    0.4302265593E-02
    0.5000000000E+03    0.3086852077E-04    0.6922924207E+00    0.1298451616E-03    0.9387152864E-03    0.4273638091E-02
    0.7000000000E+03    0.4533684703E-04    0.6933017016E+00    0.1920202081E-03    0.1390906903E-02    0.4239453066E-02
    0.9000000000E+03    0.6212667658E-04    0.6938630053E+00    0.2641414731E-03    0.1915989103E-02    0.4199295251E-02
    0.1100000000E+04    0.8189672404E-04    0.6942202326E+00    0.3490841424E-03    0.2535052399E-02    0.4151949195E-02
    0.1300000000E+04    0.1055276408E-03    0.6944674515E+00    0.4506668351E-03    0.3276120668E-02    0.4095579196E-02
    0.1500000000E+04    0.1342333848E-03    0.6946486291E+00    0.5741458867E-03    0.4177803662E-02    0.4027582355E-02
    0.1700000000E+04    0.1697309161E-03    0.6947870644E+00    0.7269562016E-03    0.5294766874E-02    0.3944270049E-02
    0.1900000000E+04    0.2145069538E-03    0.6948962543E+00    0.9198733159E-03    0.6706322878E-02    0.3840345313E-02
    0.2100000000E+04    0.2722412024E-03    0.6949845571E+00    0.1168859178E-02    0.8530106088E-02    0.3708085762E-02
    0.2300000000E+04    0.3484646755E-03    0.6950574248E+00    0.1497941479E-02    0.1094347335E-01    0.3536127355E-02
    0.2500000000E+04    0.4514958710E-03    0.6951185653E+00    0.1943332330E-02    0.1421430171E-01    0.3307894719E-02
    0.2700000000E+04    0.5933789134E-03    0.6951705878E+00    0.2557635496E-02    0.1873305423E-01    0.3000551525E-02
    0.2900000000E+04    0.7892119207E-03    0.6952153815E+00    0.3407233568E-02    0.2499583198E-01    0.2588337802E-02
    0.3100000000E+04    0.1049754280E-02    0.6952543480E+00    0.4540710800E-02    0.3337542193E-01    0.2060958491E-02
    0.3300000000E+04    0.1360979058E-02    0.6952885489E+00    0.5900307947E-02    0.4346990596E-01    0.1466336080E-02
    0.3500000000E+04    0.1668529154E-02    0.6953188032E+00    0.7252855788E-02    0.5358110575E-01    0.9309080583E-03
    0.3700000000E+04    0.1914494440E-02    0.6953457524E+00    0.8346649388E-02    0.6185038925E-01    0.5661889023E-03
    0.3900000000E+04    0.2088226139E-02    0.6953699064E+00    0.9132648660E-02    0.6789480544E-01    0.3712660840E-03
    0.4100000000E+04    0.2212473863E-02    0.6953916756E+00    0.9707236753E-02    0.7240730915E-01    0.2820447598E-03
    0.4300000000E+04    0.2310073203E-02    0.6954113938E+00    0.1016847208E-01    0.7610312185E-01    0.2444028520E-03
    0.4500000000E+04    0.2394300665E-02    0.6954293355E+00    0.1057364656E-01    0.7940233832E-01    0.2292178264E-03
    0.4700000000E+04    0.2471509091E-02    0.6954457283E+00    0.1095023959E-01    0.8250701024E-01    0.2233452609E-03
    0.4900000000E+04    0.2544526217E-02    0.6954607627E+00    0.1131047812E-01    0.8550706465E-01    0.2212577735E-03
    0.1000000000E+04    0.7159042649E-04    0.6940594892E+00    0.3047985069E-03    0.2212220590E-02    0.4176620099E-02
    0.3000000000E+04    0.9113681775E-03    0.6952355201E+00    0.3938201443E-02    0.2891759532E-01    0.2338024774E-02
    0.5000000000E+04    0.2579883061E-02    0.6954678216E+00    0.1148627236E-01    0.8698111020E-01    0.2208614775E-03
    0.7000000000E+04    0.3180729221E-02    0.6955660088E+00    0.1462203755E-01    0.1144036052E+00    0.2238876664E-03
    0.9000000000E+04    0.3623811058E-02    0.6956197757E+00    0.1718594782E-01    0.1387495122E+00    0.2270448958E-03
    0.1100000000E+05    0.3947441354E-02    0.6956534852E+00    0.1929694628E-01    0.1605692376E+00    0.2295963235E-03
    0.1300000000E+05    0.4179429135E-02    0.6956764682E+00    0.2104294228E-01    0.1802721185E+00    0.2317412957E-03
    0.1500000000E+05    0.4340605621E-02    0.6956930599E+00    0.2249165619E-01    0.1981808786E+00    0.2335941018E-03
    0.1700000000E+05    0.4446760372E-02    0.6957055451E+00    0.2369598198E-01    0.2145535861E+00    0.2352264542E-03
    0.1900000000E+05    0.4509985834E-02    0.6957152409E+00    0.2469774519E-01    0.2295992430E+00    0.2366863713E-03
    0.2100000000E+05    0.4539627370E-02    0.6957229587E+00    0.2553038630E-01    0.2434890622E+00    0.2380076155E-03
    0.2300000000E+05    0.4542964992E-02    0.6957292252E+00    0.2622090874E-01    0.2563647613E+00    0.2392148476E-03
    0.2500000000E+05    0.4525709422E-02    0.6957343971E+00    0.2679131479E-01    0.2683447543E+00    0.2403266398E-03
    0.2700000000E+05    0.4492367626E-02    0.6957387239E+00    0.2725967852E-01    0.2795288390E+00    0.2413573349E-03
    0.2900000000E+05    0.4446515239E-02    0.6957423858E+00    0.2764095764E-01    0.2900017896E+00    0.2423182444E-03
    0.3100000000E+05    0.4391001737E-02    0.6957455155E+00    0.2794761490E-01    0.2998361416E+00    0.2432184495E-03
    0.3300000000E+05    0.4328106417E-02    0.6957482132E+00    0.2819009879E-01    0.3090943747E+00    0.2440653538E-03
    0.3500000000E+05    0.4259658023E-02    0.6957505558E+00    0.2837721899E-01    0.3178306396E+00    0.2448650734E-03
    0.3700000000E+05    0.4187127217E-02    0.6957526033E+00    0.2851644230E-01    0.3260921376E+00    0.2456227210E-03
    0.3900000000E+05    0.4111698592E-02    0.6957544031E+00    0.2861412780E-01    0.3339202310E+00    0.2463426142E-03
    0.4100000000E+05    0.4034327126E-02    0.6957559932E+00    0.2867571530E-01    0.3413513448E+00    0.2470284333E-03
    0.4300000000E+05    0.3955782725E-02    0.6957574043E+00    0.2870587724E-01    0.3484177036E+00    0.2476833409E-03
    0.4500000000E+05    0.3876685555E-02    0.6957586617E+00    0.2870864221E-01    0.3551479392E+00    0.2483100757E-03
    0.4700000000E+05    0.3797534232E-02    0.6957597861E+00    0.2868749582E-01    0.3615675932E+00    0.2489110244E-03
    0.4900000000E+05    0.3718728418E-02    0.6957607947E+00    0.2864546367E-01    0.3676995365E+00    0.2494882805E-03
    0.1000000000E+05    0.3798628140E-02    0.6956383786E+00    0.1829201656E-01    0.1499472210E+00    0.2283811053E-03
    0.3000000000E+05    0.4419811861E-02    0.6957440102E+00    0.2780291860E-01    0.2949946719E+00    0.2427754382E-03
    0.5000000000E+05    0.3679557465E-02    0.6957612603E+00    0.2861745228E-01    0.3706641212E+00    0.2497686095E-03
    0.7000000000E+05    0.2962650774E-02    0.6957670317E+00    0.2744608632E-01    0.4188907626E+00    0.2544837228E-03
    0.9000000000E+05    0.2400491683E-02    0.6957693315E+00    0.2579644891E-01    0.4528688730E+00    0.2580631745E-03
    0.1100000000E+06    0.1972489342E-02    0.6957702129E+00    0.2410933433E-01    0.4783124864E+00    0.2609572946E-03
    0.1300000000E+06    0.1644896640E-02    0.6957704164E+00    0.2252353145E-01    0.4981713807E+00    0.2633912569E-03
    0.1500000000E+06    0.1390621548E-02    0.6957702651E+00    0.2107739075E-01    0.5141477554E+00    0.2654942235E-03
    0.1700000000E+06    0.1190133091E-02    0.6957699179E+00    0.1977340916E-01    0.5273027220E+00    0.2673473155E-03
    0.1900000000E+06    0.1029632721E-02    0.6957694598E+00    0.1860147646E-01    0.5383364772E+00    0.2690048886E-03
    0.2100000000E+06    0.8993286808E-03    0.6957689392E+00    0.1754779824E-01    0.5477317627E+00    0.2705051806E-03
    0.2300000000E+06    0.7921846552E-03    0.6957683847E+00    0.1659838035E-01    0.5558332252E+00    0.2718761324E-03
    0.2500000000E+06    0.7030675460E-03    0.6957678139E+00    0.1574032487E-01    0.5628940457E+00    0.2731387937E-03
    0.2700000000E+06    0.6281745132E-03    0.6957672378E+00    0.1496222029E-01    0.5691046984E+00    0.2743094245E-03
    0.2900000000E+06    0.5646460449E-03    0.6957666633E+00    0.1425415938E-01    0.5746114093E+00    0.2754008513E-03
    0.3100000000E+06    0.5103016978E-03    0.6957660950E+00    0.1360761366E-01    0.5795284060E+00    0.2764233736E-03
    0.3300000000E+06    0.4634571049E-03    0.6957655355E+00    0.1301526401E-01    0.5839462823E+00    0.2773853893E-03
    0.3500000000E+06    0.4227954057E-03    0.6957649866E+00    0.1247082950E-01    0.5879378522E+00    0.2782938373E-03
    0.3700000000E+06    0.3872756018E-03    0.6957644494E+00    0.1196891123E-01    0.5915623348E+00    0.2791545183E-03
    0.3900000000E+06    0.3560663250E-03    0.6957639243E+00    0.1150485617E-01    0.5948684042E+00    0.2799723318E-03
    0.4100000000E+06    0.3284973364E-03    0.6957634115E+00    0.1107464132E-01    0.5978964489E+00    0.2807514543E-03
    0.4300000000E+06    0.3040235692E-03    0.6957629111E+00    0.1067477622E-01    0.6006802717E+00    0.2814954754E-03
    0.4500000000E+06    0.2821981608E-03    0.6957624229E+00    0.1030222156E-01    0.6032483850E+00    0.2822075032E-03
    0.4700000000E+06    0.2626520047E-03    0.6957619465E+00    0.9954321181E-02    0.6056250119E+00    0.2828902473E-03
    0.4900000000E+06    0.2450780904E-03    0.6957614818E+00    0.9628745435E-02    0.6078308659E+00    0.2835460841E-03
    0.1000000000E+06    0.2171925006E-02    0.6957698883E+00    0.2494527206E-01    0.4664330038E+00    0.2595786968E-03
    0.3000000000E+06    0.5364410341E-03    0.6957663782E+00    0.1392368086E-01    0.5771374843E+00    0.2759201620E-03
    0.5000000000E+06    0.2369487246E-03    0.6957612537E+00    0.9473678740E-02    0.6088754207E+00    0.2838645769E-03
    0.7000000000E+06    0.1332429797E-03    0.6957572096E+00    0.7157247459E-02    0.6240492294E+00    0.2892218858E-03
    0.9000000000E+06    0.8542826320E-04    0.6957539300E+00    0.5743837068E-02    0.6329523679E+00    0.2932891312E-03
    0.1100000000E+07    0.5947809736E-04    0.6957511796E+00    0.4793236962E-02    0.6388075087E+00    0.2965777731E-03
    0.1300000000E+07    0.4382282270E-04    0.6957488122E+00    0.4110723120E-02    0.6429511681E+00    0.2993435932E-03
    0.1500000000E+07    0.3364940337E-04    0.6957467335E+00    0.3597180737E-02    0.6460379530E+00    0.3017333255E-03
    0.1700000000E+07    0.2666335557E-04    0.6957448801E+00    0.3196918732E-02    0.6484263613E+00    0.3038391331E-03
    0.1900000000E+07    0.2165732865E-04    0.6957432073E+00    0.2876263159E-02    0.6503292239E+00    0.3057227734E-03
    0.2100000000E+07    0.1794648389E-04    0.6957416823E+00    0.2613666145E-02    0.6518808734E+00    0.3074276926E-03
    0.2300000000E+07    0.1511870636E-04    0.6957402807E+00    0.2394703320E-02    0.6531702796E+00    0.3089856385E-03
    0.2500000000E+07    0.1291385202E-04    0.6957389837E+00    0.2209357314E-02    0.6542587071E+00    0.3104205289E-03
    0.2700000000E+07    0.1116109117E-04    0.6957377763E+00    0.2050455488E-02    0.6551897198E+00    0.3117508400E-03
    0.2900000000E+07    0.9744458046E-05    0.6957366468E+00    0.1912727840E-02    0.6559951427E+00    0.3129911464E-03
    0.3100000000E+07    0.8582970859E-05    0.6957355855E+00    0.1792215850E-02    0.6566987655E+00    0.3141531517E-03
    0.3300000000E+07    0.7618679938E-05    0.6957345844E+00    0.1685888704E-02    0.6573187282E+00    0.3152463986E-03
    0.3500000000E+07    0.6809224712E-05    0.6957336369E+00    0.1591386769E-02    0.6578691038E+00    0.3162787721E-03
    0.3700000000E+07    0.6123054573E-05    0.6957327374E+00    0.1506845681E-02    0.6583609775E+00    0.3172568638E-03
    0.3900000000E+07    0.5536276743E-05    0.6957318812E+00    0.1430772971E-02    0.6588031994E+00    0.3181862413E-03
    0.4100000000E+07    0.5030527292E-05    0.6957310641E+00    0.1361959809E-02    0.6592029207E+00    0.3190716505E-03
    0.4300000000E+07    0.4591502473E-05    0.6957302828E+00    0.1299416724E-02    0.6595659830E+00    0.3199171706E-03
    0.4500000000E+07    0.4207926154E-05    0.6957295340E+00    0.1242326046E-02    0.6598972042E+00    0.3207263334E-03
    0.4700000000E+07    0.3870811338E-05    0.6957288152E+00    0.1190006191E-02    0.6602005941E+00    0.3215022181E-03
    0.4900000000E+07    0.3572923741E-05    0.6957281239E+00    0.1141884502E-02    0.6604795162E+00    0.3222475251E-03
    0.1000000000E+07    0.7068884618E-04    0.6957524994E+00    0.5226084974E-02    0.6361539352E+00    0.2950112354E-03
    0.3000000000E+07    0.9135879287E-05    0.6957361082E+00    0.1850527569E-02    0.6563584345E+00    0.3135812963E-03
    0.5000000000E+07    0.3436809247E-05    0.6957277879E+00    0.1119243554E-02    0.6606107079E+00    0.3226094675E-03
    0.7000000000E+07    0.1797071642E-05    0.6957221141E+00    0.8007667087E-03    0.6624538120E+00    0.3286976411E-03
    0.9000000000E+07    0.1105713011E-05    0.6957177832E+00    0.6227609880E-03    0.6634826718E+00    0.3333197629E-03
    0.1100000000E+08    0.7499003494E-06    0.6957142698E+00    0.5091777321E-03    0.6641390485E+00    0.3370570606E-03
    0.1300000000E+08    0.5426784042E-06    0.6957113083E+00    0.4304459022E-03    0.6645941313E+00    0.3402002095E-03
    0.1500000000E+08    0.4113542248E-06    0.6957087451E+00    0.3726808212E-03    0.6649281635E+00    0.3429159614E-03
    0.1700000000E+08    0.3228495447E-06    0.6957064836E+00    0.3285039626E-03    0.6651837497E+00    0.3453090531E-03
    0.1900000000E+08    0.2603432448E-06    0.6957044585E+00    0.2936330540E-03    0.6653856055E+00    0.3474496671E-03
    0.2100000000E+08    0.2145406686E-06    0.6957026239E+00    0.2654128097E-03    0.6655490531E+00    0.3493871772E-03
    0.2300000000E+08    0.1799634222E-06    0.6957009462E+00    0.2421095935E-03    0.6656840963E+00    0.3511576625E-03
    0.2500000000E+08    0.1532110853E-06    0.6956994000E+00    0.2225436453E-03    0.6657975433E+00    0.3527883039E-03
    0.2700000000E+08    0.1320816313E-06    0.6956979657E+00    0.2058843490E-03    0.6658941879E+00    0.3543000982E-03
