  Pressure (Pa) 23mC5-500 (mol/kg) 24mC5-500 (mol/kg) 2mC6-500 (mol/kg) 3mC6-500 (mol/kg) C7-500 (mol/kg)
    0.1000000000E+01    0.1286668798E-05    0.1266294743E+00    0.8673116306E-05    0.4638489586E-05    0.4202175430E-02
    0.3000000000E+01    0.2649981513E-05    0.2785094374E+00    0.1707084225E-04    0.1192143504E-04    0.4254579157E-02
    0.5000000000E+01    0.3331296098E-05    0.3664033499E+00    0.2092099231E-04    0.1863664365E-04    0.4283879270E-02
    0.7000000000E+01    0.3725492109E-05    0.4237115299E+00    0.2310509923E-04    0.2507885522E-04    0.4303022166E-02
    0.9000000000E+01    0.3979840824E-05    0.4640331370E+00    0.2460210686E-04    0.3134780528E-04    0.4316557706E-02
    0.1100000000E+02    0.4159608120E-05    0.4939458691E+00    0.2580304011E-04    0.3749347402E-04    0.4326643235E-02
    0.1300000000E+02    0.4297172064E-05    0.5170195331E+00    0.2688026697E-04    0.4354563801E-04    0.4334445993E-02
    0.1500000000E+02    0.4409928446E-05    0.5353589972E+00    0.2791447004E-04    0.4952393209E-04    0.4340655553E-02
    0.1700000000E+02    0.4507790030E-05    0.5502857323E+00    0.2894455131E-04    0.5544220790E-04    0.4345706563E-02
    0.1900000000E+02    0.4596662606E-05    0.5626712489E+00    0.2998922411E-04    0.6131072191E-04    0.4349887095E-02
    0.2100000000E+02    0.4680186379E-05    0.5731135893E+00    0.3105704995E-04    0.6713735097E-04    0.4353395911E-02
    0.2300000000E+02    0.4760663673E-05    0.5820367888E+00    0.3215136510E-04    0.7292831965E-04    0.4356374758E-02
    0.2500000000E+02    0.4839578422E-05    0.5897498716E+00    0.3327280056E-04    0.7868866125E-04    0.4358927549E-02
    0.2700000000E+02    0.4917899298E-05    0.5964833681E+00    0.3442061039E-04    0.8442252357E-04    0.4361132270E-02
    0.2900000000E+02    0.4996262791E-05    0.6024127490E+00    0.3559338594E-04    0.9013337929E-04    0.4363048642E-02
    0.3100000000E+02    0.5075087052E-05    0.6076739375E+00    0.3678944346E-04    0.9582417540E-04    0.4364723210E-02
    0.3300000000E+02    0.5154644461E-05    0.6123738562E+00    0.3800703357E-04    0.1014974420E-03    0.4366192810E-02
    0.3500000000E+02    0.5235108890E-05    0.6165977704E+00    0.3924445205E-04    0.1071553736E-03    0.4367486993E-02
    0.3700000000E+02    0.5316587030E-05    0.6204145068E+00    0.4050009521E-04    0.1127998903E-03    0.4368629761E-02
    0.3900000000E+02    0.5399139502E-05    0.6238802332E+00    0.4177248424E-04    0.1184326858E-03    0.4369640817E-02
    0.4100000000E+02    0.5482795264E-05    0.6270412409E+00    0.4306027211E-04    0.1240552647E-03    0.4370536495E-02
    0.4300000000E+02    0.5567561549E-05    0.6299360240E+00    0.4436224122E-04    0.1296689718E-03    0.4371330462E-02
    0.4500000000E+02    0.5653430792E-05    0.6325968549E+00    0.4567729604E-04    0.1352750165E-03    0.4372034239E-02
    0.4700000000E+02    0.5740385490E-05    0.6350509923E+00    0.4700445358E-04    0.1408744918E-03    0.4372657617E-02
    0.4900000000E+02    0.5828401623E-05    0.6373216187E+00    0.4834283317E-04    0.1464683905E-03    0.4373208970E-02
    0.1000000000E+02    0.4076538956E-05    0.4800213210E+00    0.2522574758E-04    0.3443387562E-04    0.4321943688E-02
    0.3000000000E+02    0.5035597535E-05    0.6051196035E+00    0.3618861390E-04    0.9298111795E-04    0.4363913655E-02
    0.5000000000E+02    0.5872799053E-05    0.6383944292E+00    0.4901598148E-04    0.1492635346E-03    0.4373459929E-02
    0.7000000000E+02    0.6809037699E-05    0.6538018798E+00    0.6291626904E-04    0.2050578302E-03    0.4376013995E-02
    0.9000000000E+02    0.7818946455E-05    0.6626868611E+00    0.7741319394E-04    0.2609880917E-03    0.4375758043E-02
    0.1100000000E+03    0.8884104487E-05    0.6684674298E+00    0.9233737703E-04    0.3173841045E-03    0.4374025233E-02
    0.1300000000E+03    0.9994230872E-05    0.6725285319E+00    0.1076252773E-03    0.3744575292E-03    0.4371382080E-02
    0.1500000000E+03    0.1114362775E-04    0.6755379651E+00    0.1232549382E-03    0.4323619842E-03    0.4368112796E-02
    0.1700000000E+03    0.1232915129E-04    0.6778573624E+00    0.1392228257E-03    0.4912190772E-03    0.4364376200E-02
    0.1900000000E+03    0.1354914872E-04    0.6796996072E+00    0.1555344009E-03    0.5511314846E-03    0.4360267865E-02
    0.2100000000E+03    0.1480288530E-04    0.6811981821E+00    0.1721999104E-03    0.6121902396E-03    0.4355848373E-02
    0.2300000000E+03    0.1609022181E-04    0.6824410297E+00    0.1892323743E-03    0.6744791255E-03    0.4351157517E-02
    0.2500000000E+03    0.1741142530E-04    0.6834884471E+00    0.2066465815E-03    0.7380774971E-03    0.4346222016E-02
    0.2700000000E+03    0.1876705435E-04    0.6843831573E+00    0.2244585743E-03    0.8030621933E-03    0.4341059963E-02
    0.2900000000E+03    0.2015788728E-04    0.6851562770E+00    0.2426853878E-03    0.8695088970E-03    0.4335683534E-02
    0.3100000000E+03    0.2158487660E-04    0.6858310069E+00    0.2613449246E-03    0.9374931474E-03    0.4330100685E-02
    0.3300000000E+03    0.2304911964E-04    0.6864249989E+00    0.2804559072E-03    0.1007091125E-02    0.4324316275E-02
    0.3500000000E+03    0.2455183969E-04    0.6869519206E+00    0.3000378745E-03    0.1078380289E-02    0.4318332805E-02
    0.3700000000E+03    0.2609437422E-04    0.6874225199E+00    0.3201112056E-03    0.1151439906E-02    0.4312150943E-02
    0.3900000000E+03    0.2767816781E-04    0.6878453650E+00    0.3406971614E-03    0.1226351526E-02    0.4305769873E-02
    0.4100000000E+03    0.2930476850E-04    0.6882273701E+00    0.3618179380E-03    0.1303199394E-02    0.4299187560E-02
    0.4300000000E+03    0.3097582660E-04    0.6885741762E+00    0.3834967286E-03    0.1382070851E-02    0.4292400927E-02
    0.4500000000E+03    0.3269309542E-04    0.6888904313E+00    0.4057577926E-03    0.1463056706E-02    0.4285405986E-02
    0.4700000000E+03    0.3445843341E-04    0.6891799997E+00    0.4286265311E-03    0.1546251605E-02    0.4278197936E-02
    0.4900000000E+03    0.3627380753E-04    0.6894461204E+00    0.4521295680E-03    0.1631754401E-02    0.4270771228E-02
    0.1000000000E+03    0.8345402738E-05    0.6658537872E+00    0.8482726133E-04    0.2891128394E-03    0.4375031193E-02
    0.3000000000E+03    0.2086679695E-04    0.6855047287E+00    0.2519599146E-03    0.9033040907E-03    0.4332917546E-02
    0.5000000000E+03    0.3720090354E-04    0.6895712596E+00    0.4641276237E-03    0.1675403393E-02    0.4266973950E-02
    0.7000000000E+03    0.5895721806E-04    0.6913272312E+00    0.7451822506E-03    0.2698288957E-02    0.4177619053E-02
    0.9000000000E+03    0.8916048278E-04    0.6923057072E+00    0.1134887983E-02    0.4118296285E-02    0.4054388072E-02
    0.1100000000E+04    0.1332879068E-03    0.6929292108E+00    0.1704444052E-02    0.6196836698E-02    0.3877259529E-02
    0.1300000000E+04    0.2017965718E-03    0.6933610987E+00    0.2589733956E-02    0.9433588274E-02    0.3608686069E-02
    0.1500000000E+04    0.3151237573E-03    0.6936778418E+00    0.4057031198E-02    0.1481085381E-01    0.3178650438E-02
    0.1700000000E+04    0.5078587439E-03    0.6939200074E+00    0.6560142536E-02    0.2401498812E-01    0.2481474784E-02
    0.1900000000E+04    0.7949831076E-03    0.6941111148E+00    0.1030942476E-01    0.3788015236E-01    0.1523538383E-02
    0.2100000000E+04    0.1073261608E-02    0.6942657385E+00    0.1398431521E-01    0.5162810344E-01    0.7371235916E-03
    0.2300000000E+04    0.1244770515E-02    0.6943933904E+00    0.1630436985E-01    0.6051816870E-01    0.4115963763E-03
    0.2500000000E+04    0.1350262537E-02    0.6945005421E+00    0.1778192805E-01    0.6637054456E-01    0.3250118584E-03
    0.2700000000E+04    0.1432761124E-02    0.6945917494E+00    0.1897083920E-01    0.7120373545E-01    0.3058788047E-03
    0.2900000000E+04    0.1506763126E-02    0.6946703123E+00    0.2005859729E-01    0.7570470796E-01    0.3024902198E-03
    0.3100000000E+04    0.1576104234E-02    0.6947386796E+00    0.2109457426E-01    0.8005373849E-01    0.3025890319E-03
    0.3300000000E+04    0.1641831748E-02    0.6947987067E+00    0.2209183060E-01    0.8429715254E-01    0.3034208932E-03
    0.3500000000E+04    0.1704314144E-02    0.6948518250E+00    0.2305457027E-01    0.8844851297E-01    0.3043739112E-03
    0.3700000000E+04    0.1763752293E-02    0.6948991563E+00    0.2398482921E-01    0.9251340899E-01    0.3053147491E-03
    0.3900000000E+04    0.1820301121E-02    0.6949415924E+00    0.2488407365E-01    0.9649540723E-01    0.3062170688E-03
    0.4100000000E+04    0.1874098809E-02    0.6949798510E+00    0.2575358391E-01    0.1003974829E+00    0.3070782586E-03
    0.4300000000E+04    0.1925274101E-02    0.6950145162E+00    0.2659454911E-01    0.1042223699E+00    0.3079006760E-03
    0.4500000000E+04    0.1973948395E-02    0.6950460683E+00    0.2740809285E-01    0.1079726511E+00    0.3086874380E-03
    0.4700000000E+04    0.2020236551E-02    0.6950749057E+00    0.2819528190E-01    0.1116507857E+00    0.3094415130E-03
    0.4900000000E+04    0.2064247386E-02    0.6951013617E+00    0.2895713085E-01    0.1152591208E+00    0.3101655622E-03
    0.1000000000E+04    0.1089908004E-03    0.6926485705E+00    0.1390783869E-02    0.5051736455E-02    0.3974355741E-02
    0.3000000000E+04    0.1541923363E-02    0.6947056429E+00    0.2058188353E-01    0.7789399398E-01    0.3023645130E-03
    0.5000000000E+04    0.2085431255E-02    0.6951137863E+00    0.2932885641E-01    0.1170378181E+00    0.3105170750E-03
    0.7000000000E+04    0.2411940823E-02    0.6952868587E+00    0.3564460410E-01    0.1494427610E+00    0.3164208197E-03
    0.9000000000E+04    0.2600157033E-02    0.6953819304E+00    0.4028242779E-01    0.1768951640E+00    0.3208939324E-03
    0.1100000000E+05    0.2698118869E-02    0.6954417257E+00    0.4372355807E-01    0.2005785044E+00    0.3245065962E-03
    0.1300000000E+05    0.2736268625E-02    0.6954826264E+00    0.4628914243E-01    0.2213142924E+00    0.3275426790E-03
    0.1500000000E+05    0.2734440577E-02    0.6955122518E+00    0.4820061053E-01    0.2396920979E+00    0.3301645748E-03
    0.1700000000E+05    0.2705849701E-02    0.6955346219E+00    0.4961486778E-01    0.2561470896E+00    0.3324740905E-03
    0.1900000000E+05    0.2659460093E-02    0.6955520561E+00    0.5064570400E-01    0.2710082715E+00    0.3345393523E-03
    0.2100000000E+05    0.2601439077E-02    0.6955659847E+00    0.5137729526E-01    0.2845295920E+00    0.3364082371E-03
    0.2300000000E+05    0.2536075791E-02    0.6955773374E+00    0.5187298807E-01    0.2969106406E+00    0.3381157023E-03
    0.2500000000E+05    0.2466375905E-02    0.6955867439E+00    0.5218117065E-01    0.3083107952E+00    0.3396880662E-03
    0.2700000000E+05    0.2394454948E-02    0.6955946458E+00    0.5233929149E-01    0.3188591252E+00    0.3411456486E-03
    0.2900000000E+05    0.2321803331E-02    0.6956013616E+00    0.5237666804E-01    0.3286614725E+00    0.3425044715E-03
    0.3100000000E+05    0.2249467844E-02    0.6956071267E+00    0.5231648671E-01    0.3378056104E+00    0.3437773956E-03
    0.3300000000E+05    0.2178177755E-02    0.6956121187E+00    0.5217725107E-01    0.3463650672E+00    0.3449749037E-03
    0.3500000000E+05    0.2108433519E-02    0.6956164742E+00    0.5197384633E-01    0.3544020022E+00    0.3461056553E-03
    0.3700000000E+05    0.2040569878E-02    0.6956202998E+00    0.5171833247E-01    0.3619694017E+00    0.3471768876E-03
    0.3900000000E+05    0.1974801194E-02    0.6956236798E+00    0.5142054251E-01    0.3691127746E+00    0.3481947122E-03
    0.4100000000E+05    0.1911254266E-02    0.6956266819E+00    0.5108853900E-01    0.3758714786E+00    0.3491643377E-03
    0.4300000000E+05    0.1849992291E-02    0.6956293609E+00    0.5072896581E-01    0.3822797685E+00    0.3500902401E-03
    0.4500000000E+05    0.1791032432E-02    0.6956317618E+00    0.5034732183E-01    0.3883676313E+00    0.3509762947E-03
    0.4700000000E+05    0.1734358787E-02    0.6956339216E+00    0.4994817586E-01    0.3941614602E+00    0.3518258790E-03
    0.4900000000E+05    0.1679931989E-02    0.6956358713E+00    0.4953533653E-01    0.3996846010E+00    0.3526419551E-03
    0.1000000000E+05    0.2658205983E-02    0.6954149055E+00    0.4212962536E-01    0.1891499981E+00    0.3227861118E-03
    0.3000000000E+05    0.2285544238E-02    0.6956043508E+00    0.5235751991E-01    0.3333109258E+00    0.3431509674E-03
    0.5000000000E+05    0.1653544231E-02    0.6956367757E+00    0.4932479814E-01    0.4023512373E+00    0.3530382560E-03
    0.7000000000E+05    0.1226452767E-02    0.6956483826E+00    0.4493827274E-01    0.4454772128E+00    0.3597036341E-03
    0.9000000000E+05    0.9414811143E-03    0.6956535503E+00    0.4082687583E-01    0.4756872955E+00    0.3647632408E-03
    0.1100000000E+06    0.7445718986E-03    0.6956560162E+00    0.3724113231E-01    0.4982792978E+00    0.3688539453E-03
    0.1300000000E+06    0.6034467679E-03    0.6956571488E+00    0.3416066296E-01    0.5159168317E+00    0.3722941413E-03
    0.1500000000E+06    0.4990164901E-03    0.6956575545E+00    0.3151296405E-01    0.5301177355E+00    0.3752664446E-03
    0.1700000000E+06    0.4196178770E-03    0.6956575375E+00    0.2922469478E-01    0.5418224167E+00    0.3778855400E-03
    0.1900000000E+06    0.3578515059E-03    0.6956572641E+00    0.2723312557E-01    0.5516496631E+00    0.3802282691E-03
    0.2100000000E+06    0.3088547356E-03    0.6956568309E+00    0.2548716196E-01    0.5600256265E+00    0.3823486856E-03
    0.2300000000E+06    0.2693303008E-03    0.6956562972E+00    0.2394577792E-01    0.5672545132E+00    0.3842862865E-03
    0.2500000000E+06    0.2369800089E-03    0.6956557004E+00    0.2257607325E-01    0.5735598862E+00    0.3860708264E-03
    0.2700000000E+06    0.2101628723E-03    0.6956550649E+00    0.2135155210E-01    0.5791100526E+00    0.3877252892E-03
    0.2900000000E+06    0.1876819944E-03    0.6956544071E+00    0.2025073524E-01    0.5840343276E+00    0.3892678052E-03
    0.3100000000E+06    0.1686478082E-03    0.6956537380E+00    0.1925607905E-01    0.5884338185E+00    0.3907129324E-03
    0.3300000000E+06    0.1523880024E-03    0.6956530651E+00    0.1835314321E-01    0.5923887856E+00    0.3920725410E-03
    0.3500000000E+06    0.1383867935E-03    0.6956523937E+00    0.1752995103E-01    0.5959637942E+00    0.3933564387E-03
    0.3700000000E+06    0.1262431160E-03    0.6956517274E+00    0.1677649611E-01    0.5992113998E+00    0.3945728245E-03
    0.3900000000E+06    0.1156412868E-03    0.6956510687E+00    0.1608435986E-01    0.6021748343E+00    0.3957286234E-03
    0.4100000000E+06    0.1063300648E-03    0.6956504193E+00    0.1544641293E-01    0.6048899979E+00    0.3968297386E-03
    0.4300000000E+06    0.9810746958E-04    0.6956497802E+00    0.1485658032E-01    0.6073869586E+00    0.3978812435E-03
    0.4500000000E+06    0.9080961696E-04    0.6956491523E+00    0.1430965543E-01    0.6096910959E+00    0.3988875311E-03
    0.4700000000E+06    0.8430240030E-04    0.6956485359E+00    0.1380115151E-01    0.6118239845E+00    0.3998524312E-03
    0.4900000000E+06    0.7847521831E-04    0.6956479312E+00    0.1332718243E-01    0.6138040844E+00    0.4007793024E-03
    0.1000000000E+06    0.8344367976E-03    0.6956550083E+00    0.3896719458E-01    0.4877318783E+00    0.3669053783E-03
    0.3000000000E+06    0.1777803521E-03    0.6956540734E+00    0.1974110400E-01    0.5862942352E+00    0.3900017459E-03
    0.5000000000E+06    0.7578730392E-04    0.6956476333E+00    0.1310207410E-01    0.6147418921E+00    0.4012294167E-03
    0.7000000000E+06    0.4194733516E-04    0.6956422596E+00    0.9785469708E-02    0.6283757059E+00    0.4088006570E-03
    0.9000000000E+06    0.2665620047E-04    0.6956378129E+00    0.7801194869E-02    0.6363835298E+00    0.4145486559E-03
    0.1100000000E+07    0.1845470450E-04    0.6956340446E+00    0.6482080499E-02    0.6416524867E+00    0.4191962710E-03
    0.1300000000E+07    0.1354514934E-04    0.6956307801E+00    0.5542249943E-02    0.6453822309E+00    0.4231049991E-03
    0.1500000000E+07    0.1037219919E-04    0.6956279014E+00    0.4838967776E-02    0.6481609988E+00    0.4264822176E-03
    0.1700000000E+07    0.8202227367E-05    0.6956253265E+00    0.4293070998E-02    0.6503111704E+00    0.4294581787E-03
    0.1900000000E+07    0.6652169791E-05    0.6956229970E+00    0.3857142706E-02    0.6520242256E+00    0.4321201623E-03
    0.2100000000E+07    0.5506015405E-05    0.6956208694E+00    0.3501057602E-02    0.6534210597E+00    0.4345295694E-03
    0.2300000000E+07    0.4634374841E-05    0.6956189111E+00    0.3204762843E-02    0.6545817617E+00    0.4367312679E-03
    0.2500000000E+07    0.3955876636E-05    0.6956170967E+00    0.2954395496E-02    0.6555614892E+00    0.4387590599E-03
    0.2700000000E+07    0.3417250662E-05    0.6956154059E+00    0.2740066647E-02    0.6563994682E+00    0.4406390568E-03
    0.2900000000E+07    0.2982428429E-05    0.6956138228E+00    0.2554533443E-02    0.6571243568E+00    0.4423918564E-03
    0.3100000000E+07    0.2626277717E-05    0.6956123341E+00    0.2392370072E-02    0.6577575785E+00    0.4440339985E-03
    0.3300000000E+07    0.2330848176E-05    0.6956109289E+00    0.2249431922E-02    0.6583154697E+00    0.4455789695E-03
    0.3500000000E+07    0.2083039855E-05    0.6956095982E+00    0.2122498720E-02    0.6588107042E+00    0.4470379125E-03
    0.3700000000E+07    0.1873109829E-05    0.6956083343E+00    0.2009030621E-02    0.6592532652E+00    0.4484201433E-03
    0.3900000000E+07    0.1693689323E-05    0.6956071306E+00    0.1906997614E-02    0.6596511229E+00    0.4497335301E-03
    0.4100000000E+07    0.1539121127E-05    0.6956059815E+00    0.1814757793E-02    0.6600107176E+00    0.4509847801E-03
    0.4300000000E+07    0.1405003273E-05    0.6956048822E+00    0.1730968894E-02    0.6603373098E+00    0.4521796579E-03
    0.4500000000E+07    0.1287868699E-05    0.6956038284E+00    0.1654522968E-02    0.6606352385E+00    0.4533231552E-03
    0.4700000000E+07    0.1184956451E-05    0.6956028164E+00    0.1584497421E-02    0.6609081142E+00    0.4544196232E-03
    0.4900000000E+07    0.1094045693E-05    0.6956018429E+00    0.1520117834E-02    0.6611589661E+00    0.4554728785E-03
    0.1000000000E+07    0.2198864929E-04    0.6956358565E+00    0.7081240236E-02    0.6392643558E+00    0.4169823923E-03
    0.3000000000E+07    0.2795776877E-05    0.6956130673E+00    0.2470814737E-02    0.6574513052E+00    0.4432258547E-03
    0.5000000000E+07    0.1052513810E-05    0.6956013697E+00    0.1489836614E-02    0.6612769488E+00    0.4559843689E-03
    0.7000000000E+07    0.5525546562E-06    0.6955933697E+00    0.1064494485E-02    0.6629339972E+00    0.4645880354E-03
    0.9000000000E+07    0.3418696798E-06    0.6955872544E+00    0.8272496881E-03    0.6638584855E+00    0.4711198715E-03
    0.1100000000E+08    0.2333807101E-06    0.6955822890E+00    0.6760500282E-03    0.6644480102E+00    0.4764012773E-03
    0.1300000000E+08    0.1701267080E-06    0.6955781009E+00    0.5713275653E-03    0.6648565878E+00    0.4808430374E-03
    0.1500000000E+08    0.1299798836E-06    0.6955744745E+00    0.4945368915E-03    0.6651563877E+00    0.4846808063E-03
    0.1700000000E+08    0.1028749449E-06    0.6955712735E+00    0.4358347775E-03    0.6653857162E+00    0.4880625974E-03
    0.1900000000E+08    0.8369368121E-07    0.6955684063E+00    0.3895136399E-03    0.6655667893E+00    0.4910875927E-03
    0.2100000000E+08    0.6960748951E-07    0.6955658081E+00    0.3520368397E-03    0.6657133762E+00    0.4938255667E-03
    0.2300000000E+08    0.5894859688E-07    0.6955634316E+00    0.3210965608E-03    0.6658344648E+00    0.4963275057E-03
    0.2500000000E+08    0.5068134956E-07    0.6955612408E+00    0.2951230004E-03    0.6659361706E+00    0.4986318216E-03
    0.2700000000E+08    0.4413471203E-07    0.6955592081E+00    0.2730113352E-03    0.6660227990E+00    0.5007681867E-03
