  Pressure (Pa) 23mC5-500 (mol/kg) 24mC5-500 (mol/kg) 2mC6-500 (mol/kg) 3mC6-500 (mol/kg) C7-500 (mol/kg)
    0.1000000000E+01    0.2294944271E-05    0.3665822105E-01    0.3504170212E-04    0.1600800383E-05    0.4197522248E-02
    0.3000000000E+01    0.6052967490E-05    0.9947326842E-01    0.9044819796E-04    0.4095094159E-05    0.4265763657E-02
    0.5000000000E+01    0.9018294949E-05    0.1513386245E+00    0.1326660057E-03    0.6390505010E-05    0.4319459923E-02
    0.7000000000E+01    0.1140406577E-04    0.1948886978E+00    0.1655476844E-03    0.8590523478E-05    0.4364355145E-02
    0.9000000000E+01    0.1335354643E-04    0.2319754617E+00    0.1916077373E-03    0.1073006650E-04    0.4402616185E-02
    0.1100000000E+02    0.1496769865E-04    0.2639388698E+00    0.2125810343E-03    0.1282660518E-04    0.4435658935E-02
    0.1300000000E+02    0.1631971487E-04    0.2917723727E+00    0.2297003471E-03    0.1489053732E-04    0.4464502605E-02
    0.1500000000E+02    0.1746384929E-04    0.3162281264E+00    0.2438612598E-03    0.1692871379E-04    0.4489910402E-02
    0.1700000000E+02    0.1844107556E-04    0.3378860618E+00    0.2557263302E-03    0.1894596442E-04    0.4512468146E-02
    0.1900000000E+02    0.1928283962E-04    0.3572005135E+00    0.2657933629E-03    0.2094586348E-04    0.4532634020E-02
    0.2100000000E+02    0.2001361755E-04    0.3745324766E+00    0.2744414272E-03    0.2293115457E-04    0.4550771971E-02
    0.2300000000E+02    0.2065269941E-04    0.3901724080E+00    0.2819625905E-03    0.2490400483E-04    0.4567174966E-02
    0.2500000000E+02    0.2121545801E-04    0.4043566542E+00    0.2885842360E-03    0.2686616592E-04    0.4582081610E-02
    0.2700000000E+02    0.2171426730E-04    0.4172794930E+00    0.2944850289E-03    0.2881908078E-04    0.4595688264E-02
    0.2900000000E+02    0.2215917754E-04    0.4291020954E+00    0.2998065142E-03    0.3076395707E-04    0.4608158051E-02
    0.3100000000E+02    0.2255841871E-04    0.4399592904E+00    0.3046616565E-03    0.3270181929E-04    0.4619627630E-02
    0.3300000000E+02    0.2291878054E-04    0.4499647365E+00    0.3091412067E-03    0.3463354672E-04    0.4630212381E-02
    0.3500000000E+02    0.2324590291E-04    0.4592149202E+00    0.3133185008E-03    0.3655990176E-04    0.4640010409E-02
    0.3700000000E+02    0.2354449991E-04    0.4677922813E+00    0.3172531155E-03    0.3848155133E-04    0.4649105673E-02
    0.3900000000E+02    0.2381853456E-04    0.4757676799E+00    0.3209936774E-03    0.4039908352E-04    0.4657570462E-02
    0.4100000000E+02    0.2407135624E-04    0.4832023609E+00    0.3245800418E-03    0.4231302058E-04    0.4665467360E-02
    0.4300000000E+02    0.2430580960E-04    0.4901495314E+00    0.3280449951E-03    0.4422382927E-04    0.4672850831E-02
    0.4500000000E+02    0.2452432169E-04    0.4966556377E+00    0.3314155956E-03    0.4613192912E-04    0.4679768498E-02
    0.4700000000E+02    0.2472897200E-04    0.5027614061E+00    0.3347142354E-03    0.4803769927E-04    0.4686262195E-02
    0.4900000000E+02    0.2492154930E-04    0.5085026978E+00    0.3379594883E-03    0.4994148395E-04    0.4692368819E-02
    0.1000000000E+02    0.1419743643E-04    0.2485288270E+00    0.2026437271E-03    0.1178295196E-04    0.4419718935E-02
    0.3000000000E+02    0.2236405242E-04    0.4346438207E+00    0.3022862483E-03    0.3173370695E-04    0.4614010208E-02
    0.5000000000E+02    0.2501380164E-04    0.5112467171E+00    0.3395670250E-03    0.5089273092E-04    0.4695287338E-02
    0.7000000000E+02    0.2650589578E-04    0.5530333241E+00    0.3715112374E-03    0.6987725695E-04    0.4739584438E-02
    0.9000000000E+02    0.2771296520E-04    0.5793476769E+00    0.4058309876E-03    0.8890344115E-04    0.4766955218E-02
    0.1100000000E+03    0.2888192342E-04    0.5974417441E+00    0.4435251195E-03    0.1080852352E-03    0.4785055025E-02
    0.1300000000E+03    0.3009441540E-04    0.6106474262E+00    0.4844060093E-03    0.1274956126E-03    0.4797462019E-02
    0.1500000000E+03    0.3137869083E-04    0.6207101261E+00    0.5281210621E-03    0.1471874241E-03    0.4806081254E-02
    0.1700000000E+03    0.3274372375E-04    0.6286326285E+00    0.5743601275E-03    0.1672024239E-03    0.4812023970E-02
    0.1900000000E+03    0.3419120834E-04    0.6350321043E+00    0.6228867787E-03    0.1875758015E-03    0.4815983699E-02
    0.2100000000E+03    0.3572017889E-04    0.6403092204E+00    0.6735307122E-03    0.2083387048E-03    0.4818416349E-02
    0.2300000000E+03    0.3732888666E-04    0.6447354273E+00    0.7261740100E-03    0.2295197594E-03    0.4819634142E-02
    0.2500000000E+03    0.3901557533E-04    0.6485011659E+00    0.7807389181E-03    0.2511460435E-03    0.4819858026E-02
    0.2700000000E+03    0.4077879132E-04    0.6517439903E+00    0.8371783962E-03    0.2732437474E-03    0.4819248559E-02
    0.2900000000E+03    0.4261749235E-04    0.6545657358E+00    0.8954691366E-03    0.2958386428E-03    0.4817924948E-02
    0.3100000000E+03    0.4453106845E-04    0.6570434064E+00    0.9556064852E-03    0.3189564302E-03    0.4815977243E-02
    0.3300000000E+03    0.4651932681E-04    0.6592363087E+00    0.1017600761E-02    0.3426230088E-03    0.4813474392E-02
    0.3500000000E+03    0.4858246382E-04    0.6611908598E+00    0.1081474586E-02    0.3668646938E-03    0.4810469722E-02
    0.3700000000E+03    0.5072103462E-04    0.6629439087E+00    0.1147260955E-02    0.3917083984E-03    0.4807004760E-02
    0.3900000000E+03    0.5293592506E-04    0.6645250809E+00    0.1215001832E-02    0.4171817932E-03    0.4803111941E-02
    0.4100000000E+03    0.5522832752E-04    0.6659584659E+00    0.1284747145E-02    0.4433134483E-03    0.4798816577E-02
    0.4300000000E+03    0.5759972125E-04    0.6672638525E+00    0.1356554077E-02    0.4701329668E-03    0.4794138304E-02
    0.4500000000E+03    0.6005185698E-04    0.6684576474E+00    0.1430486575E-02    0.4976711110E-03    0.4789092163E-02
    0.4700000000E+03    0.6258674558E-04    0.6695535685E+00    0.1506615032E-02    0.5259599264E-03    0.4783689417E-02
    0.4900000000E+03    0.6520665027E-04    0.6705631737E+00    0.1585016111E-02    0.5550328647E-03    0.4777938168E-02
    0.1000000000E+03    0.2829517053E-04    0.5891610624E+00    0.4242591188E-03    0.9846969811E-04    0.4776884803E-02
    0.3000000000E+03    0.4356494254E-04    0.6558435242E+00    0.9253066555E-03    0.3073305637E-03    0.4817024378E-02
    0.5000000000E+03    0.6654925870E-04    0.6710387318E+00    0.1625094533E-02    0.5698742487E-03    0.4774933646E-02
    0.7000000000E+03    0.9863062808E-04    0.6777670619E+00    0.2570157902E-02    0.9175741953E-03    0.4696722299E-02
    0.9000000000E+03    0.1439834279E-03    0.6815620696E+00    0.3887615269E-02    0.1399689508E-02    0.4578531564E-02
    0.1100000000E+04    0.2106676435E-03    0.6839980511E+00    0.5812804942E-02    0.2103392112E-02    0.4402163294E-02
    0.1300000000E+04    0.3140542033E-03    0.6856937781E+00    0.8790813671E-02    0.3192620436E-02    0.4130973256E-02
    0.1500000000E+04    0.4833874085E-03    0.6869419210E+00    0.1366896882E-01    0.4980043530E-02    0.3697713610E-02
    0.1700000000E+04    0.7651856398E-03    0.6878988571E+00    0.2180459500E-01    0.7970334501E-02    0.3008122452E-02
    0.1900000000E+04    0.1173159640E-02    0.6886557306E+00    0.3364179169E-01    0.1234528200E-01    0.2086500948E-02
    0.2100000000E+04    0.1566580422E-02    0.6892692525E+00    0.4518009362E-01    0.1665725974E-01    0.1332125141E-02
    0.2300000000E+04    0.1815807589E-02    0.6897765571E+00    0.5265554425E-01    0.1951384172E-01    0.1005407165E-02
    0.2500000000E+04    0.1970643370E-02    0.6902029767E+00    0.5745366233E-01    0.2140495336E-01    0.9132894843E-03
    0.2700000000E+04    0.2090204922E-02    0.6905663850E+00    0.6126279131E-01    0.2294477664E-01    0.8929808297E-03
    0.2900000000E+04    0.2196353867E-02    0.6908797531E+00    0.6471035798E-01    0.2436279180E-01    0.8907839075E-03
    0.3100000000E+04    0.2295387630E-02    0.6911527227E+00    0.6797652443E-01    0.2572472658E-01    0.8928461650E-03
    0.3300000000E+04    0.2389152195E-02    0.6913926092E+00    0.7111289878E-01    0.2704899197E-01    0.8957940758E-03
    0.3500000000E+04    0.2478314109E-02    0.6916050637E+00    0.7413696567E-01    0.2834140866E-01    0.8988210887E-03
    0.3700000000E+04    0.2563222718E-02    0.6917945203E+00    0.7705709458E-01    0.2960445199E-01    0.9017434199E-03
    0.3900000000E+04    0.2644133471E-02    0.6919645074E+00    0.7987904074E-01    0.3083966494E-01    0.9045281445E-03
    0.4100000000E+04    0.2721266533E-02    0.6921178671E+00    0.8260765163E-01    0.3204829217E-01    0.9071780173E-03
    0.4300000000E+04    0.2794822886E-02    0.6922569145E+00    0.8524733067E-01    0.3323145074E-01    0.9097032336E-03
    0.4500000000E+04    0.2864989324E-02    0.6923835545E+00    0.8780217509E-01    0.3439017896E-01    0.9121145990E-03
    0.4700000000E+04    0.2931940470E-02    0.6924993687E+00    0.9027602672E-01    0.3552545276E-01    0.9144220090E-03
    0.4900000000E+04    0.2995839939E-02    0.6926056810E+00    0.9267249823E-01    0.3663819297E-01    0.9166342334E-03
    0.1000000000E+04    0.1739301160E-03    0.6828998687E+00    0.4753107958E-02    0.1716054776E-02    0.4499360091E-02
    0.3000000000E+04    0.2246598176E-02    0.6910207850E+00    0.6636154212E-01    0.2504912091E-01    0.8915973556E-03
    0.5000000000E+04    0.3026693636E-02    0.6926556299E+00    0.9384278739E-01    0.3718638683E-01    0.9177071034E-03
    0.7000000000E+04    0.3516184068E-02    0.6933530945E+00    0.1139156310E+00    0.4715543898E-01    0.9356308157E-03
    0.9000000000E+04    0.3827749213E-02    0.6937380202E+00    0.1291284050E+00    0.5562158870E-01    0.9491147938E-03
    0.1100000000E+05    0.4025052829E-02    0.6939811451E+00    0.1409820070E+00    0.6299080638E-01    0.9599598377E-03
    0.1300000000E+05    0.4146380113E-02    0.6941481211E+00    0.1504210199E+00    0.6952824847E-01    0.9690492786E-03
    0.1500000000E+05    0.4215827528E-02    0.6942695514E+00    0.1580689476E+00    0.7541540491E-01    0.9768837267E-03
    0.1700000000E+05    0.4249126539E-02    0.6943616118E+00    0.1643535709E+00    0.8078130067E-01    0.9837749855E-03
    0.1900000000E+05    0.4256859032E-02    0.6944336499E+00    0.1695779175E+00    0.8572058241E-01    0.9899307100E-03
    0.2100000000E+05    0.4246321039E-02    0.6944914400E+00    0.1739624895E+00    0.9030453086E-01    0.9954963008E-03
    0.2300000000E+05    0.4222647756E-02    0.6945387400E+00    0.1776714566E+00    0.9458804702E-01    0.1000577614E-02
    0.2500000000E+05    0.4189516442E-02    0.6945780991E+00    0.1808294874E+00    0.9861424149E-01    0.1005254162E-02
    0.2700000000E+05    0.4149598731E-02    0.6946113071E+00    0.1835328986E+00    0.1024175410E+00    0.1009587212E-02
    0.2900000000E+05    0.4104859250E-02    0.6946396568E+00    0.1858572382E+00    0.1060258469E+00    0.1013624997E-02
    0.3100000000E+05    0.4056757212E-02    0.6946641048E+00    0.1878625641E+00    0.1094620695E+00    0.1017406178E-02
    0.3300000000E+05    0.4006385232E-02    0.6946853741E+00    0.1895971950E+00    0.1127452416E+00    0.1020962231E-02
    0.3500000000E+05    0.3954566588E-02    0.6947040211E+00    0.1911004249E+00    0.1158913401E+00    0.1024319130E-02
    0.3700000000E+05    0.3901924436E-02    0.6947204804E+00    0.1924045194E+00    0.1189139036E+00    0.1027498564E-02
    0.3900000000E+05    0.3848931767E-02    0.6947350969E+00    0.1935362070E+00    0.1218245027E+00    0.1030518832E-02
    0.4100000000E+05    0.3795947901E-02    0.6947481471E+00    0.1945178068E+00    0.1246331027E+00    0.1033395520E-02
    0.4300000000E+05    0.3743245462E-02    0.6947598557E+00    0.1953680933E+00    0.1273483472E+00    0.1036142013E-02
    0.4500000000E+05    0.3691030518E-02    0.6947704069E+00    0.1961029651E+00    0.1299777820E+00    0.1038769892E-02
    0.4700000000E+05    0.3639457749E-02    0.6947799530E+00    0.1967359694E+00    0.1325280343E+00    0.1041289245E-02
    0.4900000000E+05    0.3588641980E-02    0.6947886212E+00    0.1972787153E+00    0.1350049558E+00    0.1043708916E-02
    0.1000000000E+05    0.3937863425E-02    0.6938719723E+00    0.1354065211E+00    0.5942428383E-01    0.9547994164E-03
    0.3000000000E+05    0.4081152974E-02    0.6946523187E+00    0.1868965187E+00    0.1077641990E+00    0.1015545550E-02
    0.5000000000E+05    0.3563545170E-02    0.6947926601E+00    0.1975194221E+00    0.1362175636E+00    0.1044883844E-02
    0.7000000000E+05    0.3111534181E-02    0.6948461232E+00    0.1994180025E+00    0.1576218093E+00    0.1064635819E-02
    0.9000000000E+05    0.2750206013E-02    0.6948720746E+00    0.1983363883E+00    0.1752402551E+00    0.1079620124E-02
    0.1100000000E+06    0.2459951444E-02    0.6948861763E+00    0.1960280724E+00    0.1904225044E+00    0.1091730666E-02
    0.1300000000E+06    0.2222719046E-02    0.6948942520E+00    0.1931798542E+00    0.2038701660E+00    0.1101913007E-02
    0.1500000000E+06    0.2025375985E-02    0.6948989263E+00    0.1901023198E+00    0.2160008822E+00    0.1110709025E-02
    0.1700000000E+06    0.1858622138E-02    0.6949015392E+00    0.1869490223E+00    0.2270866235E+00    0.1118458834E-02
    0.1900000000E+06    0.1715799948E-02    0.6949028375E+00    0.1838001121E+00    0.2373161854E+00    0.1125390223E-02
    0.2100000000E+06    0.1592049697E-02    0.6949032660E+00    0.1806985623E+00    0.2468270324E+00    0.1131663383E-02
    0.2300000000E+06    0.1483750138E-02    0.6949031028E+00    0.1776673848E+00    0.2557230231E+00    0.1137395331E-02
    0.2500000000E+06    0.1388149810E-02    0.6949025289E+00    0.1747184106E+00    0.2640849692E+00    0.1142674207E-02
    0.2700000000E+06    0.1303120729E-02    0.6949016664E+00    0.1718570206E+00    0.2719772745E+00    0.1147568083E-02
    0.2900000000E+06    0.1226990676E-02    0.6949005992E+00    0.1690848062E+00    0.2794522959E+00    0.1152130646E-02
    0.3100000000E+06    0.1158426702E-02    0.6948993868E+00    0.1664011191E+00    0.2865533141E+00    0.1156405002E-02
    0.3300000000E+06    0.1096352638E-02    0.6948980717E+00    0.1638039974E+00    0.2933166205E+00    0.1160426296E-02
    0.3500000000E+06    0.1039889601E-02    0.6948966851E+00    0.1612907310E+00    0.2997730218E+00    0.1164223560E-02
    0.3700000000E+06    0.9883123682E-03    0.6948952497E+00    0.1588582113E+00    0.3059489497E+00    0.1167821066E-02
    0.3900000000E+06    0.9410168980E-03    0.6948937829E+00    0.1565031499E+00    0.3118672958E+00    0.1171239312E-02
    0.4100000000E+06    0.8974957909E-03    0.6948922974E+00    0.1542222144E+00    0.3175480509E+00    0.1174495769E-02
    0.4300000000E+06    0.8573195229E-03    0.6948908029E+00    0.1520121131E+00    0.3230088012E+00    0.1177605453E-02
    0.4500000000E+06    0.8201219144E-03    0.6948893068E+00    0.1498696464E+00    0.3282651202E+00    0.1180581365E-02
    0.4700000000E+06    0.7855887586E-03    0.6948878147E+00    0.1477917366E+00    0.3333308814E+00    0.1183434838E-02
    0.4900000000E+06    0.7534488316E-03    0.6948863309E+00    0.1457754435E+00    0.3382185098E+00    0.1186175812E-02
    0.1000000000E+06    0.2597443350E-02    0.6948801292E+00    0.1972795431E+00    0.1830828803E+00    0.1085962348E-02
    0.3000000000E+06    0.1191835419E-02    0.6949000082E+00    0.1677319965E+00    0.2830471433E+00    0.1154301492E-02
    0.5000000000E+06    0.7382015291E-03    0.6948855931E+00    0.1447895241E+00    0.3405990624E+00    0.1187506891E-02
    0.7000000000E+06    0.5153456932E-03    0.6948717250E+00    0.1277040751E+00    0.3810733315E+00    0.1209895437E-02
    0.9000000000E+06    0.3847712341E-03    0.6948597210E+00    0.1144187675E+00    0.4118105562E+00    0.1226891307E-02
    0.1100000000E+07    0.3002113526E-03    0.6948493209E+00    0.1037411957E+00    0.4362035040E+00    0.1240632857E-02
    0.1300000000E+07    0.2417312715E-03    0.6948401921E+00    0.9494437531E-01    0.4561435219E+00    0.1252189335E-02
    0.1500000000E+07    0.1993428254E-03    0.6948320719E+00    0.8755643820E-01    0.4728021653E+00    0.1262174082E-02
    0.1700000000E+07    0.1675077836E-03    0.6948247642E+00    0.8125538720E-01    0.4869567269E+00    0.1270972309E-02
    0.1900000000E+07    0.1429215508E-03    0.6948181223E+00    0.7581270070E-01    0.4991487551E+00    0.1278842130E-02
    0.2100000000E+07    0.1234989911E-03    0.6948120350E+00    0.7106103069E-01    0.5097697428E+00    0.1285965121E-02
    0.2300000000E+07    0.1078650182E-03    0.6948064162E+00    0.6687464637E-01    0.5191110582E+00    0.1292473961E-02
    0.2500000000E+07    0.9507966481E-04    0.6948011982E+00    0.6315704445E-01    0.5273947415E+00    0.1298468606E-02
    0.2700000000E+07    0.8448095035E-04    0.6947963269E+00    0.5983279993E-01    0.5347933677E+00    0.1304026265E-02
    0.2900000000E+07    0.7559076479E-04    0.6947917585E+00    0.5684203495E-01    0.5414433295E+00    0.1309207847E-02
    0.3100000000E+07    0.6805624504E-04    0.6947874569E+00    0.5413656325E-01    0.5474539899E+00    0.1314062257E-02
    0.3300000000E+07    0.6161202510E-04    0.6947833920E+00    0.5167714004E-01    0.5529141513E+00    0.1318629372E-02
    0.3500000000E+07    0.5605522183E-04    0.6947795388E+00    0.4943146094E-01    0.5578967272E+00    0.1322942142E-02
    0.3700000000E+07    0.5122844134E-04    0.6947758757E+00    0.4737267996E-01    0.5624621814E+00    0.1327028110E-02
    0.3900000000E+07    0.4700797848E-04    0.6947723845E+00    0.4547829483E-01    0.5666611014E+00    0.1330910541E-02
    0.4100000000E+07    0.4329546139E-04    0.6947690495E+00    0.4372929673E-01    0.5705361533E+00    0.1334609266E-02
    0.4300000000E+07    0.4001183170E-04    0.6947658570E+00    0.4210951353E-01    0.5741235854E+00    0.1338141329E-02
    0.4500000000E+07    0.3709293917E-04    0.6947627950E+00    0.4060509681E-01    0.5774543995E+00    0.1341521490E-02
    0.4700000000E+07    0.3448627168E-04    0.6947598531E+00    0.3920411683E-01    0.5805552735E+00    0.1344762613E-02
    0.4900000000E+07    0.3214849670E-04    0.6947570219E+00    0.3789623990E-01    0.5834492934E+00    0.1347875982E-02
    0.1000000000E+07    0.3383235797E-03    0.6948543426E+00    0.1088071780E+00    0.4246592666E+00    0.1234087177E-02
    0.3000000000E+07    0.7167234157E-04    0.6947895764E+00    0.5545627336E-01    0.5445226022E+00    0.1311673272E-02
    0.5000000000E+07    0.3106894284E-04    0.6947556452E+00    0.3727435732E-01    0.5848251127E+00    0.1349387915E-02
    0.7000000000E+07    0.1739578883E-04    0.6947323382E+00    0.2805257353E-01    0.6052089709E+00    0.1374819186E-02
    0.9000000000E+07    0.1114872804E-04    0.6947144907E+00    0.2247512713E-01    0.6175231724E+00    0.1394125638E-02
    0.1100000000E+08    0.7771191080E-05    0.6946999869E+00    0.1873904802E-01    0.6257670274E+00    0.1409735657E-02
    0.1300000000E+08    0.5737076660E-05    0.6946877484E+00    0.1606242520E-01    0.6316711434E+00    0.1422863645E-02
    0.1500000000E+08    0.4416163032E-05    0.6946771491E+00    0.1405108028E-01    0.6361068787E+00    0.1434206249E-02
    0.1700000000E+08    0.3509233622E-05    0.6946677925E+00    0.1248473125E-01    0.6395608017E+00    0.1444201018E-02
    0.1900000000E+08    0.2859228003E-05    0.6946594115E+00    0.1123063175E-01    0.6423259735E+00    0.1453141145E-02
    0.2100000000E+08    0.2377195479E-05    0.6946518172E+00    0.1020402753E-01    0.6445894340E+00    0.1461232887E-02
    0.2300000000E+08    0.2009661541E-05    0.6946448712E+00    0.9348271628E-02    0.6464761599E+00    0.1468626959E-02
    0.2500000000E+08    0.1722892451E-05    0.6946384689E+00    0.8624068625E-02    0.6480728285E+00    0.1475436906E-02
    0.2700000000E+08    0.1494744969E-05    0.6946325293E+00    0.8003306004E-02    0.6494414401E+00    0.1481750438E-02
