  Pressure (Pa) 23mC5-500 (mol/kg) 24mC5-500 (mol/kg) 2mC6-500 (mol/kg) 3mC6-500 (mol/kg) C7-500 (mol/kg)
    0.1000000000E+01    0.2145368797E-05    0.6964861619E-01    0.3235865234E-05    0.4325610835E-05    0.4235316564E-02
    0.3000000000E+01    0.5137173041E-05    0.1740709434E+00    0.7503988171E-05    0.1121607664E-04    0.4345050612E-02
    0.5000000000E+01    0.7098825502E-05    0.2486212426E+00    0.1012868830E-04    0.1759083883E-04    0.4423008907E-02
    0.7000000000E+01    0.8456328885E-05    0.3045137455E+00    0.1184661786E-04    0.2371511746E-04    0.4481893444E-02
    0.9000000000E+01    0.9435315030E-05    0.3479737307E+00    0.1303197133E-04    0.2967922860E-04    0.4528078315E-02
    0.1100000000E+02    0.1016550962E-04    0.3827341878E+00    0.1389100814E-04    0.3552859584E-04    0.4565344831E-02
    0.1300000000E+02    0.1072605822E-04    0.4111695792E+00    0.1454407062E-04    0.4129035143E-04    0.4596096228E-02
    0.1500000000E+02    0.1116753126E-04    0.4348623055E+00    0.1506448320E-04    0.4698242268E-04    0.4621936963E-02
    0.1700000000E+02    0.1152346452E-04    0.4549075502E+00    0.1549847019E-04    0.5261747737E-04    0.4643980560E-02
    0.1900000000E+02    0.1181678728E-04    0.4720873937E+00    0.1587597298E-04    0.5820490813E-04    0.4663024752E-02
    0.2100000000E+02    0.1206358242E-04    0.4869752421E+00    0.1621681017E-04    0.6375193654E-04    0.4679656428E-02
    0.2300000000E+02    0.1227537727E-04    0.5000010726E+00    0.1653432609E-04    0.6926427483E-04    0.4694317242E-02
    0.2500000000E+02    0.1246058820E-04    0.5114936408E+00    0.1683762445E-04    0.7474654568E-04    0.4707346101E-02
    0.2700000000E+02    0.1262545900E-04    0.5217086105E+00    0.1713297488E-04    0.8020256102E-04    0.4719007533E-02
    0.2900000000E+02    0.1277468624E-04    0.5308477978E+00    0.1742472036E-04    0.8563551407E-04    0.4729511119E-02
    0.3100000000E+02    0.1291184554E-04    0.5390726381E+00    0.1771587519E-04    0.9104811581E-04    0.4739025129E-02
    0.3300000000E+02    0.1303968795E-04    0.5465138051E+00    0.1800852625E-04    0.9644269448E-04    0.4747686274E-02
    0.3500000000E+02    0.1316034975E-04    0.5532782045E+00    0.1830410674E-04    0.1018212698E-03    0.4755606813E-02
    0.3700000000E+02    0.1327550322E-04    0.5594541428E+00    0.1860358546E-04    0.1071856094E-03    0.4762879819E-02
    0.3900000000E+02    0.1338646666E-04    0.5651152037E+00    0.1890759940E-04    0.1125372723E-03    0.4769583137E-02
    0.4100000000E+02    0.1349428566E-04    0.5703231934E+00    0.1921654758E-04    0.1178776434E-03    0.4775782390E-02
    0.4300000000E+02    0.1359979385E-04    0.5751304067E+00    0.1953065813E-04    0.1232079606E-03    0.4781533312E-02
    0.4500000000E+02    0.1370365878E-04    0.5795813883E+00    0.1985003652E-04    0.1285293365E-03    0.4786883548E-02
    0.4700000000E+02    0.1380641695E-04    0.5837143177E+00    0.2017470069E-04    0.1338427765E-03    0.4791874086E-02
    0.4900000000E+02    0.1390850074E-04    0.5875621066E+00    0.2050460647E-04    0.1391491933E-03    0.4796540390E-02
    0.1000000000E+02    0.9825707602E-05    0.3662695427E+00    0.1349332887E-04    0.3261627546E-04    0.4547652490E-02
    0.3000000000E+02    0.1284458591E-04    0.5350657157E+00    0.1757022314E-04    0.8834420534E-04    0.4734382631E-02
    0.5000000000E+02    0.1395940164E-04    0.5893881377E+00    0.2067149891E-04    0.1418000309E-03    0.4798761752E-02
    0.7000000000E+02    0.1499786470E-04    0.6161976455E+00    0.2425290520E-04    0.1946170835E-03    0.4831893096E-02
    0.9000000000E+02    0.1612562489E-04    0.6321717388E+00    0.2820002809E-04    0.2473666246E-03    0.4852004809E-02
    0.1100000000E+03    0.1735243132E-04    0.6427745620E+00    0.3240488663E-04    0.3003464412E-03    0.4865300635E-02
    0.1300000000E+03    0.1866736501E-04    0.6503250301E+00    0.3680375671E-04    0.3537436382E-03    0.4874508531E-02
    0.1500000000E+03    0.2005891037E-04    0.6559751700E+00    0.4135993678E-04    0.4076903430E-03    0.4881029940E-02
    0.1700000000E+03    0.2151797955E-04    0.6603620766E+00    0.4605200644E-04    0.4622878870E-03    0.4885664863E-02
    0.1900000000E+03    0.2303787831E-04    0.6638666966E+00    0.5086739477E-04    0.5176189609E-03    0.4888906195E-02
    0.2100000000E+03    0.2461379616E-04    0.6667308019E+00    0.5579886540E-04    0.5737543773E-03    0.4891075672E-02
    0.2300000000E+03    0.2624233134E-04    0.6691152265E+00    0.6084253335E-04    0.6307571306E-03    0.4892392999E-02
    0.2500000000E+03    0.2792112840E-04    0.6711311197E+00    0.6599670427E-04    0.6886849822E-03    0.4893013702E-02
    0.2700000000E+03    0.2964861573E-04    0.6728577558E+00    0.7126117134E-04    0.7475921913E-03    0.4893051140E-02
    0.2900000000E+03    0.3142381798E-04    0.6743531958E+00    0.7663677613E-04    0.8075307214E-03    0.4892589938E-02
    0.3100000000E+03    0.3324622174E-04    0.6756609374E+00    0.8212512723E-04    0.8685511145E-03    0.4891694524E-02
    0.3300000000E+03    0.3511567866E-04    0.6768142122E+00    0.8772841613E-04    0.9307031461E-03    0.4890414748E-02
    0.3500000000E+03    0.3703233495E-04    0.6778388449E+00    0.9344929485E-04    0.9940363314E-03    0.4888789692E-02
    0.3700000000E+03    0.3899657971E-04    0.6787552082E+00    0.9929079363E-04    0.1058600329E-02    0.4886850314E-02
    0.3900000000E+03    0.4100900679E-04    0.6795795895E+00    0.1052562655E-03    0.1124445273E-02    0.4884621333E-02
    0.4100000000E+03    0.4307038644E-04    0.6803251657E+00    0.1113493492E-03    0.1191622054E-02    0.4882122594E-02
    0.4300000000E+03    0.4518164426E-04    0.6810027118E+00    0.1175739444E-03    0.1260182560E-02    0.4879370075E-02
    0.4500000000E+03    0.4734384567E-04    0.6816211247E+00    0.1239341968E-03    0.1330179897E-02    0.4876376639E-02
    0.4700000000E+03    0.4955818444E-04    0.6821878148E+00    0.1304344892E-03    0.1401668587E-02    0.4873152612E-02
    0.4900000000E+03    0.5182597441E-04    0.6827090045E+00    0.1370794373E-03    0.1474704752E-02    0.4869706219E-02
    0.1000000000E+03    0.1672723216E-04    0.6379597306E+00    0.3027504328E-04    0.2738143475E-03    0.4859289293E-02
    0.3000000000E+03    0.3232913657E-04    0.6750282502E+00    0.7936673341E-04    0.8379025627E-03    0.4892193102E-02
    0.5000000000E+03    0.5298035558E-04    0.6829542136E+00    0.1404576634E-03    0.1511821157E-02    0.4867901718E-02
    0.7000000000E+03    0.7928957959E-04    0.6864034727E+00    0.2169535392E-03    0.2350919381E-02    0.4821001440E-02
    0.9000000000E+03    0.1133708066E-03    0.6883320344E+00    0.3153956282E-03    0.3429779252E-02    0.4752600487E-02
    0.1100000000E+04    0.1588019118E-03    0.6895631322E+00    0.4462710118E-03    0.4864693890E-02    0.4657044121E-02
    0.1300000000E+04    0.2216085831E-03    0.6904167279E+00    0.6270516153E-03    0.6848700127E-02    0.4522684110E-02
    0.1500000000E+04    0.3123134361E-03    0.6910430849E+00    0.8881966194E-03    0.9718500618E-02    0.4328629092E-02
    0.1700000000E+04    0.4498408492E-03    0.6915220894E+00    0.1284555394E-02    0.1408166845E-01    0.4038018208E-02
    0.1900000000E+04    0.6672853661E-03    0.6919001282E+00    0.1912393468E-02    0.2100878155E-01    0.3589790355E-02
    0.2100000000E+04    0.1008907976E-02    0.6922059789E+00    0.2901769390E-02    0.3196136603E-01    0.2914611000E-02
    0.2300000000E+04    0.1469552945E-02    0.6924584392E+00    0.4242974569E-02    0.4689206922E-01    0.2069326150E-02
    0.2500000000E+04    0.1900020412E-02    0.6926703073E+00    0.5509540590E-02    0.6114425555E-01    0.1388120251E-02
    0.2700000000E+04    0.2179542984E-02    0.6928505975E+00    0.6349398016E-02    0.7079419191E-01    0.1069415283E-02
    0.2900000000E+04    0.2354220295E-02    0.6930058419E+00    0.6890897720E-02    0.7720452224E-01    0.9671116411E-03
    0.3100000000E+04    0.2486112791E-02    0.6931408894E+00    0.7311728843E-02    0.8231964274E-01    0.9404803174E-03
    0.3300000000E+04    0.2601555060E-02    0.6932594149E+00    0.7687727675E-02    0.8697464672E-01    0.9355743585E-03
    0.3500000000E+04    0.2708993905E-02    0.6933642539E+00    0.8043226065E-02    0.9143777481E-01    0.9364830297E-03
    0.3700000000E+04    0.2811016553E-02    0.6934576294E+00    0.8385593209E-02    0.9578950844E-01    0.9388479302E-03
    0.3900000000E+04    0.2908485133E-02    0.6935413085E+00    0.8717185668E-02    0.1000546113E+00    0.9415018455E-03
    0.4100000000E+04    0.3001764294E-02    0.6936167136E+00    0.9038913573E-02    0.1042417430E+00    0.9441391355E-03
    0.4300000000E+04    0.3091072340E-02    0.6936850022E+00    0.9351265311E-02    0.1083548957E+00    0.9466855089E-03
    0.4500000000E+04    0.3176580972E-02    0.6937471262E+00    0.9654599629E-02    0.1123966678E+00    0.9491282850E-03
    0.4700000000E+04    0.3258443779E-02    0.6938038754E+00    0.9949229199E-02    0.1163692019E+00    0.9514706327E-03
    0.4900000000E+04    0.3336804576E-02    0.6938559104E+00    0.1023544490E-01    0.1202744567E+00    0.9537192619E-03
    0.1000000000E+04    0.1343656931E-03    0.6890088198E+00    0.3759019257E-03    0.4093034642E-02    0.4708781597E-02
    0.3000000000E+04    0.2423224294E-02    0.6930756377E+00    0.7109805481E-02    0.7985145751E-01    0.9491185473E-03
    0.5000000000E+04    0.3374714671E-02    0.6938803376E+00    0.1037548442E-01    0.1222024373E+00    0.9548106372E-03
    0.7000000000E+04    0.3979202716E-02    0.6942196928E+00    0.1279594925E-01    0.1576441679E+00    0.9731094368E-03
    0.9000000000E+04    0.4356505995E-02    0.6944049507E+00    0.1462832929E-01    0.1880832402E+00    0.9869417845E-03
    0.1100000000E+05    0.4577310353E-02    0.6945206950E+00    0.1602380566E-01    0.2145831695E+00    0.9980982482E-03
    0.1300000000E+05    0.4689183229E-02    0.6945993106E+00    0.1708864525E-01    0.2379176679E+00    0.1007465871E-02
    0.1500000000E+05    0.4724773966E-02    0.6946558354E+00    0.1789937213E-01    0.2586639441E+00    0.1015550529E-02
    0.1700000000E+05    0.4706862159E-02    0.6946981894E+00    0.1851224617E-01    0.2772620764E+00    0.1022668684E-02
    0.1900000000E+05    0.4651556543E-02    0.6947309331E+00    0.1896937654E-01    0.2940540189E+00    0.1029031769E-02
    0.2100000000E+05    0.4570373470E-02    0.6947568740E+00    0.1930277596E-01    0.3093099500E+00    0.1034788198E-02
    0.2300000000E+05    0.4471617246E-02    0.6947778329E+00    0.1953711574E-01    0.3232465122E+00    0.1040046230E-02
    0.2500000000E+05    0.4361314572E-02    0.6947950408E+00    0.1969163887E-01    0.3360397170E+00    0.1044887311E-02
    0.2700000000E+05    0.4243857897E-02    0.6948093589E+00    0.1978151436E-01    0.3478342541E+00    0.1049374281E-02
    0.2900000000E+05    0.4122455024E-02    0.6948214071E+00    0.1981881260E-01    0.3587503277E+00    0.1053556664E-02
    0.3100000000E+05    0.3999447511E-02    0.6948316427E+00    0.1981321890E-01    0.3688887545E+00    0.1057474195E-02
    0.3300000000E+05    0.3876538818E-02    0.6948404100E+00    0.1977256274E-01    0.3783348231E+00    0.1061159250E-02
    0.3500000000E+05    0.3754959518E-02    0.6948479728E+00    0.1970321551E-01    0.3871612535E+00    0.1064638563E-02
    0.3700000000E+05    0.3635588042E-02    0.6948545369E+00    0.1961039271E-01    0.3954304934E+00    0.1067934473E-02
    0.3900000000E+05    0.3519039664E-02    0.6948602646E+00    0.1949838622E-01    0.4031965216E+00    0.1071065837E-02
    0.4100000000E+05    0.3405732563E-02    0.6948652858E+00    0.1937074438E-01    0.4105062769E+00    0.1074048724E-02
    0.4300000000E+05    0.3295937178E-02    0.6948697055E+00    0.1923041298E-01    0.4174008028E+00    0.1076896939E-02
    0.4500000000E+05    0.3189813292E-02    0.6948736096E+00    0.1907984645E-01    0.4239161708E+00    0.1079622433E-02
    0.4700000000E+05    0.3087438019E-02    0.6948770689E+00    0.1892109632E-01    0.4300842331E+00    0.1082235619E-02
    0.4900000000E+05    0.2988827027E-02    0.6948801421E+00    0.1875588204E-01    0.4359332392E+00    0.1084745629E-02
    0.1000000000E+05    0.4483071527E-02    0.6944688775E+00    0.1537319935E-01    0.2017717520E+00    0.9927865943E-03
    0.3000000000E+05    0.4061032616E-02    0.6948267278E+00    0.1982084961E-01    0.3639110908E+00    0.1055546363E-02
    0.5000000000E+05    0.2940925279E-02    0.6948815496E+00    0.1867131164E-01    0.4387460663E+00    0.1085964497E-02
    0.7000000000E+05    0.2160713159E-02    0.6948980217E+00    0.1688857458E-01    0.4831178151E+00    0.1106461392E-02
    0.9000000000E+05    0.1639823509E-02    0.6949032443E+00    0.1521411453E-01    0.5127768568E+00    0.1122017033E-02
    0.1100000000E+06    0.1282603005E-02    0.6949040443E+00    0.1376523760E-01    0.5340911873E+00    0.1134592210E-02
    0.1300000000E+06    0.1029093759E-02    0.6949028353E+00    0.1253328548E-01    0.5501824503E+00    0.1145166759E-02
    0.1500000000E+06    0.8434002244E-03    0.6949006455E+00    0.1148549614E-01    0.5627757473E+00    0.1154302518E-02
    0.1700000000E+06    0.7035871170E-03    0.6948979671E+00    0.1058896822E-01    0.5729069271E+00    0.1162352260E-02
    0.1900000000E+06    0.5958046664E-03    0.6948950548E+00    0.9815881282E-02    0.5812373944E+00    0.1169552316E-02
    0.2100000000E+06    0.5110140705E-03    0.6948920477E+00    0.9143852910E-02    0.5882100538E+00    0.1176068920E-02
    0.2300000000E+06    0.4431336262E-03    0.6948890241E+00    0.8555129521E-02    0.5941330096E+00    0.1182023523E-02
    0.2500000000E+06    0.3879579436E-03    0.6948860289E+00    0.8035639643E-02    0.5992273980E+00    0.1187507616E-02
    0.2700000000E+06    0.3425076191E-03    0.6948830877E+00    0.7574175482E-02    0.6036561407E+00    0.1192591865E-02
    0.2900000000E+06    0.3046258480E-03    0.6948802147E+00    0.7161744772E-02    0.6075419681E+00    0.1197332012E-02
    0.3100000000E+06    0.2727210777E-03    0.6948774175E+00    0.6791073381E-02    0.6109791213E+00    0.1201772814E-02
    0.3300000000E+06    0.2455985714E-03    0.6948746991E+00    0.6456227422E-02    0.6140411822E+00    0.1205950762E-02
    0.3500000000E+06    0.2223475776E-03    0.6948720602E+00    0.6152326313E-02    0.6167864502E+00    0.1209896006E-02
    0.3700000000E+06    0.2022641401E-03    0.6948694996E+00    0.5875323982E-02    0.6192617208E+00    0.1213633752E-02
    0.3900000000E+06    0.1847972755E-03    0.6948670153E+00    0.5621840977E-02    0.6215049933E+00    0.1217185285E-02
    0.4100000000E+06    0.1695107861E-03    0.6948646048E+00    0.5389034666E-02    0.6235474482E+00    0.1220568753E-02
    0.4300000000E+06    0.1560557349E-03    0.6948622651E+00    0.5174498080E-02    0.6254149121E+00    0.1223799749E-02
    0.4500000000E+06    0.1441503163E-03    0.6948599933E+00    0.4976180469E-02    0.6271289612E+00    0.1226891778E-02
    0.4700000000E+06    0.1335649384E-03    0.6948577864E+00    0.4792324401E-02    0.6287077620E+00    0.1229856610E-02
    0.4900000000E+06    0.1241110315E-03    0.6948556413E+00    0.4621415589E-02    0.6301667193E+00    0.1232704569E-02
    0.1000000000E+06    0.1445218847E-02    0.6949039966E+00    0.1446091305E-01    0.5242363635E+00    0.1128602306E-02
    0.3000000000E+06    0.2880087746E-03    0.6948788064E+00    0.6971587697E-02    0.6093116184E+00    0.1199587383E-02
    0.5000000000E+06    0.1197585361E-03    0.6948545911E+00    0.4540399588E-02    0.6308554426E+00    0.1234087610E-02
    0.7000000000E+06    0.6546723513E-04    0.6948362003E+00    0.3358454536E-02    0.6407049232E+00    0.1257350611E-02
    0.9000000000E+06    0.4130164105E-04    0.6948215045E+00    0.2661838986E-02    0.6463493560E+00    0.1275010778E-02
    0.1100000000E+07    0.2846194738E-04    0.6948092765E+00    0.2203120386E-02    0.6500075137E+00    0.1289289633E-02
    0.1300000000E+07    0.2082523805E-04    0.6947988023E+00    0.1878435257E-02    0.6525707093E+00    0.1301298084E-02
    0.1500000000E+07    0.1591272237E-04    0.6947896364E+00    0.1636636192E-02    0.6544664007E+00    0.1311673394E-02
    0.1700000000E+07    0.1256483450E-04    0.6947814834E+00    0.1449636634E-02    0.6559251947E+00    0.1320815809E-02
    0.1900000000E+07    0.1017986718E-04    0.6947741381E+00    0.1300739297E-02    0.6570824583E+00    0.1328993522E-02
    0.2100000000E+07    0.8420162031E-05    0.6947674518E+00    0.1179398218E-02    0.6580228814E+00    0.1336395202E-02
    0.2300000000E+07    0.7084251106E-05    0.6947613137E+00    0.1078626719E-02    0.6588021599E+00    0.1343158714E-02
    0.2500000000E+07    0.6045837932E-05    0.6947556389E+00    0.9936135937E-03    0.6594584237E+00    0.1349387919E-02
    0.2700000000E+07    0.5222462094E-05    0.6947503609E+00    0.9209380462E-03    0.6600186555E+00    0.1355163046E-02
    0.2900000000E+07    0.4558416418E-05    0.6947454264E+00    0.8581015711E-03    0.6605024861E+00    0.1360547383E-02
    0.3100000000E+07    0.4014959360E-05    0.6947407926E+00    0.8032369449E-03    0.6609245382E+00    0.1365591749E-02
    0.3300000000E+07    0.3564466350E-05    0.6947364239E+00    0.7549208184E-03    0.6612959280E+00    0.1370337580E-02
    0.3500000000E+07    0.3186806549E-05    0.6947322911E+00    0.7120493006E-03    0.6616252560E+00    0.1374819115E-02
    0.3700000000E+07    0.2867026959E-05    0.6947283693E+00    0.6737531522E-03    0.6619192810E+00    0.1379064973E-02
    0.3900000000E+07    0.2593831047E-05    0.6947246374E+00    0.6393386216E-03    0.6621833877E+00    0.1383099331E-02
    0.4100000000E+07    0.2358554818E-05    0.6947210775E+00    0.6082453153E-03    0.6624219189E+00    0.1386942795E-02
    0.4300000000E+07    0.2154462688E-05    0.6947176740E+00    0.5800156435E-03    0.6626384161E+00    0.1390613075E-02
    0.4500000000E+07    0.1976253843E-05    0.6947144135E+00    0.5542722949E-03    0.6628357957E+00    0.1394125509E-02
    0.4700000000E+07    0.1819710076E-05    0.6947112839E+00    0.5307013831E-03    0.6630164816E+00    0.1397493464E-02
    0.4900000000E+07    0.1681440577E-05    0.6947082751E+00    0.5090396656E-03    0.6631825045E+00    0.1400728666E-02
    0.1000000000E+07    0.3398266627E-04    0.6948151350E+00    0.2411042392E-02    0.6483549000E+00    0.1282487993E-02
    0.3000000000E+07    0.4273550891E-05    0.6947430743E+00    0.8297704440E-03    0.6607204711E+00    0.1363109281E-02
    0.5000000000E+07    0.1618278072E-05    0.6947068130E+00    0.4988538772E-03    0.6632605636E+00    0.1402299765E-02
    0.7000000000E+07    0.8579375069E-06    0.6946821415E+00    0.3559759385E-03    0.6643552194E+00    0.1428726210E-02
    0.9000000000E+07    0.5371373300E-06    0.6946633304E+00    0.2764410862E-03    0.6649647199E+00    0.1448788138E-02
    0.1100000000E+08    0.3715462076E-06    0.6946480808E+00    0.2258116469E-03    0.6653530172E+00    0.1465008969E-02
    0.1300000000E+08    0.2746958843E-06    0.6946352330E+00    0.1907722333E-03    0.6656220060E+00    0.1478650631E-02
    0.1500000000E+08    0.2130018528E-06    0.6946241177E+00    0.1650926791E-03    0.6658193377E+00    0.1490437036E-02
    0.1700000000E+08    0.1711817076E-06    0.6946143133E+00    0.1454701485E-03    0.6659702733E+00    0.1500822858E-02
    0.1900000000E+08    0.1414586190E-06    0.6946055361E+00    0.1299911562E-03    0.6660894506E+00    0.1510112765E-02
    0.2100000000E+08    0.1195304430E-06    0.6945975864E+00    0.1174708202E-03    0.6661859369E+00    0.1518521085E-02
    0.2300000000E+08    0.1028576028E-06    0.6945903178E+00    0.1071363579E-03    0.6662656483E+00    0.1526204433E-02
    0.2500000000E+08    0.8986097220E-07    0.6945836200E+00    0.9846233796E-04    0.6663326092E+00    0.1533280798E-02
    0.2700000000E+08    0.7951588945E-07    0.6945774077E+00    0.9107909379E-04    0.6663896521E+00    0.1539841321E-02
