  Pressure (Pa) 23mC5-500 (mol/kg) 24mC5-500 (mol/kg) 2mC6-500 (mol/kg) 3mC6-500 (mol/kg) C7-500 (mol/kg)
    0.1000000000E+01    0.2208984071E-05    0.6965176807E-01    0.2727548952E-04    0.6128639707E-05    0.4146614912E-02
    0.3000000000E+01    0.5276041863E-05    0.1740919206E+00    0.6306013329E-04    0.1514103999E-04    0.4176552080E-02
    0.5000000000E+01    0.7302220073E-05    0.2486663850E+00    0.8546136410E-04    0.2332901273E-04    0.4188165243E-02
    0.7000000000E+01    0.8719557794E-05    0.3045846237E+00    0.1005057019E-03    0.3113425733E-04    0.4195445953E-02
    0.9000000000E+01    0.9755573916E-05    0.3480699926E+00    0.1112285680E-03    0.3870243579E-04    0.4200535461E-02
    0.1100000000E+02    0.1054091128E-04    0.3828546964E+00    0.1193003688E-03    0.4610552843E-04    0.4204260283E-02
    0.1300000000E+02    0.1115525458E-04    0.4113129065E+00    0.1256957504E-03    0.5338599946E-04    0.4207051061E-02
    0.1500000000E+02    0.1164952736E-04    0.4350269583E+00    0.1310090690E-03    0.6057163981E-04    0.4209166012E-02
    0.1700000000E+02    0.1205751345E-04    0.4550920731E+00    0.1356155427E-03    0.6768193723E-04    0.4210773011E-02
    0.1900000000E+02    0.1240232517E-04    0.4722904148E+00    0.1397586826E-03    0.7473125063E-04    0.4211987213E-02
    0.2100000000E+02    0.1270018547E-04    0.4871954901E+00    0.1436000683E-03    0.8173056282E-04    0.4212890752E-02
    0.2300000000E+02    0.1296273192E-04    0.5002373807E+00    0.1472488297E-03    0.8868852394E-04    0.4213544002E-02
    0.2500000000E+02    0.1319846972E-04    0.5117449423E+00    0.1507797019E-03    0.9561210966E-04    0.4213992443E-02
    0.2700000000E+02    0.1341371555E-04    0.5219739330E+00    0.1542444006E-03    0.1025070560E-03    0.4214271032E-02
    0.2900000000E+02    0.1361322678E-04    0.5311262547E+00    0.1576789659E-03    0.1093781573E-03    0.4214407108E-02
    0.3100000000E+02    0.1380063045E-04    0.5393634211E+00    0.1611086055E-03    0.1162294774E-03    0.4214422371E-02
    0.3300000000E+02    0.1397872163E-04    0.5468161762E+00    0.1645509489E-03    0.1230645026E-03    0.4214334272E-02
    0.3500000000E+02    0.1414967466E-04    0.5535914891E+00    0.1680182685E-03    0.1298862554E-03    0.4214157006E-02
    0.3700000000E+02    0.1431519508E-04    0.5597777231E+00    0.1715190191E-03    0.1366973810E-03    0.4213902242E-02
    0.3900000000E+02    0.1447663051E-04    0.5654485130E+00    0.1750589168E-03    0.1435002136E-03    0.4213579658E-02
    0.4100000000E+02    0.1463505257E-04    0.5706657110E+00    0.1786417042E-03    0.1502968283E-03    0.4213197350E-02
    0.4300000000E+02    0.1479131817E-04    0.5754816529E+00    0.1822696989E-03    0.1570890825E-03    0.4212762140E-02
    0.4500000000E+02    0.1494611585E-04    0.5799409207E+00    0.1859441888E-03    0.1638786488E-03    0.4212279818E-02
    0.4700000000E+02    0.1510000110E-04    0.5840817274E+00    0.1896657196E-03    0.1706670418E-03    0.4211755331E-02
    0.4900000000E+02    0.1525342364E-04    0.5879370150E+00    0.1934343052E-03    0.1774556406E-03    0.4211192925E-02
    0.1000000000E+02    0.1017373431E-04    0.3663780956E+00    0.1155233751E-03    0.4242150924E-04    0.4202536007E-02
    0.3000000000E+02    0.1370825069E-04    0.5353504321E+00    0.1593931520E-03    0.1128060601E-03    0.4214428664E-02
    0.5000000000E+02    0.1533007830E-04    0.5897666622E+00    0.1953361415E-03    0.1808504153E-03    0.4210898669E-02
    0.7000000000E+02    0.1689800990E-04    0.6166340513E+00    0.2356600100E-03    0.2490151199E-03    0.4203694709E-02
    0.9000000000E+02    0.1858912655E-04    0.6326477981E+00    0.2796936428E-03    0.3181858978E-03    0.4194938816E-02
    0.1100000000E+03    0.2042015136E-04    0.6432797539E+00    0.3267248621E-03    0.3888602377E-03    0.4185293823E-02
    0.1300000000E+03    0.2238562670E-04    0.6508527073E+00    0.3763645475E-03    0.4613861806E-03    0.4175021054E-02
    0.1500000000E+03    0.2447894176E-04    0.6565208469E+00    0.4284286591E-03    0.5360430615E-03    0.4164235122E-02
    0.1700000000E+03    0.2669576231E-04    0.6609225720E+00    0.4828527818E-03    0.6130765218E-03    0.4152986628E-02
    0.1900000000E+03    0.2903420454E-04    0.6644396649E+00    0.5396450605E-03    0.6927163454E-03    0.4141294435E-02
    0.2100000000E+03    0.3149445039E-04    0.6673144587E+00    0.5988607575E-03    0.7751867267E-03    0.4129159941E-02
    0.2300000000E+03    0.3407835973E-04    0.6697081791E+00    0.6605882790E-03    0.8607128333E-03    0.4116573984E-02
    0.2500000000E+03    0.3678917688E-04    0.6717322577E+00    0.7249414086E-03    0.9495254211E-03    0.4103520390E-02
    0.2700000000E+03    0.3963132882E-04    0.6734661778E+00    0.7920550345E-03    0.1041864385E-02    0.4089977884E-02
    0.2900000000E+03    0.4261029539E-04    0.6749681582E+00    0.8620829353E-03    0.1137981723E-02    0.4075921116E-02
    0.3100000000E+03    0.4573253285E-04    0.6762818191E+00    0.9351968429E-03    0.1238144195E-02    0.4061321206E-02
    0.3300000000E+03    0.4900543750E-04    0.6774404877E+00    0.1011586343E-02    0.1342635852E-02    0.4046145996E-02
    0.3500000000E+03    0.5243733950E-04    0.6784700652E+00    0.1091459367E-02    0.1451760546E-02    0.4030360122E-02
    0.3700000000E+03    0.5603752095E-04    0.6793909862E+00    0.1175043126E-02    0.1565844517E-02    0.4013924961E-02
    0.3900000000E+03    0.5981625382E-04    0.6802195885E+00    0.1262585411E-02    0.1685239109E-02    0.3996798494E-02
    0.4100000000E+03    0.6378485536E-04    0.6809690906E+00    0.1354356218E-02    0.1810323681E-02    0.3978935095E-02
    0.4300000000E+03    0.6795575953E-04    0.6816503026E+00    0.1450649673E-02    0.1941508761E-02    0.3960285265E-02
    0.4500000000E+03    0.7234260374E-04    0.6822721505E+00    0.1551786256E-02    0.2079239491E-02    0.3940795319E-02
    0.4700000000E+03    0.7696033094E-04    0.6828420698E+00    0.1658115348E-02    0.2223999401E-02    0.3920407019E-02
    0.4900000000E+03    0.8182530743E-04    0.6833663038E+00    0.1770018093E-02    0.2376314584E-02    0.3899057154E-02
    0.1000000000E+03    0.1948737385E-04    0.6384513738E+00    0.3028650284E-03    0.3533111551E-03    0.4190206084E-02
    0.3000000000E+03    0.4415306482E-04    0.6756462435E+00    0.8982427109E-03    0.1187539998E-02    0.4068690988E-02
    0.5000000000E+03    0.8435605049E-04    0.6836129717E+00    0.1828188164E-02    0.2455482568E-02    0.3888000410E-02
    0.7000000000E+03    0.1535656017E-03    0.6870850486E+00    0.3413938854E-02    0.4613765549E-02    0.3595351840E-02
    0.9000000000E+03    0.2864051545E-03    0.6890291273E+00    0.6453959579E-02    0.8759561680E-02    0.3066685577E-02
    0.1100000000E+04    0.5574812454E-03    0.6902718837E+00    0.1267599113E-01    0.1728158694E-01    0.2073445699E-02
    0.1300000000E+04    0.9623918936E-03    0.6911347823E+00    0.2205008122E-01    0.3024022132E-01    0.8049340865E-03
    0.1500000000E+04    0.1240135412E-02    0.6917688651E+00    0.2862894069E-01    0.3954776530E-01    0.2329443120E-03
    0.1700000000E+04    0.1394327089E-02    0.6922544705E+00    0.3243180401E-01    0.4514099492E-01    0.1290159204E-03
    0.1900000000E+04    0.1514815820E-02    0.6926382693E+00    0.3549712558E-01    0.4978053005E-01    0.1152626062E-03
    0.2100000000E+04    0.1623728439E-02    0.6929492285E+00    0.3832898791E-01    0.5415250163E-01    0.1139823893E-03
    0.2300000000E+04    0.1724965275E-02    0.6932062783E+00    0.4101402547E-01    0.5837209711E-01    0.1143218389E-03
    0.2500000000E+04    0.1819513721E-02    0.6934223131E+00    0.4357191052E-01    0.6246249793E-01    0.1148392596E-03
    0.2700000000E+04    0.1907900958E-02    0.6936064188E+00    0.4601191249E-01    0.6643278310E-01    0.1153461626E-03
    0.2900000000E+04    0.1990556030E-02    0.6937651827E+00    0.4834128423E-01    0.7028953912E-01    0.1158215279E-03
    0.3100000000E+04    0.2067865431E-02    0.6939034967E+00    0.5056653600E-01    0.7403861011E-01    0.1162663746E-03
    0.3300000000E+04    0.2140183885E-02    0.6940250700E+00    0.5269366441E-01    0.7768539115E-01    0.1166840767E-03
    0.3500000000E+04    0.2207838287E-02    0.6941327660E+00    0.5472822287E-01    0.8123490176E-01    0.1170777778E-03
    0.3700000000E+04    0.2271130387E-02    0.6942288305E+00    0.5667536453E-01    0.8469182319E-01    0.1174501465E-03
    0.3900000000E+04    0.2330339066E-02    0.6943150496E+00    0.5853987774E-01    0.8806052757E-01    0.1178034332E-03
    0.4100000000E+04    0.2385722369E-02    0.6943928613E+00    0.6032621743E-01    0.9134510344E-01    0.1181395485E-03
    0.4300000000E+04    0.2437519319E-02    0.6944634371E+00    0.6203853328E-01    0.9454937876E-01    0.1184601277E-03
    0.4500000000E+04    0.2485951555E-02    0.6945277402E+00    0.6368069504E-01    0.9767694159E-01    0.1187665811E-03
    0.4700000000E+04    0.2531224810E-02    0.6945865703E+00    0.6525631551E-01    0.1007311589E+00    0.1190601340E-03
    0.4900000000E+04    0.2573530244E-02    0.6946405966E+00    0.6676877118E-01    0.1037151936E+00    0.1193418573E-03
    0.1000000000E+04    0.3989471430E-03    0.6897121058E+00    0.9033464178E-02    0.1228661247E-01    0.2641849011E-02
    0.3000000000E+04    0.2029856081E-02    0.6938366410E+00    0.4946653935E-01    0.7217718870E-01    0.1160475581E-03
    0.5000000000E+04    0.2593626078E-02    0.6946659883E+00    0.6750230743E-01    0.1051818288E+00    0.1194785818E-03
    0.7000000000E+04    0.2876841405E-02    0.6950213491E+00    0.7952494183E-01    0.1314659400E+00    0.1217709368E-03
    0.9000000000E+04    0.3004776158E-02    0.6952185359E+00    0.8782308629E-01    0.1532347247E+00    0.1235038078E-03
    0.1100000000E+05    0.3043010747E-02    0.6953438198E+00    0.9367833556E-01    0.1717886303E+00    0.1249014863E-03
    0.1300000000E+05    0.3028105012E-02    0.6954303998E+00    0.9786004103E-01    0.1879495142E+00    0.1260750830E-03
    0.1500000000E+05    0.2981423648E-02    0.6954937702E+00    0.1008556401E+00    0.2022655253E+00    0.1270879648E-03
    0.1700000000E+05    0.2915903868E-02    0.6955421329E+00    0.1029875302E+00    0.2151183828E+00    0.1279797727E-03
    0.1900000000E+05    0.2839590733E-02    0.6955802351E+00    0.1044765581E+00    0.2267834737E+00    0.1287769919E-03
    0.2100000000E+05    0.2757583234E-02    0.6956110144E+00    0.1054784726E+00    0.2374654174E+00    0.1294982132E-03
    0.2300000000E+05    0.2673152593E-02    0.6956363857E+00    0.1061058349E+00    0.2473200934E+00    0.1301569983E-03
    0.2500000000E+05    0.2588408274E-02    0.6956576509E+00    0.1064417073E+00    0.2564688171E+00    0.1307635494E-03
    0.2700000000E+05    0.2504706736E-02    0.6956757252E+00    0.1065484924E+00    0.2650077692E+00    0.1313257387E-03
    0.2900000000E+05    0.2422908773E-02    0.6956912714E+00    0.1064738052E+00    0.2730144462E+00    0.1318497701E-03
    0.3100000000E+05    0.2343545066E-02    0.6957047808E+00    0.1062544730E+00    0.2805521864E+00    0.1323406211E-03
    0.3300000000E+05    0.2266924666E-02    0.6957166252E+00    0.1059193199E+00    0.2876734149E+00    0.1328023475E-03
    0.3500000000E+05    0.2193207198E-02    0.6957270916E+00    0.1054911433E+00    0.2944220155E+00    0.1332382985E-03
    0.3700000000E+05    0.2122451545E-02    0.6957364047E+00    0.1049881415E+00    0.3008350955E+00    0.1336512724E-03
    0.3900000000E+05    0.2054649026E-02    0.6957447427E+00    0.1044249608E+00    0.3069443199E+00    0.1340436317E-03
    0.4100000000E+05    0.1989746207E-02    0.6957522494E+00    0.1038134747E+00    0.3127769330E+00    0.1344173893E-03
    0.4300000000E+05    0.1927660672E-02    0.6957590414E+00    0.1031633708E+00    0.3183565524E+00    0.1347742747E-03
    0.4500000000E+05    0.1868291976E-02    0.6957652147E+00    0.1024825980E+00    0.3237037922E+00    0.1351157850E-03
    0.4700000000E+05    0.1811529255E-02    0.6957708489E+00    0.1017777113E+00    0.3288367581E+00    0.1354432248E-03
    0.4900000000E+05    0.1757256514E-02    0.6957760105E+00    0.1010541398E+00    0.3337714445E+00    0.1357577381E-03
    0.1000000000E+05    0.3032351535E-02    0.6952874685E+00    0.9099945778E-01    0.1628540164E+00    0.1242360401E-03
    0.3000000000E+05    0.2382899113E-02    0.6956982551E+00    0.1063802570E+00    0.2768384324E+00    0.1320990709E-03
    0.5000000000E+05    0.1731017158E-02    0.6957784320E+00    0.1006867888E+00    0.3361689340E+00    0.1359104672E-03
    0.7000000000E+05    0.1309895778E-02    0.6958119353E+00    0.9312384318E-01    0.3764545521E+00    0.1384788737E-03
    0.9000000000E+05    0.1028293285E-02    0.6958300638E+00    0.8600210470E-01    0.4066609921E+00    0.1404281833E-03
    0.1100000000E+06    0.8307683116E-03    0.6958412876E+00    0.7967695970E-01    0.4305431584E+00    0.1420040538E-03
    0.1300000000E+06    0.6865321302E-03    0.6958488388E+00    0.7412780599E-01    0.4500724445E+00    0.1433292478E-03
    0.1500000000E+06    0.5777326533E-03    0.6958542142E+00    0.6925791819E-01    0.4664257698E+00    0.1444741587E-03
    0.1700000000E+06    0.4934690097E-03    0.6958581995E+00    0.6496556869E-01    0.4803663211E+00    0.1454829870E-03
    0.1900000000E+06    0.4267711204E-03    0.6958612462E+00    0.6116110938E-01    0.4924183647E+00    0.1463853446E-03
    0.2100000000E+06    0.3730044655E-03    0.6958636313E+00    0.5776951722E-01    0.5029577009E+00    0.1472020598E-03
    0.2300000000E+06    0.3289838357E-03    0.6958655341E+00    0.5472901512E-01    0.5122626901E+00    0.1479483508E-03
    0.2500000000E+06    0.2924576075E-03    0.6958670754E+00    0.5198887948E-01    0.5205449791E+00    0.1486356815E-03
    0.2700000000E+06    0.2617951628E-03    0.6958683395E+00    0.4950734913E-01    0.5279689692E+00    0.1492729066E-03
    0.2900000000E+06    0.2357906011E-03    0.6958693869E+00    0.4724986394E-01    0.5346646675E+00    0.1498670108E-03
    0.3100000000E+06    0.2135356106E-03    0.6958702621E+00    0.4518764631E-01    0.5407364594E+00    0.1504236024E-03
    0.3300000000E+06    0.1943348718E-03    0.6958709985E+00    0.4329657796E-01    0.5462692661E+00    0.1509472540E-03
    0.3500000000E+06    0.1776484038E-03    0.6958716217E+00    0.4155631474E-01    0.5513329724E+00    0.1514417438E-03
    0.3700000000E+06    0.1630514299E-03    0.6958721515E+00    0.3994958850E-01    0.5559856750E+00    0.1519102300E-03
    0.3900000000E+06    0.1502059057E-03    0.6958726035E+00    0.3846165427E-01    0.5602761092E+00    0.1523553802E-03
    0.4100000000E+06    0.1388399741E-03    0.6958729902E+00    0.3707985010E-01    0.5642454908E+00    0.1527794681E-03
    0.4300000000E+06    0.1287329105E-03    0.6958733217E+00    0.3579324466E-01    0.5679289323E+00    0.1531844482E-03
    0.4500000000E+06    0.1197039367E-03    0.6958736060E+00    0.3459235307E-01    0.5713565472E+00    0.1535720126E-03
    0.4700000000E+06    0.1116038020E-03    0.6958738499E+00    0.3346890654E-01    0.5745543193E+00    0.1539436362E-03
    0.4900000000E+06    0.1043083742E-03    0.6958740590E+00    0.3241566427E-01    0.5775447947E+00    0.1543006129E-03
    0.1000000000E+06    0.9213497762E-03    0.6958362756E+00    0.8273787996E-01    0.4192438895E+00    0.1412534177E-03
    0.3000000000E+06    0.2242420796E-03    0.6958698437E+00    0.4619595187E-01    0.5377728467E+00    0.1501496889E-03
    0.5000000000E+06    0.1009292646E-03    0.6958741520E+00    0.3191334951E-01    0.5789685410E+00    0.1544739705E-03
    0.7000000000E+06    0.5750910481E-04    0.6958749880E+00    0.2435046175E-01    0.6002275451E+00    0.1573899589E-03
    0.9000000000E+06    0.3721515414E-04    0.6958748861E+00    0.1967211710E-01    0.6132315857E+00    0.1596037402E-03
    0.1100000000E+07    0.2608986634E-04    0.6958744567E+00    0.1649395233E-01    0.6220112206E+00    0.1613937228E-03
    0.1300000000E+07    0.1932709980E-04    0.6958739045E+00    0.1419494559E-01    0.6283376903E+00    0.1628991341E-03
    0.1500000000E+07    0.1490637251E-04    0.6958733107E+00    0.1245512425E-01    0.6331128944E+00    0.1641998431E-03
    0.1700000000E+07    0.1185628255E-04    0.6958727110E+00    0.1109290208E-01    0.6368447764E+00    0.1653460142E-03
    0.1900000000E+07    0.9662150298E-05    0.6958721218E+00    0.9997585694E-02    0.6398413332E+00    0.1663712620E-03
    0.2100000000E+07    0.8030374515E-05    0.6958715504E+00    0.9097865774E-02    0.6423002054E+00    0.1672992340E-03
    0.2300000000E+07    0.6783432842E-05    0.6958709998E+00    0.8345738495E-02    0.6443540456E+00    0.1681472102E-03
    0.2500000000E+07    0.5808812357E-05    0.6958704711E+00    0.7707707610E-02    0.6460952007E+00    0.1689282090E-03
    0.2700000000E+07    0.5032371752E-05    0.6958699639E+00    0.7159691299E-02    0.6475899386E+00    0.1696522865E-03
    0.2900000000E+07    0.4403628809E-05    0.6958694774E+00    0.6683933347E-02    0.6488870458E+00    0.1703273758E-03
    0.3100000000E+07    0.3887236885E-05    0.6958690106E+00    0.6267055201E-02    0.6500232342E+00    0.1709598469E-03
    0.3300000000E+07    0.3457842775E-05    0.6958685625E+00    0.5898785891E-02    0.6510266583E+00    0.1715548937E-03
    0.3500000000E+07    0.3096874599E-05    0.6958681317E+00    0.5571109733E-02    0.6519192704E+00    0.1721168079E-03
    0.3700000000E+07    0.2790473657E-05    0.6958677172E+00    0.5277679869E-02    0.6527184390E+00    0.1726491773E-03
    0.3900000000E+07    0.2528127000E-05    0.6958673180E+00    0.5013405693E-02    0.6534380855E+00    0.1731550323E-03
    0.4100000000E+07    0.2301741789E-05    0.6958669331E+00    0.4774156870E-02    0.6540894986E+00    0.1736369558E-03
    0.4300000000E+07    0.2105005469E-05    0.6958665614E+00    0.4556547235E-02    0.6546819283E+00    0.1740971682E-03
    0.4500000000E+07    0.1932935087E-05    0.6958662023E+00    0.4357774522E-02    0.6552230261E+00    0.1745375919E-03
    0.4700000000E+07    0.1781554434E-05    0.6958658549E+00    0.4175499783E-02    0.6557191761E+00    0.1749599027E-03
    0.4900000000E+07    0.1647659153E-05    0.6958655185E+00    0.4007755492E-02    0.6561757463E+00    0.1753655705E-03
    0.1000000000E+07    0.3090772196E-04    0.6958746951E+00    0.1794444725E-01    0.6180093426E+00    0.1605410690E-03
    0.3000000000E+07    0.4133163104E-05    0.6958692416E+00    0.6468837493E-02    0.6494733266E+00    0.1706485901E-03
    0.5000000000E+07    0.1586434614E-05    0.6958653542E+00    0.3928801197E-02    0.6563906377E+00    0.1755625744E-03
    0.7000000000E+07    0.8460915553E-06    0.6958625117E+00    0.2816035395E-02    0.6594189684E+00    0.1788763553E-03
    0.9000000000E+07    0.5315170935E-06    0.6958602719E+00    0.2192304968E-02    0.6611165500E+00    0.1813921796E-03
    0.1100000000E+08    0.3684664667E-06    0.6958584207E+00    0.1793639228E-02    0.6622018833E+00    0.1834264017E-03
    0.1300000000E+08    0.2728409764E-06    0.6958568407E+00    0.1516990175E-02    0.6629552904E+00    0.1851372327E-03
    0.1500000000E+08    0.2118084232E-06    0.6958554609E+00    0.1313853391E-02    0.6635086932E+00    0.1866154337E-03
    0.1700000000E+08    0.1703761518E-06    0.6958542349E+00    0.1158408857E-02    0.6639323156E+00    0.1879180120E-03
    0.1900000000E+08    0.1408951455E-06    0.6958531309E+00    0.1035652605E-02    0.6642669676E+00    0.1890831674E-03
    0.2100000000E+08    0.1191256324E-06    0.6958521262E+00    0.9362722431E-03    0.6645379814E+00    0.1901377736E-03
    0.2300000000E+08    0.1025609512E-06    0.6958512038E+00    0.8541830691E-03    0.6647619113E+00    0.1911014683E-03
    0.2500000000E+08    0.8964046861E-07    0.6958503508E+00    0.7852418032E-03    0.6649500316E+00    0.1919890459E-03
    0.2700000000E+08    0.7935045791E-07    0.6958495572E+00    0.7265298497E-03    0.6651102853E+00    0.1928119349E-03
