  Pressure (Pa) 23mC5-500 (mol/kg) 24mC5-500 (mol/kg) 2mC6-500 (mol/kg) 3mC6-500 (mol/kg) C7-500 (mol/kg)
    0.1000000000E+01    0.1512101322E-05    0.2487116385E+00    0.9108583787E-05    0.2040943013E-05    0.4145380611E-02
    0.3000000000E+01    0.2436089470E-05    0.4351410126E+00    0.1425534031E-04    0.5034083928E-05    0.4168195303E-02
    0.5000000000E+01    0.2786082939E-05    0.5118817021E+00    0.1666794235E-04    0.7744755470E-05    0.4173366826E-02
    0.7000000000E+01    0.3007943654E-05    0.5537347868E+00    0.1873257664E-04    0.1032095576E-04    0.4175529736E-02
    0.9000000000E+01    0.3192084225E-05    0.5800848978E+00    0.2079067726E-04    0.1281163304E-04    0.4176593730E-02
    0.1100000000E+02    0.3364645541E-05    0.5981998333E+00    0.2289741034E-04    0.1524103215E-04    0.4177130038E-02
    0.1300000000E+02    0.3534575883E-05    0.6114184697E+00    0.2505352077E-04    0.1762348435E-04    0.4177372148E-02
    0.1500000000E+02    0.3705157861E-05    0.6214896128E+00    0.2724971737E-04    0.1996838412E-04    0.4177433790E-02
    0.1700000000E+02    0.3877562153E-05    0.6294178440E+00    0.2947644707E-04    0.2228232763E-04    0.4177377093E-02
    0.1900000000E+02    0.4052116030E-05    0.6358213439E+00    0.3172586916E-04    0.2457017969E-04    0.4177238879E-02
    0.2100000000E+02    0.4228802657E-05    0.6411013764E+00    0.3399194467E-04    0.2683566350E-04    0.4177042347E-02
    0.2300000000E+02    0.4407470558E-05    0.6455297593E+00    0.3627011802E-04    0.2908171220E-04    0.4176802826E-02
    0.2500000000E+02    0.4587924639E-05    0.6492971674E+00    0.3855697164E-04    0.3131069080E-04    0.4176530843E-02
    0.2700000000E+02    0.4769965922E-05    0.6525413084E+00    0.4084994090E-04    0.3352454307E-04    0.4176233853E-02
    0.2900000000E+02    0.4953408176E-05    0.6553641204E+00    0.4314709682E-04    0.3572489221E-04    0.4175917277E-02
    0.3100000000E+02    0.5138083957E-05    0.6578426779E+00    0.4544698497E-04    0.3791311230E-04    0.4175585145E-02
    0.3300000000E+02    0.5323845775E-05    0.6600363366E+00    0.4774850693E-04    0.4009038015E-04    0.4175240512E-02
    0.3500000000E+02    0.5510565133E-05    0.6619915486E+00    0.5005083316E-04    0.4225771393E-04    0.4174885729E-02
    0.3700000000E+02    0.5698130708E-05    0.6637451877E+00    0.5235333847E-04    0.4441600240E-04    0.4174522632E-02
    0.3900000000E+02    0.5886446311E-05    0.6653268976E+00    0.5465555402E-04    0.4656602753E-04    0.4174152675E-02
    0.4100000000E+02    0.6075428902E-05    0.6667607810E+00    0.5695713136E-04    0.4870848216E-04    0.4173777021E-02
    0.4300000000E+02    0.6265006772E-05    0.6680666364E+00    0.5925781515E-04    0.5084398405E-04    0.4173396608E-02
    0.4500000000E+02    0.6455117946E-05    0.6692608779E+00    0.6155742252E-04    0.5297308718E-04    0.4173012201E-02
    0.4700000000E+02    0.6645708796E-05    0.6703572289E+00    0.6385582710E-04    0.5509629086E-04    0.4172624430E-02
    0.4900000000E+02    0.6836732849E-05    0.6713672512E+00    0.6615294683E-04    0.5721404727E-04    0.4172233812E-02
    0.1000000000E+02    0.3279049400E-05    0.5899100222E+00    0.2183745717E-04    0.1403294382E-04    0.4176909114E-02
    0.3000000000E+02    0.5045601557E-05    0.6566423712E+00    0.4429677521E-04    0.3682044072E-04    0.4175752945E-02
    0.5000000000E+02    0.6932394510E-05    0.6718430140E+00    0.6730100894E-04    0.5827101273E-04    0.4172037575E-02
    0.7000000000E+02    0.8861027935E-05    0.6785752098E+00    0.9019486666E-04    0.7920742738E-04    0.4168037656E-02
    0.9000000000E+02    0.1080913853E-04    0.6823739357E+00    0.1129969649E-03    0.9990892623E-04    0.4163983463E-02
    0.1100000000E+03    0.1277121556E-04    0.6848135157E+00    0.1357721876E-03    0.1205165539E-03    0.4159922265E-02
    0.1300000000E+03    0.1474645206E-04    0.6865126855E+00    0.1585775973E-03    0.1411155864E-03    0.4155863868E-02
    0.1500000000E+03    0.1673553877E-04    0.6877640996E+00    0.1814589471E-03    0.1617635240E-03    0.4151807903E-02
    0.1700000000E+03    0.1873965315E-04    0.6887241354E+00    0.2044529826E-03    0.1825021774E-03    0.4147750990E-02
    0.1900000000E+03    0.2076010413E-04    0.6894839446E+00    0.2275898314E-03    0.2033637159E-03    0.4143688986E-02
    0.2100000000E+03    0.2279820178E-04    0.6901002493E+00    0.2508948004E-03    0.2243740147E-03    0.4139617736E-02
    0.2300000000E+03    0.2485521169E-04    0.6906101955E+00    0.2743896549E-03    0.2455546525E-03    0.4135533320E-02
    0.2500000000E+03    0.2693234272E-04    0.6910391271E+00    0.2980935249E-03    0.2669241745E-03    0.4131432116E-02
    0.2700000000E+03    0.2903074803E-04    0.6914049286E+00    0.3220235558E-03    0.2884989272E-03    0.4127310795E-02
    0.2900000000E+03    0.3115153119E-04    0.6917205810E+00    0.3461953832E-03    0.3102936333E-03    0.4123166289E-02
    0.3100000000E+03    0.3329575374E-04    0.6919957349E+00    0.3706234862E-03    0.3323217993E-03    0.4118995759E-02
    0.3300000000E+03    0.3546444280E-04    0.6922377138E+00    0.3953214548E-03    0.3545960128E-03    0.4114796559E-02
    0.3500000000E+03    0.3765859809E-04    0.6924521761E+00    0.4203021954E-03    0.3771281650E-03    0.4110566205E-02
    0.3700000000E+03    0.3987919824E-04    0.6926435624E+00    0.4455780917E-03    0.3999296202E-03    0.4106302349E-02
    0.3900000000E+03    0.4212720638E-04    0.6928154067E+00    0.4711611336E-03    0.4230113484E-03    0.4102002755E-02
    0.4100000000E+03    0.4440357502E-04    0.6929705563E+00    0.4970630194E-03    0.4463840297E-03    0.4097665278E-02
    0.4300000000E+03    0.4670925034E-04    0.6931113313E+00    0.5232952413E-03    0.4700581387E-03    0.4093287850E-02
    0.4500000000E+03    0.4904517595E-04    0.6932396406E+00    0.5498691553E-03    0.4940440144E-03    0.4088868465E-02
    0.4700000000E+03    0.5141229631E-04    0.6933570696E+00    0.5767960403E-03    0.5183519172E-03    0.4084405162E-02
    0.4900000000E+03    0.5381155967E-04    0.6934649458E+00    0.6040871488E-03    0.5429920778E-03    0.4079896022E-02
    0.1000000000E+03    0.1178853690E-04    0.6837135517E+00    0.1243840874E-03    0.1102182836E-03    0.4161952738E-02
    0.3000000000E+03    0.3222064763E-04    0.6918627170E+00    0.3583765327E-03    0.3212777285E-03    0.4121084446E-02
    0.5000000000E+03    0.5502354303E-04    0.6935156585E+00    0.6178728068E-03    0.5554399540E-03    0.4077623670E-02
    0.7000000000E+03    0.8119214502E-04    0.6942263586E+00    0.9155327213E-03    0.8244083105E-03    0.4029312124E-02
    0.9000000000E+03    0.1117886450E-03    0.6946217494E+00    0.1263710825E-02    0.1139417723E-02    0.3974224249E-02
    0.1100000000E+04    0.1481535317E-03    0.6948735486E+00    0.1677819517E-02    0.1514503569E-02    0.3910154401E-02
    0.1300000000E+04    0.1920870912E-03    0.6950479443E+00    0.2178519167E-02    0.1968509611E-02    0.3834275083E-02
    0.1500000000E+04    0.2460888199E-03    0.6951758649E+00    0.2794499245E-02    0.2527636703E-02    0.3742772893E-02
    0.1700000000E+04    0.3137124045E-03    0.6952736986E+00    0.3566582211E-02    0.3229212820E-02    0.3630353746E-02
    0.1900000000E+04    0.4001020529E-03    0.6953509395E+00    0.4553930731E-02    0.4127411072E-02    0.3489538649E-02
    0.2100000000E+04    0.5127757611E-03    0.6954134676E+00    0.5843144668E-02    0.5301663528E-02    0.3309711714E-02
    0.2300000000E+04    0.6626282358E-03    0.6954651190E+00    0.7560001293E-02    0.6867608260E-02    0.3076090653E-02
    0.2500000000E+04    0.8646686025E-03    0.6955085030E+00    0.9878400149E-02    0.8985720731E-02    0.2769582169E-02
    0.2700000000E+04    0.1136486990E-02    0.6955454562E+00    0.1300365508E-01    0.1184690116E-01    0.2370779397E-02
    0.2900000000E+04    0.1489268045E-02    0.6955773088E+00    0.1707051638E-01    0.1558040704E-01    0.1875331617E-02
    0.3100000000E+04    0.1906562071E-02    0.6956050478E+00    0.2189934954E-01    0.2003090334E-01    0.1324253942E-02
    0.3300000000E+04    0.2328770621E-02    0.6956294211E+00    0.2681340512E-01    0.2458704072E-01    0.8164600213E-03
    0.3500000000E+04    0.2686462301E-02    0.6956510056E+00    0.3101451702E-01    0.2851836987E-01    0.4465182599E-03
    0.3700000000E+04    0.2955425161E-02    0.6956702536E+00    0.3421655872E-01    0.3155567607E-01    0.2290800944E-03
    0.3900000000E+04    0.3154691357E-02    0.6956875245E+00    0.3663047128E-01    0.3388463401E-01    0.1188593173E-03
    0.4100000000E+04    0.3311774623E-02    0.6957031078E+00    0.3856830378E-01    0.3578688143E-01    0.6739039765E-04
    0.4300000000E+04    0.3445787229E-02    0.6957172390E+00    0.4024813446E-01    0.3746052290E-01    0.4428528199E-04
    0.4500000000E+04    0.3567136785E-02    0.6957301118E+00    0.4178906415E-01    0.3901410158E-01    0.3409449012E-04
    0.4700000000E+04    0.3680962360E-02    0.6957418867E+00    0.4324994196E-01    0.4050130732E-01    0.2963996490E-04
    0.4900000000E+04    0.3789718813E-02    0.6957526984E+00    0.4465880418E-01    0.4194766556E-01    0.2771031758E-04
    0.1000000000E+04    0.1291506821E-03    0.6947602223E+00    0.1461383411E-02    0.1318411536E-02    0.3943470379E-02
    0.3000000000E+04    0.1692637082E-02    0.6955916410E+00    0.1942107215E-01    0.1774414060E-01    0.1601619736E-02
    0.5000000000E+04    0.3842592099E-02    0.6957577792E+00    0.4534821835E-01    0.4265958668E-01    0.2721186198E-04
    0.7000000000E+04    0.4751729621E-02    0.6958288418E+00    0.5770327263E-01    0.5589454814E-01    0.2665173449E-04
    0.9000000000E+04    0.5441679721E-02    0.6958682352E+00    0.6791253679E-01    0.6762843912E-01    0.2702692421E-04
    0.1100000000E+05    0.5968180937E-02    0.6958932466E+00    0.7645986528E-01    0.7816395732E-01    0.2733049763E-04
    0.1300000000E+05    0.6370243395E-02    0.6959105215E+00    0.8368970373E-01    0.8771867598E-01    0.2758574547E-04
    0.1500000000E+05    0.6676242850E-02    0.6959231595E+00    0.8985870940E-01    0.9645816545E-01    0.2780624730E-04
    0.1700000000E+05    0.6907206734E-02    0.6959328003E+00    0.9516189546E-01    0.1045108727E+00    0.2800052686E-04
    0.1900000000E+05    0.7078970714E-02    0.6959403928E+00    0.9974998581E-01    0.1119781364E+00    0.2817429304E-04
    0.2100000000E+05    0.7203630426E-02    0.6959465237E+00    0.1037412389E+00    0.1189411046E+00    0.2833156058E-04
    0.2300000000E+05    0.7290540690E-02    0.6959515756E+00    0.1072296887E+00    0.1254656211E+00    0.2847526236E-04
    0.2500000000E+05    0.7347016946E-02    0.6959558084E+00    0.1102910055E+00    0.1316057470E+00    0.2860760745E-04
    0.2700000000E+05    0.7378836379E-02    0.6959594049E+00    0.1129867397E+00    0.1374063433E+00    0.2873030198E-04
    0.2900000000E+05    0.7390601625E-02    0.6959624973E+00    0.1153674448E+00    0.1429049965E+00    0.2884469161E-04
    0.3100000000E+05    0.7386008522E-02    0.6959651837E+00    0.1174750104E+00    0.1481334749E+00    0.2895185678E-04
    0.3300000000E+05    0.7368045787E-02    0.6959675382E+00    0.1193444266E+00    0.1531188440E+00    0.2905267835E-04
    0.3500000000E+05    0.7339145667E-02    0.6959696181E+00    0.1210051371E+00    0.1578843323E+00    0.2914788408E-04
    0.3700000000E+05    0.7301298853E-02    0.6959714683E+00    0.1224820858E+00    0.1624500090E+00    0.2923808231E-04
    0.3900000000E+05    0.7256142976E-02    0.6959731242E+00    0.1237965371E+00    0.1668333224E+00    0.2932378684E-04
    0.4100000000E+05    0.7205031396E-02    0.6959746146E+00    0.1249667235E+00    0.1710495287E+00    0.2940543561E-04
    0.4300000000E+05    0.7149087113E-02    0.6959759626E+00    0.1260083611E+00    0.1751120392E+00    0.2948340501E-04
    0.4500000000E+05    0.7089245346E-02    0.6959771875E+00    0.1269350650E+00    0.1790327013E+00    0.2955802093E-04
    0.4700000000E+05    0.7026287407E-02    0.6959783051E+00    0.1277586845E+00    0.1828220299E+00    0.2962956745E-04
    0.4900000000E+05    0.6960867825E-02    0.6959793286E+00    0.1284895768E+00    0.1864893970E+00    0.2969829372E-04
    0.1000000000E+05    0.5722625189E-02    0.6958819986E+00    0.7236997088E-01    0.7303095911E-01    0.2718590247E-04
    0.3000000000E+05    0.7390148467E-02    0.6959638861E+00    0.1164530390E+00    0.1455512169E+00    0.2889911814E-04
    0.5000000000E+05    0.6927410260E-02    0.6959798086E+00    0.1288231349E+00    0.1882800008E+00    0.2973166895E-04
    0.7000000000E+05    0.6223373857E-02    0.6959864408E+00    0.1323346099E+00    0.2193277546E+00    0.3029305227E-04
    0.9000000000E+05    0.5560399893E-02    0.6959900179E+00    0.1324115247E+00    0.2440436155E+00    0.3071923825E-04
    0.1100000000E+06    0.4983724353E-02    0.6959922252E+00    0.1309416055E+00    0.2647209924E+00    0.3106383301E-04
    0.1300000000E+06    0.4490752687E-02    0.6959937049E+00    0.1287282351E+00    0.2825610210E+00    0.3135364246E-04
    0.1500000000E+06    0.4069517140E-02    0.6959947544E+00    0.1261578985E+00    0.2982772104E+00    0.3160404345E-04
    0.1700000000E+06    0.3707765337E-02    0.6959955293E+00    0.1234318517E+00    0.3123316784E+00    0.3182469377E-04
    0.1900000000E+06    0.3395002111E-02    0.6959961192E+00    0.1206603827E+00    0.3250431212E+00    0.3202206484E-04
    0.2100000000E+06    0.3122686713E-02    0.6959965789E+00    0.1179057402E+00    0.3366420147E+00    0.3220070920E-04
    0.2300000000E+06    0.2883971992E-02    0.6959969438E+00    0.1152033992E+00    0.3473013218E+00    0.3236395351E-04
    0.2500000000E+06    0.2673376063E-02    0.6959972379E+00    0.1125732994E+00    0.3571547415E+00    0.3251430397E-04
    0.2700000000E+06    0.2486491236E-02    0.6959974776E+00    0.1100260970E+00    0.3663081423E+00    0.3265369655E-04
    0.2900000000E+06    0.2319749785E-02    0.6959976750E+00    0.1075667875E+00    0.3748470457E+00    0.3278365843E-04
    0.3100000000E+06    0.2170241904E-02    0.6959978388E+00    0.1051968742E+00    0.3828417046E+00    0.3290541590E-04
    0.3300000000E+06    0.2035575857E-02    0.6959979756E+00    0.1029157023E+00    0.3903506581E+00    0.3301996886E-04
    0.3500000000E+06    0.1913770694E-02    0.6959980904E+00    0.1007212961E+00    0.3974232857E+00    0.3312814351E-04
    0.3700000000E+06    0.1803173659E-02    0.6959981871E+00    0.9861089257E-01    0.4041016854E+00    0.3323063052E-04
    0.3900000000E+06    0.1702396243E-02    0.6959982688E+00    0.9658128603E-01    0.4104220834E+00    0.3332801325E-04
    0.4100000000E+06    0.1610264314E-02    0.6959983378E+00    0.9462905142E-01    0.4164159090E+00    0.3342078900E-04
    0.4300000000E+06    0.1525778940E-02    0.6959983962E+00    0.9275068952E-01    0.4221106291E+00    0.3350938516E-04
    0.4500000000E+06    0.1448085374E-02    0.6959984455E+00    0.9094272058E-01    0.4275304048E+00    0.3359417181E-04
    0.4700000000E+06    0.1376448322E-02    0.6959984871E+00    0.8920174391E-01    0.4326966128E+00    0.3367547158E-04
    0.4900000000E+06    0.1310232074E-02    0.6959985221E+00    0.8752447460E-01    0.4376282670E+00    0.3375356742E-04
    0.1000000000E+06    0.5261012930E-02    0.6959912405E+00    0.1318055412E+00    0.2547963447E+00    0.3089968647E-04
    0.3000000000E+06    0.2243001879E-02    0.6959977607E+00    0.1063706583E+00    0.3789085063E+00    0.3284549562E-04
    0.5000000000E+06    0.1278981301E-02    0.6959985373E+00    0.8670874086E-01    0.4400115178E+00    0.3379149303E-04
    0.7000000000E+06    0.8365276523E-03    0.6959986494E+00    0.7305643738E-01    0.4786802574E+00    0.3442943728E-04
    0.9000000000E+06    0.5931554292E-03    0.6959985880E+00    0.6310167217E-01    0.5057710659E+00    0.3491376763E-04
    0.1100000000E+07    0.4438778646E-03    0.6959984695E+00    0.5552911529E-01    0.5259280867E+00    0.3530538489E-04
    0.1300000000E+07    0.3453106133E-03    0.6959983318E+00    0.4957552178E-01    0.5415557628E+00    0.3563474603E-04
    0.1500000000E+07    0.2766437355E-03    0.6959981898E+00    0.4477158282E-01    0.5540453327E+00    0.3591932340E-04
    0.1700000000E+07    0.2268092708E-03    0.6959980496E+00    0.4081341192E-01    0.5642645511E+00    0.3617009139E-04
    0.1900000000E+07    0.1894532024E-03    0.6959979137E+00    0.3749562801E-01    0.5727853017E+00    0.3639440385E-04
    0.2100000000E+07    0.1607055993E-03    0.6959977831E+00    0.3467442518E-01    0.5800008642E+00    0.3659743424E-04
    0.2300000000E+07    0.1380954041E-03    0.6959976582E+00    0.3224609084E-01    0.5861910767E+00    0.3678296301E-04
    0.2500000000E+07    0.1199824591E-03    0.6959975389E+00    0.3013393284E-01    0.5915607244E+00    0.3695383825E-04
    0.2700000000E+07    0.1052422829E-03    0.6959974250E+00    0.2828001126E-01    0.5962632435E+00    0.3711226007E-04
    0.2900000000E+07    0.9308243736E-04    0.6959973161E+00    0.2663973311E-01    0.6004159321E+00    0.3725996400E-04
    0.3100000000E+07    0.8293109829E-04    0.6959972118E+00    0.2517821605E-01    0.6041100354E+00    0.3739834371E-04
    0.3300000000E+07    0.7436704391E-04    0.6959971120E+00    0.2386778025E-01    0.6074176205E+00    0.3752853552E-04
    0.3500000000E+07    0.6707431858E-04    0.6959970163E+00    0.2268617987E-01    0.6103963759E+00    0.3765147838E-04
    0.3700000000E+07    0.6081209127E-04    0.6959969244E+00    0.2161533155E-01    0.6130930357E+00    0.3776795722E-04
    0.3900000000E+07    0.5539414429E-04    0.6959968359E+00    0.2064038409E-01    0.6155458666E+00    0.3787863503E-04
    0.4100000000E+07    0.5067462349E-04    0.6959967508E+00    0.1974902710E-01    0.6177865058E+00    0.3798407696E-04
    0.4300000000E+07    0.4653795331E-04    0.6959966687E+00    0.1893096988E-01    0.6198413393E+00    0.3808476876E-04
    0.4500000000E+07    0.4289157899E-04    0.6959965895E+00    0.1817754350E-01    0.6217325490E+00    0.3818113101E-04
    0.4700000000E+07    0.3966066394E-04    0.6959965129E+00    0.1748139345E-01    0.6234789192E+00    0.3827353037E-04
    0.4900000000E+07    0.3678416166E-04    0.6959964388E+00    0.1683623963E-01    0.6250964637E+00    0.3836228842E-04
    0.1000000000E+07    0.5102432772E-03    0.6959985326E+00    0.5907436428E-01    0.5165335027E+00    0.3511883843E-04
    0.3000000000E+07    0.8778493743E-04    0.6959972634E+00    0.2588850462E-01    0.6023154175E+00    0.3733024313E-04
    0.5000000000E+07    0.3546276835E-04    0.6959964027E+00    0.1653107016E-01    0.6258612965E+00    0.3840539192E-04
    0.7000000000E+07    0.1914501162E-04    0.6959957793E+00    0.1212425318E-01    0.6368860460E+00    0.3913043420E-04
    0.9000000000E+07    0.1199114944E-04    0.6959952903E+00    0.9563995096E-02    0.6432757370E+00    0.3968089069E-04
    0.1100000000E+08    0.8223086265E-05    0.6959948873E+00    0.7891909280E-02    0.6474435897E+00    0.4012597620E-04
    0.1300000000E+08    0.5994703728E-05    0.6959945440E+00    0.6714720797E-02    0.6503757506E+00    0.4050030577E-04
    0.1500000000E+08    0.4567072062E-05    0.6959942447E+00    0.5841349338E-02    0.6525502085E+00    0.4082373718E-04
    0.1700000000E+08    0.3597141215E-05    0.6959939791E+00    0.5167803670E-02    0.6542266977E+00    0.4110874316E-04
    0.1900000000E+08    0.2907872006E-05    0.6959937402E+00    0.4632657861E-02    0.6555584767E+00    0.4136368157E-04
    0.2100000000E+08    0.2400327461E-05    0.6959935231E+00    0.4197303050E-02    0.6566418023E+00    0.4159443221E-04
    0.2300000000E+08    0.2015668299E-05    0.6959933238E+00    0.3836257718E-02    0.6575401676E+00    0.4180529167E-04
    0.2500000000E+08    0.1717106895E-05    0.6959931398E+00    0.3532028044E-02    0.6582971439E+00    0.4199949691E-04
    0.2700000000E+08    0.1480676940E-05    0.6959929686E+00    0.3272206968E-02    0.6589436232E+00    0.4217954842E-04
