  Pressure (Pa) 23mC5-500 (mol/kg) 24mC5-500 (mol/kg) 2mC6-500 (mol/kg) 3mC6-500 (mol/kg) C7-500 (mol/kg)
    0.1000000000E+01    0.2289319386E-05    0.3665962877E-01    0.6977411838E-05    0.6960057632E-05    0.4208122555E-02
    0.3000000000E+01    0.6041168652E-05    0.9948317372E-01    0.1802371409E-04    0.1789836019E-04    0.4291331210E-02
    0.5000000000E+01    0.9001761214E-05    0.1513605463E+00    0.2643962949E-04    0.2799522777E-04    0.4358050260E-02
    0.7000000000E+01    0.1138348193E-04    0.1949234772E+00    0.3299196139E-04    0.3769182380E-04    0.4414007898E-02
    0.9000000000E+01    0.1332932999E-04    0.2320226316E+00    0.3818235477E-04    0.4713727295E-04    0.4461750583E-02
    0.1100000000E+02    0.1494014337E-04    0.2639973592E+00    0.4235720412E-04    0.5640625012E-04    0.4503003876E-02
    0.1300000000E+02    0.1628905242E-04    0.2918408741E+00    0.4576276376E-04    0.6554321946E-04    0.4539024837E-02
    0.1500000000E+02    0.1743027941E-04    0.3163052868E+00    0.4857798488E-04    0.7457748909E-04    0.4570759698E-02
    0.1700000000E+02    0.1840478172E-04    0.3379705795E+00    0.5093528301E-04    0.8352972962E-04    0.4598936744E-02
    0.1900000000E+02    0.1924399734E-04    0.3572911834E+00    0.5293416107E-04    0.9241524508E-04    0.4624126494E-02
    0.2100000000E+02    0.1997239894E-04    0.3746282083E+00    0.5465039613E-04    0.1012457893E-03    0.4646782598E-02
    0.2300000000E+02    0.2060927551E-04    0.3902722286E+00    0.5614237722E-04    0.1100306528E-03    0.4667270491E-02
    0.2500000000E+02    0.2117000005E-04    0.4044597037E+00    0.5745556376E-04    0.1187773505E-03    0.4685887948E-02
    0.2700000000E+02    0.2166694725E-04    0.4173850158E+00    0.5862567595E-04    0.1274920788E-03    0.4702880125E-02
    0.2900000000E+02    0.2211016837E-04    0.4292094305E+00    0.5968101268E-04    0.1361800292E-03    0.4718450734E-02
    0.3100000000E+02    0.2250789439E-04    0.4400678614E+00    0.6064415855E-04    0.1448456114E-03    0.4732770479E-02
    0.3300000000E+02    0.2286691601E-04    0.4500740418E+00    0.6153325661E-04    0.1534926153E-03    0.4745983513E-02
    0.3500000000E+02    0.2319287395E-04    0.4593245241E+00    0.6236296785E-04    0.1621243320E-03    0.4758212420E-02
    0.3700000000E+02    0.2349048304E-04    0.4679018062E+00    0.6314520207E-04    0.1707436457E-03    0.4769562127E-02
    0.3900000000E+02    0.2376370693E-04    0.4758767988E+00    0.6388967969E-04    0.1793531045E-03    0.4780122978E-02
    0.4100000000E+02    0.2401589551E-04    0.4833107911E+00    0.6460436736E-04    0.1879549760E-03    0.4789973199E-02
    0.4300000000E+02    0.2424989389E-04    0.4902570289E+00    0.6529581846E-04    0.1965512916E-03    0.4799180869E-02
    0.4500000000E+02    0.2446812947E-04    0.4967619925E+00    0.6596944119E-04    0.2051438818E-03    0.4807805521E-02
    0.4700000000E+02    0.2467268210E-04    0.5028664377E+00    0.6662971097E-04    0.2137344051E-03    0.4815899452E-02
    0.4900000000E+02    0.2486534080E-04    0.5086062514E+00    0.6728033998E-04    0.2223243719E-03    0.4823508788E-02
    0.1000000000E+02    0.1417151869E-04    0.2485818113E+00    0.4037944483E-04    0.5179057343E-04    0.4483101147E-02
    0.3000000000E+02    0.2231426387E-04    0.4347518409E+00    0.6017288397E-04    0.1405153665E-03    0.4725757397E-02
    0.5000000000E+02    0.2495770108E-04    0.5113494810E+00    0.6760302458E-04    0.2266195829E-03    0.4827144684E-02
    0.7000000000E+02    0.2646141656E-04    0.5531163323E+00    0.7406953612E-04    0.3127776121E-03    0.4882232775E-02
    0.9000000000E+02    0.2769835790E-04    0.5794090849E+00    0.8111476497E-04    0.3999576614E-03    0.4916091786E-02
    0.1100000000E+03    0.2891596747E-04    0.5974830261E+00    0.8894119589E-04    0.4886979495E-03    0.4938290213E-02
    0.1300000000E+03    0.3019668336E-04    0.6106707784E+00    0.9751591957E-04    0.5793677555E-03    0.4953297711E-02
    0.1500000000E+03    0.3156977714E-04    0.6207177089E+00    0.1067744211E-03    0.6722563724E-03    0.4963491377E-02
    0.1700000000E+03    0.3304544208E-04    0.6286263611E+00    0.1166618029E-03    0.7676117695E-03    0.4970255320E-02
    0.1900000000E+03    0.3462677082E-04    0.6350136335E+00    0.1271389188E-03    0.8656602057E-03    0.4974450955E-02
    0.2100000000E+03    0.3631436774E-04    0.6402799440E+00    0.1381808097E-03    0.9666173762E-03    0.4976642156E-02
    0.2300000000E+03    0.3810822540E-04    0.6446965294E+00    0.1497739578E-03    0.1070695366E-02    0.4977212661E-02
    0.2500000000E+03    0.4000850467E-04    0.6484536525E+00    0.1619138735E-03    0.1178107358E-02    0.4976431568E-02
    0.2700000000E+03    0.4201585363E-04    0.6516887204E+00    0.1746032573E-03    0.1289071078E-02    0.4974491898E-02
    0.2900000000E+03    0.4413152761E-04    0.6545034470E+00    0.1878506737E-03    0.1403811508E-02    0.4971534346E-02
    0.3100000000E+03    0.4635742451E-04    0.6569747354E+00    0.2016696189E-03    0.1522563158E-02    0.4967662469E-02
    0.3300000000E+03    0.4869608643E-04    0.6591618086E+00    0.2160778838E-03    0.1645572113E-02    0.4962952694E-02
    0.3500000000E+03    0.5115069092E-04    0.6611110138E+00    0.2310971319E-03    0.1773097939E-02    0.4957461105E-02
    0.3700000000E+03    0.5372504247E-04    0.6628591411E+00    0.2467526397E-03    0.1905415564E-02    0.4951228137E-02
    0.3900000000E+03    0.5642356899E-04    0.6644357664E+00    0.2630731588E-03    0.2042817170E-02    0.4944281886E-02
    0.4100000000E+03    0.5925132516E-04    0.6658649367E+00    0.2800908745E-03    0.2185614156E-02    0.4936640478E-02
    0.4300000000E+03    0.6221400348E-04    0.6671664046E+00    0.2978414407E-03    0.2334139207E-02    0.4928313777E-02
    0.4500000000E+03    0.6531795320E-04    0.6683565457E+00    0.3163640803E-03    0.2488748504E-02    0.4919304623E-02
    0.4700000000E+03    0.6857020714E-04    0.6694490510E+00    0.3357017428E-03    0.2649824105E-02    0.4909609729E-02
    0.4900000000E+03    0.7197851643E-04    0.6704554550E+00    0.3559013131E-03    0.2817776538E-02    0.4899220328E-02
    0.1000000000E+03    0.2830249773E-04    0.5892121490E+00    0.8493065124E-04    0.4441071533E-03    0.4928299738E-02
    0.3000000000E+03    0.4523055433E-04    0.6557779703E+00    0.1946876881E-03    0.1462670844E-02    0.4969707378E-02
    0.5000000000E+03    0.7374382083E-04    0.6709294864E+00    0.3663401042E-03    0.2904468329E-02    0.4893761061E-02
    0.7000000000E+03    0.1198870038E-03    0.6776347445E+00    0.6360089539E-03    0.5132121834E-02    0.4741964413E-02
    0.9000000000E+03    0.1995919652E-03    0.6814152154E+00    0.1096846022E-02    0.8926517135E-02    0.4470588760E-02
    0.1100000000E+04    0.3520019218E-03    0.6838410490E+00    0.1975602518E-02    0.1616900461E-01    0.3960242904E-02
    0.1300000000E+04    0.6585915362E-03    0.6855292031E+00    0.3747086074E-02    0.3082593269E-01    0.2990088963E-02
    0.1500000000E+04    0.1104566956E-02    0.6867714240E+00    0.6345745370E-02    0.5252546509E-01    0.1754558957E-02
    0.1700000000E+04    0.1399424438E-02    0.6877235663E+00    0.8105598542E-02    0.6757844336E-01    0.1197596860E-02
    0.1900000000E+04    0.1555428532E-02    0.6884764548E+00    0.9079369122E-02    0.7626807783E-01    0.1099667475E-02
    0.2100000000E+04    0.1674708416E-02    0.6890865940E+00    0.9850163169E-02    0.8336535601E-01    0.1091540295E-02
    0.2300000000E+04    0.1782265583E-02    0.6895909777E+00    0.1056147007E-01    0.9005149218E-01    0.1095609539E-02
    0.2500000000E+04    0.1882387072E-02    0.6900148398E+00    0.1123742454E-01    0.9652184911E-01    0.1100894398E-02
    0.2700000000E+04    0.1976046074E-02    0.6903759822E+00    0.1188296842E-01    0.1028123229E+00    0.1105976814E-02
    0.2900000000E+04    0.2063706181E-02    0.6906873229E+00    0.1250011740E-01    0.1089346371E+00    0.1110717913E-02
    0.3100000000E+04    0.2145735354E-02    0.6909584625E+00    0.1309037686E-01    0.1148965641E+00    0.1115141487E-02
    0.3300000000E+04    0.2222467756E-02    0.6911966852E+00    0.1365510216E-01    0.1207049418E+00    0.1119285453E-02
    0.3500000000E+04    0.2294214254E-02    0.6914076170E+00    0.1419555728E-01    0.1263661466E+00    0.1123183435E-02
    0.3700000000E+04    0.2361265291E-02    0.6915956722E+00    0.1471292850E-01    0.1318861866E+00    0.1126863611E-02
    0.3900000000E+04    0.2423892549E-02    0.6917643627E+00    0.1520833103E-01    0.1372707368E+00    0.1130349601E-02
    0.4100000000E+04    0.2482350330E-02    0.6919165174E+00    0.1568281423E-01    0.1425251632E+00    0.1133661362E-02
    0.4300000000E+04    0.2536876815E-02    0.6920544404E+00    0.1613736626E-01    0.1476545441E+00    0.1136815908E-02
    0.4500000000E+04    0.2587695211E-02    0.6921800273E+00    0.1657291833E-01    0.1526636887E+00    0.1139827861E-02
    0.4700000000E+04    0.2635014812E-02    0.6922948519E+00    0.1699034860E-01    0.1575571557E+00    0.1142709878E-02
    0.4900000000E+04    0.2679031984E-02    0.6924002314E+00    0.1739048580E-01    0.1623392686E+00    0.1145472992E-02
    0.1000000000E+04    0.2626697087E-03    0.6827475355E+00    0.1460573305E-02    0.1192230256E-01    0.4257313222E-02
    0.3000000000E+04    0.2105403150E-02    0.6908274173E+00    0.1279852119E-01    0.1119352087E+00    0.1112966972E-02
    0.5000000000E+04    0.2699860211E-02    0.6924497335E+00    0.1758431578E-01    0.1646898581E+00    0.1146813031E-02
    0.7000000000E+04    0.2982219804E-02    0.6931402068E+00    0.2072163089E-01    0.2067498811E+00    0.1169200594E-02
    0.9000000000E+04    0.3086675939E-02    0.6935203687E+00    0.2279772090E-01    0.2412725769E+00    0.1186043199E-02
    0.1100000000E+05    0.3088033057E-02    0.6937599052E+00    0.2416425433E-01    0.2702545244E+00    0.1199589774E-02
    0.1300000000E+05    0.3029622368E-02    0.6939240113E+00    0.2504235449E-01    0.2950245180E+00    0.1210943534E-02
    0.1500000000E+05    0.2937268935E-02    0.6940430535E+00    0.2557660365E-01    0.3165043259E+00    0.1220729725E-02
    0.1700000000E+05    0.2826675639E-02    0.6941330701E+00    0.2586459317E-01    0.3353556131E+00    0.1229337795E-02
    0.1900000000E+05    0.2707508183E-02    0.6942033223E+00    0.2597394573E-01    0.3520671433E+00    0.1237027109E-02
    0.2100000000E+05    0.2585741254E-02    0.6942595267E+00    0.2595255144E-01    0.3670088438E+00    0.1243979283E-02
    0.2300000000E+05    0.2465048616E-02    0.6943054007E+00    0.2583495128E-01    0.3804665942E+00    0.1250326538E-02
    0.2500000000E+05    0.2347648420E-02    0.6943434641E+00    0.2564644369E-01    0.3926653421E+00    0.1256168190E-02
    0.2700000000E+05    0.2234828527E-02    0.6943754846E+00    0.2540579872E-01    0.4037848959E+00    0.1261580769E-02
    0.2900000000E+05    0.2127278921E-02    0.6944027383E+00    0.2512709425E-01    0.4139709838E+00    0.1266624522E-02
    0.3100000000E+05    0.2025305199E-02    0.6944261686E+00    0.2482098433E-01    0.4233431663E+00    0.1271347742E-02
    0.3300000000E+05    0.1928967303E-02    0.6944464878E+00    0.2449559112E-01    0.4320006092E+00    0.1275789745E-02
    0.3500000000E+05    0.1838170496E-02    0.6944642438E+00    0.2415714254E-01    0.4400263678E+00    0.1279982977E-02
    0.3700000000E+05    0.1752725368E-02    0.6944798642E+00    0.2381043459E-01    0.4474906172E+00    0.1283954528E-02
    0.3900000000E+05    0.1672387524E-02    0.6944936880E+00    0.2345917102E-01    0.4544531215E+00    0.1287727259E-02
    0.4100000000E+05    0.1596883817E-02    0.6945059868E+00    0.2310621575E-01    0.4609651461E+00    0.1291320636E-02
    0.4300000000E+05    0.1525929585E-02    0.6945169812E+00    0.2275378236E-01    0.4670709561E+00    0.1294751381E-02
    0.4500000000E+05    0.1459239849E-02    0.6945268518E+00    0.2240357784E-01    0.4728090024E+00    0.1298033958E-02
    0.4700000000E+05    0.1396536422E-02    0.6945357477E+00    0.2205691245E-01    0.4782128703E+00    0.1301180970E-02
    0.4900000000E+05    0.1337552286E-02    0.6945437936E+00    0.2171478433E-01    0.4833120449E+00    0.1304203464E-02
    0.1000000000E+05    0.3097003534E-02    0.6936524157E+00    0.2355359687E-01    0.2563612451E+00    0.1193143857E-02
    0.3000000000E+05    0.2075586821E-02    0.6944148823E+00    0.2497690648E-01    0.4187521936E+00    0.1269023559E-02
    0.5000000000E+05    0.1309375203E-02    0.6945475311E+00    0.2154566482E-01    0.4857556207E+00    0.1305671106E-02
    0.7000000000E+05    0.8878908541E-03    0.6945959880E+00    0.1850099756E-01    0.5235790346E+00    0.1330343890E-02
    0.9000000000E+05    0.6393779445E-03    0.6946182045E+00    0.1609787414E-01    0.5481291365E+00    0.1349061118E-02
    0.1100000000E+06    0.4819091566E-03    0.6946293174E+00    0.1420601565E-01    0.5654240028E+00    0.1364188578E-02
    0.1300000000E+06    0.3761667158E-03    0.6946348969E+00    0.1269336115E-01    0.5782926277E+00    0.1376907427E-02
    0.1500000000E+06    0.3018194405E-03    0.6946374249E+00    0.1146206852E-01    0.5882527003E+00    0.1387894556E-02
    0.1700000000E+06    0.2475840210E-03    0.6946381533E+00    0.1044287090E-01    0.5961954167E+00    0.1397574821E-02
    0.1900000000E+06    0.2068130846E-03    0.6946377707E+00    0.9586580613E-02    0.6026799537E+00    0.1406232768E-02
    0.2100000000E+06    0.1753908116E-03    0.6946366811E+00    0.8857716750E-02    0.6080755116E+00    0.1414068495E-02
    0.2300000000E+06    0.1506605758E-03    0.6946351331E+00    0.8230204143E-02    0.6126359459E+00    0.1421228178E-02
    0.2500000000E+06    0.1308462476E-03    0.6946332858E+00    0.7684522235E-02    0.6165416791E+00    0.1427821916E-02
    0.2700000000E+06    0.1147241572E-03    0.6946312441E+00    0.7205801968E-02    0.6199245295E+00    0.1433934739E-02
    0.2900000000E+06    0.1014291118E-03    0.6946290787E+00    0.6782536120E-02    0.6228830811E+00    0.1439633712E-02
    0.3100000000E+06    0.9033540564E-04    0.6946268382E+00    0.6405689827E-02    0.6254925570E+00    0.1444972680E-02
    0.3300000000E+06    0.8098146068E-04    0.6946245566E+00    0.6068076077E-02    0.6278113636E+00    0.1449995542E-02
    0.3500000000E+06    0.7302074057E-04    0.6946222579E+00    0.5763909641E-02    0.6298855485E+00    0.1454738567E-02
    0.3700000000E+06    0.6618897285E-04    0.6946199590E+00    0.5488483294E-02    0.6317519094E+00    0.1459232071E-02
    0.3900000000E+06    0.6028177087E-04    0.6946176720E+00    0.5237929232E-02    0.6334402084E+00    0.1463501658E-02
    0.4100000000E+06    0.5513904919E-04    0.6946154054E+00    0.5009040823E-02    0.6349747787E+00    0.1467569154E-02
    0.4300000000E+06    0.5063397426E-04    0.6946131653E+00    0.4799137712E-02    0.6363757097E+00    0.1471453314E-02
    0.4500000000E+06    0.4666500222E-04    0.6946109560E+00    0.4605962513E-02    0.6376597339E+00    0.1475170379E-02
    0.4700000000E+06    0.4315005612E-04    0.6946087802E+00    0.4427600831E-02    0.6388409010E+00    0.1478734506E-02
    0.4900000000E+06    0.4002220993E-04    0.6946066398E+00    0.4262418708E-02    0.6399310948E+00    0.1482158109E-02
    0.1000000000E+06    0.5523448151E-03    0.6946246910E+00    0.1509707377E-01    0.5574632170E+00    0.1356983295E-02
    0.3000000000E+06    0.9563911310E-04    0.6946279654E+00    0.6588797090E-02    0.6242274692E+00    0.1442345251E-02
    0.5000000000E+06    0.3858586359E-04    0.6946055832E+00    0.4184323679E-02    0.6404452991E+00    0.1483820687E-02
    0.7000000000E+06    0.2087861342E-04    0.6945863574E+00    0.3059610090E-02    0.6477681586E+00    0.1511784775E-02
    0.9000000000E+06    0.1313496430E-04    0.6945702897E+00    0.2409014239E-02    0.6519386144E+00    0.1533012954E-02
    0.1100000000E+07    0.9060127317E-05    0.6945566045E+00    0.1985343845E-02    0.6546312841E+00    0.1550176253E-02
    0.1300000000E+07    0.6650269541E-05    0.6945447130E+00    0.1687679527E-02    0.6565131668E+00    0.1564610262E-02
    0.1500000000E+07    0.5105327214E-05    0.6945342052E+00    0.1467173164E-02    0.6579024011E+00    0.1577081094E-02
    0.1700000000E+07    0.4054487422E-05    0.6945247931E+00    0.1297316486E-02    0.6589699612E+00    0.1588069909E-02
    0.1900000000E+07    0.3306592824E-05    0.6945162683E+00    0.1162486475E-02    0.6598159244E+00    0.1597899108E-02
    0.2100000000E+07    0.2754889525E-05    0.6945084762E+00    0.1052880918E-02    0.6605027637E+00    0.1606795491E-02
    0.2300000000E+07    0.2335913133E-05    0.6945012990E+00    0.9620398628E-03    0.6610714917E+00    0.1614924783E-02
    0.2500000000E+07    0.2009989657E-05    0.6944946453E+00    0.8855337277E-03    0.6615501455E+00    0.1622411832E-02
    0.2700000000E+07    0.1751270967E-05    0.6944884425E+00    0.8202241490E-03    0.6619585415E+00    0.1629353080E-02
    0.2900000000E+07    0.1542323822E-05    0.6944826322E+00    0.7638257063E-03    0.6623110818E+00    0.1635824600E-02
    0.3100000000E+07    0.1371039543E-05    0.6944771667E+00    0.7146347515E-03    0.6626184852E+00    0.1641887481E-02
    0.3300000000E+07    0.1228792225E-05    0.6944720065E+00    0.6713554706E-03    0.6628888936E+00    0.1647591528E-02
    0.3500000000E+07    0.1109300229E-05    0.6944671185E+00    0.6329848054E-03    0.6631286023E+00    0.1652977896E-02
    0.3700000000E+07    0.1007899816E-05    0.6944624749E+00    0.5987342459E-03    0.6633425555E+00    0.1658080989E-02
    0.3900000000E+07    0.9210686862E-06    0.6944580516E+00    0.5679754126E-03    0.6635346899E+00    0.1662929866E-02
    0.4100000000E+07    0.8461057366E-06    0.6944538284E+00    0.5402013952E-03    0.6637081793E+00    0.1667549294E-02
    0.4300000000E+07    0.7809110625E-06    0.6944497874E+00    0.5149987731E-03    0.6638656104E+00    0.1671960565E-02
    0.4500000000E+07    0.7238318667E-06    0.6944459132E+00    0.4920270251E-03    0.6640091129E+00    0.1676182110E-02
    0.4700000000E+07    0.6735526138E-06    0.6944421922E+00    0.4710031497E-03    0.6641404559E+00    0.1680229999E-02
    0.4900000000E+07    0.6290154737E-06    0.6944386124E+00    0.4516900196E-03    0.6642611211E+00    0.1684118326E-02
    0.1000000000E+07    0.1080867275E-04    0.6945631910E+00    0.2176921370E-02    0.6534158381E+00    0.1542000669E-02
    0.3000000000E+07    0.1452578689E-05    0.6944798590E+00    0.7384182699E-03    0.6624698663E+00    0.1638903778E-02
    0.5000000000E+07    0.6086253770E-06    0.6944368721E+00    0.4426111851E-03    0.6643178481E+00    0.1686006596E-02
    0.7000000000E+07    0.3596801731E-06    0.6944074407E+00    0.3154356558E-03    0.6651129299E+00    0.1717767690E-02
    0.9000000000E+07    0.2508270506E-06    0.6943849322E+00    0.2447830301E-03    0.6655552904E+00    0.1741879122E-02
    0.1100000000E+08    0.1924025815E-06    0.6943666516E+00    0.1998603044E-03    0.6658369897E+00    0.1761373914E-02
    0.1300000000E+08    0.1568006684E-06    0.6943512307E+00    0.1687943079E-03    0.6660320881E+00    0.1777768817E-02
    0.1500000000E+08    0.1331455642E-06    0.6943378769E+00    0.1460392155E-03    0.6661751958E+00    0.1791933915E-02
    0.1700000000E+08    0.1164110620E-06    0.6943260893E+00    0.1286584507E-03    0.6662846512E+00    0.1804415687E-02
    0.1900000000E+08    0.1039970131E-06    0.6943155304E+00    0.1149521876E-03    0.6663710769E+00    0.1815580312E-02
    0.2100000000E+08    0.9444004350E-07    0.6943059622E+00    0.1038685431E-03    0.6664410510E+00    0.1825685390E-02
    0.2300000000E+08    0.8686079134E-07    0.6942972101E+00    0.9472183557E-04    0.6664988644E+00    0.1834919157E-02
    0.2500000000E+08    0.8070236803E-07    0.6942891423E+00    0.8704605304E-04    0.6665474356E+00    0.1843423419E-02
    0.2700000000E+08    0.7559660756E-07    0.6942816567E+00    0.8051344875E-04    0.6665888182E+00    0.1851307719E-02
