  Pressure (Pa) 23mC5-500 (mol/kg) 24mC5-500 (mol/kg) 2mC6-500 (mol/kg) 3mC6-500 (mol/kg) C7-500 (mol/kg)
    0.1000000000E+01    0.2151932032E-05    0.6964867848E-01    0.1626894167E-04    0.3007941139E-05    0.4216152994E-02
    0.3000000000E+01    0.5152020489E-05    0.1740720283E+00    0.3772254964E-04    0.7757599331E-05    0.4299508609E-02
    0.5000000000E+01    0.7120876929E-05    0.2486247221E+00    0.5094401954E-04    0.1214212536E-04    0.4357981580E-02
    0.7000000000E+01    0.8485102537E-05    0.3045206637E+00    0.5962484530E-04    0.1635006162E-04    0.4402014919E-02
    0.9000000000E+01    0.9470511717E-05    0.3479847551E+00    0.6563857251E-04    0.2044538161E-04    0.4436485448E-02
    0.1100000000E+02    0.1020691655E-04    0.3827496955E+00    0.7001774332E-04    0.2446019585E-04    0.4464253490E-02
    0.1300000000E+02    0.1077351302E-04    0.4111897452E+00    0.7336480465E-04    0.2841365725E-04    0.4487129959E-02
    0.1500000000E+02    0.1122090487E-04    0.4348871701E+00    0.7604686547E-04    0.3231840687E-04    0.4506321700E-02
    0.1700000000E+02    0.1158265173E-04    0.4549370660E+00    0.7829539446E-04    0.3618336904E-04    0.4522665442E-02
    0.1900000000E+02    0.1188170095E-04    0.4721214581E+00    0.8026035831E-04    0.4001515572E-04    0.4536760237E-02
    0.2100000000E+02    0.1213414955E-04    0.4870137185E+00    0.8204105123E-04    0.4381884725E-04    0.4549046606E-02
    0.2300000000E+02    0.1235153629E-04    0.5000438058E+00    0.8370435506E-04    0.4759845981E-04    0.4559855947E-02
    0.2500000000E+02    0.1254228691E-04    0.5115404656E+00    0.8529591844E-04    0.5135724195E-04    0.4569442491E-02
    0.2700000000E+02    0.1271265305E-04    0.5217593590E+00    0.8684719684E-04    0.5509787125E-04    0.4578004631E-02
    0.2900000000E+02    0.1286733793E-04    0.5309023031E+00    0.8837999505E-04    0.5882258982E-04    0.4585699521E-02
    0.3100000000E+02    0.1300992284E-04    0.5391307372E+00    0.8990946062E-04    0.6253330047E-04    0.4592653316E-02
    0.3300000000E+02    0.1314316375E-04    0.5465753404E+00    0.9144609313E-04    0.6623163691E-04    0.4598968495E-02
    0.3500000000E+02    0.1326920122E-04    0.5533430250E+00    0.9299711478E-04    0.6991901591E-04    0.4604729195E-02
    0.3700000000E+02    0.1338971126E-04    0.5595221044E+00    0.9456741852E-04    0.7359667714E-04    0.4610005167E-02
    0.3900000000E+02    0.1350601549E-04    0.5651861695E+00    0.9616023224E-04    0.7726571379E-04    0.4614854737E-02
    0.4100000000E+02    0.1361916244E-04    0.5703970338E+00    0.9777758894E-04    0.8092709669E-04    0.4619327072E-02
    0.4300000000E+02    0.1372998837E-04    0.5752069989E+00    0.9942066287E-04    0.8458169345E-04    0.4623463921E-02
    0.4500000000E+02    0.1383916319E-04    0.5796606163E+00    0.1010900116E-03    0.8823028388E-04    0.4627300972E-02
    0.4700000000E+02    0.1394722549E-04    0.5837960720E+00    0.1027857518E-03    0.9187357251E-04    0.4630868923E-02
    0.4900000000E+02    0.1405460960E-04    0.5876462839E+00    0.1045076870E-03    0.9551219888E-04    0.4634194329E-02
    0.1000000000E+02    0.9864032325E-05    0.3662827761E+00    0.6798767156E-04    0.2246145390E-04    0.4451076162E-02
    0.3000000000E+02    0.1293995409E-04    0.5351220379E+00    0.8914439780E-04    0.6067958841E-04    0.4589262166E-02
    0.5000000000E+02    0.1410815977E-04    0.5894734896E+00    0.1053783544E-03    0.9732994794E-04    0.4635773414E-02
    0.7000000000E+02    0.1519976015E-04    0.6163022919E+00    0.1240132620E-03    0.1335585826E-03    0.4658908181E-02
    0.9000000000E+02    0.1638158981E-04    0.6322900588E+00    0.1444920677E-03    0.1697658505E-03    0.4672309606E-02
    0.1100000000E+03    0.1766400621E-04    0.6429031079E+00    0.1662826344E-03    0.2061607576E-03    0.4680614406E-02
    0.1300000000E+03    0.1903648000E-04    0.6504615463E+00    0.1890714196E-03    0.2428750701E-03    0.4685858231E-02
    0.1500000000E+03    0.2048778509E-04    0.6561181006E+00    0.2126787713E-03    0.2800022958E-03    0.4689084933E-02
    0.1700000000E+03    0.2200907233E-04    0.6605103018E+00    0.2370008235E-03    0.3176145867E-03    0.4690889097E-02
    0.1900000000E+03    0.2359385901E-04    0.6640193822E+00    0.2619776300E-03    0.3557712285E-03    0.4691636110E-02
    0.2100000000E+03    0.2523753179E-04    0.6668873087E+00    0.2875757471E-03    0.3945233627E-03    0.4691563737E-02
    0.2300000000E+03    0.2693687925E-04    0.6692750530E+00    0.3137784126E-03    0.4339168214E-03    0.4690833726E-02
    0.2500000000E+03    0.2868973413E-04    0.6712938646E+00    0.3405798018E-03    0.4739939341E-03    0.4689560047E-02
    0.2700000000E+03    0.3049471415E-04    0.6730230925E+00    0.3679815539E-03    0.5147947399E-03    0.4687825296E-02
    0.2900000000E+03    0.3235103679E-04    0.6745208544E+00    0.3959906065E-03    0.5563578345E-03    0.4685690697E-02
    0.3100000000E+03    0.3425838669E-04    0.6758306922E+00    0.4246178129E-03    0.5987209867E-03    0.4683202450E-02
    0.3300000000E+03    0.3621682027E-04    0.6769858722E+00    0.4538770409E-03    0.6419216028E-03    0.4680395911E-02
    0.3500000000E+03    0.3822669650E-04    0.6780122468E+00    0.4837845779E-03    0.6859970885E-03    0.4677298417E-02
    0.3700000000E+03    0.4028862634E-04    0.6789302113E+00    0.5143587350E-03    0.7309851407E-03    0.4673931245E-02
    0.3900000000E+03    0.4240343563E-04    0.6797560714E+00    0.5456195844E-03    0.7769239892E-03    0.4670311007E-02
    0.4100000000E+03    0.4457213772E-04    0.6805030192E+00    0.5775887876E-03    0.8238526042E-03    0.4666450659E-02
    0.4300000000E+03    0.4679591353E-04    0.6811818427E+00    0.6102894869E-03    0.8718108795E-03    0.4662360241E-02
    0.4500000000E+03    0.4907609689E-04    0.6818014492E+00    0.6437462435E-03    0.9208397977E-03    0.4658047433E-02
    0.4700000000E+03    0.5141416414E-04    0.6823692584E+00    0.6779850078E-03    0.9709815844E-03    0.4653517972E-02
    0.4900000000E+03    0.5381172701E-04    0.6828915003E+00    0.7130331158E-03    0.1022279854E-02    0.4648775977E-02
    0.1000000000E+03    0.1701078193E-04    0.6380835046E+00    0.1552470386E-03    0.1879304245E-03    0.4676938262E-02
    0.3000000000E+03    0.3329833760E-04    0.6751969828E+00    0.4102261362E-03    0.5774370617E-03    0.4684488353E-02
    0.5000000000E+03    0.5503335878E-04    0.6831372126E+00    0.7308695985E-03    0.1048376714E-02    0.4646326186E-02
    0.7000000000E+03    0.8309374469E-04    0.6865942500E+00    0.1138045133E-02    0.1643233773E-02    0.4586258879E-02
    0.9000000000E+03    0.1200546107E-03    0.6885279887E+00    0.1671063679E-02    0.2421370179E-02    0.4502412621E-02
    0.1100000000E+04    0.1703395505E-03    0.6897629100E+00    0.2394502548E-02    0.3478080840E-02    0.4386249578E-02
    0.1300000000E+04    0.2415900747E-03    0.6906195146E+00    0.3418976785E-02    0.4976172021E-02    0.4221682027E-02
    0.1500000000E+04    0.3474750802E-03    0.6912483422E+00    0.4942206324E-02    0.7206964972E-02    0.3980025248E-02
    0.1700000000E+04    0.5126957214E-03    0.6917294376E+00    0.7322265907E-02    0.1069953416E-01    0.3611360841E-02
    0.1900000000E+04    0.7772264752E-03    0.6921092864E+00    0.1114196111E-01    0.1632023958E-01    0.3042003995E-02
    0.2100000000E+04    0.1172357192E-02    0.6924167313E+00    0.1687059234E-01    0.2478668845E-01    0.2240511649E-02
    0.2300000000E+04    0.1620372365E-02    0.6926706154E+00    0.2341547458E-01    0.3453594957E-01    0.1425966180E-02
    0.2500000000E+04    0.1955436276E-02    0.6928837694E+00    0.2838657886E-01    0.4205761030E-01    0.9432809316E-03
    0.2700000000E+04    0.2159570917E-02    0.6930652317E+00    0.3149887537E-01    0.4689371852E-01    0.7654422456E-03
    0.2900000000E+04    0.2300745411E-02    0.6932215528E+00    0.3371862543E-01    0.5044363441E-01    0.7147112214E-03
    0.3100000000E+04    0.2418052912E-02    0.6933575961E+00    0.3560685392E-01    0.5352808704E-01    0.7026080177E-03
    0.3300000000E+04    0.2525046359E-02    0.6934770476E+00    0.3735856431E-01    0.5643325025E-01    0.7010963641E-03
    0.3500000000E+04    0.2625905539E-02    0.6935827521E+00    0.3903356308E-01    0.5924649886E-01    0.7023601667E-03
    0.3700000000E+04    0.2721974495E-02    0.6936769400E+00    0.4065058124E-01    0.6199453033E-01    0.7042898066E-03
    0.3900000000E+04    0.2813775006E-02    0.6937613846E+00    0.4221642020E-01    0.6468637853E-01    0.7063226053E-03
    0.4100000000E+04    0.2901587505E-02    0.6938375133E+00    0.4373439957E-01    0.6732594174E-01    0.7083127182E-03
    0.4300000000E+04    0.2985616624E-02    0.6939064882E+00    0.4520677343E-01    0.6991558045E-01    0.7102265876E-03
    0.4500000000E+04    0.3066038671E-02    0.6939692649E+00    0.4663542427E-01    0.7245715292E-01    0.7120605878E-03
    0.4700000000E+04    0.3143015599E-02    0.6940266362E+00    0.4802206602E-01    0.7495231696E-01    0.7138186588E-03
    0.4900000000E+04    0.3216699406E-02    0.6940792655E+00    0.4936830634E-01    0.7740262062E-01    0.7155062497E-03
    0.1000000000E+04    0.1431532646E-03    0.6892068123E+00    0.2003496537E-02    0.2906831847E-02    0.4449158735E-02
    0.3000000000E+04    0.2361183821E-02    0.6932918558E+00    0.3468692792E-01    0.5201872366E-01    0.7063596767E-03
    0.5000000000E+04    0.3252351588E-02    0.6941039803E+00    0.5002675489E-01    0.7861141123E-01    0.7163253081E-03
    0.7000000000E+04    0.3823671531E-02    0.6944480783E+00    0.6140746473E-01    0.1007549545E+00    0.7300581417E-03
    0.9000000000E+04    0.4190243316E-02    0.6946368406E+00    0.7009237543E-01    0.1197294004E+00    0.7404390548E-03
    0.1100000000E+05    0.4419316334E-02    0.6947553725E+00    0.7683483903E-01    0.1362970713E+00    0.7488118107E-03
    0.1300000000E+05    0.4553943585E-02    0.6948363068E+00    0.8213759255E-01    0.1509839289E+00    0.7558421010E-03
    0.1500000000E+05    0.4622589279E-02    0.6948948194E+00    0.8634810315E-01    0.1641657383E+00    0.7619095671E-03
    0.1700000000E+05    0.4644577053E-02    0.6949389146E+00    0.8971366243E-01    0.1761189155E+00    0.7672517011E-03
    0.1900000000E+05    0.4633316386E-02    0.6949732086E+00    0.9241469102E-01    0.1870519036E+00    0.7720271768E-03
    0.2100000000E+05    0.4598284543E-02    0.6950005475E+00    0.9458565395E-01    0.1971252797E+00    0.7763473724E-03
    0.2300000000E+05    0.4546282748E-02    0.6950227801E+00    0.9632863217E-01    0.2064650633E+00    0.7802935333E-03
    0.2500000000E+05    0.4482254139E-02    0.6950411580E+00    0.9772238169E-01    0.2151717761E+00    0.7839267813E-03
    0.2700000000E+05    0.4409829049E-02    0.6950565586E+00    0.9882853254E-01    0.2233267628E+00    0.7872942769E-03
    0.2900000000E+05    0.4331696086E-02    0.6950696142E+00    0.9969592427E-01    0.2309966977E+00    0.7904331863E-03
    0.3100000000E+05    0.4249859299E-02    0.6950807920E+00    0.1003636978E+00    0.2382368606E+00    0.7933733291E-03
    0.3300000000E+05    0.4165819313E-02    0.6950904445E+00    0.1008635391E+00    0.2450935597E+00    0.7961390023E-03
    0.3500000000E+05    0.4080702754E-02    0.6950988423E+00    0.1012213328E+00    0.2516059513E+00    0.7987502697E-03
    0.3700000000E+05    0.3995355940E-02    0.6951061965E+00    0.1014583989E+00    0.2578074266E+00    0.8012238952E-03
    0.3900000000E+05    0.3910413479E-02    0.6951126743E+00    0.1015924286E+00    0.2637266818E+00    0.8035740313E-03
    0.4100000000E+05    0.3826349034E-02    0.6951184094E+00    0.1016382024E+00    0.2693885536E+00    0.8058127373E-03
    0.4300000000E+05    0.3743513243E-02    0.6951235104E+00    0.1016081453E+00    0.2748146787E+00    0.8079503737E-03
    0.4500000000E+05    0.3662162270E-02    0.6951280660E+00    0.1015127620E+00    0.2800240194E+00    0.8099959087E-03
    0.4700000000E+05    0.3582479494E-02    0.6951321495E+00    0.1013609796E+00    0.2850332868E+00    0.8119571578E-03
    0.4900000000E+05    0.3504592064E-02    0.6951358220E+00    0.1011604211E+00    0.2898572836E+00    0.8138409738E-03
    0.1000000000E+05    0.4318848877E-02    0.6947022316E+00    0.7367049595E-01    0.1282769070E+00    0.7448254904E-03
    0.3000000000E+05    0.4291136806E-02    0.6950754136E+00    0.1000526300E+00    0.2346674199E+00    0.7919264727E-03
    0.5000000000E+05    0.3466349162E-02    0.6951375204E+00    0.1010439313E+00    0.2922039799E+00    0.8147557610E-03
    0.7000000000E+05    0.2802135667E-02    0.6951588753E+00    0.9733084374E-01    0.3319643037E+00    0.8301392368E-03
    0.9000000000E+05    0.2305567694E-02    0.6951677942E+00    0.9257183802E-01    0.3622741369E+00    0.8418142964E-03
    0.1100000000E+06    0.1930948831E-02    0.6951715777E+00    0.8775436148E-01    0.3866289276E+00    0.8512524936E-03
    0.1300000000E+06    0.1642424778E-02    0.6951728752E+00    0.8318431708E-01    0.4068558652E+00    0.8591891938E-03
    0.1500000000E+06    0.1415541258E-02    0.6951728493E+00    0.7894956436E-01    0.4240429473E+00    0.8660460556E-03
    0.1700000000E+06    0.1233769579E-02    0.6951720766E+00    0.7506008205E-01    0.4388960395E+00    0.8720878373E-03
    0.1900000000E+06    0.1085747850E-02    0.6951708682E+00    0.7149738023E-01    0.4519016047E+00    0.8774919093E-03
    0.2100000000E+06    0.9634895505E-03    0.6951694028E+00    0.6823358498E-01    0.4634102146E+00    0.8823830297E-03
    0.2300000000E+06    0.8612542792E-03    0.6951677876E+00    0.6523914017E-01    0.4736833276E+00    0.8868523516E-03
    0.2500000000E+06    0.7748298679E-03    0.6951660892E+00    0.6248589142E-01    0.4829213079E+00    0.8909685391E-03
    0.2700000000E+06    0.7010671507E-03    0.6951643500E+00    0.5994820503E-01    0.4912811216E+00    0.8947846297E-03
    0.2900000000E+06    0.6375718059E-03    0.6951625977E+00    0.5760323463E-01    0.4988880013E+00    0.8983424582E-03
    0.3100000000E+06    0.5824957806E-03    0.6951608501E+00    0.5543082497E-01    0.5058434102E+00    0.9016756156E-03
    0.3300000000E+06    0.5343932078E-03    0.6951591192E+00    0.5341327414E-01    0.5122306433E+00    0.9048114899E-03
    0.3500000000E+06    0.4921189829E-03    0.6951574126E+00    0.5153505499E-01    0.5181188642E+00    0.9077727100E-03
    0.3700000000E+06    0.4547561218E-03    0.6951557353E+00    0.4978254078E-01    0.5235660794E+00    0.9105781922E-03
    0.3900000000E+06    0.4215629056E-03    0.6951540902E+00    0.4814375351E-01    0.5286213702E+00    0.9132439136E-03
    0.4100000000E+06    0.3919338603E-03    0.6951524791E+00    0.4660814114E-01    0.5333265945E+00    0.9157834928E-03
    0.4300000000E+06    0.3653705676E-03    0.6951509029E+00    0.4516638395E-01    0.5377177035E+00    0.9182086349E-03
    0.4500000000E+06    0.3414595611E-03    0.6951493616E+00    0.4381022802E-01    0.5418257738E+00    0.9205294743E-03
    0.4700000000E+06    0.3198554008E-03    0.6951478551E+00    0.4253234263E-01    0.5456778254E+00    0.9227548459E-03
    0.4900000000E+06    0.3002675772E-03    0.6951463829E+00    0.4132619852E-01    0.5492974766E+00    0.9248924982E-03
    0.1000000000E+06    0.2105561087E-02    0.6951701093E+00    0.9014337198E-01    0.3750579130E+00    0.8467568106E-03
    0.3000000000E+06    0.6090798147E-03    0.6951617225E+00    0.5649662036E-01    0.5024415613E+00    0.9000352829E-03
    0.5000000000E+06    0.2911514634E-03    0.6951456594E+00    0.4074818229E-01    0.5510267352E+00    0.9259305970E-03
    0.7000000000E+06    0.1712157071E-03    0.6951327635E+00    0.3182437797E-01    0.5773287268E+00    0.9433917531E-03
    0.9000000000E+06    0.1129676490E-03    0.6951222389E+00    0.2609005324E-01    0.5938939478E+00    0.9566476082E-03
    0.1100000000E+07    0.8023644417E-04    0.6951133835E+00    0.2209714109E-01    0.6052999966E+00    0.9673655351E-03
    0.1300000000E+07    0.5999256375E-04    0.6951057457E+00    0.1915809343E-01    0.6136361939E+00    0.9763793385E-03
    0.1500000000E+07    0.4658888548E-04    0.6950990305E+00    0.1690494780E-01    0.6199958949E+00    0.9841673264E-03
    0.1700000000E+07    0.3724948630E-04    0.6950930372E+00    0.1512306547E-01    0.6250077309E+00    0.9910299135E-03
    0.1900000000E+07    0.3047846210E-04    0.6950876237E+00    0.1367883997E-01    0.6290590966E+00    0.9971683991E-03
    0.2100000000E+07    0.2541096556E-04    0.6950826862E+00    0.1248477053E-01    0.6324018390E+00    0.1002724395E-02
    0.2300000000E+07    0.2151836821E-04    0.6950781461E+00    0.1148116182E-01    0.6352068107E+00    0.1007801379E-02
    0.2500000000E+07    0.1846260264E-04    0.6950739432E+00    0.1062589677E-01    0.6375940213E+00    0.1012477308E-02
    0.2700000000E+07    0.1601920521E-04    0.6950700298E+00    0.9888412985E-02    0.6396502463E+00    0.1016812403E-02
    0.2900000000E+07    0.1403435114E-04    0.6950663678E+00    0.9245996417E-02    0.6414397886E+00    0.1020854166E-02
    0.3100000000E+07    0.1239973396E-04    0.6950629261E+00    0.8681415347E-02    0.6430113119E+00    0.1024640742E-02
    0.3300000000E+07    0.1103729048E-04    0.6950596791E+00    0.8181361308E-02    0.6444023227E+00    0.1028203233E-02
    0.3500000000E+07    0.9889592966E-05    0.6950566055E+00    0.7735393277E-02    0.6456421942E+00    0.1031567337E-02
    0.3700000000E+07    0.8913625633E-05    0.6950536873E+00    0.7335205296E-02    0.6467542577E+00    0.1034754539E-02
    0.3900000000E+07    0.8076647501E-05    0.6950509091E+00    0.6974107578E-02    0.6477572795E+00    0.1037782983E-02
    0.4100000000E+07    0.7353378541E-05    0.6950482578E+00    0.6646651875E-02    0.6486665255E+00    0.1040668137E-02
    0.4300000000E+07    0.6724046229E-05    0.6950457221E+00    0.6348356403E-02    0.6494945405E+00    0.1043423296E-02
    0.4500000000E+07    0.6173004278E-05    0.6950432920E+00    0.6075500765E-02    0.6502517287E+00    0.1046059970E-02
    0.4700000000E+07    0.5687739597E-05    0.6950409588E+00    0.5824970957E-02    0.6509467913E+00    0.1048588194E-02
    0.4900000000E+07    0.5258147539E-05    0.6950387149E+00    0.5594140730E-02    0.6515870613E+00    0.1051016770E-02
    0.1000000000E+07    0.9449101790E-04    0.6951176355E+00    0.2392944523E-01    0.6000779886E+00    0.9622601076E-03
    0.3000000000E+07    0.1317871741E-04    0.6950646211E+00    0.8954885880E-02    0.6422502380E+00    0.1022777265E-02
    0.5000000000E+07    0.5061594683E-05    0.6950376244E+00    0.5485402593E-02    0.6518886313E+00    0.1052196152E-02
    0.7000000000E+07    0.2679084897E-05    0.6950192034E+00    0.3946677420E-02    0.6561534109E+00    0.1072033957E-02
    0.9000000000E+07    0.1664268133E-05    0.6950051395E+00    0.3079087419E-02    0.6585564347E+00    0.1087094273E-02
    0.1100000000E+08    0.1138486117E-05    0.6949937299E+00    0.2522616757E-02    0.6600974837E+00    0.1099271256E-02
    0.1300000000E+08    0.8307282381E-06    0.6949841125E+00    0.2135566465E-02    0.6611694042E+00    0.1109512156E-02
    0.1500000000E+08    0.6348765675E-06    0.6949757893E+00    0.1850895863E-02    0.6619579016E+00    0.1118360374E-02
    0.1700000000E+08    0.5024002717E-06    0.6949684459E+00    0.1632790860E-02    0.6625621365E+00    0.1126157212E-02
    0.1900000000E+08    0.4085248475E-06    0.6949618706E+00    0.1460385625E-02    0.6630398668E+00    0.1133131369E-02
    0.2100000000E+08    0.3395180800E-06    0.6949559143E+00    0.1320703586E-02    0.6634270078E+00    0.1139443735E-02
    0.2300000000E+08    0.2872646659E-06    0.6949504678E+00    0.1205252403E-02    0.6637470628E+00    0.1145211875E-02
    0.2500000000E+08    0.2467159057E-06    0.6949454485E+00    0.1108241891E-02    0.6640160566E+00    0.1150524358E-02
    0.2700000000E+08    0.2145956978E-06    0.6949407927E+00    0.1025588980E-02    0.6642452897E+00    0.1155449603E-02
