  Pressure (Pa) 23mC5-500 (mol/kg) 24mC5-500 (mol/kg) 2mC6-500 (mol/kg) 3mC6-500 (mol/kg) C7-500 (mol/kg)
    0.1000000000E+01    0.1616429768E-05    0.2142791744E+00    0.1447480717E-04    0.8977762382E-06    0.4167000262E-02
    0.3000000000E+01    0.2756303842E-05    0.3978460182E+00    0.2364539462E-04    0.2257765896E-05    0.4187867216E-02
    0.5000000000E+01    0.3191096457E-05    0.4801068867E+00    0.2741059214E-04    0.3499137100E-05    0.4194834897E-02
    0.7000000000E+01    0.3437822930E-05    0.5267887661E+00    0.3019215983E-04    0.4683426603E-05    0.4198440789E-02
    0.9000000000E+01    0.3619962453E-05    0.5568703599E+00    0.3281629078E-04    0.5831221840E-05    0.4200604021E-02
    0.1100000000E+02    0.3777668318E-05    0.5778697700E+00    0.3547488902E-04    0.6952781495E-05    0.4202002536E-02
    0.1300000000E+02    0.3926343711E-05    0.5933606879E+00    0.3820880030E-04    0.8054194656E-05    0.4202943522E-02
    0.1500000000E+02    0.4072474946E-05    0.6052592725E+00    0.4101838600E-04    0.9139465485E-05    0.4203587803E-02
    0.1700000000E+02    0.4218913801E-05    0.6146852897E+00    0.4389369324E-04    0.1021141261E-04    0.4204028179E-02
    0.1900000000E+02    0.4366904257E-05    0.6223369166E+00    0.4682335857E-04    0.1127211925E-04    0.4204322126E-02
    0.2100000000E+02    0.4516940805E-05    0.6286720826E+00    0.4979716486E-04    0.1232318269E-04    0.4204507221E-02
    0.2300000000E+02    0.4669158931E-05    0.6340036232E+00    0.5280658978E-04    0.1336586327E-04    0.4204609112E-02
    0.2500000000E+02    0.4823522194E-05    0.6385525280E+00    0.5584472677E-04    0.1440117868E-04    0.4204645923E-02
    0.2700000000E+02    0.4979915129E-05    0.6424793427E+00    0.5890603944E-04    0.1542996639E-04    0.4204630839E-02
    0.2900000000E+02    0.5138190317E-05    0.6459035118E+00    0.6198610259E-04    0.1645292658E-04    0.4204573687E-02
    0.3100000000E+02    0.5298192352E-05    0.6489157404E+00    0.6508137599E-04    0.1747065259E-04    0.4204481947E-02
    0.3300000000E+02    0.5459769802E-05    0.6515861477E+00    0.6818901982E-04    0.1848365306E-04    0.4204361417E-02
    0.3500000000E+02    0.5622780845E-05    0.6539697930E+00    0.7130674828E-04    0.1949236848E-04    0.4204216662E-02
    0.3700000000E+02    0.5787095561E-05    0.6561105134E+00    0.7443271493E-04    0.2049718368E-04    0.4204051324E-02
    0.3900000000E+02    0.5952596435E-05    0.6580436440E+00    0.7756542308E-04    0.2149843749E-04    0.4203868350E-02
    0.4100000000E+02    0.6119177974E-05    0.6597979838E+00    0.8070365587E-04    0.2249643038E-04    0.4203670146E-02
    0.4300000000E+02    0.6286745881E-05    0.6613972401E+00    0.8384642137E-04    0.2349143041E-04    0.4203458698E-02
    0.4500000000E+02    0.6455216064E-05    0.6628611064E+00    0.8699290943E-04    0.2448367814E-04    0.4203235661E-02
    0.4700000000E+02    0.6624513600E-05    0.6642060769E+00    0.9014245751E-04    0.2547339054E-04    0.4203002422E-02
    0.4900000000E+02    0.6794571749E-05    0.6654460715E+00    0.9329452350E-04    0.2646076419E-04    0.4202760157E-02
    0.1000000000E+02    0.3700595611E-05    0.5682272748E+00    0.3413714314E-04    0.6394836087E-05    0.4201374764E-02
    0.3000000000E+02    0.5217985124E-05    0.6474563285E+00    0.6353203003E-04    0.1696241030E-04    0.4204531745E-02
    0.5000000000E+02    0.6879867206E-05    0.6660304699E+00    0.9487135880E-04    0.2695363052E-04    0.4202635957E-02
    0.7000000000E+02    0.8614325515E-05    0.6743211590E+00    0.1264687136E-03    0.3672435604E-04    0.4199857319E-02
    0.9000000000E+02    0.1038561778E-04    0.6790168629E+00    0.1581212670E-03    0.4639628564E-04    0.4196762479E-02
    0.1100000000E+03    0.1218124039E-04    0.6820391911E+00    0.1898345527E-03    0.5603115626E-04    0.4193514854E-02
    0.1300000000E+03    0.1399650477E-04    0.6841473387E+00    0.2216487988E-03    0.6566641322E-04    0.4190177657E-02
    0.1500000000E+03    0.1582974819E-04    0.6857015791E+00    0.2536066977E-03    0.7532736970E-04    0.4186779466E-02
    0.1700000000E+03    0.1768061237E-04    0.6868948587E+00    0.2857469168E-03    0.8503247133E-04    0.4183334389E-02
    0.1900000000E+03    0.1954934264E-04    0.6878398337E+00    0.3181033627E-03    0.9479593563E-04    0.4179849681E-02
    0.2100000000E+03    0.2143647561E-04    0.6886066983E+00    0.3507057622E-03    0.1046292160E-03    0.4176329055E-02
    0.2300000000E+03    0.2334269068E-04    0.6892414674E+00    0.3835804446E-03    0.1145418761E-03    0.4172774274E-02
    0.2500000000E+03    0.2526873643E-04    0.6897755624E+00    0.4167510480E-03    0.1245421438E-03    0.4169185968E-02
    0.2700000000E+03    0.2721539320E-04    0.6902311715E+00    0.4502390951E-03    0.1346372773E-03    0.4165564086E-02
    0.2900000000E+03    0.2918345414E-04    0.6906244089E+00    0.4840644512E-03    0.1448338180E-03    0.4161908153E-02
    0.3100000000E+03    0.3117371585E-04    0.6909672602E+00    0.5182456828E-03    0.1551377693E-03    0.4158217423E-02
    0.3300000000E+03    0.3318697424E-04    0.6912688250E+00    0.5528003420E-03    0.1655547279E-03    0.4154490974E-02
    0.3500000000E+03    0.3522402324E-04    0.6915361364E+00    0.5877451915E-03    0.1760899812E-03    0.4150727765E-02
    0.3700000000E+03    0.3728565496E-04    0.6917747157E+00    0.6230963857E-03    0.1867485824E-03    0.4146926672E-02
    0.3900000000E+03    0.3937266075E-04    0.6919889583E+00    0.6588696177E-03    0.1975354083E-03    0.4143086518E-02
    0.4100000000E+03    0.4148583259E-04    0.6921824065E+00    0.6950802398E-03    0.2084552061E-03    0.4139206079E-02
    0.4300000000E+03    0.4362596476E-04    0.6923579470E+00    0.7317433633E-03    0.2195126299E-03    0.4135284101E-02
    0.4500000000E+03    0.4579385551E-04    0.6925179559E+00    0.7688739428E-03    0.2307122717E-03    0.4131319303E-02
    0.4700000000E+03    0.4799030875E-04    0.6926644066E+00    0.8064868477E-03    0.2420586864E-03    0.4127310383E-02
    0.4900000000E+03    0.5021613570E-04    0.6927989520E+00    0.8445969238E-03    0.2535564136E-03    0.4123256015E-02
    0.1000000000E+03    0.1128078423E-04    0.6806758275E+00    0.1739680205E-03    0.5121563745E-04    0.4195152606E-02
    0.3000000000E+03    0.3017576011E-04    0.6908015076E+00    0.5011094647E-03    0.1499720093E-03    0.4160067192E-02
    0.5000000000E+03    0.5134032021E-04    0.6928622047E+00    0.8638430471E-03    0.2593634382E-03    0.4121211369E-02
    0.7000000000E+03    0.7557475206E-04    0.6937488056E+00    0.1278596301E-02    0.3845845125E-03    0.4077590315E-02
    0.9000000000E+03    0.1037994383E-03    0.6942421558E+00    0.1761651115E-02    0.5305956451E-03    0.4027709683E-02
    0.1100000000E+04    0.1371796819E-03    0.6945563492E+00    0.2333211770E-02    0.7035467875E-03    0.3969718072E-02
    0.1300000000E+04    0.1772723019E-03    0.6947739481E+00    0.3020161553E-02    0.9116296839E-03    0.3901198846E-02
    0.1500000000E+04    0.2262237400E-03    0.6949335429E+00    0.3859544431E-02    0.1166144946E-02    0.3818884349E-02
    0.1700000000E+04    0.2870647883E-03    0.6950555857E+00    0.4903691863E-02    0.1483074909E-02    0.3718245026E-02
    0.1900000000E+04    0.3641596521E-03    0.6951519257E+00    0.6228030859E-02    0.1885484236E-02    0.3592887160E-02
    0.2100000000E+04    0.4638799515E-03    0.6952299023E+00    0.7942831181E-02    0.2407142973E-02    0.3433696302E-02
    0.2300000000E+04    0.5955419908E-03    0.6952943038E+00    0.1020962691E-01    0.3097619437E-02    0.3227760168E-02
    0.2500000000E+04    0.7724041737E-03    0.6953483874E+00    0.1325895522E-01    0.4027864872E-02    0.2957554461E-02
    0.2700000000E+04    0.1011573839E-02    0.6953944456E+00    0.1738980102E-01    0.5290380440E-02    0.2602384217E-02
    0.2900000000E+04    0.1329103729E-02    0.6954341388E+00    0.2288668356E-01    0.6974446034E-02    0.2147654599E-02
    0.3100000000E+04    0.1723707789E-02    0.6954686990E+00    0.2973982029E-01    0.9081052936E-02    0.1609952409E-02
    0.3300000000E+04    0.2153270416E-02    0.6954990598E+00    0.3723605570E-01    0.1139682303E-01    0.1066111775E-02
    0.3500000000E+04    0.2543577619E-02    0.6955259412E+00    0.4409893472E-01    0.1353340133E-01    0.6264638344E-03
    0.3700000000E+04    0.2846394654E-02    0.6955499078E+00    0.4948648073E-01    0.1523069065E-01    0.3451997663E-03
    0.3900000000E+04    0.3066947768E-02    0.6955714082E+00    0.5347562165E-01    0.1650799968E-01    0.1949660776E-03
    0.4100000000E+04    0.3233528909E-02    0.6955908035E+00    0.5654645251E-01    0.1750936435E-01    0.1229506212E-03
    0.4300000000E+04    0.3369942078E-02    0.6956083877E+00    0.5910657236E-01    0.1835825520E-01    0.9026374228E-04
    0.4500000000E+04    0.3490094389E-02    0.6956244025E+00    0.6139504781E-01    0.1912739743E-01    0.7580299563E-04
    0.4700000000E+04    0.3601032649E-02    0.6956390485E+00    0.6353321543E-01    0.1985377487E-01    0.6949745086E-04
    0.4900000000E+04    0.3706142567E-02    0.6956524933E+00    0.6557931363E-01    0.2055512832E-01    0.6679280174E-04
    0.1000000000E+04    0.1197589582E-03    0.6944149422E+00    0.2034879485E-02    0.6132502952E-03    0.3999862660E-02
    0.3000000000E+04    0.1518247887E-02    0.6954519964E+00    0.2616827215E-01    0.7982131575E-02    0.1885935654E-02
    0.5000000000E+04    0.3757055371E-02    0.6956588104E+00    0.6657714122E-01    0.2089924365E-01    0.6610658093E-04
    0.7000000000E+04    0.4626861114E-02    0.6957470731E+00    0.8434104538E-01    0.2725266048E-01    0.6580237583E-04
    0.9000000000E+04    0.5285253694E-02    0.6957958875E+00    0.9895141599E-01    0.3284971453E-01    0.6672953105E-04
    0.1100000000E+05    0.5789392610E-02    0.6958268067E+00    0.1111727872E+00    0.3785614894E-01    0.6747933214E-04
    0.1300000000E+05    0.6177886544E-02    0.6958481103E+00    0.1215301456E+00    0.4238674484E-01    0.6810972410E-04
    0.1500000000E+05    0.6478154070E-02    0.6958636570E+00    0.1304057009E+00    0.4652693840E-01    0.6865427353E-04
    0.1700000000E+05    0.6710111656E-02    0.6958754869E+00    0.1380842627E+00    0.5034179256E-01    0.6913404558E-04
    0.1900000000E+05    0.6888509850E-02    0.6958847796E+00    0.1447823585E+00    0.5388183983E-01    0.6956314688E-04
    0.2100000000E+05    0.7024458863E-02    0.6958922641E+00    0.1506675067E+00    0.5718700625E-01    0.6995149681E-04
    0.2300000000E+05    0.7126451364E-02    0.6958984153E+00    0.1558713167E+00    0.6028931690E-01    0.7030634113E-04
    0.2500000000E+05    0.7201064166E-02    0.6959035554E+00    0.1604986052E+00    0.6321480491E-01    0.7063313699E-04
    0.2700000000E+05    0.7253449523E-02    0.6959079111E+00    0.1646338715E+00    0.6598488633E-01    0.7093609893E-04
    0.2900000000E+05    0.7287685431E-02    0.6959116460E+00    0.1683459839E+00    0.6861736841E-01    0.7121855089E-04
    0.3100000000E+05    0.7307029477E-02    0.6959148817E+00    0.1716916272E+00    0.7112720137E-01    0.7148316153E-04
    0.3300000000E+05    0.7314105517E-02    0.6959177098E+00    0.1747178775E+00    0.7352704710E-01    0.7173210652E-04
    0.3500000000E+05    0.7311042782E-02    0.6959202010E+00    0.1774641509E+00    0.7582771525E-01    0.7196718331E-04
    0.3700000000E+05    0.7299580809E-02    0.6959224106E+00    0.1799636970E+00    0.7803850171E-01    0.7218989439E-04
    0.3900000000E+05    0.7281149446E-02    0.6959243826E+00    0.1822447564E+00    0.8016745422E-01    0.7240150870E-04
    0.4100000000E+05    0.7256930498E-02    0.6959261523E+00    0.1843314674E+00    0.8222158305E-01    0.7260310781E-04
    0.4300000000E+05    0.7227905651E-02    0.6959277483E+00    0.1862445828E+00    0.8420702954E-01    0.7279562126E-04
    0.4500000000E+05    0.7194894060E-02    0.6959291941E+00    0.1880020413E+00    0.8612920229E-01    0.7297985387E-04
    0.4700000000E+05    0.7158582060E-02    0.6959305092E+00    0.1896194277E+00    0.8799288794E-01    0.7315650720E-04
    0.4900000000E+05    0.7119546828E-02    0.6959317100E+00    0.1911103451E+00    0.8980234204E-01    0.7332619652E-04
    0.1000000000E+05    0.5553873621E-02    0.6958129111E+00    0.1053238846E+00    0.3541876337E-01    0.6712220289E-04
    0.3000000000E+05    0.7299041917E-02    0.6959133200E+00    0.1700614721E+00    0.6988677669E-01    0.7135294037E-04
    0.5000000000E+05    0.7099163268E-02    0.6959322719E+00    0.1918121630E+00    0.9068793565E-01    0.7340860178E-04
    0.7000000000E+05    0.6633228143E-02    0.6959399200E+00    0.2014489643E+00    0.1062920661E+00    0.7479467037E-04
    0.9000000000E+05    0.6158449354E-02    0.6959439035E+00    0.2061011635E+00    0.1191091170E+00    0.7584691592E-04
    0.1100000000E+06    0.5725898385E-02    0.6959462679E+00    0.2082768228E+00    0.1301576242E+00    0.7669770586E-04
    0.1300000000E+06    0.5342355834E-02    0.6959477856E+00    0.2090754375E+00    0.1399664289E+00    0.7741322854E-04
    0.1500000000E+06    0.5003906333E-02    0.6959488105E+00    0.2090501673E+00    0.1488475386E+00    0.7803145115E-04
    0.1700000000E+06    0.4704506085E-02    0.6959495263E+00    0.2085069341E+00    0.1570018027E+00    0.7857621954E-04
    0.1900000000E+06    0.4438325476E-02    0.6959500375E+00    0.2076270018E+00    0.1645669546E+00    0.7906351191E-04
    0.2100000000E+06    0.4200324160E-02    0.6959504074E+00    0.2065235297E+00    0.1716420783E+00    0.7950456863E-04
    0.2300000000E+06    0.3986299018E-02    0.6959506765E+00    0.2052700901E+00    0.1783011750E+00    0.7990760330E-04
    0.2500000000E+06    0.3792784662E-02    0.6959508717E+00    0.2039160817E+00    0.1846012006E+00    0.8027880367E-04
    0.2700000000E+06    0.3616927249E-02    0.6959510116E+00    0.2024955389E+00    0.1905870852E+00    0.8062294966E-04
    0.2900000000E+06    0.3456368551E-02    0.6959511094E+00    0.2010324011E+00    0.1962950085E+00    0.8094381182E-04
    0.3100000000E+06    0.3309149204E-02    0.6959511746E+00    0.1995437884E+00    0.2017546143E+00    0.8124441785E-04
    0.3300000000E+06    0.3173630901E-02    0.6959512143E+00    0.1980421047E+00    0.2069905558E+00    0.8152723647E-04
    0.3500000000E+06    0.3048434727E-02    0.6959512339E+00    0.1965364260E+00    0.2120236011E+00    0.8179430750E-04
    0.3700000000E+06    0.2932392469E-02    0.6959512373E+00    0.1950334388E+00    0.2168714435E+00    0.8204733618E-04
    0.3900000000E+06    0.2824508132E-02    0.6959512277E+00    0.1935380890E+00    0.2215493068E+00    0.8228776284E-04
    0.4100000000E+06    0.2723927402E-02    0.6959512077E+00    0.1920540375E+00    0.2260704057E+00    0.8251681521E-04
    0.4300000000E+06    0.2629913281E-02    0.6959511792E+00    0.1905839863E+00    0.2304463007E+00    0.8273554855E-04
    0.4500000000E+06    0.2541826533E-02    0.6959511437E+00    0.1891299152E+00    0.2346871775E+00    0.8294487657E-04
    0.4700000000E+06    0.2459109895E-02    0.6959511025E+00    0.1876932554E+00    0.2388020668E+00    0.8314559578E-04
    0.4900000000E+06    0.2381275235E-02    0.6959510567E+00    0.1862750189E+00    0.2427990222E+00    0.8333840479E-04
    0.1000000000E+06    0.5936035910E-02    0.6959452250E+00    0.2074113714E+00    0.1248143885E+00    0.7629243579E-04
    0.3000000000E+06    0.3381200584E-02    0.6959511456E+00    0.2002904123E+00    0.1990542080E+00    0.8109648119E-04
    0.5000000000E+06    0.2344052385E-02    0.6959510323E+00    0.1855730355E+00    0.2447555600E+00    0.8343203840E-04
    0.7000000000E+06    0.1774608619E-02    0.6959504414E+00    0.1725646904E+00    0.2791160806E+00    0.8500704057E-04
    0.9000000000E+06    0.1412600332E-02    0.6959498100E+00    0.1613757367E+00    0.3068377919E+00    0.8620278633E-04
    0.1100000000E+07    0.1162043846E-02    0.6959492134E+00    0.1516789720E+00    0.3300639268E+00    0.8716963409E-04
    0.1300000000E+07    0.9786639853E-03    0.6959486643E+00    0.1431829691E+00    0.3499974456E+00    0.8798277897E-04
    0.1500000000E+07    0.8390098441E-03    0.6959481611E+00    0.1356632779E+00    0.3673975101E+00    0.8868535828E-04
    0.1700000000E+07    0.7294326689E-03    0.6959476989E+00    0.1289491146E+00    0.3827808197E+00    0.8930446657E-04
    0.1900000000E+07    0.6414247011E-03    0.6959472724E+00    0.1229089608E+00    0.3965181109E+00    0.8985825963E-04
    0.2100000000E+07    0.5693982243E-03    0.6959468770E+00    0.1174398381E+00    0.4088859518E+00    0.9035951010E-04
    0.2300000000E+07    0.5095289627E-03    0.6959465088E+00    0.1124597794E+00    0.4200969230E+00    0.9081755143E-04
    0.2500000000E+07    0.4591107521E-03    0.6959461643E+00    0.1079025591E+00    0.4303183395E+00    0.9123941519E-04
    0.2700000000E+07    0.4161750538E-03    0.6959458408E+00    0.1037139527E+00    0.4396844496E+00    0.9163053319E-04
    0.2900000000E+07    0.3792562487E-03    0.6959455358E+00    0.9984903695E-01    0.4483047034E+00    0.9199519026E-04
    0.3100000000E+07    0.3472412905E-03    0.6959452474E+00    0.9627020526E-01    0.4562695454E+00    0.9233682712E-04
    0.3300000000E+07    0.3192702668E-03    0.6959449739E+00    0.9294568390E-01    0.4636545821E+00    0.9265824924E-04
    0.3500000000E+07    0.2946687977E-03    0.6959447139E+00    0.8984840501E-01    0.4705236535E+00    0.9296177476E-04
    0.3700000000E+07    0.2729009676E-03    0.6959444659E+00    0.8695513834E-01    0.4769311391E+00    0.9324934156E-04
    0.3900000000E+07    0.2535358606E-03    0.6959442290E+00    0.8424581360E-01    0.4829237223E+00    0.9352258646E-04
    0.4100000000E+07    0.2362233219E-03    0.6959440022E+00    0.8170298524E-01    0.4885417582E+00    0.9378290476E-04
    0.4300000000E+07    0.2206761107E-03    0.6959437846E+00    0.7931140522E-01    0.4938203506E+00    0.9403149566E-04
    0.4500000000E+07    0.2066565614E-03    0.6959435756E+00    0.7705767862E-01    0.4987902080E+00    0.9426939758E-04
    0.4700000000E+07    0.1939664820E-03    0.6959433744E+00    0.7492998359E-01    0.5034783327E+00    0.9449751572E-04
    0.4900000000E+07    0.1824394094E-03    0.6959431806E+00    0.7291784174E-01    0.5079085802E+00    0.9471664403E-04
    0.1000000000E+07    0.1276852100E-02    0.6959495059E+00    0.1563606952E+00    0.3189236504E+00    0.8670907743E-04
    0.3000000000E+07    0.3626945520E-03    0.6959453897E+00    0.9802596849E-01    0.4523640181E+00    0.9216869796E-04
    0.5000000000E+07    0.1770671511E-03    0.6959430862E+00    0.7195214874E-01    0.5100337089E+00    0.9482305908E-04
    0.7000000000E+07    0.1057908758E-03    0.6959414802E+00    0.5690462440E-01    0.5430656742E+00    0.9661306026E-04
    0.9000000000E+07    0.7059679761E-04    0.6959402419E+00    0.4706943523E-01    0.5645844656E+00    0.9797203680E-04
    0.1100000000E+08    0.5056170443E-04    0.6959392317E+00    0.4012919394E-01    0.5797415287E+00    0.9907086964E-04
    0.1300000000E+08    0.3804410726E-04    0.6959383770E+00    0.3496739458E-01    0.5910016469E+00    0.9999501792E-04
    0.1500000000E+08    0.2968932044E-04    0.6959376354E+00    0.3097751216E-01    0.5996985330E+00    0.1007935073E-03
    0.1700000000E+08    0.2383006177E-04    0.6959369798E+00    0.2780106468E-01    0.6066184932E+00    0.1014971310E-03
    0.1900000000E+08    0.1955947328E-04    0.6959363919E+00    0.2521238479E-01    0.6122556573E+00    0.1021265232E-03
    0.2100000000E+08    0.1634912223E-04    0.6959358588E+00    0.2306225827E-01    0.6169363380E+00    0.1026962001E-03
    0.2300000000E+08    0.1387383675E-04    0.6959353707E+00    0.2124805001E-01    0.6208847712E+00    0.1032167693E-03
    0.2500000000E+08    0.1192446059E-04    0.6959349206E+00    0.1969683446E-01    0.6242601644E+00    0.1036962222E-03
    0.2700000000E+08    0.1036142548E-04    0.6959345028E+00    0.1835536725E-01    0.6271786889E+00    0.1041407321E-03
