  Pressure (Pa) 23mC5-500 (mol/kg) 24mC5-500 (mol/kg) 2mC6-500 (mol/kg) 3mC6-500 (mol/kg) C7-500 (mol/kg)
    0.1000000000E+01    0.2295146883E-05    0.3666011001E-01    0.7009169054E-05    0.8007678595E-05    0.4197095752E-02
    0.3000000000E+01    0.6054378198E-05    0.9948672462E-01    0.1809536288E-04    0.2050119377E-04    0.4264829577E-02
    0.5000000000E+01    0.9021542788E-05    0.1513687815E+00    0.2654651203E-04    0.3201676334E-04    0.4318098635E-02
    0.7000000000E+01    0.1140950908E-04    0.1949371592E+00    0.3313218753E-04    0.4307046641E-04    0.4362602062E-02
    0.9000000000E+01    0.1336141507E-04    0.2320420503E+00    0.3835486493E-04    0.5383616817E-04    0.4400491743E-02
    0.1100000000E+02    0.1497816388E-04    0.2640225397E+00    0.4256133650E-04    0.6440076798E-04    0.4433176311E-02
    0.1300000000E+02    0.1633292476E-04    0.2918716943E+00    0.4599809345E-04    0.7481594006E-04    0.4461670871E-02
    0.1500000000E+02    0.1747994672E-04    0.3163415452E+00    0.4884424705E-04    0.8511571117E-04    0.4486736099E-02
    0.1700000000E+02    0.1846020716E-04    0.3380120350E+00    0.5123232982E-04    0.9532406185E-04    0.4508956158E-02
    0.1900000000E+02    0.1930515983E-04    0.3573375789E+00    0.5326193460E-04    0.1054587368E-03    0.4528788089E-02
    0.2100000000E+02    0.2003929023E-04    0.3746792846E+00    0.5500891008E-04    0.1155333592E-03    0.4546595025E-02
    0.2300000000E+02    0.2068189805E-04    0.3903277323E+00    0.5653170374E-04    0.1255586941E-03    0.4562669335E-02
    0.2500000000E+02    0.2124836536E-04    0.4045193920E+00    0.5787582367E-04    0.1355434489E-03    0.4577249165E-02
    0.2700000000E+02    0.2175107464E-04    0.4174486583E+00    0.5907703120E-04    0.1454948029E-03    0.4590530522E-02
    0.2900000000E+02    0.2220008390E-04    0.4292768106E+00    0.6016366042E-04    0.1554187724E-03    0.4602676243E-02
    0.3100000000E+02    0.2260363001E-04    0.4401387764E+00    0.6115832638E-04    0.1653204690E-03    0.4613822755E-02
    0.3300000000E+02    0.2296850891E-04    0.4501483025E+00    0.6207919877E-04    0.1752042876E-03    0.4624085245E-02
    0.3500000000E+02    0.2330036593E-04    0.4594019543E+00    0.6294096208E-04    0.1850740468E-03    0.4633561651E-02
    0.3700000000E+02    0.2360392006E-04    0.4679822418E+00    0.6375554700E-04    0.1949330952E-03    0.4642335792E-02
    0.3900000000E+02    0.2388313868E-04    0.4759600873E+00    0.6453269265E-04    0.2047843934E-03    0.4650479833E-02
    0.4100000000E+02    0.2414137506E-04    0.4833967904E+00    0.6528038259E-04    0.2146305785E-03    0.4658056248E-02
    0.4300000000E+02    0.2438147740E-04    0.4903456068E+00    0.6600518556E-04    0.2244740153E-03    0.4665119402E-02
    0.4500000000E+02    0.2460587593E-04    0.4968530258E+00    0.6671252380E-04    0.2343168369E-03    0.4671716831E-02
    0.4700000000E+02    0.2481665308E-04    0.5029598117E+00    0.6740688567E-04    0.2441609787E-03    0.4677890286E-02
    0.4900000000E+02    0.2501560029E-04    0.5087018590E+00    0.6809199532E-04    0.2540082053E-03    0.4683676593E-02
    0.1000000000E+02    0.1420658398E-04    0.2486041190E+00    0.4056783162E-04    0.5913983088E-04    0.4417414061E-02
    0.3000000000E+02    0.2240708511E-04    0.4348210130E+00    0.6067126155E-04    0.1603721152E-03    0.4608366755E-02
    0.5000000000E+02    0.2511112953E-04    0.5114461674E+00    0.6843206947E-04    0.2589334859E-03    0.4686434902E-02
    0.7000000000E+02    0.2668206139E-04    0.5532304107E+00    0.7526915907E-04    0.3579334510E-03    0.4727509406E-02
    0.9000000000E+02    0.2799454698E-04    0.5795351580E+00    0.8273356716E-04    0.4585149122E-03    0.4751593153E-02
    0.1100000000E+03    0.2929724363E-04    0.5976179170E+00    0.9103416590E-04    0.5613298404E-03    0.4766309466E-02
    0.1300000000E+03    0.3067366710E-04    0.6108124624E+00    0.1001439086E-03    0.6668402523E-03    0.4775212274E-02
    0.1500000000E+03    0.3215415475E-04    0.6208648149E+00    0.1100042016E-03    0.7754207625E-03    0.4780186276E-02
    0.1700000000E+03    0.3375000882E-04    0.6287779157E+00    0.1205663824E-03    0.8874033200E-03    0.4782324335E-02
    0.1900000000E+03    0.3546550474E-04    0.6351689194E+00    0.1317980009E-03    0.1003100121E-02    0.4782302513E-02
    0.2100000000E+03    0.3730252464E-04    0.6404384160E+00    0.1436813601E-03    0.1122816875E-02    0.4780559487E-02
    0.2300000000E+03    0.3926245130E-04    0.6448577628E+00    0.1562108633E-03    0.1246861326E-02    0.4777390030E-02
    0.2500000000E+03    0.4134696484E-04    0.6486173095E+00    0.1693906903E-03    0.1375549295E-02    0.4772997087E-02
    0.2700000000E+03    0.4355837840E-04    0.6518545273E+00    0.1832330533E-03    0.1509209353E-02    0.4767522390E-02
    0.2900000000E+03    0.4589977606E-04    0.6546711784E+00    0.1977569717E-03    0.1648186748E-02    0.4761065270E-02
    0.3100000000E+03    0.4837506770E-04    0.6571442036E+00    0.2129874509E-03    0.1792846956E-02    0.4753694627E-02
    0.3300000000E+03    0.5098901217E-04    0.6593328551E+00    0.2289549681E-03    0.1943579069E-02    0.4745456791E-02
    0.3500000000E+03    0.5374723261E-04    0.6612835035E+00    0.2456951886E-03    0.2100799189E-02    0.4736380788E-02
    0.3700000000E+03    0.5665623492E-04    0.6630329578E+00    0.2632488607E-03    0.2264953926E-02    0.4726481947E-02
    0.3900000000E+03    0.5972343442E-04    0.6646108091E+00    0.2816618517E-03    0.2436524102E-02    0.4715764378E-02
    0.4100000000E+03    0.6295719342E-04    0.6660411174E+00    0.3009853033E-03    0.2616028731E-02    0.4704222700E-02
    0.4300000000E+03    0.6636687072E-04    0.6673436456E+00    0.3212758875E-03    0.2804029351E-02    0.4691843216E-02
    0.4500000000E+03    0.6996288405E-04    0.6685347783E+00    0.3425961581E-03    0.3001134783E-02    0.4678604699E-02
    0.4700000000E+03    0.7375678602E-04    0.6696282140E+00    0.3650149915E-03    0.3208006377E-02    0.4664478888E-02
    0.4900000000E+03    0.7776135454E-04    0.6706354936E+00    0.3886081166E-03    0.3425363838E-02    0.4649430754E-02
    0.1000000000E+03    0.2863996893E-04    0.5893429401E+00    0.8677929440E-04    0.5096114978E-03    0.4759844685E-02
    0.3000000000E+03    0.4712040778E-04    0.6559465916E+00    0.2052821103E-03    0.1719782775E-02    0.4757490786E-02
    0.5000000000E+03    0.7984699259E-04    0.6711099441E+00    0.4008707288E-03    0.3538217213E-02    0.4641548040E-02
    0.7000000000E+03    0.1371161402E-03    0.6778217110E+00    0.7340582333E-03    0.6590706004E-02    0.4420858886E-02
    0.9000000000E+03    0.2476677456E-03    0.6816065602E+00    0.1371768020E-02    0.1242163870E-01    0.3998691635E-02
    0.1100000000E+04    0.4853761635E-03    0.6840356595E+00    0.2742452113E-02    0.2498750995E-01    0.3135756050E-02
    0.1300000000E+04    0.9102409893E-03    0.6857264063E+00    0.5208263686E-02    0.4776787406E-01    0.1763800705E-02
    0.1500000000E+04    0.1238207230E-02    0.6869707725E+00    0.7152196011E-02    0.6611438169E-01    0.1005468544E-02
    0.1700000000E+04    0.1400717586E-02    0.6879247425E+00    0.8161343309E-02    0.7607031674E-01    0.8778918983E-03
    0.1900000000E+04    0.1520809146E-02    0.6886792224E+00    0.8936011083E-02    0.8398143583E-01    0.8681940095E-03
    0.2100000000E+04    0.1628519862E-02    0.6892907705E+00    0.9648325599E-02    0.9141955056E-01    0.8718271743E-03
    0.2300000000E+04    0.1728263358E-02    0.6897964184E+00    0.1032297833E-01    0.9860538253E-01    0.8765024324E-03
    0.2500000000E+04    0.1820998264E-02    0.6902214269E+00    0.1096467758E-01    0.1055754099E+00    0.8809313011E-03
    0.2700000000E+04    0.1907233299E-02    0.6905836181E+00    0.1157557074E-01    0.1123427802E+00    0.8850276418E-03
    0.2900000000E+04    0.1987394775E-02    0.6908959254E+00    0.1215738766E-01    0.1189172346E+00    0.8888266812E-03
    0.3100000000E+04    0.2061873037E-02    0.6911679617E+00    0.1271170923E-01    0.1253075905E+00    0.8923681094E-03
    0.3300000000E+04    0.2131030121E-02    0.6914070205E+00    0.1324000789E-01    0.1315220855E+00    0.8956852310E-03
    0.3500000000E+04    0.2195202556E-02    0.6916187358E+00    0.1374365959E-01    0.1375684560E+00    0.8988053867E-03
    0.3700000000E+04    0.2254703436E-02    0.6918075280E+00    0.1422395173E-01    0.1434539788E+00    0.9017511952E-03
    0.3900000000E+04    0.2309824244E-02    0.6919769144E+00    0.1468208988E-01    0.1491855055E+00    0.9045415705E-03
    0.4100000000E+04    0.2360836532E-02    0.6921297284E+00    0.1511920403E-01    0.1547694932E+00    0.9071924890E-03
    0.4300000000E+04    0.2407993447E-02    0.6922682778E+00    0.1553635418E-01    0.1602120327E+00    0.9097175685E-03
    0.4500000000E+04    0.2451531131E-02    0.6923944613E+00    0.1593453550E-01    0.1655188748E+00    0.9121285121E-03
    0.4700000000E+04    0.2491670014E-02    0.6925098555E+00    0.1631468306E-01    0.1706954530E+00    0.9144354517E-03
    0.4900000000E+04    0.2528615978E-02    0.6926157801E+00    0.1667767612E-01    0.1757469061E+00    0.9166472181E-03
    0.1000000000E+04    0.3434677691E-03    0.6829406175E+00    0.1923779081E-02    0.1747569265E-01    0.3643517599E-02
    0.3000000000E+04    0.2025321056E-02    0.6910364762E+00    0.1243789097E-01    0.1221348977E+00    0.8906273604E-03
    0.5000000000E+04    0.2545952247E-02    0.6926655461E+00    0.1685300022E-01    0.1782272408E+00    0.9177198687E-03
    0.7000000000E+04    0.2765565263E-02    0.6933603972E+00    0.1963584439E-01    0.2223183921E+00    0.9356403932E-03
    0.9000000000E+04    0.2821673614E-02    0.6937438203E+00    0.2139837949E-01    0.2581057040E+00    0.9491225070E-03
    0.1100000000E+05    0.2787877248E-02    0.6939859643E+00    0.2249647060E-01    0.2878753007E+00    0.9599663188E-03
    0.1300000000E+05    0.2705194695E-02    0.6941522473E+00    0.2314837459E-01    0.3131223743E+00    0.9690548801E-03
    0.1500000000E+05    0.2597145953E-02    0.6942731606E+00    0.2349370038E-01    0.3348698277E+00    0.9768886664E-03
    0.1700000000E+05    0.2477460797E-02    0.6943648198E+00    0.2362481787E-01    0.3538436753E+00    0.9837794077E-03
    0.1900000000E+05    0.2354213665E-02    0.6944365368E+00    0.2360454573E-01    0.3705752025E+00    0.9899347153E-03
    0.2100000000E+05    0.2232130791E-02    0.6944940640E+00    0.2347658095E-01    0.3854633303E+00    0.9954999626E-03
    0.2300000000E+05    0.2113919706E-02    0.6945411443E+00    0.2327189088E-01    0.3988142326E+00    0.1000580988E-02
    0.2500000000E+05    0.2001055903E-02    0.6945803171E+00    0.2301276153E-01    0.4108673754E+00    0.1005257289E-02
    0.2700000000E+05    0.1894258465E-02    0.6946133647E+00    0.2271543483E-01    0.4218131454E+00    0.1009590127E-02
    0.2900000000E+05    0.1793782628E-02    0.6946415749E+00    0.2239186914E-01    0.4318050959E+00    0.1013627726E-02
    0.3100000000E+05    0.1699602174E-02    0.6946659004E+00    0.2205093985E-01    0.4409686496E+00    0.1017408743E-02
    0.3300000000E+05    0.1611524194E-02    0.6946870612E+00    0.2169927362E-01    0.4494074090E+00    0.1020964650E-02
    0.3500000000E+05    0.1529261705E-02    0.6947056113E+00    0.2134183772E-01    0.4572078151E+00    0.1024321419E-02
    0.3700000000E+05    0.1452479619E-02    0.6947219836E+00    0.2098236247E-01    0.4644426428E+00    0.1027500735E-02
    0.3900000000E+05    0.1380823701E-02    0.6947365213E+00    0.2062364813E-01    0.4711736618E+00    0.1030520896E-02
    0.4100000000E+05    0.1313938588E-02    0.6947495000E+00    0.2026779037E-01    0.4774536889E+00    0.1033397487E-02
    0.4300000000E+05    0.1251478712E-02    0.6947611433E+00    0.1991634767E-01    0.4833281902E+00    0.1036143891E-02
    0.4500000000E+05    0.1193114647E-02    0.6947716345E+00    0.1957046689E-01    0.4888365449E+00    0.1038771688E-02
    0.4700000000E+05    0.1138536479E-02    0.6947811254E+00    0.1923097807E-01    0.4940130538E+00    0.1041290965E-02
    0.4900000000E+05    0.1087455274E-02    0.6947897426E+00    0.1889846669E-01    0.4988877493E+00    0.1043710566E-02
    0.1000000000E+05    0.2812912730E-02    0.6938772356E+00    0.2201448945E-01    0.2736354124E+00    0.9548064570E-03
    0.3000000000E+05    0.1745914639E-02    0.6946541737E+00    0.2222311595E-01    0.4364834971E+00    0.1015548194E-02
    0.5000000000E+05    0.1063141558E-02    0.6947937574E+00    0.1873495753E-01    0.5012202996E+00    0.1044885460E-02
    0.7000000000E+05    0.7061519541E-03    0.6948468737E+00    0.1586658847E-01    0.5370300195E+00    0.1064636953E-02
    0.9000000000E+05    0.5016165136E-03    0.6948726213E+00    0.1367741895E-01    0.5599613166E+00    0.1079620968E-02
    0.1100000000E+06    0.3744365491E-03    0.6948865866E+00    0.1198883464E-01    0.5759591764E+00    0.1091731313E-02
    0.1300000000E+06    0.2901761754E-03    0.6948945632E+00    0.1065759286E-01    0.5877751464E+00    0.1101913509E-02
    0.1500000000E+06    0.2315302875E-03    0.6948991613E+00    0.9585198209E-02    0.5968675932E+00    0.1110709414E-02
    0.1700000000E+06    0.1890861422E-03    0.6949017132E+00    0.8704654751E-02    0.6040845711E+00    0.1118459131E-02
    0.1900000000E+06    0.1573814239E-03    0.6949029613E+00    0.7969608079E-02    0.6099539366E+00    0.1125390445E-02
    0.2100000000E+06    0.1330737751E-03    0.6949033472E+00    0.7347239216E-02    0.6148218766E+00    0.1131663540E-02
    0.2300000000E+06    0.1140262829E-03    0.6949031473E+00    0.6813770059E-02    0.6189250682E+00    0.1137395432E-02
    0.2500000000E+06    0.9882148268E-04    0.6949025414E+00    0.6351599667E-02    0.6224309003E+00    0.1142674258E-02
    0.2700000000E+06    0.8648925158E-04    0.6949016503E+00    0.5947444402E-02    0.6254611477E+00    0.1147568089E-02
    0.2900000000E+06    0.7634753109E-04    0.6949005576E+00    0.5591102995E-02    0.6281065429E+00    0.1152130612E-02
    0.3100000000E+06    0.6790545982E-04    0.6948993220E+00    0.5274618285E-02    0.6304360888E+00    0.1156404932E-02
    0.3300000000E+06    0.6080247335E-04    0.6948979857E+00    0.4991696202E-02    0.6325032048E+00    0.1160426192E-02
    0.3500000000E+06    0.5476888716E-04    0.6948965796E+00    0.4737295196E-02    0.6343498954E+00    0.1164223425E-02
    0.3700000000E+06    0.4959972124E-04    0.6948951262E+00    0.4507330888E-02    0.6360096477E+00    0.1167820903E-02
    0.3900000000E+06    0.4513691688E-04    0.6948936426E+00    0.4298460146E-02    0.6375094877E+00    0.1171239121E-02
    0.4100000000E+06    0.4125700621E-04    0.6948921413E+00    0.4107920846E-02    0.6388714684E+00    0.1174495553E-02
    0.4300000000E+06    0.3786240391E-04    0.6948906321E+00    0.3933411324E-02    0.6401137639E+00    0.1177605213E-02
    0.4500000000E+06    0.3487515422E-04    0.6948891221E+00    0.3772998555E-02    0.6412514868E+00    0.1180581102E-02
    0.4700000000E+06    0.3223237268E-04    0.6948876168E+00    0.3625047392E-02    0.6422973073E+00    0.1183434554E-02
    0.4900000000E+06    0.2988287711E-04    0.6948861204E+00    0.3488165464E-02    0.6432619276E+00    0.1186175506E-02
    0.1000000000E+06    0.4310811331E-03    0.6948806018E+00    0.1278069403E-01    0.5686119009E+00    0.1085963084E-02
    0.3000000000E+06    0.7193908642E-04    0.6948999547E+00    0.5428305427E-02    0.6293071495E+00    0.1154301439E-02
    0.5000000000E+06    0.2880468310E-04    0.6948853766E+00    0.3423495874E-02    0.6437166862E+00    0.1187506576E-02
    0.7000000000E+06    0.1555329866E-04    0.6948714104E+00    0.2495347640E-02    0.6501778081E+00    0.1209894957E-02
    0.9000000000E+06    0.9784632133E-05    0.6948593342E+00    0.1961161857E-02    0.6538447969E+00    0.1226890702E-02
    0.1100000000E+07    0.6756325670E-05    0.6948488755E+00    0.1614347945E-02    0.6562075077E+00    0.1240632150E-02
    0.1300000000E+07    0.4967728737E-05    0.6948396969E+00    0.1371172724E-02    0.6578565149E+00    0.1252188539E-02
    0.1500000000E+07    0.3821845284E-05    0.6948315328E+00    0.1191291048E-02    0.6590726462E+00    0.1262173207E-02
    0.1700000000E+07    0.3042643599E-05    0.6948241854E+00    0.1052877864E-02    0.6600065030E+00    0.1270971362E-02
    0.1900000000E+07    0.2488065618E-05    0.6948175073E+00    0.9431000864E-03    0.6607460988E+00    0.1278841116E-02
    0.2100000000E+07    0.2078873467E-05    0.6948113864E+00    0.8539203066E-03    0.6613463093E+00    0.1285964045E-02
    0.2300000000E+07    0.1768002590E-05    0.6948057362E+00    0.7800491207E-03    0.6618431250E+00    0.1292472827E-02
    0.2500000000E+07    0.1526050335E-05    0.6948004887E+00    0.7178637616E-03    0.6622611304E+00    0.1298467416E-02
    0.2700000000E+07    0.1333869598E-05    0.6947955894E+00    0.6647999440E-03    0.6626176905E+00    0.1304025023E-02
    0.2900000000E+07    0.1178551010E-05    0.6947909944E+00    0.6189918063E-03    0.6629254190E+00    0.1309206554E-02
    0.3100000000E+07    0.1051130120E-05    0.6947866673E+00    0.5790494151E-03    0.6631936990E+00    0.1314060916E-02
    0.3300000000E+07    0.9452217884E-06    0.6947825780E+00    0.5439162004E-03    0.6634296552E+00    0.1318627985E-02
    0.3500000000E+07    0.8561764892E-06    0.6947787012E+00    0.5127747227E-03    0.6636387943E+00    0.1322940709E-02
    0.3700000000E+07    0.7805422503E-06    0.6947750155E+00    0.4849826826E-03    0.6638254399E+00    0.1327026634E-02
    0.3900000000E+07    0.7157118466E-06    0.6947715025E+00    0.4600284270E-03    0.6639930339E+00    0.1330909022E-02
    0.4100000000E+07    0.6596857243E-06    0.6947681463E+00    0.4374993587E-03    0.6641443499E+00    0.1334607706E-02
    0.4300000000E+07    0.6109091809E-06    0.6947649332E+00    0.4170590858E-03    0.6642816487E+00    0.1338139730E-02
    0.4500000000E+07    0.5681583365E-06    0.6947618512E+00    0.3984306155E-03    0.6644067906E+00    0.1341519851E-02
    0.4700000000E+07    0.5304588613E-06    0.6947588898E+00    0.3813838052E-03    0.6645213210E+00    0.1344760936E-02
    0.4900000000E+07    0.4970271166E-06    0.6947560397E+00    0.3657258661E-03    0.6646265341E+00    0.1347874268E-02
    0.1000000000E+07    0.8055170432E-05    0.6948539252E+00    0.1771070131E-02    0.6551414766E+00    0.1234086519E-02
    0.3000000000E+07    0.1111801105E-05    0.6947887993E+00    0.5983599553E-03    0.6630640006E+00    0.1311671955E-02
    0.5000000000E+07    0.4817080136E-06    0.6947546538E+00    0.3583658637E-03    0.6646759948E+00    0.1349386183E-02
    0.7000000000E+07    0.2936618003E-06    0.6947311804E+00    0.2553064210E-03    0.6653691018E+00    0.1374817125E-02
    0.9000000000E+07    0.2103574821E-06    0.6947131928E+00    0.1980828759E-03    0.6657546381E+00    0.1394123294E-02
    0.1100000000E+08    0.1650411864E-06    0.6946985662E+00    0.1617103532E-03    0.6660001309E+00    0.1409733062E-02
    0.1300000000E+08    0.1370564689E-06    0.6946862171E+00    0.1365624944E-03    0.6661701513E+00    0.1422860822E-02
    0.1500000000E+08    0.1182203045E-06    0.6946755165E+00    0.1181450501E-03    0.6662948671E+00    0.1434203215E-02
    0.1700000000E+08    0.1047287835E-06    0.6946660661E+00    0.1040790328E-03    0.6663902605E+00    0.1444197787E-02
    0.1900000000E+08    0.9460218298E-07    0.6946575973E+00    0.9298770044E-04    0.6664655880E+00    0.1453137729E-02
    0.2100000000E+08    0.8671945318E-07    0.6946499204E+00    0.8401925379E-04    0.6665265813E+00    0.1461229295E-02
    0.2300000000E+08    0.8040276202E-07    0.6946428961E+00    0.7661851764E-04    0.6665769794E+00    0.1468623199E-02
    0.2500000000E+08    0.7522018373E-07    0.6946364192E+00    0.7040822041E-04    0.6666193247E+00    0.1475432987E-02
    0.2700000000E+08    0.7088440421E-07    0.6946304083E+00    0.6512305200E-04    0.6666554067E+00    0.1481746365E-02
