  Pressure (Pa) 23mC5-500 (mol/kg) 24mC5-500 (mol/kg) 2mC6-500 (mol/kg) 3mC6-500 (mol/kg) C7-500 (mol/kg)
    0.1000000000E+01    0.2162127641E-05    0.6964832165E-01    0.3281644550E-04    0.8002918711E-06    0.4195819375E-02
    0.3000000000E+01    0.5174675967E-05    0.1740706590E+00    0.7606448370E-04    0.2046793260E-05    0.4253602353E-02
    0.5000000000E+01    0.7154215136E-05    0.2486234924E+00    0.1027992400E-03    0.3193381754E-05    0.4292767627E-02
    0.7000000000E+01    0.8528324488E-05    0.3045209155E+00    0.1204303275E-03    0.4291848765E-05    0.4322036714E-02
    0.9000000000E+01    0.9523117879E-05    0.3479875400E+00    0.1327131368E-03    0.5359677006E-05    0.4344849380E-02
    0.1100000000E+02    0.1026854765E-04    0.3827557417E+00    0.1417167228E-03    0.6405617318E-05    0.4363161512E-02
    0.1300000000E+02    0.1084389020E-04    0.4111995194E+00    0.1486482920E-03    0.7434879176E-05    0.4378198126E-02
    0.1500000000E+02    0.1129980150E-04    0.4349009461E+00    0.1542435752E-03    0.8450895732E-05    0.4390771470E-02
    0.1700000000E+02    0.1166987800E-04    0.4549549809E+00    0.1589665772E-03    0.9456087769E-05    0.4401443087E-02
    0.1900000000E+02    0.1197709453E-04    0.4721435540E+00    0.1631180246E-03    0.1045224697E-04    0.4410614281E-02
    0.2100000000E+02    0.1223756948E-04    0.4870399727E+00    0.1668971177E-03    0.1144074875E-04    0.4418579788E-02
    0.2300000000E+02    0.1246285865E-04    0.5000741518E+00    0.1704381053E-03    0.1242267955E-04    0.4425561125E-02
    0.2500000000E+02    0.1266140178E-04    0.5115748085E+00    0.1738326778E-03    0.1339891753E-04    0.4431728107E-02
    0.2700000000E+02    0.1283946213E-04    0.5217975859E+00    0.1771440706E-03    0.1437018600E-04    0.4437213172E-02
    0.2900000000E+02    0.1300175272E-04    0.5309442902E+00    0.1804161645E-03    0.1533709028E-04    0.4442121177E-02
    0.3100000000E+02    0.1315186326E-04    0.5391763556E+00    0.1836794843E-03    0.1630014380E-04    0.4446536258E-02
    0.3300000000E+02    0.1329255693E-04    0.5466244593E+00    0.1869552257E-03    0.1725978710E-04    0.4450526733E-02
    0.3500000000E+02    0.1342598056E-04    0.5533955142E+00    0.1902580029E-03    0.1821640208E-04    0.4454148676E-02
    0.3700000000E+02    0.1355381570E-04    0.5595778362E+00    0.1935977495E-03    0.1917032268E-04    0.4457448554E-02
    0.3900000000E+02    0.1367738882E-04    0.5652450194E+00    0.1969810508E-03    0.2012184326E-04    0.4460465213E-02
    0.4100000000E+02    0.1379775274E-04    0.5704588817E+00    0.2004120871E-03    0.2107122512E-04    0.4463231387E-02
    0.4300000000E+02    0.1391574758E-04    0.5752717292E+00    0.2038933083E-03    0.2201870166E-04    0.4465774867E-02
    0.4500000000E+02    0.1403204666E-04    0.5797281184E+00    0.2074259201E-03    0.2296448256E-04    0.4468119399E-02
    0.4700000000E+02    0.1414719172E-04    0.5838662400E+00    0.2110102369E-03    0.2390875719E-04    0.4470285405E-02
    0.4900000000E+02    0.1426161983E-04    0.5877190168E+00    0.2146459391E-03    0.2485169735E-04    0.4472290546E-02
    0.1000000000E+02    0.9921189949E-05    0.3662871187E+00    0.1375350514E-03    0.5885002699E-05    0.4354479134E-02
    0.3000000000E+02    0.1307814123E-04    0.5351658570E+00    0.1820474149E-03    0.1581906933E-04    0.4444385739E-02
    0.5000000000E+02    0.1431867829E-04    0.5895474686E+00    0.2164828341E-03    0.2532271648E-04    0.4473237670E-02
    0.7000000000E+02    0.1547891955E-04    0.6163969596E+00    0.2556243058E-03    0.3470481214E-04    0.4486583446E-02
    0.9000000000E+02    0.1672739087E-04    0.6323995858E+00    0.2984016135E-03    0.4407267521E-04    0.4493487099E-02
    0.1100000000E+03    0.1807526074E-04    0.6430238232E+00    0.3437713834E-03    0.5348206114E-04    0.4497020116E-02
    0.1300000000E+03    0.1951246176E-04    0.6505910144E+00    0.3911184725E-03    0.6296793785E-04    0.4498526791E-02
    0.1500000000E+03    0.2102806044E-04    0.6562546271E+00    0.4400911747E-03    0.7255498006E-04    0.4498694082E-02
    0.1700000000E+03    0.2261340643E-04    0.6606526604E+00    0.4904869427E-03    0.8226211343E-04    0.4497911749E-02
    0.1900000000E+03    0.2426215899E-04    0.6641666558E+00    0.5421895935E-03    0.9210479424E-04    0.4496418230E-02
    0.2100000000E+03    0.2596980972E-04    0.6670387926E+00    0.5951349829E-03    0.1020962757E-03    0.4494367864E-02
    0.2300000000E+03    0.2773322668E-04    0.6694301934E+00    0.6492916583E-03    0.1122483673E-03    0.4491864992E-02
    0.2500000000E+03    0.2955030366E-04    0.6714522176E+00    0.7046495551E-03    0.1225719177E-03    0.4488982583E-02
    0.2700000000E+03    0.3141970569E-04    0.6731842966E+00    0.7612131669E-03    0.1330771384E-03    0.4485773043E-02
    0.2900000000E+03    0.3334068670E-04    0.6746846105E+00    0.8189972942E-03    0.1437738287E-03    0.4482274787E-02
    0.3100000000E+03    0.3531295915E-04    0.6759967503E+00    0.8780243323E-03    0.1546715398E-03    0.4478516405E-02
    0.3300000000E+03    0.3733659999E-04    0.6771540205E+00    0.9383225071E-03    0.1657796964E-03    0.4474519403E-02
    0.3500000000E+03    0.3941198248E-04    0.6781823044E+00    0.9999247109E-03    0.1771076927E-03    0.4470300041E-02
    0.3700000000E+03    0.4153972631E-04    0.6791020221E+00    0.1062867729E-02    0.1886649675E-03    0.4465870622E-02
    0.3900000000E+03    0.4372066097E-04    0.6799294999E+00    0.1127191728E-02    0.2004610674E-03    0.4461240390E-02
    0.4100000000E+03    0.4595579877E-04    0.6806779466E+00    0.1192939916E-02    0.2125056997E-03    0.4456416188E-02
    0.4300000000E+03    0.4824631495E-04    0.6813581645E+00    0.1260158337E-02    0.2248087789E-03    0.4451402937E-02
    0.4500000000E+03    0.5059353324E-04    0.6819790727E+00    0.1328895742E-02    0.2373804682E-03    0.4446203993E-02
    0.4700000000E+03    0.5299891540E-04    0.6825481011E+00    0.1399203532E-02    0.2502312179E-03    0.4440821413E-02
    0.4900000000E+03    0.5546405401E-04    0.6830714883E+00    0.1471135750E-02    0.2633718012E-03    0.4435256168E-02
    0.1000000000E+03    0.1738942407E-04    0.6381989921E+00    0.3208088740E-03    0.4876967238E-04    0.4495568638E-02
    0.3000000000E+03    0.3432041433E-04    0.6753619186E+00    0.8483538060E-03    0.1491969659E-03    0.4480426627E-02
    0.5000000000E+03    0.5671956422E-04    0.6833177478E+00    0.1507728635E-02    0.2700542440E-03    0.4432405089E-02
    0.7000000000E+03    0.8546214700E-04    0.6867832062E+00    0.2340497689E-02    0.4219149221E-03    0.4365388678E-02
    0.9000000000E+03    0.1230588329E-03    0.6887225028E+00    0.3423330413E-02    0.6192430316E-03    0.4276007447E-02
    0.1100000000E+04    0.1737500754E-03    0.6899615008E+00    0.4879960459E-02    0.8848396475E-03    0.4155571712E-02
    0.1300000000E+04    0.2447045025E-03    0.6908212953E+00    0.6917739718E-02    0.1256810265E-02    0.3988794854E-02
    0.1500000000E+04    0.3483864218E-03    0.6914527297E+00    0.9896886419E-02    0.1801420988E-02    0.3749490073E-02
    0.1700000000E+04    0.5065278853E-03    0.6919360225E+00    0.1444676589E-01    0.2634771975E-02    0.3393879537E-02
    0.1900000000E+04    0.7531096037E-03    0.6923177668E+00    0.2155691002E-01    0.3940478660E-02    0.2859637827E-02
    0.2100000000E+04    0.1116438709E-02    0.6926268762E+00    0.3207196624E-01    0.5879142515E-02    0.2116018575E-02
    0.2300000000E+04    0.1543230882E-02    0.6928822430E+00    0.4450502274E-01    0.8187144808E-02    0.1324333820E-02
    0.2500000000E+04    0.1889653828E-02    0.6930967330E+00    0.5472592399E-01    0.1010918954E-01    0.7954559431E-03
    0.2700000000E+04    0.2110530022E-02    0.6932794107E+00    0.6139219160E-01    0.1139117076E-01    0.5701725844E-03
    0.2900000000E+04    0.2259460927E-02    0.6934368463E+00    0.6601683744E-01    0.1230486702E-01    0.4961777600E-03
    0.3100000000E+04    0.2378525580E-02    0.6935739184E+00    0.6980349026E-01    0.1306957197E-01    0.4747805251E-03
    0.3300000000E+04    0.2484814322E-02    0.6936943254E+00    0.7324290266E-01    0.1377508336E-01    0.4695167492E-03
    0.3500000000E+04    0.2584167841E-02    0.6938009216E+00    0.7650248026E-01    0.1445199345E-01    0.4690107367E-03
    0.3700000000E+04    0.2678577067E-02    0.6938959456E+00    0.7963848255E-01    0.1511044614E-01    0.4698691090E-03
    0.3900000000E+04    0.2768802505E-02    0.6939811770E+00    0.8267156022E-01    0.1575401535E-01    0.4710879619E-03
    0.4100000000E+04    0.2855212148E-02    0.6940580489E+00    0.8561102721E-01    0.1638418551E-01    0.4723713031E-03
    0.4300000000E+04    0.2938043501E-02    0.6941277279E+00    0.8846247882E-01    0.1700176335E-01    0.4736336366E-03
    0.4500000000E+04    0.3017485758E-02    0.6941911735E+00    0.9123018589E-01    0.1760732283E-01    0.4748523585E-03
    0.4700000000E+04    0.3093706060E-02    0.6942491819E+00    0.9391785832E-01    0.1820134682E-01    0.4760235884E-03
    0.4900000000E+04    0.3166858260E-02    0.6943024195E+00    0.9652889669E-01    0.1878427332E-01    0.4771488443E-03
    0.1000000000E+04    0.1464088493E-03    0.6894035028E+00    0.4094527373E-02    0.7415976326E-03    0.4220435550E-02
    0.3000000000E+04    0.2321255512E-02    0.6935076736E+00    0.6797268184E-01    0.1269811858E-01    0.4821063143E-03
    0.5000000000E+04    0.3202329106E-02    0.6943274284E+00    0.9780667946E-01    0.1907170378E-01    0.4776951208E-03
    0.7000000000E+04    0.3781403851E-02    0.6946763636E+00    0.1200233752E+00    0.2432621023E-01    0.4868560628E-03
    0.9000000000E+04    0.4174609480E-02    0.6948686856E+00    0.1372964406E+00    0.2882605264E-01    0.4937811432E-03
    0.1100000000E+05    0.4444376048E-02    0.6949900417E+00    0.1510804765E+00    0.3276738387E-01    0.4993666109E-03
    0.1300000000E+05    0.4629368690E-02    0.6950733212E+00    0.1623116759E+00    0.3628068701E-01    0.5040565384E-03
    0.1500000000E+05    0.4754578036E-02    0.6951338417E+00    0.1716196659E+00    0.3945658330E-01    0.5081041784E-03
    0.1700000000E+05    0.4836726310E-02    0.6951796940E+00    0.1794433771E+00    0.4236026190E-01    0.5116679577E-03
    0.1900000000E+05    0.4887328438E-02    0.6952155513E+00    0.1860980844E+00    0.4504000854E-01    0.5148537252E-03
    0.2100000000E+05    0.4914506445E-02    0.6952442992E+00    0.1918160391E+00    0.4753248287E-01    0.5177357794E-03
    0.2300000000E+05    0.4924107041E-02    0.6952678146E+00    0.1967720775E+00    0.4986611214E-01    0.5203683181E-03
    0.2500000000E+05    0.4920412923E-02    0.6952873705E+00    0.2011003067E+00    0.5206334668E-01    0.5227921147E-03
    0.2700000000E+05    0.4906608469E-02    0.6953038605E+00    0.2049052950E+00    0.5414220202E-01    0.5250386292E-03
    0.2900000000E+05    0.4885092213E-02    0.6953179296E+00    0.2082697674E+00    0.5611733978E-01    0.5271326548E-03
    0.3100000000E+05    0.4857691112E-02    0.6953300553E+00    0.2112600157E+00    0.5800084187E-01    0.5290940839E-03
    0.3300000000E+05    0.4825810293E-02    0.6953405980E+00    0.2139297784E+00    0.5980277601E-01    0.5309391245E-03
    0.3500000000E+05    0.4790539519E-02    0.6953498352E+00    0.2163230715E+00    0.6153161589E-01    0.5326811613E-03
    0.3700000000E+05    0.4752730043E-02    0.6953579837E+00    0.2184762863E+00    0.6319455831E-01    0.5343313770E-03
    0.3900000000E+05    0.4713050853E-02    0.6953652153E+00    0.2204197685E+00    0.6479776591E-01    0.5358992130E-03
    0.4100000000E+05    0.4672030360E-02    0.6953716679E+00    0.2221790192E+00    0.6634655527E-01    0.5373927135E-03
    0.4300000000E+05    0.4630087629E-02    0.6953774534E+00    0.2237756220E+00    0.6784554454E-01    0.5388187903E-03
    0.4500000000E+05    0.4587556043E-02    0.6953826635E+00    0.2252279650E+00    0.6929877036E-01    0.5401834259E-03
    0.4700000000E+05    0.4544701373E-02    0.6953873741E+00    0.2265518084E+00    0.7070978151E-01    0.5414918339E-03
    0.4900000000E+05    0.4501735727E-02    0.6953916485E+00    0.2277607366E+00    0.7208171452E-01    0.5427485859E-03
    0.1000000000E+05    0.4322098592E-02    0.6949355608E+00    0.1445570443E+00    0.3085721522E-01    0.4967073327E-03
    0.3000000000E+05    0.4872030981E-02    0.6953242106E+00    0.2098080540E+00    0.5706987436E-01    0.5281288560E-03
    0.5000000000E+05    0.4480265613E-02    0.6953936391E+00    0.2283258480E+00    0.7275390957E-01    0.5433588694E-03
    0.7000000000E+05    0.4071292253E-02    0.6954198963E+00    0.2357628433E+00    0.8468414182E-01    0.5536217396E-03
    0.9000000000E+05    0.3721046243E-02    0.6954325244E+00    0.2389828480E+00    0.9461195236E-01    0.5614106765E-03
    0.1100000000E+06    0.3427451601E-02    0.6954393011E+00    0.2402097006E+00    0.1032620148E+00    0.5677073600E-03
    0.1300000000E+06    0.3179791535E-02    0.6954431127E+00    0.2403699163E+00    0.1110096562E+00    0.5730023593E-03
    0.1500000000E+06    0.2968409014E-02    0.6954452571E+00    0.2399128856E+00    0.1180771151E+00    0.5775769683E-03
    0.1700000000E+06    0.2785796453E-02    0.6954463956E+00    0.2390800624E+00    0.1246082567E+00    0.5816078120E-03
    0.1900000000E+06    0.2626276515E-02    0.6954468960E+00    0.2380110579E+00    0.1307023327E+00    0.5852132175E-03
    0.2100000000E+06    0.2485547240E-02    0.6954469765E+00    0.2367911481E+00    0.1364311598E+00    0.5884764141E-03
    0.2300000000E+06    0.2360312557E-02    0.6954467735E+00    0.2354746601E+00    0.1418486629E+00    0.5914582121E-03
    0.2500000000E+06    0.2248012390E-02    0.6954463755E+00    0.2340973593E+00    0.1469965468E+00    0.5942044194E-03
    0.2700000000E+06    0.2146630516E-02    0.6954458417E+00    0.2326834051E+00    0.1519078530E+00    0.5967504187E-03
    0.2900000000E+06    0.2054557854E-02    0.6954452130E+00    0.2312494480E+00    0.1566092897E+00    0.5991241195E-03
    0.3100000000E+06    0.1970494342E-02    0.6954445179E+00    0.2298071401E+00    0.1611228138E+00    0.6013479315E-03
    0.3300000000E+06    0.1893377646E-02    0.6954437771E+00    0.2283647257E+00    0.1654667398E+00    0.6034401261E-03
    0.3500000000E+06    0.1822330672E-02    0.6954430054E+00    0.2269280789E+00    0.1696565364E+00    0.6054157999E-03
    0.3700000000E+06    0.1756622394E-02    0.6954422137E+00    0.2255013965E+00    0.1737054120E+00    0.6072875727E-03
    0.3900000000E+06    0.1695638247E-02    0.6954414101E+00    0.2240876707E+00    0.1776247542E+00    0.6090661034E-03
    0.4100000000E+06    0.1638857481E-02    0.6954406006E+00    0.2226890188E+00    0.1814244651E+00    0.6107604777E-03
    0.4300000000E+06    0.1585835628E-02    0.6954397898E+00    0.2213069156E+00    0.1851132207E+00    0.6123785044E-03
    0.4500000000E+06    0.1536190791E-02    0.6954389810E+00    0.2199423603E+00    0.1886986750E+00    0.6139269448E-03
    0.4700000000E+06    0.1489592817E-02    0.6954381768E+00    0.2185959976E+00    0.1921876227E+00    0.6154116929E-03
    0.4900000000E+06    0.1445754659E-02    0.6954373792E+00    0.2172682069E+00    0.1955861289E+00    0.6168379180E-03
    0.1000000000E+06    0.3567825935E-02    0.6954364075E+00    0.2397711358E+00    0.9906829609E-01    0.5647080637E-03
    0.3000000000E+06    0.2011596230E-02    0.6954448723E+00    0.2305287570E+00    0.1588883213E+00    0.6002535355E-03
    0.5000000000E+06    0.1424790857E-02    0.6954369833E+00    0.2166113388E+00    0.1972531891E+00    0.6175305305E-03
    0.7000000000E+06    0.1103404131E-02    0.6954295975E+00    0.2044324025E+00    0.2269189789E+00    0.6291805876E-03
    0.9000000000E+06    0.8971340091E-03    0.6954232558E+00    0.1938671724E+00    0.2514352934E+00    0.6380249906E-03
    0.1100000000E+07    0.7524786206E-03    0.6954177827E+00    0.1845892933E+00    0.2724256145E+00    0.6451761431E-03
    0.1300000000E+07    0.6450830074E-03    0.6954129897E+00    0.1763409985E+00    0.2908022992E+00    0.6511903313E-03
    0.1500000000E+07    0.5621028351E-03    0.6954087326E+00    0.1689317572E+00    0.3071421265E+00    0.6563866689E-03
    0.1700000000E+07    0.4960602910E-03    0.6954049057E+00    0.1622192997E+00    0.3218388497E+00    0.6609655851E-03
    0.1900000000E+07    0.4422800737E-03    0.6954014303E+00    0.1560950133E+00    0.3351762379E+00    0.6650613830E-03
    0.2100000000E+07    0.3976769089E-03    0.6953982470E+00    0.1504741023E+00    0.3473671878E+00    0.6687685432E-03
    0.2300000000E+07    0.3601267109E-03    0.6953953102E+00    0.1452890230E+00    0.3585764523E+00    0.6721561053E-03
    0.2500000000E+07    0.3281163454E-03    0.6953925841E+00    0.1404850252E+00    0.3689347005E+00    0.6752760813E-03
    0.2700000000E+07    0.3005371584E-03    0.6953900400E+00    0.1360170559E+00    0.3785476581E+00    0.6781686494E-03
    0.2900000000E+07    0.2765574738E-03    0.6953876547E+00    0.1318475553E+00    0.3875022931E+00    0.6808655033E-03
    0.3100000000E+07    0.2555407543E-03    0.6953854093E+00    0.1279448540E+00    0.3958711435E+00    0.6833920932E-03
    0.3300000000E+07    0.2369913227E-03    0.6953832880E+00    0.1242819837E+00    0.4037154319E+00    0.6857691700E-03
    0.3500000000E+07    0.2205173390E-03    0.6953812774E+00    0.1208357781E+00    0.4110873600E+00    0.6880138801E-03
    0.3700000000E+07    0.2058049240E-03    0.6953793665E+00    0.1175861829E+00    0.4180318354E+00    0.6901405571E-03
    0.3900000000E+07    0.1925996846E-03    0.6953775455E+00    0.1145157172E+00    0.4245877940E+00    0.6921613078E-03
    0.4100000000E+07    0.1806932722E-03    0.6953758062E+00    0.1116090493E+00    0.4307892289E+00    0.6940864522E-03
    0.4300000000E+07    0.1699134378E-03    0.6953741414E+00    0.1088526569E+00    0.4366660018E+00    0.6959248605E-03
    0.4500000000E+07    0.1601165635E-03    0.6953725448E+00    0.1062345532E+00    0.4422444919E+00    0.6976842129E-03
    0.4700000000E+07    0.1511819771E-03    0.6953710110E+00    0.1037440633E+00    0.4475481190E+00    0.6993712047E-03
    0.4900000000E+07    0.1430075695E-03    0.6953695351E+00    0.1013716406E+00    0.4525977715E+00    0.7009917082E-03
    0.1000000000E+07    0.8190122015E-03    0.6954204235E+00    0.1890852283E+00    0.2623036111E+00    0.6417697214E-03
    0.3000000000E+07    0.2657125247E-03    0.6953865156E+00    0.1298646387E+00    0.3917558799E+00    0.6821486888E-03
    0.5000000000E+07    0.1391777438E-03    0.6953688175E+00    0.1002269915E+00    0.4550332804E+00    0.7017786694E-03
    0.7000000000E+07    0.8691479309E-04    0.6953566722E+00    0.8184935190E-01    0.4940698780E+00    0.7150158835E-03
    0.9000000000E+07    0.5979913476E-04    0.6953473762E+00    0.6923173379E-01    0.5208124101E+00    0.7250653668E-03
    0.1100000000E+08    0.4379881429E-04    0.6953398239E+00    0.6000344441E-01    0.5403478073E+00    0.7331909494E-03
    0.1300000000E+08    0.3352603878E-04    0.6953334525E+00    0.5295046988E-01    0.5552670670E+00    0.7400246705E-03
    0.1500000000E+08    0.2652130493E-04    0.6953279352E+00    0.4738086219E-01    0.5670425812E+00    0.7459291086E-03
    0.1700000000E+08    0.2152338393E-04    0.6953230654E+00    0.4286955965E-01    0.5765771480E+00    0.7511319967E-03
    0.1900000000E+08    0.1782847544E-04    0.6953187037E+00    0.3914039182E-01    0.5844565877E+00    0.7557859348E-03
    0.2100000000E+08    0.1501761891E-04    0.6953147518E+00    0.3600588176E-01    0.5910782189E+00    0.7599982763E-03
    0.2300000000E+08    0.1282830617E-04    0.6953111375E+00    0.3333417601E-01    0.5967212868E+00    0.7638474677E-03
    0.2500000000E+08    0.1108905254E-04    0.6953078063E+00    0.3102978841E-01    0.6015879095E+00    0.7673926083E-03
    0.2700000000E+08    0.9683882019E-05    0.6953047160E+00    0.2902184524E-01    0.6058280445E+00    0.7706793509E-03
