  Pressure (Pa) 23mC5-500 (mol/kg) 24mC5-500 (mol/kg) 2mC6-500 (mol/kg) 3mC6-500 (mol/kg) C7-500 (mol/kg)
    0.1000000000E+01    0.1885275709E-05    0.1514041989E+00    0.2012595283E-04    0.4084168706E-05    0.4145993306E-02
    0.3000000000E+01    0.3671118378E-05    0.3164954206E+00    0.3751968077E-04    0.1008337040E-04    0.4171658237E-02
    0.5000000000E+01    0.4500683268E-05    0.4047700842E+00    0.4527769394E-04    0.1552662180E-04    0.4178751567E-02
    0.7000000000E+01    0.4976829961E-05    0.4597244782E+00    0.5006616189E-04    0.2070901971E-04    0.4182108520E-02
    0.9000000000E+01    0.5296264901E-05    0.4972296507E+00    0.5380734372E-04    0.2572798832E-04    0.4183915469E-02
    0.1100000000E+02    0.5538520061E-05    0.5244580044E+00    0.5717673367E-04    0.3063171059E-04    0.4184906818E-02
    0.1300000000E+02    0.5740325427E-05    0.5451246554E+00    0.6043855901E-04    0.3544862991E-04    0.4185411409E-02
    0.1500000000E+02    0.5920247132E-05    0.5613465521E+00    0.6370133065E-04    0.4019737006E-04    0.4185601185E-02
    0.1700000000E+02    0.6088291098E-05    0.5744184135E+00    0.6700913933E-04    0.4489099444E-04    0.4185575495E-02
    0.1900000000E+02    0.6250104584E-05    0.5851765982E+00    0.7037794465E-04    0.4953912960E-04    0.4185395945E-02
    0.2100000000E+02    0.6408980617E-05    0.5941854526E+00    0.7381113133E-04    0.5414913824E-04    0.4185102827E-02
    0.2300000000E+02    0.6566880861E-05    0.6018395814E+00    0.7730653777E-04    0.5872681778E-04    0.4184723616E-02
    0.2500000000E+02    0.6724986406E-05    0.6084232031E+00    0.8085973885E-04    0.6327684135E-04    0.4184277688E-02
    0.2700000000E+02    0.6884007576E-05    0.6141462267E+00    0.8446560005E-04    0.6780304904E-04    0.4183779091E-02
    0.2900000000E+02    0.7044364558E-05    0.6191670475E+00    0.8811900476E-04    0.7230864786E-04    0.4183238254E-02
    0.3100000000E+02    0.7206295885E-05    0.6236074363E+00    0.9181517711E-04    0.7679635312E-04    0.4182663072E-02
    0.3300000000E+02    0.7369925209E-05    0.6275625465E+00    0.9554980507E-04    0.8126849129E-04    0.4182059627E-02
    0.3500000000E+02    0.7535303239E-05    0.6311078103E+00    0.9931906582E-04    0.8572707636E-04    0.4181432673E-02
    0.3700000000E+02    0.7702434525E-05    0.6343037958E+00    0.1031196051E-03    0.9017386774E-04    0.4180785977E-02
    0.3900000000E+02    0.7871294772E-05    0.6371996969E+00    0.1069484966E-03    0.9461041494E-04    0.4180122557E-02
    0.4100000000E+02    0.8041842146E-05    0.6398358834E+00    0.1108031957E-03    0.9903809244E-04    0.4179444859E-02
    0.4300000000E+02    0.8214024701E-05    0.6422457945E+00    0.1146814922E-03    0.1034581275E-03    0.4178754879E-02
    0.4500000000E+02    0.8387785259E-05    0.6444573652E+00    0.1185814674E-03    0.1078716223E-03    0.4178054263E-02
    0.4700000000E+02    0.8563064613E-05    0.6464941136E+00    0.1225014552E-03    0.1122795721E-03    0.4177344378E-02
    0.4900000000E+02    0.8739803612E-05    0.6483759811E+00    0.1264400080E-03    0.1166828800E-03    0.4176626366E-02
    0.1000000000E+02    0.5424143036E-05    0.5118450036E+00    0.5551661543E-04    0.2819217340E-04    0.4184487267E-02
    0.3000000000E+02    0.7125123591E-05    0.6214533178E+00    0.8996202597E-04    0.7455458366E-04    0.4182954540E-02
    0.5000000000E+02    0.8828702346E-05    0.6492642524E+00    0.1284158460E-03    0.1188830533E-03    0.4176264618E-02
    0.7000000000E+02    0.1067073999E-04    0.6619608730E+00    0.1686774363E-03    0.1628100760E-03    0.4168770713E-02
    0.9000000000E+02    0.1261058333E-04    0.6692317131E+00    0.2100486988E-03    0.2069024213E-03    0.4160994727E-02
    0.1100000000E+03    0.1462754521E-04    0.6739424472E+00    0.2523590464E-03    0.2514598494E-03    0.4153057923E-02
    0.1300000000E+03    0.1671210949E-04    0.6772428002E+00    0.2955892451E-03    0.2966763902E-03    0.4144991730E-02
    0.1500000000E+03    0.1886018917E-04    0.6796836910E+00    0.3397711219E-03    0.3426948503E-03    0.4136800299E-02
    0.1700000000E+03    0.2107050713E-04    0.6815621634E+00    0.3849558757E-03    0.3896302912E-03    0.4128478073E-02
    0.1900000000E+03    0.2334335966E-04    0.6830525176E+00    0.4312028407E-03    0.4375817867E-03    0.4120015717E-02
    0.2100000000E+03    0.2567999613E-04    0.6842637740E+00    0.4785752780E-03    0.4866389721E-03    0.4111402359E-02
    0.2300000000E+03    0.2808229107E-04    0.6852676177E+00    0.5271388370E-03    0.5368860054E-03    0.4102626473E-02
    0.2500000000E+03    0.3055256365E-04    0.6861131207E+00    0.5769611036E-03    0.5884041300E-03    0.4093676226E-02
    0.2700000000E+03    0.3309347594E-04    0.6868350065E+00    0.6281116107E-03    0.6412734367E-03    0.4084539593E-02
    0.2900000000E+03    0.3570797547E-04    0.6874585374E+00    0.6806620515E-03    0.6955741428E-03    0.4075204373E-02
    0.3100000000E+03    0.3839926377E-04    0.6880025313E+00    0.7346865813E-03    0.7513875711E-03    0.4065658156E-02
    0.3300000000E+03    0.4117078090E-04    0.6884812934E+00    0.7902621599E-03    0.8087969375E-03    0.4055888275E-02
    0.3500000000E+03    0.4402620021E-04    0.6889058924E+00    0.8474689129E-03    0.8678880165E-03    0.4045881744E-02
    0.3700000000E+03    0.4696943012E-04    0.6892850271E+00    0.9063905052E-03    0.9287497273E-03    0.4035625192E-02
    0.3900000000E+03    0.5000462065E-04    0.6896256279E+00    0.9671145246E-03    0.9914746729E-03    0.4025104803E-02
    0.4100000000E+03    0.5313617377E-04    0.6899332850E+00    0.1029732877E-02    0.1056159651E-02    0.4014306250E-02
    0.4300000000E+03    0.5636875667E-04    0.6902125571E+00    0.1094342198E-02    0.1122906154E-02    0.4003214622E-02
    0.4500000000E+03    0.5970731748E-04    0.6904671988E+00    0.1161044278E-02    0.1191820867E-02    0.3991814367E-02
    0.4700000000E+03    0.6315710342E-04    0.6907003307E+00    0.1229946515E-02    0.1263016181E-02    0.3980089217E-02
    0.4900000000E+03    0.6672368094E-04    0.6909145674E+00    0.1301162387E-02    0.1336610716E-02    0.3968022117E-02
    0.1000000000E+03    0.1361019236E-04    0.6718144278E+00    0.2310895153E-03    0.2291092653E-03    0.4157043464E-02
    0.3000000000E+03    0.3704381151E-04    0.6877394941E+00    0.7074853152E-03    0.7232866184E-03    0.4070458424E-02
    0.5000000000E+03    0.6855259883E-04    0.6910153036E+00    0.1337675184E-02    0.1374346597E-02    0.3961854775E-02
    0.7000000000E+03    0.1129595390E-03    0.6924286101E+00    0.2223715840E-02    0.2290831648E-02    0.3815520156E-02
    0.9000000000E+03    0.1793391566E-03    0.6932161629E+00    0.3548560734E-02    0.3663638541E-02    0.3605257199E-02
    0.1100000000E+04    0.2854752421E-03    0.6937181851E+00    0.5669850443E-02    0.5866412990E-02    0.3282555744E-02
    0.1300000000E+04    0.4662594428E-03    0.6940661061E+00    0.9291472897E-02    0.9637459835E-02    0.2759147962E-02
    0.1500000000E+04    0.7731682730E-03    0.6943214253E+00    0.1546287110E-01    0.1608963282E-01    0.1929824394E-02
    0.1700000000E+04    0.1185963380E-02    0.6945167610E+00    0.2382140570E-01    0.2489220695E-01    0.9398887368E-03
    0.1900000000E+04    0.1521819553E-02    0.6946710228E+00    0.3072347917E-01    0.3227178770E-01    0.3173429489E-03
    0.2100000000E+04    0.1723003942E-02    0.6947959282E+00    0.3497477747E-01    0.3694401462E-01    0.1118676317E-03
    0.2300000000E+04    0.1862898823E-02    0.6948991252E+00    0.3802306704E-01    0.4039279378E-01    0.6236853062E-04
    0.2500000000E+04    0.1981759924E-02    0.6949858178E+00    0.4067129564E-01    0.4345088090E-01    0.5153496285E-04
    0.2700000000E+04    0.2091247262E-02    0.6950596697E+00    0.4315219980E-01    0.4636001531E-01    0.4931116874E-04
    0.2900000000E+04    0.2194428814E-02    0.6951233353E+00    0.4552603304E-01    0.4918187215E-01    0.4896702215E-04
    0.3100000000E+04    0.2292250739E-02    0.6951787844E+00    0.4781030685E-01    0.5193332324E-01    0.4902907081E-04
    0.3300000000E+04    0.2385145804E-02    0.6952275101E+00    0.5001223022E-01    0.5462046442E-01    0.4917386890E-04
    0.3500000000E+04    0.2473413007E-02    0.6952706641E+00    0.5213640102E-01    0.5724672355E-01    0.4933023777E-04
    0.3700000000E+04    0.2557307227E-02    0.6953091496E+00    0.5418662490E-01    0.5981478244E-01    0.4948285983E-04
    0.3900000000E+04    0.2637061192E-02    0.6953436844E+00    0.5616635659E-01    0.6232703987E-01    0.4962887293E-04
    0.4100000000E+04    0.2712891542E-02    0.6953748465E+00    0.5807881647E-01    0.6478572937E-01    0.4976816468E-04
    0.4300000000E+04    0.2785001074E-02    0.6954031064E+00    0.5992702925E-01    0.6719295428E-01    0.4990118313E-04
    0.4500000000E+04    0.2853580018E-02    0.6954288510E+00    0.6171384327E-01    0.6955070245E-01    0.5002844510E-04
    0.4700000000E+04    0.2918807007E-02    0.6954524013E+00    0.6344194422E-01    0.7186085542E-01    0.5015043175E-04
    0.4900000000E+04    0.2980849935E-02    0.6954740261E+00    0.6511386672E-01    0.7412519588E-01    0.5026757219E-04
    0.1000000000E+04    0.2257785512E-03    0.6934921954E+00    0.4476254078E-02    0.4626336104E-02    0.3462347083E-02
    0.3000000000E+04    0.2243977520E-02    0.6951519843E+00    0.4667881198E-01    0.5056591142E-01    0.4897796133E-04
    0.5000000000E+04    0.3010727093E-02    0.6954841886E+00    0.6592951441E-01    0.7524071812E-01    0.5032444559E-04
    0.7000000000E+04    0.3474838045E-02    0.6956263524E+00    0.7980931297E-01    0.9551365672E-01    0.5127997330E-04
    0.9000000000E+04    0.3752783251E-02    0.6957051835E+00    0.9012067052E-01    0.1126813887E+00    0.5200427963E-04
    0.1100000000E+05    0.3911736826E-02    0.6957552456E+00    0.9795245156E-01    0.1275583485E+00    0.5258941211E-04
    0.1300000000E+05    0.3992475660E-02    0.6957898290E+00    0.1039994345E+00    0.1406846493E+00    0.5308124196E-04
    0.1500000000E+05    0.4020765236E-02    0.6958151338E+00    0.1087246089E+00    0.1524342173E+00    0.5350602707E-04
    0.1700000000E+05    0.4013417771E-02    0.6958344403E+00    0.1124476569E+00    0.1630752120E+00    0.5388023572E-04
    0.1900000000E+05    0.3981693113E-02    0.6958496470E+00    0.1153959381E+00    0.1728056839E+00    0.5421489138E-04
    0.2100000000E+05    0.3933294356E-02    0.6958619282E+00    0.1177352476E+00    0.1817755961E+00    0.5451774281E-04
    0.2300000000E+05    0.3873583187E-02    0.6958720494E+00    0.1195891033E+00    0.1901009542E+00    0.5479444876E-04
    0.2500000000E+05    0.3806343815E-02    0.6958805306E+00    0.1210512474E+00    0.1978731761E+00    0.5504927022E-04
    0.2700000000E+05    0.3734276379E-02    0.6958877378E+00    0.1221939846E+00    0.2051654818E+00    0.5528549737E-04
    0.2900000000E+05    0.3659323235E-02    0.6958939357E+00    0.1230738839E+00    0.2120373620E+00    0.5550572476E-04
    0.3100000000E+05    0.3582889220E-02    0.6958993204E+00    0.1237357654E+00    0.2185377713E+00    0.5571203519E-04
    0.3300000000E+05    0.3505993063E-02    0.6959040406E+00    0.1242155419E+00    0.2247074550E+00    0.5590612650E-04
    0.3500000000E+05    0.3429373134E-02    0.6959082109E+00    0.1245422802E+00    0.2305806745E+00    0.5608940130E-04
    0.3700000000E+05    0.3353562372E-02    0.6959119208E+00    0.1247397209E+00    0.2361865062E+00    0.5626303188E-04
    0.3900000000E+05    0.3278942032E-02    0.6959152418E+00    0.1248274139E+00    0.2415498343E+00    0.5642800827E-04
    0.4100000000E+05    0.3205780689E-02    0.6959182311E+00    0.1248215783E+00    0.2466921183E+00    0.5658517427E-04
    0.4300000000E+05    0.3134262807E-02    0.6959209353E+00    0.1247357616E+00    0.2516319944E+00    0.5673525502E-04
    0.4500000000E+05    0.3064509868E-02    0.6959233927E+00    0.1245813497E+00    0.2563857507E+00    0.5687887832E-04
    0.4700000000E+05    0.2996596110E-02    0.6959256351E+00    0.1243679662E+00    0.2609677081E+00    0.5701659141E-04
    0.4900000000E+05    0.2930560331E-02    0.6959276890E+00    0.1241037875E+00    0.2653905260E+00    0.5714887421E-04
    0.1000000000E+05    0.3844135770E-02    0.6957327307E+00    0.9429623993E-01    0.1203676100E+00    0.5231073537E-04
    0.3000000000E+05    0.3621220035E-02    0.6958967194E+00    0.1234296509E+00    0.2153312842E+00    0.5561050565E-04
    0.5000000000E+05    0.2898251360E-02    0.6959286524E+00    0.1239548721E+00    0.2675458219E+00    0.5721311349E-04
    0.7000000000E+05    0.2345820692E-02    0.6959419708E+00    0.1195576373E+00    0.3044712071E+00    0.5829358847E-04
    0.9000000000E+05    0.1939222253E-02    0.6959491638E+00    0.1141146975E+00    0.3331992015E+00    0.5911380149E-04
    0.1100000000E+06    0.1633741411E-02    0.6959536084E+00    0.1086404022E+00    0.3566938659E+00    0.5977696477E-04
    0.1300000000E+06    0.1398287969E-02    0.6959565925E+00    0.1034433619E+00    0.3765102806E+00    0.6033468229E-04
    0.1500000000E+06    0.1212562748E-02    0.6959587122E+00    0.9861056387E-01    0.3935807521E+00    0.6081655332E-04
    0.1700000000E+06    0.1063130331E-02    0.6959602800E+00    0.9415068881E-01    0.4085151828E+00    0.6124116727E-04
    0.1900000000E+06    0.9408549897E-03    0.6959614757E+00    0.9004397613E-01    0.4217377183E+00    0.6162097979E-04
    0.2100000000E+06    0.8393499093E-03    0.6959624092E+00    0.8626133162E-01    0.4335569008E+00    0.6196475301E-04
    0.2300000000E+06    0.7540347291E-03    0.6959631518E+00    0.8277200709E-01    0.4442050318E+00    0.6227888946E-04
    0.2500000000E+06    0.6815491898E-03    0.6959637515E+00    0.7954667365E-01    0.4538618156E+00    0.6256821249E-04
    0.2700000000E+06    0.6193782412E-03    0.6959642417E+00    0.7655854161E-01    0.4626693424E+00    0.6283644796E-04
    0.2900000000E+06    0.5656058614E-03    0.6959646464E+00    0.7378363356E-01    0.4707420061E+00    0.6308653493E-04
    0.3100000000E+06    0.5187493388E-03    0.6959649833E+00    0.7120069578E-01    0.4781733064E+00    0.6332083342E-04
    0.3300000000E+06    0.4776451721E-03    0.6959652655E+00    0.6879096731E-01    0.4850406561E+00    0.6354126770E-04
    0.3500000000E+06    0.4413688903E-03    0.6959655032E+00    0.6653790650E-01    0.4914088648E+00    0.6374942773E-04
    0.3700000000E+06    0.4091776618E-03    0.6959657042E+00    0.6442691998E-01    0.4973327196E+00    0.6394664267E-04
    0.3900000000E+06    0.3804685253E-03    0.6959658746E+00    0.6244511286E-01    0.5028589323E+00    0.6413403519E-04
    0.4100000000E+06    0.3547475272E-03    0.6959660195E+00    0.6058106636E-01    0.5080276330E+00    0.6431256224E-04
    0.4300000000E+06    0.3316066032E-03    0.6959661428E+00    0.5882464375E-01    0.5128735328E+00    0.6448304635E-04
    0.4500000000E+06    0.3107060417E-03    0.6959662477E+00    0.5716682258E-01    0.5174268405E+00    0.6464619969E-04
    0.4700000000E+06    0.2917610286E-03    0.6959663368E+00    0.5559955037E-01    0.5217139927E+00    0.6480264310E-04
    0.4900000000E+06    0.2745312134E-03    0.6959664123E+00    0.5411562080E-01    0.5257582433E+00    0.6495292111E-04
    0.1000000000E+06    0.1776092819E-02    0.6959516248E+00    0.1113540986E+00    0.3454834562E+00    0.5946107151E-04
    0.3000000000E+06    0.5413922455E-03    0.6959648224E+00    0.7246939622E-01    0.4745326574E+00    0.6320552861E-04
    0.5000000000E+06    0.2664945060E-03    0.6959664456E+00    0.5340286245E-01    0.5276957965E+00    0.6502590041E-04
    0.7000000000E+06    0.1595085412E-03    0.6959667149E+00    0.4225948173E-01    0.5576169541E+00    0.6625347617E-04
    0.9000000000E+06    0.1064820969E-03    0.6959666257E+00    0.3495192044E-01    0.5769201056E+00    0.6718545291E-04
    0.1100000000E+07    0.7625856349E-04    0.6959664154E+00    0.2979047331E-01    0.5904313571E+00    0.6793902341E-04
    0.1300000000E+07    0.5736895112E-04    0.6959661623E+00    0.2595107159E-01    0.6004247426E+00    0.6857279608E-04
    0.1500000000E+07    0.4476123852E-04    0.6959658971E+00    0.2298376781E-01    0.6081182121E+00    0.6912039278E-04
    0.1700000000E+07    0.3592063433E-04    0.6959656331E+00    0.2062200236E-01    0.6142245261E+00    0.6960293135E-04
    0.1900000000E+07    0.2947831401E-04    0.6959653758E+00    0.1869779123E-01    0.6191890865E+00    0.7003456261E-04
    0.2100000000E+07    0.2463641021E-04    0.6959651278E+00    0.1710000912E-01    0.6233047322E+00    0.7042524171E-04
    0.2300000000E+07    0.2090391414E-04    0.6959648899E+00    0.1575220893E-01    0.6267719805E+00    0.7078224323E-04
    0.2500000000E+07    0.1796501314E-04    0.6959646621E+00    0.1460007431E-01    0.6297327817E+00    0.7111104766E-04
    0.2700000000E+07    0.1560899039E-04    0.6959644442E+00    0.1360395290E-01    0.6322904609E+00    0.7141588857E-04
    0.2900000000E+07    0.1369082898E-04    0.6959642356E+00    0.1273422164E-01    0.6345220244E+00    0.7170010561E-04
    0.3100000000E+07    0.1210804584E-04    0.6959640358E+00    0.1196830527E-01    0.6364860407E+00    0.7196638051E-04
    0.3300000000E+07    0.1078653418E-04    0.6959638443E+00    0.1128869866E-01    0.6382278487E+00    0.7221689988E-04
    0.3500000000E+07    0.9671619283E-05    0.6959636604E+00    0.1068161963E-01    0.6397830932E+00    0.7245347049E-04
    0.3700000000E+07    0.8722241760E-05    0.6959634836E+00    0.1013606957E-01    0.6411801854E+00    0.7267760274E-04
    0.3900000000E+07    0.7907077334E-05    0.6959633135E+00    0.9643164736E-02    0.6424420483E+00    0.7289057239E-04
    0.4100000000E+07    0.7201889268E-05    0.6959631496E+00    0.9195651526E-02    0.6435873813E+00    0.7309346694E-04
    0.4300000000E+07    0.6587685090E-05    0.6959629915E+00    0.8787549112E-02    0.6446315900E+00    0.7328722106E-04
    0.4500000000E+07    0.6049409825E-05    0.6959628388E+00    0.8413882155E-02    0.6455874804E+00    0.7347264410E-04
    0.4700000000E+07    0.5575004276E-05    0.6959626912E+00    0.8070478137E-02    0.6464657852E+00    0.7365044157E-04
    0.4900000000E+07    0.5154716218E-05    0.6959625483E+00    0.7753811797E-02    0.6472755668E+00    0.7382123230E-04
    0.1000000000E+07    0.8946507159E-04    0.6959665290E+00    0.3216668172E-01    0.5842226408E+00    0.6758006115E-04
    0.3000000000E+07    0.1286268795E-04    0.6959641347E+00    0.1233948129E-01    0.6355343800E+00    0.7183533910E-04
    0.5000000000E+07    0.4962321028E-05    0.6959624786E+00    0.7604550315E-02    0.6476572152E+00    0.7390417323E-04
    0.7000000000E+07    0.2624916567E-05    0.6959612740E+00    0.5486293205E-02    0.6530707562E+00    0.7529931802E-04
    0.9000000000E+07    0.1626184470E-05    0.6959603270E+00    0.4286873272E-02    0.6561344389E+00    0.7635851847E-04
    0.1100000000E+08    0.1108087395E-05    0.6959595453E+00    0.3515622124E-02    0.6581041925E+00    0.7721496058E-04
    0.1300000000E+08    0.8047431368E-06    0.6959588787E+00    0.2978279762E-02    0.6594765936E+00    0.7793525191E-04
    0.1500000000E+08    0.6117603631E-06    0.6959582970E+00    0.2582596434E-02    0.6604872972E+00    0.7855760353E-04
    0.1700000000E+08    0.4813172914E-06    0.6959577803E+00    0.2279164030E-02    0.6612624720E+00    0.7910601587E-04
    0.1900000000E+08    0.3889750713E-06    0.6959573152E+00    0.2039141975E-02    0.6618757506E+00    0.7959657142E-04
    0.2100000000E+08    0.3211783718E-06    0.6959568921E+00    0.1844567954E-02    0.6623729879E+00    0.8004058426E-04
    0.2300000000E+08    0.2699132598E-06    0.6959565038E+00    0.1683673150E-02    0.6627842265E+00    0.8044632203E-04
    0.2500000000E+08    0.2301931690E-06    0.6959561448E+00    0.1548425856E-02    0.6631299692E+00    0.8082001335E-04
    0.2700000000E+08    0.1987822272E-06    0.6959558108E+00    0.1433157910E-02    0.6634246858E+00    0.8116646977E-04
