  Pressure (Pa) 23mC5-500 (mol/kg) 24mC5-500 (mol/kg) 2mC6-500 (mol/kg) 3mC6-500 (mol/kg) C7-500 (mol/kg)
    0.1000000000E+01    0.2156514719E-05    0.6965122439E-01    0.3266210012E-05    0.6959524620E-05    0.4205904237E-02
    0.3000000000E+01    0.5162826357E-05    0.1740872966E+00    0.7573470451E-05    0.1789464037E-04    0.4275930613E-02
    0.5000000000E+01    0.7137403293E-05    0.2486547169E+00    0.1023286982E-04    0.2798600692E-04    0.4324388899E-02
    0.7000000000E+01    0.8507147735E-05    0.3045641202E+00    0.1198365685E-04    0.3767502613E-04    0.4360721431E-02
    0.9000000000E+01    0.9497985233E-05    0.3480397020E+00    0.1320087442E-04    0.4711094419E-04    0.4389064379E-02
    0.1100000000E+02    0.1023979608E-04    0.3828142146E+00    0.1409121706E-04    0.5636850934E-04    0.4411817941E-02
    0.1300000000E+02    0.1081182319E-04    0.4112621744E+00    0.1477529333E-04    0.6549223386E-04    0.4430496283E-02
    0.1500000000E+02    0.1126470398E-04    0.4349661283E+00    0.1532660624E-04    0.7451145917E-04    0.4446106796E-02
    0.1700000000E+02    0.1163202275E-04    0.4550214237E+00    0.1579150707E-04    0.8344687959E-04    0.4459347256E-02
    0.1900000000E+02    0.1193674530E-04    0.4722102957E+00    0.1620003111E-04    0.9231381635E-04    0.4470716907E-02
    0.2100000000E+02    0.1219498275E-04    0.4871062872E+00    0.1657206866E-04    0.1011240358E-03    0.4480582700E-02
    0.2300000000E+02    0.1241828475E-04    0.5001394938E+00    0.1692102018E-04    0.1098868372E-03    0.4489220578E-02
    0.2500000000E+02    0.1261508567E-04    0.5116387712E+00    0.1725603434E-04    0.1186097418E-03    0.4496842160E-02
    0.2700000000E+02    0.1279164406E-04    0.5218598686E+00    0.1758341737E-04    0.1272989501E-03    0.4503612533E-02
    0.2900000000E+02    0.1295266876E-04    0.5310046739E+00    0.1790754265E-04    0.1359596557E-03    0.4509662432E-02
    0.3100000000E+02    0.1310174576E-04    0.5392346839E+00    0.1823145002E-04    0.1445962691E-03    0.4515096775E-02
    0.3300000000E+02    0.1324163498E-04    0.5466806245E+00    0.1855724820E-04    0.1532125795E-03    0.4520000765E-02
    0.3500000000E+02    0.1337448033E-04    0.5534494458E+00    0.1888638925E-04    0.1618118767E-03    0.4524444339E-02
    0.3700000000E+02    0.1350196077E-04    0.5596294926E+00    0.1921985847E-04    0.1703970421E-03    0.4528485457E-02
    0.3900000000E+02    0.1362540050E-04    0.5652943817E+00    0.1955830743E-04    0.1789706205E-03    0.4532172575E-02
    0.4100000000E+02    0.1374585036E-04    0.5705059480E+00    0.1990214817E-04    0.1875348754E-03    0.4535546529E-02
    0.4300000000E+02    0.1386414869E-04    0.5753165108E+00    0.2025162054E-04    0.1960918335E-03    0.4538641983E-02
    0.4500000000E+02    0.1398096729E-04    0.5797706369E+00    0.2060684073E-04    0.2046433197E-03    0.4541488561E-02
    0.4700000000E+02    0.1409684657E-04    0.5839065245E+00    0.2096783642E-04    0.2131909868E-03    0.4544111739E-02
    0.4900000000E+02    0.1421222248E-04    0.5877571023E+00    0.2133457250E-04    0.2217363387E-03    0.4546533547E-02
    0.1000000000E+02    0.9894208320E-05    0.3663427345E+00    0.1367793536E-04    0.5175877034E-04    0.4401030128E-02
    0.3000000000E+02    0.1302851167E-04    0.5352252292E+00    0.1806937367E-04    0.1402807241E-03    0.4512450820E-02
    0.5000000000E+02    0.1426983461E-04    0.5895844690E+00    0.2152006977E-04    0.2260085806E-03    0.4547675023E-02
    0.7000000000E+02    0.1545220152E-04    0.6164146119E+00    0.2550156120E-04    0.3116129727E-03    0.4563485829E-02
    0.9000000000E+02    0.1674380301E-04    0.6324021554E+00    0.2990605248E-04    0.3980531990E-03    0.4571187484E-02
    0.1100000000E+03    0.1815620854E-04    0.6430145883E+00    0.3463052513E-04    0.4858558503E-03    0.4574607128E-02
    0.1300000000E+03    0.1968014353E-04    0.6505723557E+00    0.3961584983E-04    0.5753765095E-03    0.4575416696E-02
    0.1500000000E+03    0.2130572393E-04    0.6562282870E+00    0.4482993878E-04    0.6668889177E-03    0.4574467822E-02
    0.1700000000E+03    0.2302554670E-04    0.6606199402E+00    0.5025616431E-04    0.7606236764E-03    0.4572241131E-02
    0.1900000000E+03    0.2483468975E-04    0.6641285495E+00    0.5588701226E-04    0.8567878161E-03    0.4569028173E-02
    0.2100000000E+03    0.2673022375E-04    0.6669960746E+00    0.6172062345E-04    0.9555758437E-03    0.4565015249E-02
    0.2300000000E+03    0.2871075376E-04    0.6693834788E+00    0.6775885514E-04    0.1057176559E-02    0.4560325896E-02
    0.2500000000E+03    0.3077607139E-04    0.6714020026E+00    0.7400616076E-04    0.1161777592E-02    0.4555044092E-02
    0.2700000000E+03    0.3292690642E-04    0.6731309875E+00    0.8046892622E-04    0.1269568652E-02    0.4549227681E-02
    0.2900000000E+03    0.3516475359E-04    0.6746285443E+00    0.8715507148E-04    0.1380744004E-02    0.4542916533E-02
    0.3100000000E+03    0.3749175328E-04    0.6759382094E+00    0.9407381217E-04    0.1495504490E-02    0.4536137697E-02
    0.3300000000E+03    0.3991061070E-04    0.6770932443E+00    0.1012355215E-03    0.1614059271E-02    0.4528908763E-02
    0.3500000000E+03    0.4242454285E-04    0.6781194976E+00    0.1086516579E-03    0.1736627410E-02    0.4521240108E-02
    0.3700000000E+03    0.4503724574E-04    0.6790373612E+00    0.1163347368E-03    0.1863439378E-02    0.4513136435E-02
    0.3900000000E+03    0.4775287682E-04    0.6798631380E+00    0.1242983352E-03    0.1994738530E-02    0.4504597845E-02
    0.4100000000E+03    0.5057604932E-04    0.6806100177E+00    0.1325571189E-03    0.2130782602E-02    0.4495620576E-02
    0.4300000000E+03    0.5351183595E-04    0.6812887863E+00    0.1411268896E-03    0.2271845255E-02    0.4486197534E-02
    0.4500000000E+03    0.5656578055E-04    0.6819083495E+00    0.1500246485E-03    0.2418217698E-02    0.4476318653E-02
    0.4700000000E+03    0.5974391659E-04    0.6824761256E+00    0.1592686731E-03    0.2570210417E-02    0.4465971139E-02
    0.4900000000E+03    0.6305279185E-04    0.6829983432E+00    0.1688786088E-03    0.2728155016E-02    0.4455139634E-02
    0.1000000000E+03    0.1743538586E-04    0.6381953122E+00    0.3223280451E-04    0.4417594104E-03    0.4573300259E-02
    0.3000000000E+03    0.3631695280E-04    0.6753045826E+00    0.9058474509E-04    0.1437663247E-02    0.4539584285E-02
    0.5000000000E+03    0.6475845091E-04    0.6832440463E+00    0.1738273320E-03    0.2809469162E-02    0.4449536905E-02
    0.7000000000E+03    0.1078713865E-03    0.6867011722E+00    0.2982933729E-03    0.4852976388E-02    0.4306179646E-02
    0.9000000000E+03    0.1779676209E-03    0.6886352520E+00    0.4998643271E-03    0.8164037783E-02    0.4073902939E-02
    0.1100000000E+04    0.3033183674E-03    0.6898705949E+00    0.8602822884E-03    0.1409608989E-01    0.3669049401E-02
    0.1300000000E+04    0.5468763936E-03    0.6907276408E+00    0.1562244347E-02    0.2568898951E-01    0.2919366262E-02
    0.1500000000E+04    0.9675598269E-03    0.6913569054E+00    0.2781854259E-02    0.4596109728E-01    0.1738824311E-02
    0.1700000000E+04    0.1360501283E-02    0.6918384241E+00    0.3937988007E-02    0.6547163968E-01    0.8561842995E-03
    0.1900000000E+04    0.1567936324E-02    0.6922186786E+00    0.4570207395E-02    0.7651579895E-01    0.6135422116E-03
    0.2100000000E+04    0.1701755490E-02    0.6925265108E+00    0.4995119769E-02    0.8422596204E-01    0.5754132034E-03
    0.2300000000E+04    0.1815943361E-02    0.6927807642E+00    0.5367511624E-02    0.9114726636E-01    0.5721700950E-03
    0.2500000000E+04    0.1921365474E-02    0.6929942702E+00    0.5718478560E-02    0.9779078680E-01    0.5739996426E-03
    0.2700000000E+04    0.2020124197E-02    0.6931760683E+00    0.6053792339E-02    0.1042478523E+00    0.5764151114E-03
    0.2900000000E+04    0.2112852097E-02    0.6933327102E+00    0.6374968047E-02    0.1105389958E+00    0.5787709707E-03
    0.3100000000E+04    0.2199927586E-02    0.6934690602E+00    0.6682799309E-02    0.1166729277E+00    0.5809895952E-03
    0.3300000000E+04    0.2281671237E-02    0.6935888055E+00    0.6977931747E-02    0.1226561519E+00    0.5830750463E-03
    0.3500000000E+04    0.2358378390E-02    0.6936947919E+00    0.7260957554E-02    0.1284945451E+00    0.5850410198E-03
    0.3700000000E+04    0.2430325490E-02    0.6937892505E+00    0.7532432807E-02    0.1341936316E+00    0.5869005235E-03
    0.3900000000E+04    0.2497772135E-02    0.6938739555E+00    0.7792882133E-02    0.1397586450E+00    0.5886647448E-03
    0.4100000000E+04    0.2560962338E-02    0.6939503351E+00    0.8042801165E-02    0.1451945526E+00    0.5903432163E-03
    0.4300000000E+04    0.2620125609E-02    0.6940195520E+00    0.8282658506E-02    0.1505060736E+00    0.5919441027E-03
    0.4500000000E+04    0.2675477924E-02    0.6940825623E+00    0.8512897493E-02    0.1556976945E+00    0.5934744471E-03
    0.4700000000E+04    0.2727222625E-02    0.6941401595E+00    0.8733937826E-02    0.1607736832E+00    0.5949403676E-03
    0.4900000000E+04    0.2775551261E-02    0.6941930074E+00    0.8946177064E-02    0.1657381027E+00    0.5963472131E-03
    0.1000000000E+04    0.2308714929E-03    0.6893142816E+00    0.6519307477E-03    0.1066505244E-01    0.3901337418E-02
    0.3000000000E+04    0.2157075621E-02    0.6934031682E+00    0.6530509721E-02    0.1136251853E+00    0.5798976856E-03
    0.5000000000E+04    0.2798491376E-02    0.6942178289E+00    0.9049114801E-02    0.1681796905E+00    0.5970299749E-03
    0.7000000000E+04    0.3116624227E-02    0.6945637699E+00    0.1072760444E-01    0.2120034633E+00    0.6084772523E-03
    0.9000000000E+04    0.3245013726E-02    0.6947539814E+00    0.1185301105E-01    0.2481173853E+00    0.6171305415E-03
    0.1100000000E+05    0.3260563488E-02    0.6948737095E+00    0.1260225740E-01    0.2784841900E+00    0.6241099307E-03
    0.1300000000E+05    0.3209036345E-02    0.6949556637E+00    0.1308913281E-01    0.3044377797E+00    0.6299702968E-03
    0.1500000000E+05    0.3118339194E-02    0.6950150660E+00    0.1338938577E-01    0.3269187956E+00    0.6350280875E-03
    0.1700000000E+05    0.3005788631E-02    0.6950599509E+00    0.1355488779E-01    0.3466113060E+00    0.6394812641E-03
    0.1900000000E+05    0.2882246447E-02    0.6950949553E+00    0.1362200357E-01    0.3640259021E+00    0.6434620900E-03
    0.2100000000E+05    0.2754552865E-02    0.6951229402E+00    0.1361673255E-01    0.3795522526E+00    0.6470634055E-03
    0.2300000000E+05    0.2626998507E-02    0.6951457651E+00    0.1355797325E-01    0.3934934909E+00    0.6503529340E-03
    0.2500000000E+05    0.2502235894E-02    0.6951646903E+00    0.1345965553E-01    0.4060893919E+00    0.6533816241E-03
    0.2700000000E+05    0.2381855080E-02    0.6951805996E+00    0.1333216822E-01    0.4175324013E+00    0.6561887877E-03
    0.2900000000E+05    0.2266753228E-02    0.6951941305E+00    0.1318333598E-01    0.4279789781E+00    0.6588054052E-03
    0.3100000000E+05    0.2157375142E-02    0.6952057545E+00    0.1301910042E-01    0.4375577860E+00    0.6612563336E-03
    0.3300000000E+05    0.2053871543E-02    0.6952158275E+00    0.1284400326E-01    0.4463757169E+00    0.6635618262E-03
    0.3500000000E+05    0.1956204114E-02    0.6952246229E+00    0.1266153414E-01    0.4545223924E+00    0.6657386078E-03
    0.3700000000E+05    0.1864215619E-02    0.6952323543E+00    0.1247438444E-01    0.4620735790E+00    0.6678006523E-03
    0.3900000000E+05    0.1777676872E-02    0.6952391909E+00    0.1228463475E-01    0.4690938126E+00    0.6697597571E-03
    0.4100000000E+05    0.1696318185E-02    0.6952452683E+00    0.1209389482E-01    0.4756384399E+00    0.6716259744E-03
    0.4300000000E+05    0.1619850355E-02    0.6952506964E+00    0.1190340909E-01    0.4817552255E+00    0.6734079407E-03
    0.4500000000E+05    0.1547978548E-02    0.6952555654E+00    0.1171413698E-01    0.4874856274E+00    0.6751131317E-03
    0.4700000000E+05    0.1480411337E-02    0.6952599496E+00    0.1152681445E-01    0.4928658210E+00    0.6767480622E-03
    0.4900000000E+05    0.1416866433E-02    0.6952639111E+00    0.1134200151E-01    0.4979275270E+00    0.6783184448E-03
    0.1000000000E+05    0.3263498713E-02    0.6948199964E+00    0.1226642806E-01    0.2639244703E+00    0.6207869951E-03
    0.3000000000E+05    0.2211333839E-02    0.6952001563E+00    0.1310283156E-01    0.4328697211E+00    0.6600502212E-03
    0.5000000000E+05    0.1386517519E-02    0.6952657499E+00    0.1125067232E-01    0.5003478105E+00    0.6790810282E-03
    0.7000000000E+05    0.9336004794E-03    0.6952894730E+00    0.9611284089E-02    0.5373318870E+00    0.6919050275E-03
    0.9000000000E+05    0.6682019142E-03    0.6953001958E+00    0.8326120333E-02    0.5608019652E+00    0.7016376736E-03
    0.1100000000E+06    0.5010852875E-03    0.6953054406E+00    0.7321022825E-02    0.5770525063E+00    0.7095056491E-03
    0.1300000000E+06    0.3894884940E-03    0.6953079684E+00    0.6521987143E-02    0.5889813399E+00    0.7161219561E-03
    0.1500000000E+06    0.3114017925E-03    0.6953090064E+00    0.5874750768E-02    0.5981143659E+00    0.7218380915E-03
    0.1700000000E+06    0.2546735151E-03    0.6953091717E+00    0.5341230746E-02    0.6053332595E+00    0.7268747602E-03
    0.1900000000E+06    0.2121803444E-03    0.6953088027E+00    0.4894584152E-02    0.6111835993E+00    0.7313798201E-03
    0.2100000000E+06    0.1795319337E-03    0.6953080972E+00    0.4515572409E-02    0.6160213213E+00    0.7354572715E-03
    0.2300000000E+06    0.1539061607E-03    0.6953071765E+00    0.4190136008E-02    0.6200886342E+00    0.7391831007E-03
    0.2500000000E+06    0.1334232498E-03    0.6953061178E+00    0.3907801247E-02    0.6235561297E+00    0.7426145475E-03
    0.2700000000E+06    0.1167924396E-03    0.6953049718E+00    0.3660624718E-02    0.6265474549E+00    0.7457958249E-03
    0.2900000000E+06    0.1031038369E-03    0.6953037726E+00    0.3442482631E-02    0.6291544338E+00    0.7487618073E-03
    0.3100000000E+06    0.9170119035E-04    0.6953025432E+00    0.3248583434E-02    0.6314466931E+00    0.7515404968E-03
    0.3300000000E+06    0.8210157557E-04    0.6953012998E+00    0.3075127330E-02    0.6334779912E+00    0.7541547246E-03
    0.3500000000E+06    0.7394323879E-04    0.6953000535E+00    0.2919064175E-02    0.6352904978E+00    0.7566233548E-03
    0.3700000000E+06    0.6695086395E-04    0.6952988123E+00    0.2777918450E-02    0.6369177580E+00    0.7589621566E-03
    0.3900000000E+06    0.6091192019E-04    0.6952975817E+00    0.2649660772E-02    0.6383867909E+00    0.7611844487E-03
    0.4100000000E+06    0.5566022831E-04    0.6952963654E+00    0.2532612203E-02    0.6397196036E+00    0.7633015842E-03
    0.4300000000E+06    0.5106433465E-04    0.6952951661E+00    0.2425372069E-02    0.6409343020E+00    0.7653233204E-03
    0.4500000000E+06    0.4701915023E-04    0.6952939856E+00    0.2326762824E-02    0.6420459190E+00    0.7672581061E-03
    0.4700000000E+06    0.4343984770E-04    0.6952928251E+00    0.2235787480E-02    0.6430670400E+00    0.7691133060E-03
    0.4900000000E+06    0.4025734550E-04    0.6952916851E+00    0.2151596393E-02    0.6440082815E+00    0.7708953796E-03
    0.1000000000E+06    0.5757139804E-03    0.6953032758E+00    0.7793647434E-02    0.5696028148E+00    0.7057579033E-03
    0.3000000000E+06    0.9715029784E-04    0.6953031605E+00    0.3342760176E-02    0.6303362296E+00    0.7501730315E-03
    0.5000000000E+06    0.3879676147E-04    0.6952911229E+00    0.2111813164E-02    0.6444518197E+00    0.7717608009E-03
    0.7000000000E+06    0.2084263589E-04    0.6952809402E+00    0.1540345318E-02    0.6507397888E+00    0.7863175212E-03
    0.9000000000E+06    0.1303014063E-04    0.6952724739E+00    0.1211052587E-02    0.6542971894E+00    0.7973685079E-03
    0.1100000000E+07    0.8933741969E-05    0.6952652816E+00    0.9971221665E-03    0.6565850561E+00    0.8063037484E-03
    0.1300000000E+07    0.6518151303E-05    0.6952590415E+00    0.8470577510E-03    0.6581799243E+00    0.8138183384E-03
    0.1500000000E+07    0.4973473261E-05    0.6952535332E+00    0.7360197026E-03    0.6593551627E+00    0.8203110178E-03
    0.1700000000E+07    0.3925280052E-05    0.6952486027E+00    0.6505611913E-03    0.6602570837E+00    0.8260322273E-03
    0.1900000000E+07    0.3180938447E-05    0.6952441394E+00    0.5827715154E-03    0.6609710715E+00    0.8311497805E-03
    0.2100000000E+07    0.2633052000E-05    0.6952400614E+00    0.5276943089E-03    0.6615503043E+00    0.8357817322E-03
    0.2300000000E+07    0.2217868464E-05    0.6952363064E+00    0.4820668447E-03    0.6620296295E+00    0.8400143482E-03
    0.2500000000E+07    0.1895586707E-05    0.6952328261E+00    0.4436539274E-03    0.6624328345E+00    0.8439126178E-03
    0.2700000000E+07    0.1640307359E-05    0.6952295824E+00    0.4108731290E-03    0.6627767120E+00    0.8475267437E-03
    0.2900000000E+07    0.1434582544E-05    0.6952265444E+00    0.3825728385E-03    0.6630734541E+00    0.8508963276E-03
    0.3100000000E+07    0.1266306546E-05    0.6952236871E+00    0.3578950728E-03    0.6633321273E+00    0.8540531691E-03
    0.3300000000E+07    0.1126864540E-05    0.6952209898E+00    0.3361875538E-03    0.6635596132E+00    0.8570231969E-03
    0.3500000000E+07    0.1009989288E-05    0.6952184350E+00    0.3169455814E-03    0.6637612293E+00    0.8598278349E-03
    0.3700000000E+07    0.9110323238E-06    0.6952160081E+00    0.2997725552E-03    0.6639411496E+00    0.8624849932E-03
    0.3900000000E+07    0.8264862801E-06    0.6952136966E+00    0.2843525205E-03    0.6641026961E+00    0.8650097990E-03
    0.4100000000E+07    0.7536640724E-06    0.6952114897E+00    0.2704306739E-03    0.6642485456E+00    0.8674151472E-03
    0.4300000000E+07    0.6904786726E-06    0.6952093782E+00    0.2577992607E-03    0.6643808793E+00    0.8697121208E-03
    0.4500000000E+07    0.6352889627E-06    0.6952073539E+00    0.2462872012E-03    0.6645014920E+00    0.8719103163E-03
    0.4700000000E+07    0.5867899275E-06    0.6952054098E+00    0.2357523452E-03    0.6646118745E+00    0.8740180994E-03
    0.4900000000E+07    0.5439331781E-06    0.6952035395E+00    0.2260756085E-03    0.6647132749E+00    0.8760428073E-03
    0.1000000000E+07    0.1068997835E-04    0.6952687414E+00    0.1093808769E-02    0.6555531975E+00    0.8020474892E-03
    0.3000000000E+07    0.1346367733E-05    0.6952250946E+00    0.3698259354E-03    0.6632070765E+00    0.8524996012E-03
    0.5000000000E+07    0.5243485207E-06    0.6952026303E+00    0.2215270006E-03    0.6647609425E+00    0.8770260606E-03
    0.7000000000E+07    0.2879034225E-06    0.6951872555E+00    0.1578301193E-03    0.6654288928E+00    0.8935649525E-03
    0.9000000000E+07    0.1872651551E-06    0.6951754980E+00    0.1224590254E-03    0.6658004293E+00    0.9061209094E-03
    0.1100000000E+08    0.1347493842E-06    0.6951659488E+00    0.9997507760E-04    0.6660370136E+00    0.9162730503E-03
    0.1300000000E+08    0.1036562172E-06    0.6951578930E+00    0.8442913922E-04    0.6662008685E+00    0.9248110849E-03
    0.1500000000E+08    0.8358678834E-07    0.6951509165E+00    0.7304350466E-04    0.6663210636E+00    0.9321880395E-03
    0.1700000000E+08    0.6979201427E-07    0.6951447576E+00    0.6434773621E-04    0.6664129989E+00    0.9386884556E-03
    0.1900000000E+08    0.5984499709E-07    0.6951392404E+00    0.5749084116E-04    0.6664855946E+00    0.9445029987E-03
    0.2100000000E+08    0.5239689607E-07    0.6951342403E+00    0.5194628761E-04    0.6665443740E+00    0.9497658008E-03
    0.2300000000E+08    0.4664747142E-07    0.6951296663E+00    0.4737089002E-04    0.6665929405E+00    0.9545748763E-03
    0.2500000000E+08    0.4209647219E-07    0.6951254496E+00    0.4353143034E-04    0.6666337444E+00    0.9590040658E-03
    0.2700000000E+08    0.3841748093E-07    0.6951215369E+00    0.4026389884E-04    0.6666685105E+00    0.9631104094E-03
