  Pressure (Pa) 23mC5-500 (mol/kg) 24mC5-500 (mol/kg) 2mC6-500 (mol/kg) 3mC6-500 (mol/kg) C7-500 (mol/kg)
    0.1000000000E+01    0.1824719028E-05    0.1513988388E+00    0.2709883054E-05    0.2939334614E-05    0.4218106774E-02
    0.3000000000E+01    0.3539651221E-05    0.3164689059E+00    0.5001266482E-05    0.7599342222E-05    0.4281080258E-02
    0.5000000000E+01    0.4308894592E-05    0.4047228251E+00    0.5944984498E-05    0.1190236619E-04    0.4314653517E-02
    0.7000000000E+01    0.4729375459E-05    0.4596595447E+00    0.6477100062E-05    0.1603085964E-04    0.4335917412E-02
    0.9000000000E+01    0.4995916900E-05    0.4971499193E+00    0.6867080556E-05    0.2004690750E-04    0.4350701087E-02
    0.1100000000E+02    0.5187139558E-05    0.5243658203E+00    0.7208946378E-05    0.2398172905E-04    0.4361628084E-02
    0.1300000000E+02    0.5339245005E-05    0.5450218836E+00    0.7539011147E-05    0.2785397217E-04    0.4370063042E-02
    0.1500000000E+02    0.5470458907E-05    0.5612346783E+00    0.7871854921E-05    0.3167595929E-04    0.4376788771E-02
    0.1700000000E+02    0.5590551841E-05    0.5742986322E+00    0.8213140249E-05    0.3545639865E-04    0.4382287725E-02
    0.1900000000E+02    0.5704999943E-05    0.5850498810E+00    0.8564684895E-05    0.3920174776E-04    0.4386874109E-02
    0.2100000000E+02    0.5816966936E-05    0.5940525989E+00    0.8926623288E-05    0.4291697196E-04    0.4390761721E-02
    0.2300000000E+02    0.5928313787E-05    0.6017012562E+00    0.9298374767E-05    0.4660599899E-04    0.4394101331E-02
    0.2500000000E+02    0.6040141213E-05    0.6082799655E+00    0.9679090158E-05    0.5027200746E-04    0.4397002465E-02
    0.2700000000E+02    0.6153094079E-05    0.6139985510E+00    0.1006785915E-04    0.5391761833E-04    0.4399546708E-02
    0.2900000000E+02    0.6267538340E-05    0.6190153397E+00    0.1046380424E-04    0.5754502696E-04    0.4401796152E-02
    0.3100000000E+02    0.6383666927E-05    0.6234520464E+00    0.1086611987E-04    0.6115609683E-04    0.4403798940E-02
    0.3300000000E+02    0.6501564664E-05    0.6274037788E+00    0.1127408501E-04    0.6475242795E-04    0.4405593012E-02
    0.3500000000E+02    0.6621248827E-05    0.6309459306E+00    0.1168706304E-04    0.6833540790E-04    0.4407208698E-02
    0.3700000000E+02    0.6742694889E-05    0.6341390381E+00    0.1210449601E-04    0.7190625058E-04    0.4408670559E-02
    0.3900000000E+02    0.6865853048E-05    0.6370322682E+00    0.1252589677E-04    0.7546602623E-04    0.4409998707E-02
    0.4100000000E+02    0.6990658912E-05    0.6396659678E+00    0.1295084058E-04    0.7901568496E-04    0.4411209787E-02
    0.4300000000E+02    0.7117040443E-05    0.6420735564E+00    0.1337895718E-04    0.8255607548E-04    0.4412317695E-02
    0.4500000000E+02    0.7244922448E-05    0.6442829519E+00    0.1380992356E-04    0.8608796019E-04    0.4413334140E-02
    0.4700000000E+02    0.7374229473E-05    0.6463176581E+00    0.1424345752E-04    0.8961202744E-04    0.4414269055E-02
    0.4900000000E+02    0.7504887626E-05    0.6481976036E+00    0.1467931215E-04    0.9312890157E-04    0.4415130932E-02
    0.1000000000E+02    0.5098085035E-05    0.5117587850E+00    0.7041005136E-05    0.2202311092E-04    0.4356542745E-02
    0.3000000000E+02    0.6325384823E-05    0.6212997283E+00    0.1066421282E-04    0.5935249873E-04    0.4402825803E-02
    0.5000000000E+02    0.7570701000E-05    0.6490849554E+00    0.1489804101E-04    0.9488482092E-04    0.4415536805E-02
    0.7000000000E+02    0.8942594916E-05    0.6617674152E+00    0.1935415274E-04    0.1297408001E-03    0.4421153613E-02
    0.9000000000E+02    0.1039103348E-04    0.6690290123E+00    0.2390720595E-04    0.1643085510E-03    0.4423920883E-02
    0.1100000000E+03    0.1189008796E-04    0.6737330960E+00    0.2851840084E-04    0.1987864986E-03    0.4425199455E-02
    0.1300000000E+03    0.1342652454E-04    0.6770283526E+00    0.3317467614E-04    0.2332957500E-03    0.4425575524E-02
    0.1500000000E+03    0.1499321172E-04    0.6794651625E+00    0.3787207734E-04    0.2679186320E-03    0.4425348569E-02
    0.1700000000E+03    0.1658614408E-04    0.6813402599E+00    0.4261026023E-04    0.3027154478E-03    0.4424689753E-02
    0.1900000000E+03    0.1820302937E-04    0.6828277532E+00    0.4739040625E-04    0.3377329077E-03    0.4423705002E-02
    0.2100000000E+03    0.1984256999E-04    0.6840365372E+00    0.5221435355E-04    0.3730088177E-03    0.4422463858E-02
    0.2300000000E+03    0.2150407459E-04    0.6850382107E+00    0.5708421177E-04    0.4085748878E-03    0.4421014111E-02
    0.2500000000E+03    0.2318723680E-04    0.6858817842E+00    0.6200218565E-04    0.4444585135E-03    0.4419389801E-02
    0.2700000000E+03    0.2489200364E-04    0.6866019362E+00    0.6697049420E-04    0.4806839579E-03    0.4417615886E-02
    0.2900000000E+03    0.2661849445E-04    0.6872238950E+00    0.7199133550E-04    0.5172731670E-03    0.4415711094E-02
    0.3100000000E+03    0.2836694935E-04    0.6877664524E+00    0.7706687380E-04    0.5542463493E-03    0.4413689755E-02
    0.3300000000E+03    0.3013769565E-04    0.6882438931E+00    0.8219923753E-04    0.5916224007E-03    0.4411562998E-02
    0.3500000000E+03    0.3193112557E-04    0.6886672697E+00    0.8739052264E-04    0.6294192213E-03    0.4409339581E-02
    0.3700000000E+03    0.3374768112E-04    0.6890452676E+00    0.9264279840E-04    0.6676539591E-03    0.4407026460E-02
    0.3900000000E+03    0.3558784381E-04    0.6893848066E+00    0.9795811398E-04    0.7063431994E-03    0.4404629203E-02
    0.4100000000E+03    0.3745212745E-04    0.6896914678E+00    0.1033385053E-03    0.7455031154E-03    0.4402152287E-02
    0.4300000000E+03    0.3934107329E-04    0.6899698026E+00    0.1087860018E-03    0.7851495899E-03    0.4399599323E-02
    0.4500000000E+03    0.4125524659E-04    0.6902235593E+00    0.1143026323E-03    0.8252983150E-03    0.4396973224E-02
    0.4700000000E+03    0.4319523424E-04    0.6904558529E+00    0.1198904313E-03    0.8659648757E-03    0.4394276329E-02
    0.4900000000E+03    0.4516164329E-04    0.6906692937E+00    0.1255514441E-03    0.9071648196E-03    0.4391510508E-02
    0.1000000000E+03    0.1113525602E-04    0.6716081595E+00    0.2620667234E-04    0.1815499823E-03    0.4424699847E-02
    0.3000000000E+03    0.2748995767E-04    0.6875041178E+00    0.7452213368E-04    0.5357105539E-03    0.4414714233E-02
    0.5000000000E+03    0.4615495078E-04    0.6907696466E+00    0.1284100491E-03    0.9279696739E-03    0.4390102225E-02
    0.7000000000E+03    0.6757271662E-04    0.6921767762E+00    0.1899473985E-03    0.1375971745E-02    0.4358519839E-02
    0.9000000000E+03    0.9248586791E-04    0.6929599194E+00    0.2614252872E-03    0.1896763259E-02    0.4320293672E-02
    0.1100000000E+04    0.1218754929E-03    0.6934585106E+00    0.3457218092E-03    0.2511516282E-02    0.4274462380E-02
    0.1300000000E+04    0.1570659770E-03    0.6938036211E+00    0.4466772845E-03    0.3248448010E-02    0.4219291287E-02
    0.1500000000E+04    0.1998921688E-03    0.6940565581E+00    0.5695960816E-03    0.4146550104E-02    0.4152203092E-02
    0.1700000000E+04    0.2529595325E-03    0.6942498250E+00    0.7220065329E-03    0.5261207928E-02    0.4069476414E-02
    0.1900000000E+04    0.3200565716E-03    0.6944022574E+00    0.9148602336E-03    0.6673073653E-02    0.3965713454E-02
    0.2100000000E+04    0.4068132769E-03    0.6945255223E+00    0.1164447808E-02    0.8502267273E-02    0.3832989739E-02
    0.2300000000E+04    0.5217311995E-03    0.6946272316E+00    0.1495404087E-02    0.1093072397E-01    0.3659575414E-02
    0.2500000000E+04    0.6776539741E-03    0.6947125627E+00    0.1945023586E-02    0.1423448171E-01    0.3428276185E-02
    0.2700000000E+04    0.8932270300E-03    0.6947851592E+00    0.2567630058E-02    0.1881702441E-01    0.3115346466E-02
    0.2900000000E+04    0.1191692385E-02    0.6948476598E+00    0.3431409732E-02    0.2518839075E-01    0.2694235594E-02
    0.3100000000E+04    0.1588641191E-02    0.6949020219E+00    0.4583491552E-02    0.3371164583E-01    0.2155859846E-02
    0.3300000000E+04    0.2059150027E-02    0.6949497285E+00    0.5954966576E-02    0.4390333013E-01    0.1554398736E-02
    0.3500000000E+04    0.2516485977E-02    0.6949919232E+00    0.7297424927E-02    0.5395134811E-01    0.1023677484E-02
    0.3700000000E+04    0.2875485646E-02    0.6950295023E+00    0.8363665929E-02    0.6202707117E-01    0.6718367272E-03
    0.3900000000E+04    0.3126513511E-02    0.6950631781E+00    0.9122834770E-02    0.6788046763E-01    0.4886741005E-03
    0.4100000000E+04    0.3306373958E-02    0.6950935237E+00    0.9679194607E-02    0.7226354857E-01    0.4066956273E-03
    0.4300000000E+04    0.3448753533E-02    0.6951210055E+00    0.1012929921E-01    0.7588147061E-01    0.3728535466E-03
    0.4500000000E+04    0.3572488142E-02    0.6951460068E+00    0.1052738584E-01    0.7913231335E-01    0.3595960384E-03
    0.4700000000E+04    0.3686392306E-02    0.6951688456E+00    0.1089888934E-01    0.8220323083E-01    0.3547529960E-03
    0.4900000000E+04    0.3794334718E-02    0.6951897879E+00    0.1125496344E-01    0.8517627910E-01    0.3532837633E-03
    0.1000000000E+04    0.1065480038E-03    0.6932341420E+00    0.3017587164E-03    0.2190833235E-02    0.4298419477E-02
    0.3000000000E+04    0.1377960810E-02    0.6948757562E+00    0.3971534337E-02    0.2918053650E-01    0.2438435967E-02
    0.5000000000E+04    0.3846640292E-02    0.6951996193E+00    0.1142884884E-01    0.8663807285E-01    0.3531183421E-03
    0.7000000000E+04    0.4734842425E-02    0.6953362458E+00    0.1452981849E-01    0.1138347509E+00    0.3588190289E-03
    0.9000000000E+04    0.5387744036E-02    0.6954109045E+00    0.1706061177E-01    0.1379534575E+00    0.3638850078E-03
    0.1100000000E+05    0.5863243121E-02    0.6954576077E+00    0.1914152125E-01    0.1595537990E+00    0.3679776462E-03
    0.1300000000E+05    0.6203181616E-02    0.6954893745E+00    0.2086117907E-01    0.1790516984E+00    0.3714176635E-03
    0.1500000000E+05    0.6438716567E-02    0.6955122506E+00    0.2228745839E-01    0.1967730290E+00    0.3743887281E-03
    0.1700000000E+05    0.6593345601E-02    0.6955294204E+00    0.2347310625E-01    0.2129769719E+00    0.3770060315E-03
    0.1900000000E+05    0.6684987936E-02    0.6955427180E+00    0.2445965465E-01    0.2278724507E+00    0.3793466796E-03
    0.2100000000E+05    0.6727442378E-02    0.6955532729E+00    0.2528019019E-01    0.2416299233E+00    0.3814648725E-03
    0.2300000000E+05    0.6731425771E-02    0.6955618178E+00    0.2596135005E-01    0.2543899914E+00    0.3834001912E-03
    0.2500000000E+05    0.6705323643E-02    0.6955688483E+00    0.2652478357E-01    0.2662697855E+00    0.3851824396E-03
    0.2700000000E+05    0.6655740105E-02    0.6955747112E+00    0.2698823801E-01    0.2773677700E+00    0.3868346314E-03
    0.2900000000E+05    0.6587905584E-02    0.6955796562E+00    0.2736637580E-01    0.2877674046E+00    0.3883749143E-03
    0.3100000000E+05    0.6505982491E-02    0.6955838677E+00    0.2767139718E-01    0.2975399701E+00    0.3898178565E-03
    0.3300000000E+05    0.6413296677E-02    0.6955874845E+00    0.2791351975E-01    0.3067467724E+00    0.3911753338E-03
    0.3500000000E+05    0.6312514312E-02    0.6955906130E+00    0.2810135171E-01    0.3154408785E+00    0.3924571564E-03
    0.3700000000E+05    0.6205778199E-02    0.6955933364E+00    0.2824218499E-01    0.3236684990E+00    0.3936715243E-03
    0.3900000000E+05    0.6094813627E-02    0.6955957201E+00    0.2834222758E-01    0.3314700961E+00    0.3948253620E-03
    0.4100000000E+05    0.5981011176E-02    0.6955978166E+00    0.2840678911E-01    0.3388812810E+00    0.3959245714E-03
    0.4300000000E+05    0.5865491895E-02    0.6955996685E+00    0.2844043020E-01    0.3459335455E+00    0.3969742246E-03
    0.4500000000E+05    0.5749158931E-02    0.6956013104E+00    0.2844708353E-01    0.3526548623E+00    0.3979787127E-03
    0.4700000000E+05    0.5632738650E-02    0.6956027709E+00    0.2843015269E-01    0.3590701820E+00    0.3989418633E-03
    0.4900000000E+05    0.5516813551E-02    0.6956040738E+00    0.2839259316E-01    0.3652018460E+00    0.3998670331E-03
    0.1000000000E+05    0.5644759515E-02    0.6954366914E+00    0.1815119469E-01    0.1490399835E+00    0.3660284798E-03
    0.3000000000E+05    0.6548479937E-02    0.6955818441E+00    0.2752734579E-01    0.2927280279E+00    0.3891077560E-03
    0.5000000000E+05    0.5459186013E-02    0.6956046726E+00    0.2836689545E-01    0.3681676616E+00    0.4003163141E-03
    0.7000000000E+05    0.4403326146E-02    0.6956118608E+00    0.2724491569E-01    0.4165409542E+00    0.4078729474E-03
    0.9000000000E+05    0.3573282892E-02    0.6956144029E+00    0.2563896821E-01    0.4507607961E+00    0.4136092759E-03
    0.1100000000E+06    0.2939814450E-02    0.6956150886E+00    0.2398589243E-01    0.4764503182E+00    0.4182471922E-03
    0.1300000000E+06    0.2453985550E-02    0.6956149123E+00    0.2242582897E-01    0.4965318549E+00    0.4221476239E-03
    0.1500000000E+06    0.2076271478E-02    0.6956143017E+00    0.2099911715E-01    0.5127017186E+00    0.4255175917E-03
    0.1700000000E+06    0.1778058591E-02    0.6956134642E+00    0.1970991879E-01    0.5260223509E+00    0.4284871113E-03
    0.1900000000E+06    0.1539065509E-02    0.6956125084E+00    0.1854936380E-01    0.5371973890E+00    0.4311432976E-03
    0.2100000000E+06    0.1344862325E-02    0.6956114948E+00    0.1750455116E-01    0.5467132951E+00    0.4335474329E-03
    0.2300000000E+06    0.1185057462E-02    0.6956104582E+00    0.1656212631E-01    0.5549181000E+00    0.4357442961E-03
    0.2500000000E+06    0.1052056572E-02    0.6956094194E+00    0.1570965145E-01    0.5620678720E+00    0.4377676212E-03
    0.2700000000E+06    0.9402249784E-03    0.6956083906E+00    0.1493604916E-01    0.5683554819E+00    0.4396434665E-03
    0.2900000000E+06    0.8453203632E-03    0.6956073791E+00    0.1423165751E-01    0.5739291221E+00    0.4413923874E-03
    0.3100000000E+06    0.7641043603E-03    0.6956063892E+00    0.1358813024E-01    0.5789046282E+00    0.4430308894E-03
    0.3300000000E+06    0.6940730407E-03    0.6956054232E+00    0.1299828520E-01    0.5833739090E+00    0.4445724305E-03
    0.3500000000E+06    0.6332672195E-03    0.6956044823E+00    0.1245594561E-01    0.5874108571E+00    0.4460281305E-03
    0.3700000000E+06    0.5801370432E-03    0.6956035666E+00    0.1195579253E-01    0.5910755799E+00    0.4474072853E-03
    0.3900000000E+06    0.5334439950E-03    0.6956026761E+00    0.1149323503E-01    0.5944174862E+00    0.4487177465E-03
    0.4100000000E+06    0.4921890555E-03    0.6956018102E+00    0.1106429874E-01    0.5974775755E+00    0.4499662069E-03
    0.4300000000E+06    0.4555593885E-03    0.6956009682E+00    0.1066553170E-01    0.6002901611E+00    0.4511584188E-03
    0.4500000000E+06    0.4228883198E-03    0.6956001494E+00    0.1029392525E-01    0.6028841845E+00    0.4522993630E-03
    0.4700000000E+06    0.3936249691E-03    0.6955993527E+00    0.9946847881E-02    0.6052842304E+00    0.4533933814E-03
    0.4900000000E+06    0.3673109745E-03    0.6955985775E+00    0.9621989894E-02    0.6075113194E+00    0.4544442824E-03
    0.1000000000E+06    0.3235163900E-02    0.6956148954E+00    0.2480597136E-01    0.4644498607E+00    0.4160379586E-03
    0.3000000000E+06    0.8031724552E-03    0.6956068813E+00    0.1390276010E-01    0.5764854160E+00    0.4422245377E-03
    0.5000000000E+06    0.3551375283E-03    0.6955981976E+00    0.9467247817E-02    0.6085657561E+00    0.4549546291E-03
    0.7000000000E+06    0.1997811009E-03    0.6955915175E+00    0.7154486964E-02    0.6238692192E+00    0.4635390222E-03
    0.9000000000E+06    0.1281137996E-03    0.6955861527E+00    0.5742408278E-02    0.6328347418E+00    0.4700561942E-03
    0.1100000000E+07    0.8920785239E-04    0.6955816769E+00    0.4792403660E-02    0.6387246042E+00    0.4753257305E-03
    0.1300000000E+07    0.6573293345E-04    0.6955778365E+00    0.4110195188E-02    0.6428895636E+00    0.4797575024E-03
    0.1500000000E+07    0.5047647126E-04    0.6955744720E+00    0.3596825326E-02    0.6459903561E+00    0.4835866383E-03
    0.1700000000E+07    0.3999918770E-04    0.6955714768E+00    0.3196668084E-02    0.6483884697E+00    0.4869608208E-03
    0.1900000000E+07    0.3249104137E-04    0.6955687766E+00    0.2876079786E-02    0.6502983356E+00    0.4899790096E-03
    0.2100000000E+07    0.2692521313E-04    0.6955663175E+00    0.2613527945E-02    0.6518552056E+00    0.4927108224E-03
    0.2300000000E+07    0.2268374236E-04    0.6955640590E+00    0.2394596575E-02    0.6531486083E+00    0.4952071314E-03
    0.2500000000E+07    0.1937652175E-04    0.6955619704E+00    0.2209273147E-02    0.6542401640E+00    0.4975062620E-03
    0.2700000000E+07    0.1674736542E-04    0.6955600272E+00    0.2050387946E-02    0.6551736717E+00    0.4996378200E-03
    0.2900000000E+07    0.1462235760E-04    0.6955582101E+00    0.1912672813E-02    0.6559811167E+00    0.5016251594E-03
    0.3100000000E+07    0.1288004466E-04    0.6955565033E+00    0.1792170423E-02    0.6566864017E+00    0.5034870336E-03
    0.3300000000E+07    0.1143351334E-04    0.6955548940E+00    0.1685850765E-02    0.6573077474E+00    0.5052387334E-03
    0.3500000000E+07    0.1021922956E-04    0.6955533712E+00    0.1591354757E-02    0.6578592863E+00    0.5068928935E-03
    0.3700000000E+07    0.9189871518E-05    0.6955519260E+00    0.1506818421E-02    0.6583521477E+00    0.5084600761E-03
    0.3900000000E+07    0.8309602525E-05    0.6955505507E+00    0.1430749566E-02    0.6587952157E+00    0.5099492022E-03
    0.4100000000E+07    0.7550878178E-05    0.6955492386E+00    0.1361939564E-02    0.6591956674E+00    0.5113678767E-03
    0.4300000000E+07    0.6892243717E-05    0.6955479840E+00    0.1299399095E-02    0.6595593645E+00    0.5127226357E-03
    0.4500000000E+07    0.6316785414E-05    0.6955467819E+00    0.1242310600E-02    0.6598911411E+00    0.5140191386E-03
    0.4700000000E+07    0.5811022989E-05    0.6955456281E+00    0.1189992581E-02    0.6601950197E+00    0.5152623191E-03
    0.4900000000E+07    0.5364105076E-05    0.6955445187E+00    0.1141872449E-02    0.6604743741E+00    0.5164565044E-03
    0.1000000000E+07    0.1060165518E-03    0.6955838224E+00    0.5225007021E-02    0.6360559470E+00    0.4728156018E-03
    0.3000000000E+07    0.1370945055E-04    0.6955573438E+00    0.1850477649E-02    0.6563452790E+00    0.5025707536E-03
    0.5000000000E+07    0.5159891447E-05    0.6955439796E+00    0.1119232190E-02    0.6606057635E+00    0.5170364343E-03
    0.7000000000E+07    0.2699612091E-05    0.6955348798E+00    0.8007624657E-03    0.6624512594E+00    0.5267912926E-03
    0.9000000000E+07    0.1662119616E-05    0.6955279389E+00    0.6227589645E-03    0.6634811362E+00    0.5341970875E-03
    0.1100000000E+08    0.1128071513E-05    0.6955223108E+00    0.5091766151E-03    0.6641380407E+00    0.5401851340E-03
    0.1300000000E+08    0.8169869391E-06    0.6955175684E+00    0.4304452226E-03    0.6645934338E+00    0.5452211847E-03
    0.1500000000E+08    0.6198003896E-06    0.6955134650E+00    0.3726803782E-03    0.6649276647E+00    0.5495724269E-03
    0.1700000000E+08    0.4868791262E-06    0.6955098451E+00    0.3285036584E-03    0.6651833865E+00    0.5534066799E-03
    0.1900000000E+08    0.3929818316E-06    0.6955066043E+00    0.2936328366E-03    0.6653853395E+00    0.5568363969E-03
    0.2100000000E+08    0.3241601338E-06    0.6955036687E+00    0.2654126492E-03    0.6655488595E+00    0.5599406885E-03
    0.2300000000E+08    0.2721920239E-06    0.6955009846E+00    0.2421094720E-03    0.6656839583E+00    0.5627773636E-03
    0.2500000000E+08    0.2319737072E-06    0.6954985111E+00    0.2225435513E-03    0.6657974491E+00    0.5653899736E-03
    0.2700000000E+08    0.2001998110E-06    0.6954962168E+00    0.2058842750E-03    0.6658941292E+00    0.5678121611E-03
