  Pressure (Pa) 23mC5-500 (mol/kg) 24mC5-500 (mol/kg) 2mC6-500 (mol/kg) 3mC6-500 (mol/kg) C7-500 (mol/kg)
    0.1000000000E+01    0.2142785281E-05    0.6964774683E-01    0.3228840821E-05    0.3544221920E-05    0.4244776732E-02
    0.3000000000E+01    0.5131114160E-05    0.1740654930E+00    0.7487635697E-05    0.9207521257E-05    0.4367925599E-02
    0.5000000000E+01    0.7089626187E-05    0.2486100864E+00    0.1010396189E-04    0.1444952043E-04    0.4455733764E-02
    0.7000000000E+01    0.8444133940E-05    0.3044969575E+00    0.1181390554E-04    0.1948576192E-04    0.4522130539E-02
    0.9000000000E+01    0.9420206067E-05    0.3479517456E+00    0.1299147308E-04    0.2438977990E-04    0.4574251184E-02
    0.1100000000E+02    0.1014753348E-04    0.3827075195E+00    0.1384282466E-04    0.2919859946E-04    0.4616341328E-02
    0.1300000000E+02    0.1070523905E-04    0.4111387231E+00    0.1448824053E-04    0.3393435523E-04    0.4651101977E-02
    0.1500000000E+02    0.1114387720E-04    0.4348277086E+00    0.1500100279E-04    0.3861168248E-04    0.4680337204E-02
    0.1700000000E+02    0.1149697193E-04    0.4548696047E+00    0.1542730552E-04    0.4324092873E-04    0.4705299395E-02
    0.1900000000E+02    0.1178744359E-04    0.4720464402E+00    0.1579706767E-04    0.4782976990E-04    0.4726885913E-02
    0.2100000000E+02    0.1203136816E-04    0.4869315755E+00    0.1613009071E-04    0.5238411003E-04    0.4745757025E-02
    0.2300000000E+02    0.1224026747E-04    0.4999549487E+00    0.1643970565E-04    0.5690862069E-04    0.4762409652E-02
    0.2500000000E+02    0.1242255351E-04    0.5114452817E+00    0.1673500561E-04    0.6140708344E-04    0.4777225145E-02
    0.2700000000E+02    0.1258446646E-04    0.5216582100E+00    0.1702225165E-04    0.6588261721E-04    0.4790501178E-02
    0.2900000000E+02    0.1273069992E-04    0.5307955256E+00    0.1730577969E-04    0.7033783508E-04    0.4802473611E-02
    0.3100000000E+02    0.1286482704E-04    0.5390186437E+00    0.1758859818E-04    0.7477495569E-04    0.4813331827E-02
    0.3300000000E+02    0.1298959676E-04    0.5464582205E+00    0.1787278906E-04    0.7919588451E-04    0.4823229697E-02
    0.3500000000E+02    0.1310714356E-04    0.5532211468E+00    0.1815978127E-04    0.8360227448E-04    0.4832293580E-02
    0.3700000000E+02    0.1321913814E-04    0.5593957164E+00    0.1845053998E-04    0.8799557207E-04    0.4840628246E-02
    0.3900000000E+02    0.1332689746E-04    0.5650555020E+00    0.1874569898E-04    0.9237705300E-04    0.4848321324E-02
    0.4100000000E+02    0.1343146591E-04    0.5702623003E+00    0.1904565446E-04    0.9674785017E-04    0.4855446697E-02
    0.4300000000E+02    0.1353367606E-04    0.5750683977E+00    0.1935063203E-04    0.1011089759E-03    0.4862067110E-02
    0.4500000000E+02    0.1363419451E-04    0.5795183319E+00    0.1966073494E-04    0.1054613401E-03    0.4868236210E-02
    0.4700000000E+02    0.1373355689E-04    0.5836502758E+00    0.1997597904E-04    0.1098057644E-03    0.4874000150E-02
    0.4900000000E+02    0.1383219480E-04    0.5874971357E+00    0.2029631832E-04    0.1141429946E-03    0.4879398864E-02
    0.1000000000E+02    0.9809160814E-05    0.3662451517E+00    0.1344897990E-04    0.2680447477E-04    0.4596354683E-02
    0.3000000000E+02    0.1279908845E-04    0.5350125649E+00    0.1744712950E-04    0.7255853191E-04    0.4808031653E-02
    0.5000000000E+02    0.1388135375E-04    0.5893227219E+00    0.2045837206E-04    0.1163091265E-03    0.4881972296E-02
    0.7000000000E+02    0.1488220044E-04    0.6161253559E+00    0.2393495410E-04    0.1593919290E-03    0.4920716124E-02
    0.9000000000E+02    0.1596675281E-04    0.6320949690E+00    0.2776115284E-04    0.2022719963E-03    0.4944794900E-02
    0.1100000000E+03    0.1714441140E-04    0.6426945913E+00    0.3182806060E-04    0.2451892076E-03    0.4961201832E-02
    0.1300000000E+03    0.1840395428E-04    0.6502426281E+00    0.3607111601E-04    0.2882918681E-03    0.4973014829E-02
    0.1500000000E+03    0.1973357173E-04    0.6558908391E+00    0.4045278895E-04    0.3316825090E-03    0.4981816835E-02
    0.1700000000E+03    0.2112387703E-04    0.6602761647E+00    0.4495080936E-04    0.3754377952E-03    0.4988512661E-02
    0.1900000000E+03    0.2256786632E-04    0.6637794561E+00    0.4955172200E-04    0.4196185385E-03    0.4993660689E-02
    0.2100000000E+03    0.2406040552E-04    0.6666424223E+00    0.5424736400E-04    0.4642752667E-03    0.4997626148E-02
    0.2300000000E+03    0.2559775334E-04    0.6690258545E+00    0.5903287679E-04    0.5094515616E-03    0.5000659079E-02
    0.2500000000E+03    0.2717719726E-04    0.6710408715E+00    0.6390554149E-04    0.5551861787E-03    0.5002937051E-02
    0.2700000000E+03    0.2879678988E-04    0.6727667255E+00    0.6886407234E-04    0.6015144575E-03    0.5004590015E-02
    0.2900000000E+03    0.3045516012E-04    0.6742614604E+00    0.7390817439E-04    0.6484692972E-03    0.5005715470E-02
    0.3100000000E+03    0.3215137771E-04    0.6755685614E+00    0.7903825876E-04    0.6960818549E-03    0.5006388117E-02
    0.3300000000E+03    0.3388485515E-04    0.6767212500E+00    0.8425525524E-04    0.7443820600E-03    0.5006666211E-02
    0.3500000000E+03    0.3565527593E-04    0.6777453429E+00    0.8956048620E-04    0.7933990031E-03    0.5006595872E-02
    0.3700000000E+03    0.3746254158E-04    0.6786612067E+00    0.9495558066E-04    0.8431612379E-03    0.5006214086E-02
    0.3900000000E+03    0.3930673208E-04    0.6794851232E+00    0.1004424147E-03    0.8936970207E-03    0.5005550835E-02
    0.4100000000E+03    0.4118807606E-04    0.6802302652E+00    0.1060230702E-03    0.9450345042E-03    0.5004630651E-02
    0.4300000000E+03    0.4310692818E-04    0.6809074042E+00    0.1116998054E-03    0.9972018991E-03    0.5003473757E-02
    0.4500000000E+03    0.4506375183E-04    0.6815254340E+00    0.1174750353E-03    0.1050227610E-02    0.5002096934E-02
    0.4700000000E+03    0.4705910594E-04    0.6820917625E+00    0.1233513171E-03    0.1104140352E-02    0.5000514167E-02
    0.4900000000E+03    0.4909363474E-04    0.6826126099E+00    0.1293313411E-03    0.1158969257E-02    0.4998737159E-02
    0.1000000000E+03    0.1654454804E-04    0.6378812404E+00    0.2976937404E-04    0.2237152728E-03    0.4953714364E-02
    0.3000000000E+03    0.3129858180E-04    0.6749361872E+00    0.7646242111E-04    0.6721914670E-03    0.5006104426E-02
    0.5000000000E+03    0.5012581235E-04    0.6828576544E+00    0.1323611319E-03    0.1186736510E-02    0.4997778945E-02
    0.7000000000E+03    0.7304239496E-04    0.6863042938E+00    0.1991677094E-03    0.1797872748E-02    0.4970073753E-02
    0.9000000000E+03    0.1011410025E-03    0.6882310180E+00    0.2804837368E-03    0.2540800127E-02    0.4927582238E-02
    0.1100000000E+04    0.1361844731E-03    0.6894607022E+00    0.3815654909E-03    0.3464409577E-02    0.4869375580E-02
    0.1300000000E+04    0.1808550009E-03    0.6903131490E+00    0.5102347078E-03    0.4640835496E-02    0.4791713058E-02
    0.1500000000E+04    0.2393041119E-03    0.6909385378E+00    0.6785268525E-03    0.6180928711E-02    0.4687875653E-02
    0.1700000000E+04    0.3181473026E-03    0.6914167052E+00    0.9055995388E-03    0.8261246684E-02    0.4546813338E-02
    0.1900000000E+04    0.4282139358E-03    0.6917940063E+00    0.1222838051E-02    0.1117147049E-01    0.4350548444E-02
    0.2100000000E+04    0.5873738756E-03    0.6920991971E+00    0.1682140021E-02    0.1539176492E-01    0.4070240976E-02
    0.2300000000E+04    0.8235258523E-03    0.6923510604E+00    0.2364858304E-02    0.2167804562E-01    0.3663461718E-02
    0.2500000000E+04    0.1169615449E-02    0.6925623832E+00    0.3368111506E-02    0.3094275690E-01    0.3088169535E-02
    0.2700000000E+04    0.1624606486E-02    0.6927421713E+00    0.4692775759E-02    0.4323124528E-01    0.2374870657E-02
    0.2900000000E+04    0.2088973753E-02    0.6928969504E+00    0.6055124594E-02    0.5596917274E-01    0.1719366773E-02
    0.3100000000E+04    0.2437326609E-02    0.6930315642E+00    0.7091746875E-02    0.6580146242E-01    0.1319129461E-02
    0.3300000000E+04    0.2662764488E-02    0.6931496836E+00    0.7778486409E-02    0.7246581986E-01    0.1146093265E-02
    0.3500000000E+04    0.2820338654E-02    0.6932541406E+00    0.8272030584E-02    0.7738201227E-01    0.1085163715E-02
    0.3700000000E+04    0.2948141839E-02    0.6933471555E+00    0.8681848113E-02    0.8155218272E-01    0.1066631202E-02
    0.3900000000E+04    0.3062647774E-02    0.6934304930E+00    0.9055460217E-02    0.8541321730E-01    0.1062545814E-02
    0.4100000000E+04    0.3170013101E-02    0.6935055736E+00    0.9410624601E-02    0.8912847076E-01    0.1063166404E-02
    0.4300000000E+04    0.3272479022E-02    0.6935735531E+00    0.9753752845E-02    0.9275653013E-01    0.1065251170E-02
    0.4500000000E+04    0.3370901509E-02    0.6936353821E+00    0.1008722893E-01    0.9631865437E-01    0.1067738733E-02
    0.4700000000E+04    0.3465655335E-02    0.6936918489E+00    0.1041203551E-01    0.9982308582E-01    0.1070286066E-02
    0.4900000000E+04    0.3556947142E-02    0.6937436133E+00    0.1072866704E-01    0.1032735379E+00    0.1072785702E-02
    0.1000000000E+04    0.1176533618E-03    0.6889070560E+00    0.3281400324E-03    0.2976197493E-02    0.4900615806E-02
    0.3000000000E+04    0.2281068733E-02    0.6929665256E+00    0.6624296966E-02    0.6134448903E-01    0.1484172276E-02
    0.5000000000E+04    0.3601341552E-02    0.6937679092E+00    0.1088402059E-01    0.1049792127E+00    0.1074006857E-02
    0.7000000000E+04    0.4335808656E-02    0.6941050718E+00    0.1362121289E-01    0.1366161173E+00    0.1094577907E-02
    0.9000000000E+04    0.4836570614E-02    0.6942886805E+00    0.1577405663E-01    0.1642195579E+00    0.1110134459E-02
    0.1100000000E+05    0.5168583097E-02    0.6944030986E+00    0.1747883074E-01    0.1885785143E+00    0.1122681524E-02
    0.1300000000E+05    0.5377459050E-02    0.6944806027E+00    0.1883455503E-01    0.2102826293E+00    0.1133216742E-02
    0.1500000000E+05    0.5495790912E-02    0.6945361696E+00    0.1991467523E-01    0.2297820520E+00    0.1142309057E-02
    0.1700000000E+05    0.5547213087E-02    0.6945776810E+00    0.2077464645E-01    0.2474268279E+00    0.1150314386E-02
    0.1900000000E+05    0.5549080470E-02    0.6946096721E+00    0.2145699844E-01    0.2634936256E+00    0.1157470521E-02
    0.2100000000E+05    0.5514273386E-02    0.6946349326E+00    0.2199480012E-01    0.2782043057E+00    0.1163944377E-02
    0.2300000000E+05    0.5452437523E-02    0.6946552703E+00    0.2241407978E-01    0.2917390949E+00    0.1169857710E-02
    0.2500000000E+05    0.5370850440E-02    0.6946719065E+00    0.2273554791E-01    0.3042461110E+00    0.1175302118E-02
    0.2700000000E+05    0.5275036417E-02    0.6946856950E+00    0.2297584460E-01    0.3158483678E+00    0.1180348276E-02
    0.2900000000E+05    0.5169208765E-02    0.6946972496E+00    0.2314845661E-01    0.3266490058E+00    0.1185051882E-02
    0.3100000000E+05    0.5056591919E-02    0.6947070231E+00    0.2326440112E-01    0.3367352532E+00    0.1189457624E-02
    0.3300000000E+05    0.4939658629E-02    0.6947153556E+00    0.2333274192E-01    0.3461814655E+00    0.1193601912E-02
    0.3500000000E+05    0.4820306366E-02    0.6947225082E+00    0.2336098372E-01    0.3550514841E+00    0.1197514814E-02
    0.3700000000E+05    0.4699989721E-02    0.6947286836E+00    0.2335537649E-01    0.3634004871E+00    0.1201221453E-02
    0.3900000000E+05    0.4579820590E-02    0.6947340422E+00    0.2332115276E-01    0.3712764564E+00    0.1204743037E-02
    0.4100000000E+05    0.4460644556E-02    0.6947387118E+00    0.2326271426E-01    0.3787213515E+00    0.1208097639E-02
    0.4300000000E+05    0.4343099507E-02    0.6947427959E+00    0.2318377993E-01    0.3857720566E+00    0.1211300783E-02
    0.4500000000E+05    0.4227660901E-02    0.6947463788E+00    0.2308750425E-01    0.3924611507E+00    0.1214365910E-02
    0.4700000000E+05    0.4114676914E-02    0.6947495302E+00    0.2297657251E-01    0.3988175393E+00    0.1217304732E-02
    0.4900000000E+05    0.4004395860E-02    0.6947523077E+00    0.2285327800E-01    0.4048669757E+00    0.1220127519E-02
    0.1000000000E+05    0.5020454360E-02    0.6943519121E+00    0.1667555255E-01    0.1767638989E+00    0.1116707803E-02
    0.3000000000E+05    0.5113579143E-02    0.6947023355E+00    0.2321290516E-01    0.3317765098E+00    0.1187289542E-02
    0.5000000000E+05    0.3950324614E-02    0.6947535716E+00    0.2278761990E-01    0.4077838807E+00    0.1221498270E-02
    0.7000000000E+05    0.3026305042E-02    0.6947676301E+00    0.2117608800E-01    0.4544978708E+00    0.1244549221E-02
    0.9000000000E+05    0.2365417194E-02    0.6947710220E+00    0.1944876385E-01    0.4865252370E+00    0.1262043102E-02
    0.1100000000E+06    0.1891128909E-02    0.6947703425E+00    0.1785526185E-01    0.5099865560E+00    0.1276185087E-02
    0.1300000000E+06    0.1543289348E-02    0.6947678897E+00    0.1644425967E-01    0.5279666068E+00    0.1288077132E-02
    0.1500000000E+06    0.1282018968E-02    0.6947646255E+00    0.1520904683E-01    0.5422094029E+00    0.1298351093E-02
    0.1700000000E+06    0.1081349203E-02    0.6947610006E+00    0.1412872402E-01    0.5537823405E+00    0.1307403707E-02
    0.1900000000E+06    0.9241278523E-03    0.6947572419E+00    0.1318082635E-01    0.5633781112E+00    0.1315500760E-02
    0.2100000000E+06    0.7987706332E-03    0.6947534687E+00    0.1234507837E-01    0.5714670749E+00    0.1322829197E-02
    0.2300000000E+06    0.6972681726E-03    0.6947497452E+00    0.1160422482E-01    0.5783804081E+00    0.1329525607E-02
    0.2500000000E+06    0.6139574849E-03    0.6947461054E+00    0.1094390538E-01    0.5843583282E+00    0.1335692881E-02
    0.2700000000E+06    0.5447511163E-03    0.6947425667E+00    0.1035225791E-01    0.5895794690E+00    0.1341410491E-02
    0.2900000000E+06    0.4866429013E-03    0.6947391367E+00    0.9819489532E-02    0.5941795119E+00    0.1346741125E-02
    0.3100000000E+06    0.4373840089E-03    0.6947358177E+00    0.9337492873E-02    0.5982634141E+00    0.1351735116E-02
    0.3300000000E+06    0.3952660558E-03    0.6947326084E+00    0.8899525614E-02    0.6019136686E+00    0.1356433503E-02
    0.3500000000E+06    0.3589729875E-03    0.6947295059E+00    0.8499950805E-02    0.6051960278E+00    0.1360870193E-02
    0.3700000000E+06    0.3274780405E-03    0.6947265062E+00    0.8134029003E-02    0.6081635566E+00    0.1365073532E-02
    0.3900000000E+06    0.2999708379E-03    0.6947236047E+00    0.7797752625E-02    0.6108595592E+00    0.1369067459E-02
    0.4100000000E+06    0.2758049910E-03    0.6947207967E+00    0.7487713913E-02    0.6133197301E+00    0.1372872380E-02
    0.4300000000E+06    0.2544598926E-03    0.6947180775E+00    0.7200999407E-02    0.6155737583E+00    0.1376505834E-02
    0.4500000000E+06    0.2355124859E-03    0.6947154425E+00    0.6935105247E-02    0.6176465419E+00    0.1379983007E-02
    0.4700000000E+06    0.2186161456E-03    0.6947128874E+00    0.6687868886E-02    0.6195591186E+00    0.1383317137E-02
    0.4900000000E+06    0.2034846997E-03    0.6947104078E+00    0.6457413721E-02    0.6213293871E+00    0.1386519834E-02
    0.1000000000E+06    0.2109250644E-02    0.6947709994E+00    0.1863008733E-01    0.4990904191E+00    0.1269448876E-02
    0.3000000000E+06    0.4610247285E-03    0.6947374634E+00    0.9572594806E-02    0.5962803752E+00    0.1349277447E-02
    0.5000000000E+06    0.1965048465E-03    0.6947091951E+00    0.6347959559E-02    0.6221660325E+00    0.1388075143E-02
    0.7000000000E+06    0.1086473872E-03    0.6946880726E+00    0.4735771628E-02    0.6341995469E+00    0.1414235624E-02
    0.9000000000E+06    0.6898341712E-04    0.6946713037E+00    0.3772217643E-02    0.6411544960E+00    0.1434095292E-02
    0.1100000000E+07    0.4773017473E-04    0.6946574000E+00    0.3132348543E-02    0.6456854034E+00    0.1450152438E-02
    0.1300000000E+07    0.3501809383E-04    0.6946455167E+00    0.2676873076E-02    0.6488711975E+00    0.1463656368E-02
    0.1500000000E+07    0.2680798251E-04    0.6946351336E+00    0.2336289943E-02    0.6512332541E+00    0.1475323730E-02
    0.1700000000E+07    0.2119610630E-04    0.6946259083E+00    0.2072085521E-02    0.6530543541E+00    0.1485604632E-02
    0.1900000000E+07    0.1718914632E-04    0.6946176039E+00    0.1861210132E-02    0.6545011534E+00    0.1494800675E-02
    0.2100000000E+07    0.1422732435E-04    0.6946100497E+00    0.1689030709E-02    0.6556782385E+00    0.1503124029E-02
    0.2300000000E+07    0.1197552279E-04    0.6946031186E+00    0.1545813300E-02    0.6566545595E+00    0.1510729731E-02
    0.2500000000E+07    0.1022309172E-04    0.6945967136E+00    0.1424832606E-02    0.6574774155E+00    0.1517734580E-02
    0.2700000000E+07    0.8832186283E-05    0.6945907585E+00    0.1321293737E-02    0.6581803329E+00    0.1524228798E-02
    0.2900000000E+07    0.7709507737E-05    0.6945851930E+00    0.1231686432E-02    0.6587877383E+00    0.1530283557E-02
    0.3100000000E+07    0.6790067176E-05    0.6945799680E+00    0.1153382140E-02    0.6593178484E+00    0.1535956004E-02
    0.3300000000E+07    0.6027460261E-05    0.6945750433E+00    0.1084373726E-02    0.6597845258E+00    0.1541292737E-02
    0.3500000000E+07    0.5387830117E-05    0.6945703853E+00    0.1023102204E-02    0.6601985063E+00    0.1546332259E-02
    0.3700000000E+07    0.4846001689E-05    0.6945659661E+00    0.9683383566E-03    0.6605682327E+00    0.1551106755E-02
    0.3900000000E+07    0.4382938319E-05    0.6945617616E+00    0.9190999764E-03    0.6609004367E+00    0.1555643411E-02
    0.4100000000E+07    0.3984027605E-05    0.6945577515E+00    0.8745928313E-03    0.6612005507E+00    0.1559965399E-02
    0.4300000000E+07    0.3637901192E-05    0.6945539181E+00    0.8341677786E-03    0.6614730072E+00    0.1564092639E-02
    0.4500000000E+07    0.3335606431E-05    0.6945502462E+00    0.7972891031E-03    0.6617214585E+00    0.1568042374E-02
    0.4700000000E+07    0.3070014889E-05    0.6945467223E+00    0.7635107960E-03    0.6619489412E+00    0.1571829639E-02
    0.4900000000E+07    0.2835393303E-05    0.6945433346E+00    0.7324585451E-03    0.6621580006E+00    0.1575467620E-02
    0.1000000000E+07    0.5688565280E-04    0.6946640566E+00    0.3422907554E-02    0.6436362194E+00    0.1442503729E-02
    0.3000000000E+07    0.7227634447E-05    0.6945825407E+00    0.1191259060E-02    0.6590615035E+00    0.1533164442E-02
    0.5000000000E+07    0.2728206644E-05    0.6945416885E+00    0.7178538498E-03    0.6622563065E+00    0.1577234317E-02
    0.7000000000E+07    0.1437657103E-05    0.6945139238E+00    0.5127695061E-03    0.6636356999E+00    0.1606950667E-02
    0.9000000000E+07    0.8934204058E-06    0.6944927657E+00    0.3984271456E-03    0.6644043642E+00    0.1629509998E-02
    0.1100000000E+08    0.6128860165E-06    0.6944756195E+00    0.3255732850E-03    0.6648942710E+00    0.1647749971E-02
    0.1300000000E+08    0.4491210395E-06    0.6944611774E+00    0.2751222932E-03    0.6652337336E+00    0.1663089654E-02
    0.1500000000E+08    0.3450376610E-06    0.6944486852E+00    0.2381320422E-03    0.6654828031E+00    0.1676343097E-02
    0.1700000000E+08    0.2746610906E-06    0.6944376678E+00    0.2098575755E-03    0.6656733296E+00    0.1688021588E-02
    0.1900000000E+08    0.2247783110E-06    0.6944278061E+00    0.1875480483E-03    0.6658237755E+00    0.1698467729E-02
    0.2100000000E+08    0.1880839528E-06    0.6944188751E+00    0.1694991741E-03    0.6659455803E+00    0.1707922534E-02
    0.2300000000E+08    0.1602686265E-06    0.6944107100E+00    0.1545989554E-03    0.6660462093E+00    0.1716562117E-02
    0.2500000000E+08    0.1386548865E-06    0.6944031869E+00    0.1420910680E-03    0.6661307412E+00    0.1724519156E-02
    0.2700000000E+08    0.1215069520E-06    0.6943962095E+00    0.1314432536E-03    0.6662027514E+00    0.1731896141E-02
