  Pressure (Pa) 23mC5-500 (mol/kg) 24mC5-500 (mol/kg) 2mC6-500 (mol/kg) 3mC6-500 (mol/kg) C7-500 (mol/kg)
    0.1000000000E+01    0.2295020241E-05    0.3665892938E-01    0.2453027889E-04    0.4002690150E-05    0.4197362349E-02
    0.3000000000E+01    0.6053496327E-05    0.9947831397E-01    0.6332124717E-04    0.1024255488E-04    0.4265413607E-02
    0.5000000000E+01    0.9019512201E-05    0.1513499316E+00    0.9288366202E-04    0.1598829290E-04    0.4318949989E-02
    0.7000000000E+01    0.1140610535E-04    0.1949068673E+00    0.1159130774E-03    0.2149836952E-04    0.4363698717E-02
    0.9000000000E+01    0.1335649397E-04    0.2320004267E+00    0.1341690854E-03    0.2685993900E-04    0.4401821030E-02
    0.1100000000E+02    0.1497161770E-04    0.2639702381E+00    0.1488658543E-03    0.3211659047E-04    0.4434730094E-02
    0.1300000000E+02    0.1632466017E-04    0.2918096082E+00    0.1608662392E-03    0.3729425649E-04    0.4463443576E-02
    0.1500000000E+02    0.1746987352E-04    0.3162706462E+00    0.1707971394E-03    0.4241001860E-04    0.4488723731E-02
    0.1700000000E+02    0.1844823272E-04    0.3379332875E+00    0.1791223707E-03    0.4747591693E-04    0.4511155758E-02
    0.1900000000E+02    0.1929118651E-04    0.3572518970E+00    0.1861904362E-03    0.5250086055E-04    0.4531197409E-02
    0.2100000000E+02    0.2002321440E-04    0.3745875119E+00    0.1922667276E-03    0.5749168782E-04    0.4549212326E-02
    0.2300000000E+02    0.2066360995E-04    0.3902306355E+00    0.1975557347E-03    0.6245380056E-04    0.4565493249E-02
    0.2500000000E+02    0.2122774932E-04    0.4044176606E+00    0.2022166648E-03    0.6739156551E-04    0.4580278612E-02
    0.2700000000E+02    0.2172800957E-04    0.4173429087E+00    0.2063746185E-03    0.7230858061E-04    0.4593764644E-02
    0.2900000000E+02    0.2217444374E-04    0.4291675914E+00    0.2101287079E-03    0.7720785803E-04    0.4606114359E-02
    0.3100000000E+02    0.2257528428E-04    0.4400265748E+00    0.2135580352E-03    0.8209195409E-04    0.4617464329E-02
    0.3300000000E+02    0.2293732314E-04    0.4500335503E+00    0.2167261493E-03    0.8696306391E-04    0.4627929861E-02
    0.3500000000E+02    0.2326620214E-04    0.4592850340E+00    0.2196844060E-03    0.9182309181E-04    0.4637608999E-02
    0.3700000000E+02    0.2356663709E-04    0.4678634921E+00    0.2224745267E-03    0.9667370485E-04    0.4646585650E-02
    0.3900000000E+02    0.2384259253E-04    0.4758398081E+00    0.2251305660E-03    0.1015163741E-03    0.4654932055E-02
    0.4100000000E+02    0.2409741918E-04    0.4832752472E+00    0.2276804368E-03    0.1063524072E-03    0.4662710757E-02
    0.4300000000E+02    0.2433396291E-04    0.4902230347E+00    0.2301471022E-03    0.1111829737E-03    0.4669976184E-02
    0.4500000000E+02    0.2455465184E-04    0.4967296332E+00    0.2325495146E-03    0.1160091263E-03    0.4676775928E-02
    0.4700000000E+02    0.2476156646E-04    0.5028357832E+00    0.2349033593E-03    0.1208318172E-03    0.4683151790E-02
    0.4900000000E+02    0.2495649642E-04    0.5085773583E+00    0.2372216479E-03    0.1256519121E-03    0.4689140641E-02
    0.1000000000E+02    0.1420086255E-04    0.2485570547E+00    0.1419018303E-03    0.2949948527E-04    0.4418856422E-02
    0.3000000000E+02    0.2238010873E-04    0.4347102453E+00    0.2118796744E-03    0.7965165899E-04    0.4611906659E-02
    0.5000000000E+02    0.2504995848E-04    0.5113214860E+00    0.2383709128E-03    0.1280612357E-03    0.4692000289E-02
    0.7000000000E+02    0.2657105731E-04    0.5531072087E+00    0.2613090689E-03    0.1762726992E-03    0.4735117967E-02
    0.9000000000E+02    0.2781667275E-04    0.5794179624E+00    0.2861014036E-03    0.2248348217E-03    0.4761294967E-02
    0.1100000000E+03    0.2903423138E-04    0.5975077918E+00    0.3134562426E-03    0.2740442452E-03    0.4778175455E-02
    0.1300000000E+03    0.3030592125E-04    0.6107092999E+00    0.3432528338E-03    0.3240975039E-03    0.4789329488E-02
    0.1500000000E+03    0.3166059594E-04    0.6207681215E+00    0.3752564331E-03    0.3751427643E-03    0.4796655621E-02
    0.1700000000E+03    0.3310790007E-04    0.6286870999E+00    0.4092634282E-03    0.4273022387E-03    0.4801259483E-02
    0.1900000000E+03    0.3465026646E-04    0.6350834000E+00    0.4451232005E-03    0.4806834753E-03    0.4803829491E-02
    0.2100000000E+03    0.3628753751E-04    0.6403576600E+00    0.4827328122E-03    0.5353856914E-03    0.4804816698E-02
    0.2300000000E+03    0.3801884441E-04    0.6447812953E+00    0.5220274305E-03    0.5915036388E-03    0.4804528572E-02
    0.2500000000E+03    0.3984338588E-04    0.6485447127E+00    0.5629718386E-03    0.6491301367E-03    0.4803181300E-02
    0.2700000000E+03    0.4176074284E-04    0.6517854353E+00    0.6055539072E-03    0.7083578418E-03    0.4800930597E-02
    0.2900000000E+03    0.4377099200E-04    0.6546052710E+00    0.6497798118E-03    0.7692805620E-03    0.4797890681E-02
    0.3100000000E+03    0.4587473291E-04    0.6570812001E+00    0.6956705995E-03    0.8319942883E-03    0.4794146412E-02
    0.3300000000E+03    0.4807307955E-04    0.6592725088E+00    0.7432597489E-03    0.8965980509E-03    0.4789761303E-02
    0.3500000000E+03    0.5036763993E-04    0.6612255967E+00    0.7925914569E-03    0.9631946658E-03    0.4784782965E-02
    0.3700000000E+03    0.5276049415E-04    0.6629772980E+00    0.8437194553E-03    0.1031891416E-02    0.4779246876E-02
    0.3900000000E+03    0.5525417564E-04    0.6645572252E+00    0.8967062203E-03    0.1102800698E-02    0.4773179060E-02
    0.4100000000E+03    0.5785165739E-04    0.6659894567E+00    0.9516224775E-03    0.1176040653E-02    0.4766598008E-02
    0.4300000000E+03    0.6055634364E-04    0.6672937716E+00    0.1008546934E-02    0.1251735800E-02    0.4759516088E-02
    0.4500000000E+03    0.6337206706E-04    0.6684865684E+00    0.1067566190E-02    0.1330017688E-02    0.4751940581E-02
    0.4700000000E+03    0.6630309124E-04    0.6695815577E+00    0.1128774797E-02    0.1411025569E-02    0.4743874446E-02
    0.4900000000E+03    0.6935411807E-04    0.6705902910E+00    0.1192275435E-02    0.1494907114E-02    0.4735316896E-02
    0.1000000000E+03    0.2842188883E-04    0.5892292480E+00    0.2994598882E-03    0.2493448160E-03    0.4770618640E-02
    0.3000000000E+03    0.4481111820E-04    0.6558821690E+00    0.6725152711E-03    0.8004074404E-03    0.4796102194E-02
    0.5000000000E+03    0.7092622456E-04    0.6710654338E+00    0.1224919645E-02    0.1537974142E-02    0.4730852677E-02
    0.7000000000E+03    0.1102372456E-03    0.6777875538E+00    0.2031211487E-02    0.2595557235E-02    0.4613116426E-02
    0.9000000000E+03    0.1716620442E-03    0.6815787526E+00    0.3275878509E-02    0.4221296421E-02    0.4422970770E-02
    0.1100000000E+04    0.2745822588E-03    0.6840121535E+00    0.5352213222E-02    0.6933075853E-02    0.4106732180E-02
    0.1300000000E+04    0.4607010755E-03    0.6857060131E+00    0.9105949144E-02    0.1184532109E-01    0.3552765554E-02
    0.1500000000E+04    0.7952943975E-03    0.6869527399E+00    0.1587490414E-01    0.2074068579E-01    0.2617349445E-02
    0.1700000000E+04    0.1228597052E-02    0.6879085638E+00    0.2471375545E-01    0.3245963918E-01    0.1553941520E-02
    0.1900000000E+04    0.1526986552E-02    0.6886645397E+00    0.3092755321E-01    0.4087081400E-01    0.1028355437E-02
    0.2100000000E+04    0.1693124827E-02    0.6892773216E+00    0.3451950036E-01    0.4591037735E-01    0.9023731751E-03
    0.2300000000E+04    0.1815345025E-02    0.6897840049E+00    0.3725120973E-01    0.4986117521E-01    0.8821023891E-03
    0.2500000000E+04    0.1923398691E-02    0.6902098954E+00    0.3972001890E-01    0.5350303342E-01    0.8819550872E-03
    0.2700000000E+04    0.2023954257E-02    0.6905728473E+00    0.4205902632E-01    0.5700887915E-01    0.8852091515E-03
    0.2900000000E+04    0.2118604711E-02    0.6908858176E+00    0.4429867461E-01    0.6041661148E-01    0.8888513110E-03
    0.3100000000E+04    0.2207923202E-02    0.6911584372E+00    0.4644877666E-01    0.6373696214E-01    0.8923634196E-03
    0.3300000000E+04    0.2292266299E-02    0.6913980133E+00    0.4851485510E-01    0.6697511147E-01    0.8956753337E-03
    0.3500000000E+04    0.2371931386E-02    0.6916101906E+00    0.5050135416E-01    0.7013495332E-01    0.8987948868E-03
    0.3700000000E+04    0.2447188694E-02    0.6917993981E+00    0.5241228827E-01    0.7321995144E-01    0.9017409573E-03
    0.3900000000E+04    0.2518288826E-02    0.6919691600E+00    0.5425138731E-01    0.7623332323E-01    0.9045317326E-03
    0.4100000000E+04    0.2585465371E-02    0.6921223150E+00    0.5602214102E-01    0.7917808879E-01    0.9071830489E-03
    0.4300000000E+04    0.2648936443E-02    0.6922611757E+00    0.5772782178E-01    0.8205709157E-01    0.9097084994E-03
    0.4500000000E+04    0.2708905911E-02    0.6923876445E+00    0.5937150193E-01    0.8487301253E-01    0.9121197854E-03
    0.4700000000E+04    0.2765564496E-02    0.6925033012E+00    0.6095606872E-01    0.8762838196E-01    0.9144270411E-03
    0.4900000000E+04    0.2819090761E-02    0.6926094681E+00    0.6248423792E-01    0.9032559013E-01    0.9166391000E-03
    0.1000000000E+04    0.2160420780E-03    0.6829151487E+00    0.4171750232E-02    0.5391009632E-02    0.4285856575E-02
    0.3000000000E+04    0.2163906027E-02    0.6910266691E+00    0.4538453316E-01    0.6208733527E-01    0.8906314871E-03
    0.5000000000E+04    0.2844731974E-02    0.6926593484E+00    0.6322797828E-01    0.9165309482E-01    0.9177118890E-03
    0.7000000000E+04    0.3228560771E-02    0.6933558330E+00    0.7568942116E-01    0.1156382965E+00    0.9356344072E-03
    0.9000000000E+04    0.3436766811E-02    0.6937401952E+00    0.8466686686E-01    0.1357549236E+00    0.9491176862E-03
    0.1100000000E+05    0.3536978349E-02    0.6939829522E+00    0.9127638132E-01    0.1530546726E+00    0.9599622681E-03
    0.1300000000E+05    0.3568974803E-02    0.6941496684E+00    0.9621428676E-01    0.1682228860E+00    0.9690513792E-03
    0.1500000000E+05    0.3557161282E-02    0.6942709048E+00    0.9993588159E-01    0.1817275336E+00    0.9768855791E-03
    0.1700000000E+05    0.3517015024E-02    0.6943628148E+00    0.1027504109E+00    0.1939005379E+00    0.9837766438E-03
    0.1900000000E+05    0.3458611719E-02    0.6944347325E+00    0.1048746295E+00    0.2049848672E+00    0.9899322120E-03
    0.2100000000E+05    0.3388646831E-02    0.6944924240E+00    0.1064645301E+00    0.2151631647E+00    0.9954976740E-03
    0.2300000000E+05    0.3311640297E-02    0.6945396416E+00    0.1076349280E+00    0.2245758785E+00    0.1000578879E-02
    0.2500000000E+05    0.3230678582E-02    0.6945789309E+00    0.1084719788E+00    0.2333331475E+00    0.1005255334E-02
    0.2700000000E+05    0.3147884781E-02    0.6946120787E+00    0.1090414267E+00    0.2415228313E+00    0.1009588305E-02
    0.2900000000E+05    0.3064723732E-02    0.6946403761E+00    0.1093941810E+00    0.2492160786E+00    0.1013626020E-02
    0.3100000000E+05    0.2982204239E-02    0.6946647781E+00    0.1095701767E+00    0.2564712776E+00    0.1017407140E-02
    0.3300000000E+05    0.2901015559E-02    0.6946860068E+00    0.1096011009E+00    0.2633369167E+00    0.1020963138E-02
    0.3500000000E+05    0.2821621013E-02    0.6947046174E+00    0.1095123538E+00    0.2698536936E+00    0.1024319988E-02
    0.3700000000E+05    0.2744323067E-02    0.6947210441E+00    0.1093244821E+00    0.2760560960E+00    0.1027499378E-02
    0.3900000000E+05    0.2669309146E-02    0.6947356310E+00    0.1090542436E+00    0.2819736045E+00    0.1030519606E-02
    0.4100000000E+05    0.2596684208E-02    0.6947486544E+00    0.1087154058E+00    0.2876316184E+00    0.1033396258E-02
    0.4300000000E+05    0.2526494128E-02    0.6947603386E+00    0.1083193555E+00    0.2930521794E+00    0.1036142717E-02
    0.4500000000E+05    0.2458742602E-02    0.6947708673E+00    0.1078755668E+00    0.2982545420E+00    0.1038770565E-02
    0.4700000000E+05    0.2393403442E-02    0.6947803927E+00    0.1073919649E+00    0.3032556276E+00    0.1041289890E-02
    0.4900000000E+05    0.2330429578E-02    0.6947890417E+00    0.1068752123E+00    0.3080703910E+00    0.1043709535E-02
    0.1000000000E+05    0.3497419877E-02    0.6938739460E+00    0.8821691382E-01    0.1447076835E+00    0.9548020566E-03
    0.3000000000E+05    0.3023334488E-02    0.6946530143E+00    0.1095021259E+00    0.2528951994E+00    0.1015546541E-02
    0.5000000000E+05    0.2299810871E-02    0.6947930716E+00    0.1066061978E+00    0.3104121116E+00    0.1044884450E-02
    0.7000000000E+05    0.1793595502E-02    0.6948464047E+00    0.1004693169E+00    0.3500327022E+00    0.1064636244E-02
    0.9000000000E+05    0.1439700153E-02    0.6948722796E+00    0.9411082784E-01    0.3801378384E+00    0.1079620440E-02
    0.1100000000E+06    0.1183694779E-02    0.6948863301E+00    0.8818639612E-01    0.4042342341E+00    0.1091730909E-02
    0.1300000000E+06    0.9922985200E-03    0.6948943687E+00    0.8282385947E-01    0.4241620331E+00    0.1101913195E-02
    0.1500000000E+06    0.8451543871E-03    0.6948990144E+00    0.7800801056E-01    0.4410217049E+00    0.1110709171E-02
    0.1700000000E+06    0.7293693791E-03    0.6949016044E+00    0.7368523134E-01    0.4555295173E+00    0.1118458945E-02
    0.1900000000E+06    0.6364682685E-03    0.6949028839E+00    0.6979575347E-01    0.4681800374E+00    0.1125390307E-02
    0.2100000000E+06    0.5606888118E-03    0.6949032965E+00    0.6628381487E-01    0.4793299278E+00    0.1131663441E-02
    0.2300000000E+06    0.4979962549E-03    0.6949031194E+00    0.6310040086E-01    0.4892451201E+00    0.1137395369E-02
    0.2500000000E+06    0.4454924045E-03    0.6949025336E+00    0.6020341788E-01    0.4981292032E+00    0.1142674226E-02
    0.2700000000E+06    0.4010487661E-03    0.6949016604E+00    0.5755702611E-01    0.5061414218E+00    0.1147568085E-02
    0.2900000000E+06    0.3630715134E-03    0.6949005836E+00    0.5513076766E-01    0.5134085787E+00    0.1152130633E-02
    0.3100000000E+06    0.3303466335E-03    0.6948993625E+00    0.5289872107E-01    0.5200331795E+00    0.1156404976E-02
    0.3300000000E+06    0.3019353208E-03    0.6948980395E+00    0.5083875687E-01    0.5260991698E+00    0.1160426257E-02
    0.3500000000E+06    0.2771017265E-03    0.6948966455E+00    0.4893190821E-01    0.5316760751E+00    0.1164223510E-02
    0.3700000000E+06    0.2552620563E-03    0.6948952034E+00    0.4716184861E-01    0.5368220517E+00    0.1167821005E-02
    0.3900000000E+06    0.2359480607E-03    0.6948937303E+00    0.4551446200E-01    0.5415861756E+00    0.1171239241E-02
    0.4100000000E+06    0.2187804258E-03    0.6948922389E+00    0.4397748956E-01    0.5460101883E+00    0.1174495688E-02
    0.4300000000E+06    0.2034490939E-03    0.6948907388E+00    0.4254023951E-01    0.5501298451E+00    0.1177605363E-02
    0.4500000000E+06    0.1896985148E-03    0.6948892375E+00    0.4119334803E-01    0.5539759718E+00    0.1180581267E-02
    0.4700000000E+06    0.1773164576E-03    0.6948877405E+00    0.3992858163E-01    0.5575753006E+00    0.1183434731E-02
    0.4900000000E+06    0.1661254293E-03    0.6948862519E+00    0.3873867311E-01    0.5609511389E+00    0.1186175697E-02
    0.1000000000E+06    0.1301930541E-02    0.6948803064E+00    0.9108082442E-01    0.3927983410E+00    0.1085962624E-02
    0.3000000000E+06    0.3461166800E-03    0.6948999881E+00    0.5399193192E-01    0.5167955718E+00    0.1154301472E-02
    0.5000000000E+06    0.1609289149E-03    0.6948855119E+00    0.3816974969E-01    0.5625617312E+00    0.1187506773E-02
    0.7000000000E+06    0.9331842469E-04    0.6948716070E+00    0.2949071253E-01    0.5868794253E+00    0.1209895257E-02
    0.9000000000E+06    0.6106522949E-04    0.6948595760E+00    0.2401301850E-01    0.6020155717E+00    0.1226891080E-02
    0.1100000000E+07    0.4314671888E-04    0.6948491539E+00    0.2024281169E-01    0.6123536527E+00    0.1240632592E-02
    0.1300000000E+07    0.3215141296E-04    0.6948400064E+00    0.1749024028E-01    0.6198648986E+00    0.1252189037E-02
    0.1500000000E+07    0.2491308473E-04    0.6948318697E+00    0.1539281101E-01    0.6255695828E+00    0.1262173754E-02
    0.1700000000E+07    0.1989147188E-04    0.6948245472E+00    0.1374183871E-01    0.6300493813E+00    0.1270971954E-02
    0.1900000000E+07    0.1626309626E-04    0.6948178917E+00    0.1240871062E-01    0.6336603631E+00    0.1278841750E-02
    0.2100000000E+07    0.1355482427E-04    0.6948117918E+00    0.1130985360E-01    0.6366327579E+00    0.1285964718E-02
    0.2300000000E+07    0.1147890737E-04    0.6948061612E+00    0.1038861171E-01    0.6391220538E+00    0.1292473536E-02
    0.2500000000E+07    0.9852084592E-05    0.6948009321E+00    0.9605220817E-02    0.6412370569E+00    0.1298468160E-02
    0.2700000000E+07    0.8553097982E-05    0.6947960504E+00    0.8930952514E-02    0.6430561889E+00    0.1304025800E-02
    0.2900000000E+07    0.7499092766E-05    0.6947914720E+00    0.8344535714E-02    0.6446374014E+00    0.1309207362E-02
    0.3100000000E+07    0.6631878084E-05    0.6947871608E+00    0.7829885519E-02    0.6460244452E+00    0.1314061754E-02
    0.3300000000E+07    0.5909603108E-05    0.6947830868E+00    0.7374614207E-02    0.6472509687E+00    0.1318628852E-02
    0.3500000000E+07    0.5301538169E-05    0.6947792247E+00    0.6969027240E-02    0.6483432743E+00    0.1322941605E-02
    0.3700000000E+07    0.4784703563E-05    0.6947755531E+00    0.6605429472E-02    0.6493222186E+00    0.1327027556E-02
    0.3900000000E+07    0.4341634101E-05    0.6947720537E+00    0.6277635266E-02    0.6502045524E+00    0.1330909971E-02
    0.4100000000E+07    0.3958861969E-05    0.6947687108E+00    0.5980615866E-02    0.6510038831E+00    0.1334608681E-02
    0.4300000000E+07    0.3625865567E-05    0.6947655106E+00    0.5710241169E-02    0.6517313790E+00    0.1338140729E-02
    0.4500000000E+07    0.3334327538E-05    0.6947624411E+00    0.5463087689E-02    0.6523962923E+00    0.1341520875E-02
    0.4700000000E+07    0.3077602204E-05    0.6947594919E+00    0.5236293729E-02    0.6530063526E+00    0.1344761984E-02
    0.4900000000E+07    0.2850327418E-05    0.6947566536E+00    0.5027448751E-02    0.6535680679E+00    0.1347875339E-02
    0.1000000000E+07    0.5093018218E-04    0.6948541861E+00    0.2196850095E-01    0.6076292271E+00    0.1234086930E-02
    0.3000000000E+07    0.7045062773E-05    0.6947892850E+00    0.8079087063E-02    0.6453528919E+00    0.1311672779E-02
    0.5000000000E+07    0.2746337114E-05    0.6947552734E+00    0.4929105760E-02    0.6538325541E+00    0.1349387266E-02
    0.7000000000E+07    0.1484688075E-05    0.6947319041E+00    0.3540117503E-02    0.6575670931E+00    0.1374818413E-02
    0.9000000000E+07    0.9451838119E-06    0.6947140040E+00    0.2759124590E-02    0.6596665363E+00    0.1394124759E-02
    0.1100000000E+08    0.6640394361E-06    0.6946994541E+00    0.2259020028E-02    0.6610110559E+00    0.1409734684E-02
    0.1300000000E+08    0.4983260819E-06    0.6946871742E+00    0.1911554046E-02    0.6619454189E+00    0.1422862587E-02
    0.1500000000E+08    0.3920424942E-06    0.6946765369E+00    0.1656195775E-02    0.6626322798E+00    0.1434205111E-02
    0.1700000000E+08    0.3195401341E-06    0.6946671451E+00    0.1460662802E-02    0.6631583706E+00    0.1444199807E-02
    0.1900000000E+08    0.2676993043E-06    0.6946587312E+00    0.1306170022E-02    0.6635741586E+00    0.1453139864E-02
    0.2100000000E+08    0.2292303507E-06    0.6946511059E+00    0.1181045904E-02    0.6639110006E+00    0.1461231540E-02
    0.2300000000E+08    0.1998135732E-06    0.6946441305E+00    0.1077657893E-02    0.6641894039E+00    0.1468625549E-02
    0.2500000000E+08    0.1767535851E-06    0.6946377002E+00    0.9908051867E-03    0.6644233432E+00    0.1475435436E-02
    0.2700000000E+08    0.1582957606E-06    0.6946317339E+00    0.9168221798E-03    0.6646226693E+00    0.1481748911E-02
