  Pressure (Pa) 23mC5-500 (mol/kg) 24mC5-500 (mol/kg) 2mC6-500 (mol/kg) 3mC6-500 (mol/kg) C7-500 (mol/kg)
    0.1000000000E+01    0.3052396617E-05    0.3665958197E-01    0.6977296792E-05    0.6185975628E-05    0.4208232604E-02
    0.3000000000E+01    0.8054687460E-05    0.9948283506E-01    0.1802291073E-04    0.1590445201E-04    0.4291576300E-02
    0.5000000000E+01    0.1200184794E-04    0.1513597754E+00    0.2643764781E-04    0.2487165062E-04    0.4358411022E-02
    0.7000000000E+01    0.1517707548E-04    0.1949222195E+00    0.3298837106E-04    0.3347999481E-04    0.4414475618E-02
    0.9000000000E+01    0.1777104468E-04    0.2320208774E+00    0.3817675564E-04    0.4186218558E-04    0.4462319971E-02
    0.1100000000E+02    0.1991821128E-04    0.2639951226E+00    0.4234921330E-04    0.5008469297E-04    0.4503671305E-02
    0.1300000000E+02    0.2171608542E-04    0.2918381808E+00    0.4575200881E-04    0.5818710437E-04    0.4539787645E-02
    0.1500000000E+02    0.2323696529E-04    0.3163021679E+00    0.4856409999E-04    0.6619551744E-04    0.4571615845E-02
    0.1700000000E+02    0.2453546186E-04    0.3379670678E+00    0.5091790665E-04    0.7412834009E-04    0.4599884619E-02
    0.1900000000E+02    0.2565349314E-04    0.3572873111E+00    0.5291293451E-04    0.8199920141E-04    0.4625164797E-02
    0.2100000000E+02    0.2662368975E-04    0.3746240064E+00    0.5462496246E-04    0.8981856837E-04    0.4647910264E-02
    0.2300000000E+02    0.2747177059E-04    0.3902677260E+00    0.5611238066E-04    0.9759471317E-04    0.4668486638E-02
    0.2500000000E+02    0.2821823305E-04    0.4044549273E+00    0.5742064919E-04    0.1053343261E-03    0.4687191842E-02
    0.2700000000E+02    0.2887957674E-04    0.4173799902E+00    0.5858548851E-04    0.1130429219E-03    0.4704271150E-02
    0.2900000000E+02    0.2946920325E-04    0.4292041780E+00    0.5963519751E-04    0.1207251195E-03    0.4719928370E-02
    0.3100000000E+02    0.2999808711E-04    0.4400624027E+00    0.6059236053E-04    0.1283848407E-03    0.4734334292E-02
    0.3300000000E+02    0.3047528243E-04    0.4500683955E+00    0.6147512018E-04    0.1360254543E-03    0.4747633138E-02
    0.3500000000E+02    0.3090830995E-04    0.4593187071E+00    0.6229813687E-04    0.1436498842E-03    0.4759947554E-02
    0.3700000000E+02    0.3130345591E-04    0.4678958339E+00    0.6307331964E-04    0.1512606911E-03    0.4771382518E-02
    0.3900000000E+02    0.3166600490E-04    0.4758706852E+00    0.6381038802E-04    0.1588601356E-03    0.4782028421E-02
    0.4100000000E+02    0.3200042319E-04    0.4833045489E+00    0.6451730769E-04    0.1664502279E-03    0.4791963532E-02
    0.4300000000E+02    0.3231050395E-04    0.4902506697E+00    0.6520063093E-04    0.1740327671E-03    0.4801255965E-02
    0.4500000000E+02    0.3259948341E-04    0.4967555267E+00    0.6586576475E-04    0.1816093729E-03    0.4809965287E-02
    0.4700000000E+02    0.3287013435E-04    0.5028598751E+00    0.6651718329E-04    0.1891815112E-03    0.4818143822E-02
    0.4900000000E+02    0.3312484182E-04    0.5085996008E+00    0.6715859737E-04    0.1967505156E-03    0.4825837727E-02
    0.1000000000E+02    0.1889368165E-04    0.2485798132E+00    0.4037269695E-04    0.4599050890E-04    0.4483719937E-02
    0.3000000000E+02    0.2974063216E-04    0.4347464829E+00    0.6012412179E-04    0.1245575676E-03    0.4727278171E-02
    0.5000000000E+02    0.3324687150E-04    0.5113427893E+00    0.6747653767E-04    0.2005342273E-03    0.4829515901E-02
    0.7000000000E+02    0.3522492376E-04    0.5531091322E+00    0.7382867458E-04    0.2762927450E-03    0.4885452637E-02
    0.9000000000E+02    0.3683828268E-04    0.5794017259E+00    0.8072106776E-04    0.3526808639E-03    0.4920175715E-02
    0.1100000000E+03    0.3841632541E-04    0.5974756694E+00    0.8835387440E-04    0.4301600025E-03    0.4943263232E-02
    0.1300000000E+03    0.4006833119E-04    0.6106635017E+00    0.9669144615E-04    0.5090383450E-03    0.4959191574E-02
    0.1500000000E+03    0.4183260539E-04    0.6207105503E+00    0.1056661573E-03    0.5895502594E-03    0.4970343271E-02
    0.1700000000E+03    0.4372193180E-04    0.6286193379E+00    0.1152196368E-03    0.6718907437E-03    0.4978107242E-02
    0.1900000000E+03    0.4573954090E-04    0.6350067523E+00    0.1253088957E-03    0.7562328074E-03    0.4983349441E-02
    0.2100000000E+03    0.4788525551E-04    0.6402732054E+00    0.1359047448E-03    0.8427372474E-03    0.4986638196E-02
    0.2300000000E+03    0.5015798673E-04    0.6446899308E+00    0.1469890236E-03    0.9315586394E-03    0.4988361753E-02
    0.2500000000E+03    0.5255676683E-04    0.6484471897E+00    0.1585521546E-03    0.1022849289E-02    0.4988793856E-02
    0.2700000000E+03    0.5508116563E-04    0.6516823882E+00    0.1705912689E-03    0.1116762014E-02    0.4988132380E-02
    0.2900000000E+03    0.5773144060E-04    0.6544972398E+00    0.1831088353E-03    0.1213452236E-02    0.4986523147E-02
    0.3100000000E+03    0.6050857247E-04    0.6569686477E+00    0.1961116799E-03    0.1313079644E-02    0.4984075155E-02
    0.3300000000E+03    0.6341425455E-04    0.6591558349E+00    0.2096102920E-03    0.1415809592E-02    0.4980870651E-02
    0.3500000000E+03    0.6645086663E-04    0.6611051487E+00    0.2236183409E-03    0.1521814345E-02    0.4976971960E-02
    0.3700000000E+03    0.6962144739E-04    0.6628533796E+00    0.2381523450E-03    0.1631274229E-02    0.4972426238E-02
    0.3900000000E+03    0.7292967152E-04    0.6644301037E+00    0.2532314564E-03    0.1744378742E-02    0.4967268831E-02
    0.4100000000E+03    0.7637983396E-04    0.6658593683E+00    0.2688773310E-03    0.1861327646E-02    0.4961525709E-02
    0.4300000000E+03    0.7997684189E-04    0.6671609263E+00    0.2851140653E-03    0.1982332091E-02    0.4955215234E-02
    0.4500000000E+03    0.8372621460E-04    0.6683511535E+00    0.3019681873E-03    0.2107615768E-02    0.4948349474E-02
    0.4700000000E+03    0.8763409076E-04    0.6694437411E+00    0.3194686905E-03    0.2237416124E-02    0.4940935173E-02
    0.4900000000E+03    0.9170724298E-04    0.6704502240E+00    0.3376471055E-03    0.2371985646E-02    0.4932974484E-02
    0.1000000000E+03    0.3762231451E-04    0.5892047776E+00    0.8444540267E-04    0.3912624684E-03    0.4932824621E-02
    0.3000000000E+03    0.5910406001E-04    0.6557718235E+00    0.1895490216E-03    0.1262888605E-02    0.4985398320E-02
    0.5000000000E+03    0.9380809251E-04    0.6709242936E+00    0.3470011022E-03    0.2441142197E-02    0.4928788796E-02
    0.7000000000E+03    0.1467747264E-03    0.6776301771E+00    0.5799089220E-03    0.4153070847E-02    0.4813941806E-02
    0.9000000000E+03    0.2310943403E-03    0.6814110924E+00    0.9461995353E-03    0.6834222306E-02    0.4620079530E-02
    0.1100000000E+04    0.3761561117E-03    0.6838372617E+00    0.1573671725E-02    0.1142726299E-01    0.4285923075E-02
    0.1300000000E+04    0.6473658451E-03    0.6855256807E+00    0.2746803586E-02    0.2003349591E-01    0.3679459698E-02
    0.1500000000E+04    0.1140585630E-02    0.6867681174E+00    0.4888174282E-02    0.3581829663E-01    0.2648900878E-02
    0.1700000000E+04    0.1725787267E-02    0.6877204400E+00    0.7454871183E-02    0.5494197071E-01    0.1601088194E-02
    0.1900000000E+04    0.2081212212E-02    0.6884734819E+00    0.9054926074E-02    0.6717611680E-01    0.1186701917E-02
    0.2100000000E+04    0.2283881490E-02    0.6890837537E+00    0.1000607450E-01    0.7473919214E-01    0.1106683860E-02
    0.2300000000E+04    0.2443102453E-02    0.6895882537E+00    0.1077713643E-01    0.8104668457E-01    0.1098152209E-02
    0.2500000000E+04    0.2587283041E-02    0.6900122188E+00    0.1149047082E-01    0.8699452951E-01    0.1101319508E-02
    0.2700000000E+04    0.2722101595E-02    0.6903734532E+00    0.1217017651E-01    0.9275695721E-01    0.1106045955E-02
    0.2900000000E+04    0.2848929729E-02    0.6906848767E+00    0.1282163994E-01    0.9836997802E-01    0.1110726716E-02
    0.3100000000E+04    0.2968357924E-02    0.6909560915E+00    0.1344686639E-01    0.1038446724E+00    0.1115140001E-02
    0.3300000000E+04    0.3080818609E-02    0.6911943828E+00    0.1404720530E-01    0.1091874538E+00    0.1119282251E-02
    0.3500000000E+04    0.3186696301E-02    0.6914053775E+00    0.1462383290E-01    0.1144036675E+00    0.1123180000E-02
    0.3700000000E+04    0.3286348260E-02    0.6915934907E+00    0.1517784116E-01    0.1194982442E+00    0.1126860199E-02
    0.3900000000E+04    0.3380109414E-02    0.6917622349E+00    0.1571025725E-01    0.1244758322E+00    0.1130346253E-02
    0.4100000000E+04    0.3468294422E-02    0.6919144394E+00    0.1622205032E-01    0.1293408345E+00    0.1133658082E-02
    0.4300000000E+04    0.3551199155E-02    0.6920524090E+00    0.1671413582E-01    0.1340974279E+00    0.1136812693E-02
    0.4500000000E+04    0.3629101974E-02    0.6921780394E+00    0.1718737912E-01    0.1387495783E+00    0.1139824707E-02
    0.4700000000E+04    0.3702264913E-02    0.6922929048E+00    0.1764259885E-01    0.1433010536E+00    0.1142706781E-02
    0.4900000000E+04    0.3770934765E-02    0.6923983227E+00    0.1808056985E-01    0.1477554365E+00    0.1145469950E-02
    0.1000000000E+04    0.2931049245E-03    0.6827435911E+00    0.1214577996E-02    0.8798083696E-02    0.4476666271E-02
    0.3000000000E+04    0.2909540177E-02    0.6908250096E+00    0.1313744224E-01    0.1011241742E+00    0.1112968491E-02
    0.5000000000E+04    0.3803657988E-02    0.6924478431E+00    0.1829331796E-01    0.1499472900E+00    0.1146810014E-02
    0.7000000000E+04    0.4272058623E-02    0.6931385988E+00    0.2180181614E-01    0.1894334063E+00    0.1169197981E-02
    0.9000000000E+04    0.4486886898E-02    0.6935189453E+00    0.2422068710E-01    0.2222309070E+00    0.1186040854E-02
    0.1100000000E+05    0.4547631101E-02    0.6937586145E+00    0.2589257066E-01    0.2500458871E+00    0.1199587624E-02
    0.1300000000E+05    0.4513974692E-02    0.6939228221E+00    0.2703779898E-01    0.2740307740E+00    0.1210941534E-02
    0.1500000000E+05    0.4422766909E-02    0.6940419451E+00    0.2780339866E-01    0.2949947818E+00    0.1220727847E-02
    0.1700000000E+05    0.4297257385E-02    0.6941320282E+00    0.2829051256E-01    0.3135247703E+00    0.1229336017E-02
    0.1900000000E+05    0.4152344444E-02    0.6942023362E+00    0.2857050473E-01    0.3300580986E+00    0.1237025416E-02
    0.2100000000E+05    0.3997668082E-02    0.6942585885E+00    0.2869481217E-01    0.3449283781E+00    0.1243977663E-02
    0.2300000000E+05    0.3839489238E-02    0.6943045040E+00    0.2870118410E-01    0.3583952333E+00    0.1250324982E-02
    0.2500000000E+05    0.3681861497E-02    0.6943426039E+00    0.2861775366E-01    0.3706642581E+00    0.1256166690E-02
    0.2700000000E+05    0.3527377837E-02    0.6943746570E+00    0.2846576488E-01    0.3819007600E+00    0.1261579320E-02
    0.2900000000E+05    0.3377655527E-02    0.6944019398E+00    0.2826144137E-01    0.3922394515E+00    0.1266623118E-02
    0.3100000000E+05    0.3233656013E-02    0.6944253964E+00    0.2801729260E-01    0.4017914265E+00    0.1271346379E-02
    0.3300000000E+05    0.3095898779E-02    0.6944457396E+00    0.2774304377E-01    0.4106492789E+00    0.1275788420E-02
    0.3500000000E+05    0.2964605932E-02    0.6944635175E+00    0.2744630803E-01    0.4188909209E+00    0.1279981686E-02
    0.3700000000E+05    0.2839800798E-02    0.6944791580E+00    0.2713307966E-01    0.4265824739E+00    0.1283953270E-02
    0.3900000000E+05    0.2721375636E-02    0.6944930004E+00    0.2680810048E-01    0.4337804900E+00    0.1287726030E-02
    0.4100000000E+05    0.2609138349E-02    0.6945053166E+00    0.2647513515E-01    0.4405336774E+00    0.1291319435E-02
    0.4300000000E+05    0.2502844777E-02    0.6945163270E+00    0.2613718036E-01    0.4468842587E+00    0.1294750205E-02
    0.4500000000E+05    0.2402221021E-02    0.6945262126E+00    0.2579662517E-01    0.4528690494E+00    0.1298032806E-02
    0.4700000000E+05    0.2306978811E-02    0.6945351226E+00    0.2545537507E-01    0.4585203245E+00    0.1301179840E-02
    0.4900000000E+05    0.2216826009E-02    0.6945431817E+00    0.2511494867E-01    0.4638665183E+00    0.1304202356E-02
    0.1000000000E+05    0.4532106203E-02    0.6936510636E+00    0.2513408056E-01    0.2366792572E+00    0.1193141616E-02
    0.3000000000E+05    0.3304899559E-02    0.6944140973E+00    0.2814368097E-01    0.3971076079E+00    0.1269022176E-02
    0.5000000000E+05    0.2173567580E-02    0.6945469255E+00    0.2494543216E-01    0.4664331885E+00    0.1305670008E-02
    0.7000000000E+05    0.1511366127E-02    0.6945954794E+00    0.2178250220E-01    0.5065679734E+00    0.1330342950E-02
    0.9000000000E+05    0.1106805741E-02    0.6946177591E+00    0.1917186241E-01    0.5330508629E+00    0.1349060282E-02
    0.1100000000E+06    0.8443364524E-03    0.6946289177E+00    0.1706097371E-01    0.5519269155E+00    0.1364187820E-02
    0.1300000000E+06    0.6650697931E-03    0.6946345321E+00    0.1534199896E-01    0.5660959138E+00    0.1376906728E-02
    0.1500000000E+06    0.5374009494E-03    0.6946370881E+00    0.1392373954E-01    0.5771377825E+00    0.1387893905E-02
    0.1700000000E+06    0.4433269433E-03    0.6946378396E+00    0.1273746611E-01    0.5859916911E+00    0.1397574210E-02
    0.1900000000E+06    0.3720324201E-03    0.6946374766E+00    0.1173246306E-01    0.5932528057E+00    0.1406232191E-02
    0.2100000000E+06    0.3167177288E-03    0.6946364038E+00    0.1087115787E-01    0.5993173406E+00    0.1414067947E-02
    0.2300000000E+06    0.2729394291E-03    0.6946348706E+00    0.1012538195E-01    0.6044596250E+00    0.1421227657E-02
    0.2500000000E+06    0.2376963560E-03    0.6946330363E+00    0.9473715534E-02    0.6088757937E+00    0.1427821418E-02
    0.2700000000E+06    0.2089030445E-03    0.6946310062E+00    0.8899635319E-02    0.6127098818E+00    0.1433934261E-02
    0.2900000000E+06    0.1850741392E-03    0.6946288512E+00    0.8390219067E-02    0.6160700944E+00    0.1439633253E-02
    0.3100000000E+06    0.1651286159E-03    0.6946266203E+00    0.7935230608E-02    0.6190393223E+00    0.1444972239E-02
    0.3300000000E+06    0.1482645933E-03    0.6946243474E+00    0.7526465171E-02    0.6216821516E+00    0.1449995117E-02
    0.3500000000E+06    0.1338771090E-03    0.6946220567E+00    0.7157274512E-02    0.6240496619E+00    0.1454738156E-02
    0.3700000000E+06    0.1215028123E-03    0.6946197652E+00    0.6822217748E-02    0.6261827871E+00    0.1459231674E-02
    0.3900000000E+06    0.1107819625E-03    0.6946174851E+00    0.6516801241E-02    0.6281147194E+00    0.1463501274E-02
    0.4100000000E+06    0.1014318113E-03    0.6946152249E+00    0.6237282402E-02    0.6298726589E+00    0.1467568781E-02
    0.4300000000E+06    0.9322763526E-04    0.6946129909E+00    0.5980519979E-02    0.6314791094E+00    0.1471452953E-02
    0.4500000000E+06    0.8598900364E-04    0.6946107872E+00    0.5743858569E-02    0.6329528508E+00    0.1475170028E-02
    0.4700000000E+06    0.7956969490E-04    0.6946086167E+00    0.5525038619E-02    0.6343096799E+00    0.1478734165E-02
    0.4900000000E+06    0.7385019341E-04    0.6946064813E+00    0.5322125619E-02    0.6355629803E+00    0.1482157777E-02
    0.1000000000E+06    0.9623693705E-03    0.6946242701E+00    0.1806083207E-01    0.5432150606E+00    0.1356982500E-02
    0.3000000000E+06    0.1746714895E-03    0.6946277428E+00    0.8156475485E-02    0.6175991805E+00    0.1442344801E-02
    0.5000000000E+06    0.7122140424E-04    0.6946054272E+00    0.5226104500E-02    0.6361544411E+00    0.1483820360E-02
    0.7000000000E+06    0.3868173680E-04    0.6945862393E+00    0.3837010543E-02    0.6446002738E+00    0.1511784520E-02
    0.9000000000E+06    0.2436347762E-04    0.6945701976E+00    0.3028208660E-02    0.6494293975E+00    0.1533012750E-02
    0.1100000000E+07    0.1680315824E-04    0.6945565321E+00    0.2499447083E-02    0.6525547372E+00    0.1550176088E-02
    0.1300000000E+07    0.1232282913E-04    0.6945446562E+00    0.2126974799E-02    0.6547424480E+00    0.1564610129E-02
    0.1500000000E+07    0.9446928350E-05    0.6945341616E+00    0.1850534722E-02    0.6563592549E+00    0.1577080988E-02
    0.1700000000E+07    0.7489343783E-05    0.6945247607E+00    0.1637292444E-02    0.6576027286E+00    0.1588069826E-02
    0.1900000000E+07    0.6095559802E-05    0.6945162457E+00    0.1467837892E-02    0.6585887238E+00    0.1597899046E-02
    0.2100000000E+07    0.5067254135E-05    0.6945084623E+00    0.1329964430E-02    0.6593896635E+00    0.1606795448E-02
    0.2300000000E+07    0.4286372525E-05    0.6945012930E+00    0.1215612678E-02    0.6600531449E+00    0.1614924757E-02
    0.2500000000E+07    0.3679040970E-05    0.6944946465E+00    0.1119248038E-02    0.6606117355E+00    0.1622411821E-02
    0.2700000000E+07    0.3197092198E-05    0.6944884503E+00    0.1036944362E-02    0.6610884709E+00    0.1629353083E-02
    0.2900000000E+07    0.2808020210E-05    0.6944826461E+00    0.9658395484E-03    0.6615001036E+00    0.1635824617E-02
    0.3100000000E+07    0.2489236613E-05    0.6944771863E+00    0.9037981545E-03    0.6618591080E+00    0.1641887510E-02
    0.3300000000E+07    0.2224644252E-05    0.6944720314E+00    0.8491946781E-03    0.6621749639E+00    0.1647591569E-02
    0.3500000000E+07    0.2002517568E-05    0.6944671485E+00    0.8007700054E-03    0.6624550040E+00    0.1652977949E-02
    0.3700000000E+07    0.1814149350E-05    0.6944625096E+00    0.7575337487E-03    0.6627049893E+00    0.1658081053E-02
    0.3900000000E+07    0.1652962611E-05    0.6944580909E+00    0.7186962296E-03    0.6629295084E+00    0.1662929939E-02
    0.4100000000E+07    0.1513913353E-05    0.6944538719E+00    0.6836201176E-03    0.6631322615E+00    0.1667549378E-02
    0.4300000000E+07    0.1393080137E-05    0.6944498350E+00    0.6517854036E-03    0.6633162652E+00    0.1671960657E-02
    0.4500000000E+07    0.1287376510E-05    0.6944459648E+00    0.6227636080E-03    0.6634840036E+00    0.1676182211E-02
    0.4700000000E+07    0.1194345943E-05    0.6944422475E+00    0.5961985040E-03    0.6636375406E+00    0.1680230109E-02
    0.4900000000E+07    0.1112013287E-05    0.6944386714E+00    0.5717915138E-03    0.6637786052E+00    0.1684118445E-02
    0.1000000000E+07    0.2004968695E-04    0.6945631094E+00    0.2738746850E-02    0.6511432696E+00    0.1542000486E-02
    0.3000000000E+07    0.2640971011E-05    0.6944798758E+00    0.9337975120E-03    0.6616855333E+00    0.1638903801E-02
    0.5000000000E+07    0.1074345590E-05    0.6944369329E+00    0.5603169579E-03    0.6638449256E+00    0.1686006719E-02
    0.7000000000E+07    0.6164690081E-06    0.6944075316E+00    0.3995037705E-03    0.6647746660E+00    0.1717767884E-02
    0.9000000000E+07    0.4184365145E-06    0.6943850466E+00    0.3101001906E-03    0.6652920854E+00    0.1741879373E-02
    0.1100000000E+08    0.3133803760E-06    0.6943667858E+00    0.2532315039E-03    0.6656216177E+00    0.1761374213E-02
    0.1300000000E+08    0.2501223172E-06    0.6943513820E+00    0.2138935991E-03    0.6658498509E+00    0.1777769160E-02
    0.1500000000E+08    0.2085894273E-06    0.6943380435E+00    0.1850739418E-03    0.6660172612E+00    0.1791934296E-02
    0.1700000000E+08    0.1795495657E-06    0.6943262698E+00    0.1630577599E-03    0.6661452994E+00    0.1804416104E-02
    0.1900000000E+08    0.1582508951E-06    0.6943157237E+00    0.1456941123E-03    0.6662463922E+00    0.1815580761E-02
    0.2100000000E+08    0.1420330370E-06    0.6943061674E+00    0.1316516450E-03    0.6663282357E+00    0.1825685871E-02
    0.2300000000E+08    0.1293058779E-06    0.6942974264E+00    0.1200623390E-03    0.6663958505E+00    0.1834919666E-02
    0.2500000000E+08    0.1190678810E-06    0.6942893691E+00    0.1103361712E-03    0.6664526511E+00    0.1843423956E-02
    0.2700000000E+08    0.1106605374E-06    0.6942818935E+00    0.1020581256E-03    0.6665010408E+00    0.1851308283E-02
