  Pressure (Pa) 23mC5-500 (mol/kg) 24mC5-500 (mol/kg) 2mC6-500 (mol/kg) 3mC6-500 (mol/kg) C7-500 (mol/kg)
    0.1000000000E+01    0.2437731392E-05    0.1513995778E+00    0.5439294246E-05    0.2255184058E-05    0.4209639815E-02
    0.3000000000E+01    0.4730240140E-05    0.3164727003E+00    0.1004627353E-04    0.5812829580E-05    0.4264387533E-02
    0.5000000000E+01    0.5760937127E-05    0.4047297444E+00    0.1195425455E-04    0.9093273115E-05    0.4293278366E-02
    0.7000000000E+01    0.6326177042E-05    0.4596692007E+00    0.1303723621E-04    0.1223823618E-04    0.4311527596E-02
    0.9000000000E+01    0.6685874599E-05    0.4971619111E+00    0.1383477200E-04    0.1529586162E-04    0.4324193441E-02
    0.1100000000E+02    0.6944932524E-05    0.5243798061E+00    0.1453520903E-04    0.1829033698E-04    0.4333541152E-02
    0.1300000000E+02    0.7151664153E-05    0.5450375839E+00    0.1521135481E-04    0.2123610159E-04    0.4340746607E-02
    0.1500000000E+02    0.7330399548E-05    0.5612518661E+00    0.1589248685E-04    0.2414269283E-04    0.4346483590E-02
    0.1700000000E+02    0.7494186559E-05    0.5743171221E+00    0.1659001212E-04    0.2701684852E-04    0.4351167067E-02
    0.1900000000E+02    0.7650341675E-05    0.5850695205E+00    0.1730762606E-04    0.2986356362E-04    0.4355067155E-02
    0.2100000000E+02    0.7803094593E-05    0.5940732612E+00    0.1804564309E-04    0.3268667796E-04    0.4358367583E-02
    0.2300000000E+02    0.7954935528E-05    0.6017228352E+00    0.1880293756E-04    0.3548922837E-04    0.4361197874E-02
    0.2500000000E+02    0.8107339262E-05    0.6083023710E+00    0.1957783973E-04    0.3827367198E-04    0.4363652096E-02
    0.2700000000E+02    0.8261171465E-05    0.6140217063E+00    0.2036855235E-04    0.4104203453E-04    0.4365800304E-02
    0.2900000000E+02    0.8416924931E-05    0.6190391786E+00    0.2117333986E-04    0.4379601250E-04    0.4367695802E-02
    0.3100000000E+02    0.8574860994E-05    0.6234765118E+00    0.2199060751E-04    0.4653704570E-04    0.4369379913E-02
    0.3300000000E+02    0.8735096236E-05    0.6274288205E+00    0.2281892719E-04    0.4926637018E-04    0.4370885194E-02
    0.3500000000E+02    0.8897656691E-05    0.6309715047E+00    0.2365703768E-04    0.5198505770E-04    0.4372237671E-02
    0.3700000000E+02    0.9062512262E-05    0.6341651060E+00    0.2450383357E-04    0.5469404576E-04    0.4373458413E-02
    0.3900000000E+02    0.9229598824E-05    0.6370587955E+00    0.2535834967E-04    0.5739416075E-04    0.4374564672E-02
    0.4100000000E+02    0.9398832532E-05    0.6396929236E+00    0.2621974461E-04    0.6008613620E-04    0.4375570722E-02
    0.4300000000E+02    0.9570119116E-05    0.6421009133E+00    0.2708728503E-04    0.6277062724E-04    0.4376488480E-02
    0.4500000000E+02    0.9743359909E-05    0.6443106853E+00    0.2796033128E-04    0.6544822228E-04    0.4377327983E-02
    0.4700000000E+02    0.9918455730E-05    0.6463457456E+00    0.2883832475E-04    0.6811945247E-04    0.4378097748E-02
    0.4900000000E+02    0.1009530934E-04    0.6482260249E+00    0.2972077678E-04    0.7078479953E-04    0.4378805053E-02
    0.1000000000E+02    0.6824169532E-05    0.5117718124E+00    0.1419106932E-04    0.1679993934E-04    0.4329192479E-02
    0.3000000000E+02    0.8495610214E-05    0.6213238871E+00    0.2158050691E-04    0.4516806568E-04    0.4368562071E-02
    0.5000000000E+02    0.1018436585E-04    0.6491135366E+00    0.3016353879E-04    0.7211540549E-04    0.4379137274E-02
    0.7000000000E+02    0.1203760064E-04    0.6617984753E+00    0.3917318434E-04    0.9850750498E-04    0.4383645336E-02
    0.9000000000E+02    0.1398936752E-04    0.6690617069E+00    0.4836184078E-04    0.1246434473E-03    0.4385722523E-02
    0.1100000000E+03    0.1600544270E-04    0.6737669745E+00    0.5765331058E-04    0.1506756726E-03    0.4386532878E-02
    0.1300000000E+03    0.1806835886E-04    0.6770631422E+00    0.6702218186E-04    0.1766968247E-03    0.4386577100E-02
    0.1500000000E+03    0.2016869808E-04    0.6795006841E+00    0.7646090050E-04    0.2027695308E-03    0.4386110631E-02
    0.1700000000E+03    0.2230115935E-04    0.6813763880E+00    0.8596892308E-04    0.2289393495E-03    0.4385279269E-02
    0.1900000000E+03    0.2446269264E-04    0.6828643962E+00    0.9554862082E-04    0.2552412854E-03    0.4384173120E-02
    0.2100000000E+03    0.2665155095E-04    0.6840736255E+00    0.1052035823E-03    0.2817034123E-03    0.4382851271E-02
    0.2300000000E+03    0.2886677826E-04    0.6850756902E+00    0.1149378675E-03    0.3083490426E-03    0.4381354278E-02
    0.2500000000E+03    0.3110791830E-04    0.6859196116E+00    0.1247556700E-03    0.3351981033E-03    0.4379711002E-02
    0.2700000000E+03    0.3337484154E-04    0.6866400763E+00    0.1346611657E-03    0.3622680486E-03    0.4377942582E-02
    0.2900000000E+03    0.3566763875E-04    0.6872623185E+00    0.1446584489E-03    0.3895744887E-03    0.4376064873E-02
    0.3100000000E+03    0.3798655338E-04    0.6878051349E+00    0.1547515111E-03    0.4171316369E-03    0.4374089999E-02
    0.3300000000E+03    0.4033193756E-04    0.6882828138E+00    0.1649442400E-03    0.4449526359E-03    0.4372027378E-02
    0.3500000000E+03    0.4270422295E-04    0.6887064106E+00    0.1752404289E-03    0.4730498015E-03    0.4369884418E-02
    0.3700000000E+03    0.4510390095E-04    0.6890846132E+00    0.1856437893E-03    0.5014348087E-03    0.4367667011E-02
    0.3900000000E+03    0.4753150914E-04    0.6894243433E+00    0.1961579650E-03    0.5301188362E-03    0.4365379876E-02
    0.4100000000E+03    0.4998762200E-04    0.6897311838E+00    0.2067865470E-03    0.5591126810E-03    0.4363026818E-02
    0.4300000000E+03    0.5247284431E-04    0.6900096871E+00    0.2175330861E-03    0.5884268499E-03    0.4360610912E-02
    0.4500000000E+03    0.5498780668E-04    0.6902636028E+00    0.2284011060E-03    0.6180716345E-03    0.4358134650E-02
    0.4700000000E+03    0.5753316241E-04    0.6904960471E+00    0.2393941146E-03    0.6480571725E-03    0.4355600045E-02
    0.4900000000E+03    0.6010958528E-04    0.6907096308E+00    0.2505156148E-03    0.6783935001E-03    0.4353008717E-02
    0.1000000000E+03    0.1499071585E-04    0.6716414884E+00    0.5299694205E-04    0.1376658069E-03    0.4386246399E-02
    0.3000000000E+03    0.3682381153E-04    0.6875426737E+00    0.1496927623E-03    0.4033208809E-03    0.4375088939E-02
    0.5000000000E+03    0.6140966270E-04    0.6908100524E+00    0.2561256447E-03    0.6936963294E-03    0.4351692198E-02
    0.7000000000E+03    0.8922266136E-04    0.6922182875E+00    0.3759465451E-03    0.1020630855E-02    0.4322569803E-02
    0.9000000000E+03    0.1210653887E-03    0.6930022155E+00    0.5129252798E-03    0.1394667552E-02    0.4288084096E-02
    0.1100000000E+04    0.1579611205E-03    0.6935014147E+00    0.6715848514E-03    0.1828283918E-02    0.4247586151E-02
    0.1300000000E+04    0.2012419472E-03    0.6938470213E+00    0.8577273753E-03    0.2337459380E-02    0.4199885156E-02
    0.1500000000E+04    0.2526844353E-03    0.6941003774E+00    0.1079058560E-02    0.2943422027E-02    0.4143253178E-02
    0.1700000000E+04    0.3147097600E-03    0.6942940074E+00    0.1346069041E-02    0.3675092587E-02    0.4075279203E-02
    0.1900000000E+04    0.3906853218E-03    0.6944467599E+00    0.1673350892E-02    0.4572733778E-02    0.3992602568E-02
    0.2100000000E+04    0.4853854513E-03    0.6945703113E+00    0.2081606369E-02    0.5693525767E-02    0.3890494872E-02
    0.2300000000E+04    0.6056942615E-03    0.6946722800E+00    0.2600716713E-02    0.7120102270E-02    0.3762233641E-02
    0.2500000000E+04    0.7616462257E-03    0.6947578480E+00    0.3274299724E-02    0.8973271353E-02    0.3598218590E-02
    0.2700000000E+04    0.9678161304E-03    0.6948306626E+00    0.4165836998E-02    0.1142923127E-01    0.3384912990E-02
    0.2900000000E+04    0.1244589622E-02    0.6948933653E+00    0.5364400128E-02    0.1473601515E-01    0.3104258838E-02
    0.3100000000E+04    0.1617123185E-02    0.6949479158E+00    0.6980574299E-02    0.1920347793E-01    0.2736005335E-02
    0.3300000000E+04    0.2105632290E-02    0.6949957988E+00    0.9105021181E-02    0.2509076519E-01    0.2269193359E-02
    0.3500000000E+04    0.2698102731E-02    0.6950381594E+00    0.1169048713E-01    0.3228131717E-01    0.1729542500E-02
    0.3700000000E+04    0.3319722336E-02    0.6950758950E+00    0.1441748007E-01    0.3990669445E-01    0.1203175495E-02
    0.3900000000E+04    0.3862081406E-02    0.6951097191E+00    0.1681683205E-01    0.4667352960E-01    0.7952880135E-03
    0.4100000000E+04    0.4270267989E-02    0.6951402055E+00    0.1864648049E-01    0.5190189682E-01    0.5436305806E-03
    0.4300000000E+04    0.4563579368E-02    0.6951678213E+00    0.1998537046E-01    0.5579645506E-01    0.4124969601E-03
    0.4500000000E+04    0.4784988749E-02    0.6951929505E+00    0.2101710388E-01    0.5885668980E-01    0.3507081978E-03
    0.4700000000E+04    0.4967163967E-02    0.6952159118E+00    0.2188228809E-01    0.6146814153E-01    0.3231625219E-03
    0.4900000000E+04    0.5128452056E-02    0.6952369714E+00    0.2266017657E-01    0.6384897283E-01    0.3113410803E-03
    0.1000000000E+04    0.1388069534E-03    0.6932767592E+00    0.5892187386E-03    0.1603129778E-02    0.4268649388E-02
    0.3000000000E+04    0.1417288649E-02    0.6949215575E+00    0.6113213838E-02    0.1680470826E-01    0.2932222914E-02
    0.5000000000E+04    0.5204337740E-02    0.6952468597E+00    0.2302968677E-01    0.6498959401E-01    0.3083701755E-03
    0.7000000000E+04    0.6461945988E-02    0.6953844354E+00    0.2944257468E-01    0.8560893637E-01    0.3075812244E-03
    0.9000000000E+04    0.7410091795E-02    0.6954598065E+00    0.3472921540E-01    0.1039047427E+00    0.3119220813E-03
    0.1100000000E+05    0.8128463561E-02    0.6955070816E+00    0.3915053066E-01    0.1203774162E+00    0.3154305305E-03
    0.1300000000E+05    0.8669580206E-02    0.6955393272E+00    0.4287569032E-01    0.1353343002E+00    0.3183795191E-03
    0.1500000000E+05    0.9072516053E-02    0.6955626154E+00    0.4603359161E-01    0.1490143293E+00    0.3209264961E-03
    0.1700000000E+05    0.9366780378E-02    0.6955801474E+00    0.4872405770E-01    0.1616062969E+00    0.3231702095E-03
    0.1900000000E+05    0.9574951986E-02    0.6955937683E+00    0.5102551277E-01    0.1732615283E+00    0.3251767586E-03
    0.2100000000E+05    0.9714507161E-02    0.6956046153E+00    0.5300036281E-01    0.1841028805E+00    0.3269926067E-03
    0.2300000000E+05    0.9799111534E-02    0.6956134267E+00    0.5469884078E-01    0.1942312537E+00    0.3286516846E-03
    0.2500000000E+05    0.9839548266E-02    0.6956207023E+00    0.5616180167E-01    0.2037303849E+00    0.3301795420E-03
    0.2700000000E+05    0.9844394919E-02    0.6956267922E+00    0.5742278624E-01    0.2126704287E+00    0.3315959074E-03
    0.2900000000E+05    0.9820523757E-02    0.6956319486E+00    0.5850956611E-01    0.2211106713E+00    0.3329163379E-03
    0.3100000000E+05    0.9773476067E-02    0.6956363581E+00    0.5944531560E-01    0.2291016131E+00    0.3341533223E-03
    0.3300000000E+05    0.9707745378E-02    0.6956401609E+00    0.6024951099E-01    0.2366865854E+00    0.3353170410E-03
    0.3500000000E+05    0.9626993943E-02    0.6956434651E+00    0.6093862804E-01    0.2439030182E+00    0.3364159043E-03
    0.3700000000E+05    0.9534219763E-02    0.6956463547E+00    0.6152668841E-01    0.2507834463E+00    0.3374569412E-03
    0.3900000000E+05    0.9431886579E-02    0.6956488964E+00    0.6202569180E-01    0.2573563123E+00    0.3384460880E-03
    0.4100000000E+05    0.9322025841E-02    0.6956511433E+00    0.6244596046E-01    0.2636466149E+00    0.3393884043E-03
    0.4300000000E+05    0.9206317289E-02    0.6956531387E+00    0.6279641617E-01    0.2696764360E+00    0.3402882379E-03
    0.4500000000E+05    0.9086153074E-02    0.6956549178E+00    0.6308480453E-01    0.2754653720E+00    0.3411493533E-03
    0.4700000000E+05    0.8962689097E-02    0.6956565100E+00    0.6331787780E-01    0.2810308891E+00    0.3419750316E-03
    0.4900000000E+05    0.8836886357E-02    0.6956579393E+00    0.6350154504E-01    0.2863886188E+00    0.3427681505E-03
    0.1000000000E+05    0.7794345226E-02    0.6954858933E+00    0.3703635877E-01    0.1123478943E+00    0.3137595899E-03
    0.3000000000E+05    0.9799594390E-02    0.6956342371E+00    0.5899502473E-01    0.2251594449E+00    0.3335445776E-03
    0.5000000000E+05    0.8773363347E-02    0.6956585994E+00    0.6357649835E-01    0.2889940080E+00    0.3431533050E-03
    0.7000000000E+05    0.7514144900E-02    0.6956668182E+00    0.6345673546E-01    0.3329554605E+00    0.3496313789E-03
    0.9000000000E+05    0.6413413931E-02    0.6956701415E+00    0.6171691732E-01    0.3660963391E+00    0.3545489719E-03
    0.1100000000E+06    0.5507433067E-02    0.6956714580E+00    0.5940063781E-01    0.3924048251E+00    0.3585249343E-03
    0.1300000000E+06    0.4769358343E-02    0.6956718117E+00    0.5692383506E-01    0.4140030971E+00    0.3618686760E-03
    0.1500000000E+06    0.4165788831E-02    0.6956716589E+00    0.5446587757E-01    0.4321612993E+00    0.3647576681E-03
    0.1700000000E+06    0.3668146452E-02    0.6956712245E+00    0.5210532384E-01    0.4477026018E+00    0.3673033684E-03
    0.1900000000E+06    0.3253970470E-02    0.6956706293E+00    0.4987435467E-01    0.4611918720E+00    0.3695804577E-03
    0.2100000000E+06    0.2906015475E-02    0.6956699419E+00    0.4778285816E-01    0.4730337259E+00    0.3716414712E-03
    0.2300000000E+06    0.2611079170E-02    0.6956692034E+00    0.4582984988E-01    0.4835278324E+00    0.3735247963E-03
    0.2500000000E+06    0.2359003755E-02    0.6956684390E+00    0.4400915403E-01    0.4929021471E+00    0.3752593521E-03
    0.2700000000E+06    0.2141909449E-02    0.6956676646E+00    0.4231231787E-01    0.5013339139E+00    0.3768674777E-03
    0.2900000000E+06    0.1953626023E-02    0.6956668903E+00    0.4073012828E-01    0.5089634926E+00    0.3783667944E-03
    0.3100000000E+06    0.1789275242E-02    0.6956661225E+00    0.3925339740E-01    0.5159037756E+00    0.3797714519E-03
    0.3300000000E+06    0.1644963861E-02    0.6956653655E+00    0.3787335639E-01    0.5222467871E+00    0.3810929874E-03
    0.3500000000E+06    0.1517556633E-02    0.6956646219E+00    0.3658183659E-01    0.5280684204E+00    0.3823409335E-03
    0.3700000000E+06    0.1404507129E-02    0.6956638932E+00    0.3537133459E-01    0.5334319118E+00    0.3835232595E-03
    0.3900000000E+06    0.1303730531E-02    0.6956631803E+00    0.3423501512E-01    0.5383904342E+00    0.3846466960E-03
    0.4100000000E+06    0.1213507095E-02    0.6956624836E+00    0.3316668155E-01    0.5429890651E+00    0.3857169808E-03
    0.4300000000E+06    0.1132408227E-02    0.6956618032E+00    0.3216073101E-01    0.5472663015E+00    0.3867390452E-03
    0.4500000000E+06    0.1059239368E-02    0.6956611389E+00    0.3121210354E-01    0.5512552402E+00    0.3877171590E-03
    0.4700000000E+06    0.9929954906E-03    0.6956604906E+00    0.3031623062E-01    0.5549845094E+00    0.3886550444E-03
    0.4900000000E+06    0.9328261369E-03    0.6956598577E+00    0.2946898574E-01    0.5584790100E+00    0.3895559663E-03
    0.1000000000E+06    0.5937324345E-02    0.6956709643E+00    0.6059671066E-01    0.3799447672E+00    0.3566310162E-03
    0.3000000000E+06    0.1868722477E-02    0.6956665053E+00    0.3997914124E-01    0.5125136183E+00    0.3790801813E-03
    0.5000000000E+06    0.9047889725E-03    0.6956595470E+00    0.2906241875E-01    0.5601451336E+00    0.3899934791E-03
    0.7000000000E+06    0.5339876769E-03    0.6956540299E+00    0.2274836240E-01    0.5852199691E+00    0.3973527665E-03
    0.9000000000E+06    0.3527355016E-03    0.6956495480E+00    0.1866364618E-01    0.6007553998E+00    0.4029398679E-03
    0.1100000000E+07    0.2506116569E-03    0.6956457860E+00    0.1581142542E-01    0.6113373295E+00    0.4074573944E-03
    0.1300000000E+07    0.1873719398E-03    0.6956425460E+00    0.1370926965E-01    0.6190121436E+00    0.4112567197E-03
    0.1500000000E+07    0.1454765215E-03    0.6956397002E+00    0.1209668195E-01    0.6248339045E+00    0.4145394146E-03
    0.1700000000E+07    0.1162776486E-03    0.6956371621E+00    0.1082098764E-01    0.6294015732E+00    0.4174320846E-03
    0.1900000000E+07    0.9510718119E-04    0.6956348709E+00    0.9786890585E-02    0.6330809271E+00    0.4200195659E-03
    0.2100000000E+07    0.7926350095E-04    0.6956327819E+00    0.8931875942E-02    0.6361080490E+00    0.4223615408E-03
    0.2300000000E+07    0.6709424437E-04    0.6956308618E+00    0.8213249737E-02    0.6386421576E+00    0.4245016210E-03
    0.2500000000E+07    0.5754229491E-04    0.6956290847E+00    0.7600869691E-02    0.6407945458E+00    0.4264726624E-03
    0.2700000000E+07    0.4990561108E-04    0.6956274304E+00    0.7072853410E-02    0.6426453552E+00    0.4283000454E-03
    0.2900000000E+07    0.4370302501E-04    0.6956258827E+00    0.6612933326E-02    0.6442537640E+00    0.4300037914E-03
    0.3100000000E+07    0.3859573258E-04    0.6956244283E+00    0.6208766076E-02    0.6456644216E+00    0.4315999771E-03
    0.3300000000E+07    0.3433953417E-04    0.6956230564E+00    0.5850817598E-02    0.6469116490E+00    0.4331017113E-03
    0.3500000000E+07    0.3075478660E-04    0.6956217580E+00    0.5531607623E-02    0.6480222622E+00    0.4345198255E-03
    0.3700000000E+07    0.2770693536E-04    0.6956205253E+00    0.5245185382E-02    0.6490175169E+00    0.4358633745E-03
    0.3900000000E+07    0.2509357188E-04    0.6956193518E+00    0.4986758022E-02    0.6499144787E+00    0.4371400063E-03
    0.4100000000E+07    0.2283562971E-04    0.6956182321E+00    0.4752422262E-02    0.6507270066E+00    0.4383562403E-03
    0.4300000000E+07    0.2087127256E-04    0.6956171612E+00    0.4538967324E-02    0.6514664725E+00    0.4395176800E-03
    0.4500000000E+07    0.1915157247E-04    0.6956161351E+00    0.4343728003E-02    0.6521422948E+00    0.4406291771E-03
    0.4700000000E+07    0.1763740269E-04    0.6956151499E+00    0.4164473600E-02    0.6527623407E+00    0.4416949612E-03
    0.4900000000E+07    0.1629717012E-04    0.6956142025E+00    0.3999322915E-02    0.6533332328E+00    0.4427187420E-03
    0.1000000000E+07    0.2951080574E-03    0.6956475915E+00    0.1712090982E-01    0.6065042425E+00    0.4053054823E-03
    0.3000000000E+07    0.4102952999E-04    0.6956251446E+00    0.6404532091E-02    0.6449814629E+00    0.4308144496E-03
    0.5000000000E+07    0.1568404531E-04    0.6956137420E+00    0.3921527648E-02    0.6536020347E+00    0.4432159188E-03
    0.7000000000E+07    0.8257518927E-05    0.6956059660E+00    0.2820883519E-02    0.6573973261E+00    0.4515788243E-03
    0.9000000000E+07    0.5099586962E-05    0.6956000307E+00    0.2200493368E-02    0.6595310169E+00    0.4579278823E-03
    0.1100000000E+08    0.3466294206E-05    0.6955952162E+00    0.1802656031E-02    0.6608976638E+00    0.4630615042E-03
    0.1300000000E+08    0.2512014087E-05    0.6955911582E+00    0.1525980648E-02    0.6618475635E+00    0.4673789779E-03
    0.1500000000E+08    0.1905888161E-05    0.6955876465E+00    0.1322509938E-02    0.6625459643E+00    0.4711093628E-03
    0.1700000000E+08    0.1496719727E-05    0.6955845483E+00    0.1166629498E-02    0.6630809815E+00    0.4743965302E-03
    0.1900000000E+08    0.1207382546E-05    0.6955817743E+00    0.1043418248E-02    0.6635038894E+00    0.4773368864E-03
    0.2100000000E+08    0.9951589664E-06    0.6955792614E+00    0.9435977964E-03    0.6638465486E+00    0.4799982530E-03
    0.2300000000E+08    0.8348237447E-06    0.6955769636E+00    0.8610966158E-03    0.6641297976E+00    0.4824301897E-03
    0.2500000000E+08    0.7106961332E-06    0.6955748461E+00    0.7917753895E-03    0.6643678381E+00    0.4846700334E-03
    0.2700000000E+08    0.6126091219E-06    0.6955728819E+00    0.7327153865E-03    0.6645706818E+00    0.4867466261E-03
