  Pressure (Pa) 23mC5-500 (mol/kg) 24mC5-500 (mol/kg) 2mC6-500 (mol/kg) 3mC6-500 (mol/kg) C7-500 (mol/kg)
    0.1000000000E+01    0.2869334964E-05    0.6965027124E-01    0.3253917616E-05    0.5264442380E-05    0.4216068470E-02
    0.3000000000E+01    0.6869907706E-05    0.1740813395E+00    0.7545281336E-05    0.1357966409E-04    0.4299323303E-02
    0.5000000000E+01    0.9495607714E-05    0.2486425582E+00    0.1019040202E-04    0.2125842145E-04    0.4357711144E-02
    0.7000000000E+01    0.1131515098E-04    0.3045458708E+00    0.1192748045E-04    0.2863045870E-04    0.4401665341E-02
    0.9000000000E+01    0.1262961477E-04    0.3480158594E+00    0.1313122197E-04    0.3580761977E-04    0.4436059838E-02
    0.1100000000E+02    0.1361209151E-04    0.3827853556E+00    0.1400815037E-04    0.4284602696E-04    0.4463753772E-02
    0.1300000000E+02    0.1436818794E-04    0.4112288506E+00    0.1467877093E-04    0.4977914754E-04    0.4486557484E-02
    0.1500000000E+02    0.1496538615E-04    0.4349288338E+00    0.1521651798E-04    0.5662906590E-04    0.4505677501E-02
    0.1700000000E+02    0.1544844045E-04    0.4549805899E+00    0.1566769422E-04    0.6341137086E-04    0.4521950360E-02
    0.1900000000E+02    0.1584795337E-04    0.4721662960E+00    0.1606229921E-04    0.7013761084E-04    0.4535974983E-02
    0.2100000000E+02    0.1618539209E-04    0.4870594435E+00    0.1642019594E-04    0.7681665858E-04    0.4548191794E-02
    0.2300000000E+02    0.1647614482E-04    0.5000900840E+00    0.1675476355E-04    0.8345552817E-04    0.4558932117E-02
    0.2500000000E+02    0.1673144829E-04    0.5115870360E+00    0.1707513355E-04    0.9005989321E-04    0.4568450123E-02
    0.2700000000E+02    0.1695963970E-04    0.5218060172E+00    0.1738759815E-04    0.9663443045E-04    0.4576944153E-02
    0.2900000000E+02    0.1716699125E-04    0.5309488892E+00    0.1769651903E-04    0.1031830565E-03    0.4584571316E-02
    0.3100000000E+02    0.1735827894E-04    0.5391771263E+00    0.1800492609E-04    0.1097090959E-03    0.4591457727E-02
    0.3300000000E+02    0.1753717805E-04    0.5466214351E+00    0.1831491948E-04    0.1162154034E-03    0.4597705829E-02
    0.3500000000E+02    0.1770654314E-04    0.5533887496E+00    0.1862794376E-04    0.1227044557E-03    0.4603399730E-02
    0.3700000000E+02    0.1786860928E-04    0.5595674008E+00    0.1894497758E-04    0.1291784203E-03    0.4608609147E-02
    0.3900000000E+02    0.1802513890E-04    0.5652309934E+00    0.1926666654E-04    0.1356392095E-03    0.4613392384E-02
    0.4100000000E+02    0.1817753026E-04    0.5704413518E+00    0.1959341729E-04    0.1420885219E-03    0.4617798581E-02
    0.4300000000E+02    0.1832689855E-04    0.5752507867E+00    0.1992546469E-04    0.1485278767E-03    0.4621869465E-02
    0.4500000000E+02    0.1847413712E-04    0.5797038567E+00    0.2026292031E-04    0.1549586397E-03    0.4625640705E-02
    0.4700000000E+02    0.1861996427E-04    0.5838387535E+00    0.2060580756E-04    0.1613820458E-03    0.4629142978E-02
    0.4900000000E+02    0.1876495917E-04    0.5876883996E+00    0.2095408726E-04    0.1677992166E-03    0.4632402822E-02
    0.1000000000E+02    0.1315460761E-04    0.3663163120E+00    0.1360157557E-04    0.3934172453E-04    0.4450613302E-02
    0.3000000000E+02    0.1726439131E-04    0.5351685393E+00    0.1785063744E-04    0.1064487113E-03    0.4588100228E-02
    0.5000000000E+02    0.1883729450E-04    0.5895153209E+00    0.2113022467E-04    0.1710057870E-03    0.4633949164E-02
    0.7000000000E+02    0.2031527664E-04    0.6163386584E+00    0.2490539223E-04    0.2350180255E-03    0.4656431665E-02
    0.9000000000E+02    0.2192094501E-04    0.6323218511E+00    0.2906503657E-04    0.2991909401E-03    0.4669178889E-02
    0.1100000000E+03    0.2366834535E-04    0.6429312219E+00    0.3350325851E-04    0.3638976828E-03    0.4676820616E-02
    0.1300000000E+03    0.2554374411E-04    0.6504866912E+00    0.3815802825E-04    0.4293778755E-03    0.4681387873E-02
    0.1500000000E+03    0.2753253357E-04    0.6561408164E+00    0.4299420625E-04    0.4958054776E-03    0.4683921075E-02
    0.1700000000E+03    0.2962332113E-04    0.6605310009E+00    0.4799190462E-04    0.5633182078E-03    0.4685012031E-02
    0.1900000000E+03    0.3180791105E-04    0.6640383836E+00    0.5314010591E-04    0.6320323336E-03    0.4685023727E-02
    0.2100000000E+03    0.3408063988E-04    0.6669048628E+00    0.5843317678E-04    0.7020509155E-03    0.4684191754E-02
    0.2300000000E+03    0.3643775284E-04    0.6692913596E+00    0.6386890374E-04    0.7734687780E-03    0.4682675809E-02
    0.2500000000E+03    0.3887692751E-04    0.6713090852E+00    0.6944734637E-04    0.8463757017E-03    0.4680587876E-02
    0.2700000000E+03    0.4139692956E-04    0.6730373594E+00    0.7517014560E-04    0.9208585870E-03    0.4678008581E-02
    0.2900000000E+03    0.4399736760E-04    0.6745342773E+00    0.8104009487E-04    0.9970029933E-03    0.4674997169E-02
    0.3100000000E+03    0.4667851870E-04    0.6758433631E+00    0.8706086853E-04    0.1074894283E-02    0.4671597828E-02
    0.3300000000E+03    0.4944120374E-04    0.6769978687E+00    0.9323684737E-04    0.1154618507E-02    0.4667843843E-02
    0.3500000000E+03    0.5228669810E-04    0.6780236352E+00    0.9957300607E-04    0.1236263128E-02    0.4663760409E-02
    0.3700000000E+03    0.5521666757E-04    0.6789410488E+00    0.1060748412E-03    0.1319917614E-02    0.4659366580E-02
    0.3900000000E+03    0.5823312240E-04    0.6797664072E+00    0.1127483268E-03    0.1405673973E-02    0.4654676642E-02
    0.4100000000E+03    0.6133838496E-04    0.6805128965E+00    0.1195998880E-03    0.1493627222E-02    0.4649701116E-02
    0.4300000000E+03    0.6453506733E-04    0.6811912990E+00    0.1266363898E-03    0.1583875828E-02    0.4644447483E-02
    0.4500000000E+03    0.6782605658E-04    0.6818105180E+00    0.1338651340E-03    0.1676522135E-02    0.4638920727E-02
    0.4700000000E+03    0.7121450611E-04    0.6823779691E+00    0.1412938650E-03    0.1771672774E-02    0.4633123745E-02
    0.4900000000E+03    0.7470383165E-04    0.6828998791E+00    0.1489307811E-03    0.1869439073E-02    0.4627057649E-02
    0.1000000000E+03    0.2277765403E-04    0.6381133571E+00    0.3125401740E-04    0.3314605584E-03    0.4673477443E-02
    0.3000000000E+03    0.4532781427E-04    0.6752100192E+00    0.8403136986E-04    0.1035724925E-02    0.4673343692E-02
    0.5000000000E+03    0.7648746199E-04    0.6831454344E+00    0.1528299984E-03    0.1919339274E-02    0.4623923604E-02
    0.7000000000E+03    0.1185250464E-03    0.6866002047E+00    0.2441906883E-03    0.3086994518E-02    0.4546291979E-02
    0.9000000000E+03    0.1770579844E-03    0.6885326258E+00    0.3706892415E-03    0.4703062883E-02    0.4433739295E-02
    0.1100000000E+04    0.2625218566E-03    0.6897666863E+00    0.5550508586E-03    0.7060418341E-02    0.4268311674E-02
    0.1300000000E+04    0.3949434694E-03    0.6906226849E+00    0.8407175856E-03    0.1071869967E-01    0.4014718802E-02
    0.1500000000E+04    0.6138149415E-03    0.6912510630E+00    0.1313494198E-02    0.1678621102E-01    0.3605734043E-02
    0.1700000000E+04    0.9885432891E-03    0.6917318120E+00    0.2125102405E-02    0.2723550088E-01    0.2934355596E-02
    0.1900000000E+04    0.1561603349E-02    0.6921113857E+00    0.3372585127E-02    0.4338412238E-01    0.1981674900E-02
    0.2100000000E+04    0.2139519571E-02    0.6924186070E+00    0.4644192147E-02    0.6002759846E-01    0.1159428300E-02
    0.2300000000E+04    0.2499804166E-02    0.6926723059E+00    0.5455784528E-02    0.7090184969E-01    0.8085773943E-03
    0.2500000000E+04    0.2716940064E-02    0.6928853041E+00    0.5962626481E-02    0.7792649646E-01    0.7164911324E-03
    0.2700000000E+04    0.2884353347E-02    0.6930666336E+00    0.6365222590E-02    0.8365982737E-01    0.6977424692E-03
    0.2900000000E+04    0.3033930870E-02    0.6932228401E+00    0.6732361936E-02    0.8898467712E-01    0.6957808962E-03
    0.3100000000E+04    0.3173974530E-02    0.6933587835E+00    0.7081883646E-02    0.9412940216E-01    0.6973858702E-03
    0.3300000000E+04    0.3306686979E-02    0.6934781474E+00    0.7418379563E-02    0.9915119927E-01    0.6996529707E-03
    0.3500000000E+04    0.3432815405E-02    0.6935837743E+00    0.7743272704E-02    0.1040661889E+00    0.7019588370E-03
    0.3700000000E+04    0.3552756735E-02    0.6936778930E+00    0.8057229003E-02    0.1088807228E+00    0.7041776791E-03
    0.3900000000E+04    0.3666815157E-02    0.6937622756E+00    0.8360721792E-02    0.1135987469E+00    0.7062914033E-03
    0.4100000000E+04    0.3775262458E-02    0.6938383485E+00    0.8654164225E-02    0.1182235335E+00    0.7083043526E-03
    0.4300000000E+04    0.3878352676E-02    0.6939072728E+00    0.8937941074E-02    0.1227580931E+00    0.7102247086E-03
    0.4500000000E+04    0.3976326101E-02    0.6939700034E+00    0.9212416999E-02    0.1272052779E+00    0.7120605500E-03
    0.4700000000E+04    0.4069410774E-02    0.6940273327E+00    0.9477939253E-02    0.1315678109E+00    0.7138191302E-03
    0.4900000000E+04    0.4157823348E-02    0.6940799235E+00    0.9734839028E-02    0.1358482986E+00    0.7155068460E-03
    0.1000000000E+04    0.2154813135E-03    0.6892109782E+00    0.4535928188E-03    0.5762759902E-02    0.4359303765E-02
    0.3000000000E+04    0.3104947488E-02    0.6932930915E+00    0.6908908912E-02    0.9157430730E-01    0.6964140411E-03
    0.5000000000E+04    0.4200342360E-02    0.6941046202E+00    0.9860154832E-02    0.1379585597E+00    0.7163259182E-03
    0.7000000000E+04    0.4850390474E-02    0.6944484675E+00    0.1198344047E-01    0.1764111860E+00    0.7300585452E-03
    0.9000000000E+04    0.5213945065E-02    0.6946370939E+00    0.1352818665E-01    0.2089450600E+00    0.7404393226E-03
    0.1100000000E+05    0.5389904396E-02    0.6947555413E+00    0.1465708421E-01    0.2369219087E+00    0.7488119928E-03
    0.1300000000E+05    0.5441813623E-02    0.6948364186E+00    0.1548045714E-01    0.2613032285E+00    0.7558422244E-03
    0.1500000000E+05    0.5411453532E-02    0.6948948904E+00    0.1607531469E-01    0.2827888139E+00    0.7619096479E-03
    0.1700000000E+05    0.5326804081E-02    0.6949389552E+00    0.1649673808E-01    0.3019013237E+00    0.7672517497E-03
    0.1900000000E+05    0.5206874339E-02    0.6949732257E+00    0.1678494975E-01    0.3190399039E+00    0.7720272003E-03
    0.2100000000E+05    0.5064718965E-02    0.6950005461E+00    0.1696984827E-01    0.3345153241E+00    0.7763473758E-03
    0.2300000000E+05    0.4909370087E-02    0.6950227637E+00    0.1707400134E-01    0.3485736694E+00    0.7802935204E-03
    0.2500000000E+05    0.4747101754E-02    0.6950411293E+00    0.1711467111E-01    0.3614127252E+00    0.7839267547E-03
    0.2700000000E+05    0.4582273282E-02    0.6950565196E+00    0.1710521499E-01    0.3731935637E+00    0.7872942389E-03
    0.2900000000E+05    0.4417901072E-02    0.6950695665E+00    0.1705607378E-01    0.3840489053E+00    0.7904331385E-03
    0.3100000000E+05    0.4256051912E-02    0.6950807370E+00    0.1697548080E-01    0.3940892608E+00    0.7933732729E-03
    0.3300000000E+05    0.4098116899E-02    0.6950903831E+00    0.1686997880E-01    0.4034075181E+00    0.7961389388E-03
    0.3500000000E+05    0.3945004303E-02    0.6950987754E+00    0.1674480219E-01    0.4120824181E+00    0.7987501998E-03
    0.3700000000E+05    0.3797276635E-02    0.6951061247E+00    0.1660416316E-01    0.4201812248E+00    0.8012238196E-03
    0.3900000000E+05    0.3655248855E-02    0.6951125982E+00    0.1645146842E-01    0.4277618010E+00    0.8035739508E-03
    0.4100000000E+05    0.3519059198E-02    0.6951183296E+00    0.1628948503E-01    0.4348742412E+00    0.8058126522E-03
    0.4300000000E+05    0.3388720549E-02    0.6951234272E+00    0.1612046863E-01    0.4415621681E+00    0.8079502846E-03
    0.4500000000E+05    0.3264157847E-02    0.6951279798E+00    0.1594626327E-01    0.4478637737E+00    0.8099958160E-03
    0.4700000000E+05    0.3145235412E-02    0.6951320605E+00    0.1576837994E-01    0.4538126609E+00    0.8119570618E-03
    0.4900000000E+05    0.3031776927E-02    0.6951357306E+00    0.1558805868E-01    0.4594385302E+00    0.8138408748E-03
    0.1000000000E+05    0.5320769132E-02    0.6947024382E+00    0.1413676593E-01    0.2234356028E+00    0.7448257110E-03
    0.3000000000E+05    0.4336560914E-02    0.6950753621E+00    0.1701926525E-01    0.3891647831E+00    0.7919264206E-03
    0.5000000000E+05    0.2977034137E-02    0.6951374279E+00    0.1549730964E-01    0.4621386887E+00    0.8147556606E-03
    0.7000000000E+05    0.2115962397E-02    0.6951587677E+00    0.1372123706E-01    0.5042528457E+00    0.8301391172E-03
    0.9000000000E+05    0.1569795490E-02    0.6951676792E+00    0.1217760821E-01    0.5318657459E+00    0.8418141665E-03
    0.1100000000E+06    0.1207633674E-02    0.6951714582E+00    0.1089640855E-01    0.5514211805E+00    0.8512523572E-03
    0.1300000000E+06    0.9567570940E-03    0.6951727526E+00    0.9836425951E-02    0.5660152357E+00    0.8591890527E-03
    0.1500000000E+06    0.7763306958E-03    0.6951727244E+00    0.8952571235E-02    0.5773307684E+00    0.8660459107E-03
    0.1700000000E+06    0.6424297893E-03    0.6951719498E+00    0.8207695170E-02    0.5863642206E+00    0.8720876893E-03
    0.1900000000E+06    0.5404034044E-03    0.6951707399E+00    0.7573083823E-02    0.5937442719E+00    0.8774917586E-03
    0.2100000000E+06    0.4609120357E-03    0.6951692730E+00    0.7026845971E-02    0.5998875911E+00    0.8823828766E-03
    0.2300000000E+06    0.3977885417E-03    0.6951676565E+00    0.6552246175E-02    0.6050814399E+00    0.8868521962E-03
    0.2500000000E+06    0.3468336522E-03    0.6951659568E+00    0.6136377494E-02    0.6095303768E+00    0.8909683817E-03
    0.2700000000E+06    0.3051104490E-03    0.6951642165E+00    0.5769176416E-02    0.6133840641E+00    0.8947844703E-03
    0.2900000000E+06    0.2705161166E-03    0.6951624631E+00    0.5442706581E-02    0.6167545480E+00    0.8983422969E-03
    0.3100000000E+06    0.2415135846E-03    0.6951607144E+00    0.5150639011E-02    0.6197273895E+00    0.9016754526E-03
    0.3300000000E+06    0.2169585195E-03    0.6951589824E+00    0.4887872809E-02    0.6223690611E+00    0.9048113251E-03
    0.3500000000E+06    0.1959849232E-03    0.6951572748E+00    0.4650255831E-02    0.6247319924E+00    0.9077725434E-03
    0.3700000000E+06    0.1779277470E-03    0.6951555964E+00    0.4434376845E-02    0.6268580950E+00    0.9105780240E-03
    0.3900000000E+06    0.1622694613E-03    0.6951539503E+00    0.4237409195E-02    0.6287812758E+00    0.9132437437E-03
    0.4100000000E+06    0.1486024792E-03    0.6951523382E+00    0.4056991941E-02    0.6305292617E+00    0.9157833213E-03
    0.4300000000E+06    0.1366022823E-03    0.6951507609E+00    0.3891138555E-02    0.6321249467E+00    0.9182084618E-03
    0.4500000000E+06    0.1260079050E-03    0.6951492187E+00    0.3738166088E-02    0.6335874019E+00    0.9205292997E-03
    0.4700000000E+06    0.1166075636E-03    0.6951477112E+00    0.3596639705E-02    0.6349326409E+00    0.9227546697E-03
    0.4900000000E+06    0.1082279373E-03    0.6951462380E+00    0.3465328858E-02    0.6361742098E+00    0.9248923205E-03
    0.1000000000E+06    0.1371255109E-02    0.6951699918E+00    0.1150638071E-01    0.5424106588E+00    0.8467566771E-03
    0.3000000000E+06    0.2553950388E-03    0.6951615873E+00    0.5292716421E-02    0.6182861403E+00    0.9000351207E-03
    0.5000000000E+06    0.1043752142E-03    0.6951455140E+00    0.3403166835E-02    0.6367597910E+00    0.9259304186E-03
    0.7000000000E+06    0.5661862088E-04    0.6951326090E+00    0.2502255617E-02    0.6450974662E+00    0.9433915604E-03
    0.9000000000E+06    0.3556857089E-04    0.6951220758E+00    0.1976376352E-02    0.6498443054E+00    0.9566474025E-03
    0.1100000000E+07    0.2444874383E-04    0.6951132123E+00    0.1632092718E-02    0.6529084926E+00    0.9673653172E-03
    0.1300000000E+07    0.1786010558E-04    0.6951055669E+00    0.1389352032E-02    0.6550497571E+00    0.9763791092E-03
    0.1500000000E+07    0.1363313099E-04    0.6950988445E+00    0.1209082504E-02    0.6566303507E+00    0.9841670862E-03
    0.1700000000E+07    0.1075811368E-04    0.6950928443E+00    0.1069960646E-02    0.6578449073E+00    0.9910296630E-03
    0.1900000000E+07    0.8713071953E-05    0.6950874243E+00    0.9593672231E-03    0.6588073317E+00    0.9971681387E-03
    0.2100000000E+07    0.7205925931E-05    0.6950824804E+00    0.8693597301E-03    0.6595887188E+00    0.1002724125E-02
    0.2300000000E+07    0.6062796659E-05    0.6950779343E+00    0.7946908288E-03    0.6602357360E+00    0.1007801099E-02
    0.2500000000E+07    0.5174881916E-05    0.6950737256E+00    0.7317552001E-03    0.6607802835E+00    0.1012477020E-02
    0.2700000000E+07    0.4471250454E-05    0.6950698065E+00    0.6779942321E-03    0.6612449065E+00    0.1016812106E-02
    0.2900000000E+07    0.3904044139E-05    0.6950661390E+00    0.6315420932E-03    0.6616459900E+00    0.1020853861E-02
    0.3100000000E+07    0.3440015555E-05    0.6950626920E+00    0.5910062599E-03    0.6619957275E+00    0.1024640429E-02
    0.3300000000E+07    0.3055479354E-05    0.6950594399E+00    0.5553264765E-03    0.6623033811E+00    0.1028202912E-02
    0.3500000000E+07    0.2733188935E-05    0.6950563613E+00    0.5236812902E-03    0.6625761120E+00    0.1031567009E-02
    0.3700000000E+07    0.2460342467E-05    0.6950534382E+00    0.4954244442E-03    0.6628195443E+00    0.1034754203E-02
    0.3900000000E+07    0.2227274358E-05    0.6950506553E+00    0.4700405637E-03    0.6630381561E+00    0.1037782640E-02
    0.4100000000E+07    0.2026575392E-05    0.6950479994E+00    0.4471136401E-03    0.6632355577E+00    0.1040667787E-02
    0.4300000000E+07    0.1852488163E-05    0.6950454591E+00    0.4263041992E-03    0.6634146914E+00    0.1043422938E-02
    0.4500000000E+07    0.1700483540E-05    0.6950430245E+00    0.4073324859E-03    0.6635779798E+00    0.1046059605E-02
    0.4700000000E+07    0.1566958718E-05    0.6950406870E+00    0.3899658938E-03    0.6637274352E+00    0.1048587823E-02
    0.4900000000E+07    0.1449018528E-05    0.6950384389E+00    0.3740094401E-03    0.6638647431E+00    0.1051016392E-02
    0.1000000000E+07    0.2922385925E-04    0.6951174682E+00    0.1787949962E-02    0.6515254060E+00    0.9622598957E-03
    0.3000000000E+07    0.3660793516E-05    0.6950643897E+00    0.6106074174E-03    0.6618266407E+00    0.1022776956E-02
    0.5000000000E+07    0.1395140980E-05    0.6950373463E+00    0.3665075372E-03    0.6639292951E+00    0.1052195771E-02
    0.7000000000E+07    0.7462852175E-06    0.6950188870E+00    0.2613545875E-03    0.6648341274E+00    0.1072033515E-02
    0.9000000000E+07    0.4720366219E-06    0.6950047901E+00    0.2028825996E-03    0.6653376230E+00    0.1087093780E-02
    0.1100000000E+08    0.3301159948E-06    0.6949933510E+00    0.1656845121E-03    0.6656582836E+00    0.1099270715E-02
    0.1300000000E+08    0.2468606472E-06    0.6949837068E+00    0.1399512685E-03    0.6658803773E+00    0.1109511572E-02
    0.1500000000E+08    0.1936495650E-06    0.6949753589E+00    0.1210975240E-03    0.6660432893E+00    0.1118359749E-02
    0.1700000000E+08    0.1574499846E-06    0.6949679924E+00    0.1066939628E-03    0.6661678906E+00    0.1126156549E-02
    0.1900000000E+08    0.1316238491E-06    0.6949613956E+00    0.9533382354E-04    0.6662662720E+00    0.1133130671E-02
    0.2100000000E+08    0.1124950691E-06    0.6949554189E+00    0.8614631066E-04    0.6663459214E+00    0.1139443003E-02
    0.2300000000E+08    0.9789104804E-07    0.6949499529E+00    0.7856364924E-04    0.6664117239E+00    0.1145211110E-02
    0.2500000000E+08    0.8645910542E-07    0.6949449151E+00    0.7219988505E-04    0.6664670018E+00    0.1150523562E-02
    0.2700000000E+08    0.7732030676E-07    0.6949402416E+00    0.6678353183E-04    0.6665140937E+00    0.1155448777E-02
