  Pressure (Pa) 23mC5-500 (mol/kg) 24mC5-500 (mol/kg) 2mC6-500 (mol/kg) 3mC6-500 (mol/kg) C7-500 (mol/kg)
    0.1000000000E+01    0.2751947155E-05    0.9950193247E-01    0.3140643625E-05    0.8985725337E-05    0.4169221989E-02
    0.3000000000E+01    0.6072962380E-05    0.2321236186E+00    0.6665835581E-05    0.2263195907E-04    0.4199723543E-02
    0.5000000000E+01    0.7963728761E-05    0.3164913382E+00    0.8535541608E-05    0.3512531202E-04    0.4214897615E-02
    0.7000000000E+01    0.9154127122E-05    0.3748872953E+00    0.9669416682E-05    0.4707806435E-04    0.4224725562E-02
    0.9000000000E+01    0.9962430253E-05    0.4177046451E+00    0.1044292965E-04    0.5869448555E-04    0.4231611486E-02
    0.1100000000E+02    0.1054665104E-04    0.4504437692E+00    0.1102991873E-04    0.7007613433E-04    0.4236651928E-02
    0.1300000000E+02    0.1099253961E-04    0.4762883110E+00    0.1151781897E-04    0.8128317819E-04    0.4240446842E-02
    0.1500000000E+02    0.1134979219E-04    0.4972087281E+00    0.1195324872E-04    0.9235512232E-04    0.4243357743E-02
    0.1700000000E+02    0.1164870287E-04    0.5144899129E+00    0.1236211352E-04    0.1033197422E-03    0.4245616997E-02
    0.1900000000E+02    0.1190849029E-04    0.5290054893E+00    0.1275921872E-04    0.1141975491E-03    0.4247381296E-02
    0.2100000000E+02    0.1214174467E-04    0.5413701706E+00    0.1315316424E-04    0.1250042620E-03    0.4248760357E-02
    0.2300000000E+02    0.1235693252E-04    0.5520290584E+00    0.1354896521E-04    0.1357522826E-03    0.4249833402E-02
    0.2500000000E+02    0.1255987076E-04    0.5613123668E+00    0.1394951338E-04    0.1464516271E-03    0.4250659110E-02
    0.2700000000E+02    0.1275462699E-04    0.5694702439E+00    0.1435641963E-04    0.1571105434E-03    0.4251281902E-02
    0.2900000000E+02    0.1294408673E-04    0.5766956512E+00    0.1477051330E-04    0.1677359339E-03    0.4251736037E-02
    0.3100000000E+02    0.1313032077E-04    0.5831398224E+00    0.1519214454E-04    0.1783336563E-03    0.4252048371E-02
    0.3300000000E+02    0.1331482859E-04    0.5889229643E+00    0.1562137086E-04    0.1889087412E-03    0.4252240261E-02
    0.3500000000E+02    0.1349870313E-04    0.5941418254E+00    0.1605807375E-04    0.1994655546E-03    0.4252328906E-02
    0.3700000000E+02    0.1368274432E-04    0.5988751523E+00    0.1650203222E-04    0.2100079210E-03    0.4252328316E-02
    0.3900000000E+02    0.1386753850E-04    0.6031876904E+00    0.1695296948E-04    0.2205392182E-03    0.4252250017E-02
    0.4100000000E+02    0.1405351493E-04    0.6071331631E+00    0.1741058256E-04    0.2310624517E-03    0.4252103584E-02
    0.4300000000E+02    0.1424098633E-04    0.6107565221E+00    0.1787456094E-04    0.2415803139E-03    0.4251897032E-02
    0.4500000000E+02    0.1443017845E-04    0.6140956668E+00    0.1834459815E-04    0.2520952310E-03    0.4251637125E-02
    0.4700000000E+02    0.1462125177E-04    0.6171827755E+00    0.1882039877E-04    0.2626094019E-03    0.4251329612E-02
    0.4900000000E+02    0.1481431759E-04    0.6200453454E+00    0.1930168239E-04    0.2731248298E-03    0.4250979405E-02
    0.1000000000E+02    0.1027606104E-04    0.4350976843E+00    0.1075296694E-04    0.6441025679E-04    0.4234317397E-02
    0.3000000000E+02    0.1303750209E-04    0.5800072522E+00    0.1498037790E-04    0.1730379220E-03    0.4251908483E-02
    0.5000000000E+02    0.1491162205E-04    0.6213999470E+00    0.1954429734E-04    0.2783835939E-03    0.4250789637E-02
    0.7000000000E+02    0.1696897296E-04    0.6410054725E+00    0.2463018826E-04    0.3840009565E-03    0.4245522784E-02
    0.9000000000E+02    0.1922426445E-04    0.6524415003E+00    0.3006583992E-04    0.4911802642E-03    0.4238542960E-02
    0.1100000000E+03    0.2165028245E-04    0.6599338046E+00    0.3577695823E-04    0.6006494178E-03    0.4230601355E-02
    0.1300000000E+03    0.2422778977E-04    0.6652223255E+00    0.4173420278E-04    0.7129187850E-03    0.4221998629E-02
    0.1500000000E+03    0.2694593983E-04    0.6691547007E+00    0.4792855789E-04    0.8283982599E-03    0.4212872140E-02
    0.1700000000E+03    0.2979961762E-04    0.6721932680E+00    0.5436114447E-04    0.9474481552E-03    0.4203287954E-02
    0.1900000000E+03    0.3278751674E-04    0.6746116517E+00    0.6103872397E-04    0.1070405166E-02    0.4193276649E-02
    0.2100000000E+03    0.3591095650E-04    0.6765821312E+00    0.6797158062E-04    0.1197597322E-02    0.4182849217E-02
    0.2300000000E+03    0.3917317142E-04    0.6782185849E+00    0.7517247922E-04    0.1329353532E-02    0.4172004830E-02
    0.2500000000E+03    0.4257888493E-04    0.6795993035E+00    0.8265614718E-04    0.1466010284E-02    0.4160734903E-02
    0.2700000000E+03    0.4613405530E-04    0.6807798840E+00    0.9043903009E-04    0.1607916774E-02    0.4149025322E-02
    0.2900000000E+03    0.4984572909E-04    0.6818008970E+00    0.9853919990E-04    0.1755439174E-02    0.4136857695E-02
    0.3100000000E+03    0.5372196448E-04    0.6826926417E+00    0.1069763546E-03    0.1908964443E-02    0.4124210066E-02
    0.3300000000E+03    0.5777180194E-04    0.6834782031E+00    0.1157718775E-03    0.2068903928E-02    0.4111057291E-02
    0.3500000000E+03    0.6200526884E-04    0.6841754784E+00    0.1249489384E-03    0.2235696938E-02    0.4097371214E-02
    0.3700000000E+03    0.6643341003E-04    0.6847985567E+00    0.1345326290E-03    0.2409814411E-02    0.4083120713E-02
    0.3900000000E+03    0.7106833934E-04    0.6853586808E+00    0.1445501265E-03    0.2591762758E-02    0.4068271637E-02
    0.4100000000E+03    0.7592330944E-04    0.6858649312E+00    0.1550308852E-03    0.2782087986E-02    0.4052786676E-02
    0.4300000000E+03    0.8101279854E-04    0.6863247225E+00    0.1660068555E-03    0.2981380158E-02    0.4036625181E-02
    0.4500000000E+03    0.8635261349E-04    0.6867441681E+00    0.1775127315E-03    0.3190278269E-02    0.4019742910E-02
    0.4700000000E+03    0.9196000966E-04    0.6871283542E+00    0.1895862294E-03    0.3409475610E-02    0.4002091750E-02
    0.4900000000E+03    0.9785382813E-04    0.6874815463E+00    0.2022684004E-03    0.3639725691E-02    0.3983619373E-02
    0.1000000000E+03    0.2041736413E-04    0.6565410931E+00    0.3288946035E-04    0.5455934795E-03    0.4234667975E-02
    0.3000000000E+03    0.5176273449E-04    0.6822613436E+00    0.1027143582E-03    0.1831426354E-02    0.4130595381E-02
    0.5000000000E+03    0.1009145051E-03    0.6876476683E+00    0.2088515637E-03    0.3759249051E-02    0.3974057630E-02
    0.7000000000E+03    0.1835901874E-03    0.6899814911E+00    0.3863841547E-03    0.6984835666E-02    0.3722181249E-02
    0.9000000000E+03    0.3397741495E-03    0.6912844868E+00    0.7217793308E-03    0.1309292393E-01    0.3269347263E-02
    0.1100000000E+04    0.6660226935E-03    0.6921159455E+00    0.1424491248E-02    0.2594193551E-01    0.2386334814E-02
    0.1300000000E+04    0.1225588951E-02    0.6926925395E+00    0.2638810429E-02    0.4832502651E-01    0.1053287925E-02
    0.1500000000E+04    0.1660824096E-02    0.6931158330E+00    0.3602562461E-02    0.6645845245E-01    0.3131884018E-03
    0.1700000000E+04    0.1885479049E-02    0.6934397581E+00    0.4121598460E-02    0.7663405564E-01    0.1737500906E-03
    0.1900000000E+04    0.2051923819E-02    0.6936956068E+00    0.4520218465E-02    0.8471180882E-01    0.1567484891E-03
    0.2100000000E+04    0.2201114067E-02    0.6939027823E+00    0.4886204189E-02    0.9229074348E-01    0.1554603261E-03
    0.2300000000E+04    0.2339565145E-02    0.6940739552E+00    0.5233244999E-02    0.9961604921E-01    0.1560058745E-03
    0.2500000000E+04    0.2468668749E-02    0.6942177501E+00    0.5563947409E-02    0.1067291159E+00    0.1567178889E-03
    0.2700000000E+04    0.2589100369E-02    0.6943402413E+00    0.5879386136E-02    0.1136433733E+00    0.1574027796E-03
    0.2900000000E+04    0.2701407696E-02    0.6944458303E+00    0.6180386785E-02    0.1203680616E+00    0.1580434477E-03
    0.3100000000E+04    0.2806090262E-02    0.6945377847E+00    0.6467698568E-02    0.1269114248E+00    0.1586431218E-03
    0.3300000000E+04    0.2903612303E-02    0.6946185811E+00    0.6742020425E-02    0.1332811687E+00    0.1592065688E-03
    0.3500000000E+04    0.2994406676E-02    0.6946901305E+00    0.7004007505E-02    0.1394845502E+00    0.1597379880E-03
    0.3700000000E+04    0.3078877408E-02    0.6947539316E+00    0.7254274761E-02    0.1455284172E+00    0.1602409123E-03
    0.3900000000E+04    0.3157401879E-02    0.6948111757E+00    0.7493399941E-02    0.1514192374E+00    0.1607183198E-03
    0.4100000000E+04    0.3230332819E-02    0.6948628220E+00    0.7721926269E-02    0.1571631247E+00    0.1611727419E-03
    0.4300000000E+04    0.3298000123E-02    0.6949096515E+00    0.7940364910E-02    0.1627658634E+00    0.1616063481E-03
    0.4500000000E+04    0.3360712520E-02    0.6949523062E+00    0.8149197219E-02    0.1682329301E+00    0.1620210120E-03
    0.4700000000E+04    0.3418759107E-02    0.6949913193E+00    0.8348876818E-02    0.1735695141E+00    0.1624183631E-03
    0.4900000000E+04    0.3472410756E-02    0.6950271366E+00    0.8539831490E-02    0.1787805359E+00    0.1627998275E-03
    0.1000000000E+04    0.4727457195E-03    0.6917415774E+00    0.1007813796E-02    0.1831509864E-01    0.2900403313E-02
    0.3000000000E+04    0.2754672290E-02    0.6944933416E+00    0.6325709024E-02    0.1236619161E+00    0.1583481031E-03
    0.5000000000E+04    0.3497668462E-02    0.6950439667E+00    0.8632164033E-02    0.1813404296E+00    0.1629850004E-03
    0.7000000000E+04    0.3825896773E-02    0.6952792073E+00    0.1010759876E-01    0.2269631944E+00    0.1660932709E-03
    0.9000000000E+04    0.3923101327E-02    0.6954093956E+00    0.1105399503E-01    0.2641180696E+00    0.1684465681E-03
    0.1100000000E+05    0.3890239737E-02    0.6954919002E+00    0.1165094732E-01    0.2950687243E+00    0.1703463685E-03
    0.1300000000E+05    0.3784847741E-02    0.6955487721E+00    0.1201057593E-01    0.3213189493E+00    0.1719425171E-03
    0.1500000000E+05    0.3640574337E-02    0.6955902927E+00    0.1220563358E-01    0.3439103175E+00    0.1733206497E-03
    0.1700000000E+05    0.3477426977E-02    0.6956218994E+00    0.1228482458E-01    0.3635894796E+00    0.1745344150E-03
    0.1900000000E+05    0.3307389824E-02    0.6956467364E+00    0.1228159613E-01    0.3809072515E+00    0.1756196948E-03
    0.2100000000E+05    0.3137619028E-02    0.6956667480E+00    0.1221940512E-01    0.3962799510E+00    0.1766016961E-03
    0.2300000000E+05    0.2972315302E-02    0.6956832004E+00    0.1211499000E-01    0.4100288220E+00    0.1774988179E-03
    0.2500000000E+05    0.2813848813E-02    0.6956969536E+00    0.1198046741E-01    0.4224062103E+00    0.1783249093E-03
    0.2700000000E+05    0.2663448777E-02    0.6957086119E+00    0.1182471198E-01    0.4336134407E+00    0.1790906605E-03
    0.2900000000E+05    0.2521633200E-02    0.6957186125E+00    0.1165428573E-01    0.4438133324E+00    0.1798044992E-03
    0.3100000000E+05    0.2388480125E-02    0.6957272792E+00    0.1147407683E-01    0.4531391545E+00    0.1804731893E-03
    0.3300000000E+05    0.2263800468E-02    0.6957348568E+00    0.1128774660E-01    0.4617011600E+00    0.1811022435E-03
    0.3500000000E+05    0.2147248765E-02    0.6957415342E+00    0.1109804715E-01    0.4695914351E+00    0.1816962150E-03
    0.3700000000E+05    0.2038394272E-02    0.6957474591E+00    0.1090705041E-01    0.4768875565E+00    0.1822589089E-03
    0.3900000000E+05    0.1936766471E-02    0.6957527487E+00    0.1071631520E-01    0.4836553867E+00    0.1827935382E-03
    0.4100000000E+05    0.1841883922E-02    0.6957574971E+00    0.1052701059E-01    0.4899512391E+00    0.1833028412E-03
    0.4300000000E+05    0.1753272235E-02    0.6957617811E+00    0.1034000780E-01    0.4958235733E+00    0.1837891705E-03
    0.4500000000E+05    0.1670474884E-02    0.6957656634E+00    0.1015594934E-01    0.5013143376E+00    0.1842545631E-03
    0.4700000000E+05    0.1593059356E-02    0.6957691962E+00    0.9975301372E-02    0.5064600414E+00    0.1847007941E-03
    0.4900000000E+05    0.1520620235E-02    0.6957724230E+00    0.9798393765E-02    0.5112926205E+00    0.1851294205E-03
    0.1000000000E+05    0.3918606042E-02    0.6954548164E+00    0.1138797676E-01    0.2802614715E+00    0.1694416922E-03
    0.3000000000E+05    0.2453980941E-02    0.6957230957E+00    0.1156515076E-01    0.4485781356E+00    0.1801441178E-03
    0.5000000000E+05    0.1486147844E-02    0.6957739334E+00    0.9711416118E-02    0.5136003933E+00    0.1853375674E-03
    0.7000000000E+05    0.9810313295E-03    0.6957945280E+00    0.8188740735E-02    0.5486173941E+00    0.1888382441E-03
    0.9000000000E+05    0.6931643471E-03    0.6958053001E+00    0.7032687769E-02    0.5705824559E+00    0.1914954289E-03
    0.1100000000E+06    0.5151217620E-03    0.6958117242E+00    0.6145664726E-02    0.5856647494E+00    0.1936437102E-03
    0.1300000000E+06    0.3977196859E-03    0.6958158703E+00    0.5449595641E-02    0.5966667164E+00    0.1954503394E-03
    0.1500000000E+06    0.3163388503E-03    0.6958186878E+00    0.4891097551E-02    0.6050488898E+00    0.1970112365E-03
    0.1700000000E+06    0.2576460607E-03    0.6958206704E+00    0.4434070122E-02    0.6116482547E+00    0.1983866375E-03
    0.1900000000E+06    0.2139359821E-03    0.6958220988E+00    0.4053669434E-02    0.6169792597E+00    0.1996169001E-03
    0.2100000000E+06    0.1805116725E-03    0.6958231438E+00    0.3732390591E-02    0.6213756537E+00    0.2007304132E-03
    0.2300000000E+06    0.1543804638E-03    0.6958239144E+00    0.3457605193E-02    0.6250634717E+00    0.2017479201E-03
    0.2500000000E+06    0.1335633558E-03    0.6958244835E+00    0.3220001056E-02    0.6282012677E+00    0.2026850470E-03
    0.2700000000E+06    0.1167096479E-03    0.6958249013E+00    0.3012573986E-02    0.6309035592E+00    0.2035538646E-03
    0.2900000000E+06    0.1028720719E-03    0.6958252036E+00    0.2829961353E-02    0.6332551284E+00    0.2043638940E-03
    0.3100000000E+06    0.9137043124E-04    0.6958254161E+00    0.2667991592E-02    0.6353200877E+00    0.2051227806E-03
    0.3300000000E+06    0.8170610084E-04    0.6958255581E+00    0.2523373102E-02    0.6371478188E+00    0.2058367580E-03
    0.3500000000E+06    0.7350682384E-04    0.6958256440E+00    0.2393475162E-02    0.6387769741E+00    0.2065109768E-03
    0.3700000000E+06    0.6649013587E-04    0.6958256851E+00    0.2276170808E-02    0.6402382411E+00    0.2071497428E-03
    0.3900000000E+06    0.6043856814E-04    0.6958256898E+00    0.2169722286E-02    0.6415562939E+00    0.2077566924E-03
    0.4100000000E+06    0.5518248659E-04    0.6958256651E+00    0.2072696267E-02    0.6427511974E+00    0.2083349257E-03
    0.4300000000E+06    0.5058799400E-04    0.6958256162E+00    0.1983900214E-02    0.6438394355E+00    0.2088871071E-03
    0.4500000000E+06    0.4654825737E-04    0.6958255476E+00    0.1902334018E-02    0.6448346763E+00    0.2094155434E-03
    0.4700000000E+06    0.4297719541E-04    0.6958254626E+00    0.1827152802E-02    0.6457483482E+00    0.2099222458E-03
    0.4900000000E+06    0.3980481985E-04    0.6958253642E+00    0.1757638009E-02    0.6465900810E+00    0.2104089781E-03
    0.1000000000E+06    0.5943094752E-03    0.6958088867E+00    0.6561084269E-02    0.5787638619E+00    0.1926204029E-03
    0.3000000000E+06    0.9686391963E-04    0.6958253197E+00    0.2746619534E-02    0.6343200569E+00    0.2047493118E-03
    0.5000000000E+06    0.3834979306E-04    0.6958253106E+00    0.1724809826E-02    0.6469865732E+00    0.2106453488E-03
    0.7000000000E+06    0.2051592147E-04    0.6958239248E+00    0.1254647201E-02    0.6525968407E+00    0.2146212780E-03
    0.9000000000E+06    0.1279130989E-04    0.6958223809E+00    0.9848995826E-03    0.6557618926E+00    0.2176397703E-03
    0.1100000000E+07    0.8752273148E-05    0.6958209004E+00    0.8101049017E-03    0.6577939971E+00    0.2200804191E-03
    0.1300000000E+07    0.6375074073E-05    0.6958195271E+00    0.6877029624E-03    0.6592089846E+00    0.2221330564E-03
    0.1500000000E+07    0.4857122922E-05    0.6958182623E+00    0.5972442890E-03    0.6602508375E+00    0.2239065818E-03
    0.1700000000E+07    0.3828235070E-05    0.6958170964E+00    0.5276883319E-03    0.6610499156E+00    0.2254693941E-03
    0.1900000000E+07    0.3098289778E-05    0.6958160178E+00    0.4725527871E-03    0.6616821968E+00    0.2268673266E-03
    0.2100000000E+07    0.2561433917E-05    0.6958150158E+00    0.4277823760E-03    0.6621949547E+00    0.2281326226E-03
    0.2300000000E+07    0.2154899445E-05    0.6958140810E+00    0.3907107475E-03    0.6626191432E+00    0.2292888435E-03
    0.2500000000E+07    0.1839534845E-05    0.6958132052E+00    0.3595130446E-03    0.6629758789E+00    0.2303537399E-03
    0.2700000000E+07    0.1589882833E-05    0.6958123817E+00    0.3328983860E-03    0.6632800607E+00    0.2313410237E-03
    0.2900000000E+07    0.1388804617E-05    0.6958116047E+00    0.3099279733E-03    0.6635425015E+00    0.2322615113E-03
    0.3100000000E+07    0.1224415787E-05    0.6958108691E+00    0.2899027821E-03    0.6637712386E+00    0.2331238885E-03
    0.3300000000E+07    0.1088263338E-05    0.6958101709E+00    0.2722916493E-03    0.6639723708E+00    0.2339352372E-03
    0.3500000000E+07    0.9742006019E-06    0.6958095064E+00    0.2566837685E-03    0.6641506094E+00    0.2347014092E-03
    0.3700000000E+07    0.8776704513E-06    0.6958088724E+00    0.2427564469E-03    0.6643096513E+00    0.2354272965E-03
    0.3900000000E+07    0.7952357704E-06    0.6958082663E+00    0.2302526976E-03    0.6644524385E+00    0.2361170310E-03
    0.4100000000E+07    0.7242642378E-06    0.6958076856E+00    0.2189653357E-03    0.6645813409E+00    0.2367741348E-03
    0.4300000000E+07    0.6627120434E-06    0.6958071283E+00    0.2087254789E-03    0.6646982893E+00    0.2374016352E-03
    0.4500000000E+07    0.6089725596E-06    0.6958065926E+00    0.1993940928E-03    0.6648048723E+00    0.2380021534E-03
    0.4700000000E+07    0.5617685779E-06    0.6958060767E+00    0.1908556796E-03    0.6649024092E+00    0.2385779744E-03
    0.4900000000E+07    0.5200743387E-06    0.6958055792E+00    0.1830135030E-03    0.6649920044E+00    0.2391311025E-03
    0.1000000000E+07    0.1048282390E-04    0.6958216283E+00    0.8890602153E-03    0.6568778235E+00    0.2189178215E-03
    0.3000000000E+07    0.1302617063E-05    0.6958112320E+00    0.2995837085E-03    0.6636606639E+00    0.2326994884E-03
    0.5000000000E+07    0.5010271711E-06    0.6958053370E+00    0.1793274852E-03    0.6650341208E+00    0.2393997174E-03
    0.7000000000E+07    0.2715122210E-06    0.6958012065E+00    0.1277263787E-03    0.6656241789E+00    0.2439180505E-03
    0.9000000000E+07    0.1742601652E-06    0.6957980111E+00    0.9908534735E-04    0.6659523081E+00    0.2473483625E-03
    0.1100000000E+08    0.1237456227E-06    0.6957953973E+00    0.8088434490E-04    0.6661612245E+00    0.2501220067E-03
    0.1300000000E+08    0.9398034260E-07    0.6957931812E+00    0.6830197755E-04    0.6663059058E+00    0.2524547055E-03
    0.1500000000E+08    0.7486260674E-07    0.6957912545E+00    0.5908798587E-04    0.6664120311E+00    0.2544702127E-03
    0.1700000000E+08    0.6178809740E-07    0.6957895485E+00    0.5205147131E-04    0.6664932021E+00    0.2562462582E-03
    0.1900000000E+08    0.5240857482E-07    0.6957880163E+00    0.4650335740E-04    0.6665572965E+00    0.2578349276E-03
    0.2100000000E+08    0.4542156059E-07    0.6957866247E+00    0.4201735918E-04    0.6666091920E+00    0.2592728634E-03
    0.2300000000E+08    0.4005591920E-07    0.6957853492E+00    0.3831566410E-04    0.6666520702E+00    0.2605868416E-03
    0.2500000000E+08    0.3583061081E-07    0.6957841714E+00    0.3520949800E-04    0.6666880949E+00    0.2617970344E-03
    0.2700000000E+08    0.3243242817E-07    0.6957830768E+00    0.3256611695E-04    0.6667187889E+00    0.2629190247E-03
