  Pressure (Pa) 23mC5-500 (mol/kg) 24mC5-500 (mol/kg) 2mC6-500 (mol/kg) 3mC6-500 (mol/kg) C7-500 (mol/kg)
    0.1000000000E+01    0.3052363515E-05    0.3665934585E-01    0.1046579397E-04    0.5412423970E-05    0.4208282428E-02
    0.3000000000E+01    0.8054456558E-05    0.9948115295E-01    0.2703331926E-04    0.1391425279E-04    0.4291685949E-02
    0.5000000000E+01    0.1200131672E-04    0.1513560055E+00    0.3965403887E-04    0.2175733239E-04    0.4358570926E-02
    0.7000000000E+01    0.1517618629E-04    0.1949161613E+00    0.4947842217E-04    0.2928514712E-04    0.4414681562E-02
    0.9000000000E+01    0.1776976117E-04    0.2320125530E+00    0.5725906092E-04    0.3661387030E-04    0.4462569556E-02
    0.1100000000E+02    0.1991650680E-04    0.2639846628E+00    0.6351560638E-04    0.4380170144E-04    0.4503963016E-02
    0.1300000000E+02    0.2171393715E-04    0.2918257644E+00    0.6861746732E-04    0.5088330605E-04    0.4540120463E-02
    0.1500000000E+02    0.2323435123E-04    0.3162879892E+00    0.7283308133E-04    0.5788153888E-04    0.4571989051E-02
    0.1700000000E+02    0.2453235940E-04    0.3379513196E+00    0.7636107413E-04    0.6481252128E-04    0.4600297688E-02
    0.1900000000E+02    0.2564987835E-04    0.3572701765E+00    0.7935069827E-04    0.7168818963E-04    0.4625617337E-02
    0.2100000000E+02    0.2661953712E-04    0.3746056539E+00    0.8191561553E-04    0.7851771086E-04    0.4648401974E-02
    0.2300000000E+02    0.2746705301E-04    0.3902483091E+00    0.8414340482E-04    0.8530832941E-04    0.4669017281E-02
    0.2500000000E+02    0.2821292187E-04    0.4044345838E+00    0.8610225037E-04    0.9206590395E-04    0.4687761232E-02
    0.2700000000E+02    0.2887364191E-04    0.4173588434E+00    0.8784572768E-04    0.9879526329E-04    0.4704879136E-02
    0.2900000000E+02    0.2946261343E-04    0.4291823377E+00    0.8941628040E-04    0.1055004513E-03    0.4720574833E-02
    0.3100000000E+02    0.2999080982E-04    0.4400399662E+00    0.9084778102E-04    0.1121849007E-03    0.4735019135E-02
    0.3300000000E+02    0.3046728418E-04    0.4500454492E+00    0.9216743988E-04    0.1188515600E-03    0.4748356284E-02
    0.3500000000E+02    0.3089955636E-04    0.4592953276E+00    0.9339724446E-04    0.1255029874E-03    0.4760708941E-02
    0.3700000000E+02    0.3129391178E-04    0.4678720888E+00    0.9455505557E-04    0.1321414227E-03    0.4772182099E-02
    0.3900000000E+02    0.3165563435E-04    0.4758466345E+00    0.9565545004E-04    0.1387688429E-03    0.4782866163E-02
    0.4100000000E+02    0.3198918970E-04    0.4832802457E+00    0.9671037417E-04    0.1453870051E-03    0.4792839408E-02
    0.4300000000E+02    0.3229837043E-04    0.4902261610E+00    0.9772965441E-04    0.1519974815E-03    0.4802169962E-02
    0.4500000000E+02    0.3258641226E-04    0.4967308543E+00    0.9872139939E-04    0.1586016868E-03    0.4810917398E-02
    0.4700000000E+02    0.3285608751E-04    0.5028350757E+00    0.9969231863E-04    0.1652009008E-03    0.4819134051E-02
    0.4900000000E+02    0.3310978081E-04    0.5085747072E+00    0.1006479768E-03    0.1717962873E-03    0.4826866081E-02
    0.1000000000E+02    0.1889219065E-04    0.2485704008E+00    0.6055192666E-04    0.4022286606E-04    0.4483990738E-02
    0.3000000000E+02    0.2973370273E-04    0.4347243331E+00    0.9014757424E-04    0.1088450739E-03    0.4727943835E-02
    0.5000000000E+02    0.3323128885E-04    0.5113178597E+00    0.1011215598E-03    0.1750928809E-03    0.4830563324E-02
    0.7000000000E+02    0.3519680474E-04    0.5530845002E+00    0.1105695110E-03    0.2410405390E-03    0.4886883379E-02
    0.9000000000E+02    0.3679343412E-04    0.5793782962E+00    0.1208008030E-03    0.3074251850E-03    0.4921996546E-02
    0.1100000000E+03    0.3835029884E-04    0.5974536542E+00    0.1321141916E-03    0.3746443260E-03    0.4945484361E-02
    0.1300000000E+03    0.3997640756E-04    0.6106428793E+00    0.1444545035E-03    0.4429602393E-03    0.4961825851E-02
    0.1500000000E+03    0.4170976496E-04    0.6206912216E+00    0.1577183671E-03    0.5125696228E-03    0.4973405756E-02
    0.1700000000E+03    0.4356282080E-04    0.6286011845E+00    0.1718160657E-03    0.5836337866E-03    0.4981614971E-02
    0.1900000000E+03    0.4553843675E-04    0.6349896581E+00    0.1866807279E-03    0.6562938604E-03    0.4987321297E-02
    0.2100000000E+03    0.4763603080E-04    0.6402570636E+00    0.2022659498E-03    0.7306793162E-03    0.4991094858E-02
    0.2300000000E+03    0.4985407136E-04    0.6446746465E+00    0.2185416261E-03    0.8069131590E-03    0.4993325692E-02
    0.2500000000E+03    0.5219110785E-04    0.6484326792E+00    0.2354902688E-03    0.8851153159E-03    0.4994289364E-02
    0.2700000000E+03    0.5464618433E-04    0.6516685785E+00    0.2531041759E-03    0.9654049915E-03    0.4994185630E-02
    0.2900000000E+03    0.5721898628E-04    0.6544840668E+00    0.2713833542E-03    0.1047902402E-02    0.4993162272E-02
    0.3100000000E+03    0.5990987246E-04    0.6569560552E+00    0.2903340241E-03    0.1132730125E-02    0.4991330353E-02
    0.3300000000E+03    0.6271986003E-04    0.6591437736E+00    0.3099675514E-03    0.1220014204E-02    0.4988774300E-02
    0.3500000000E+03    0.6565059361E-04    0.6610935751E+00    0.3302996901E-03    0.1309885105E-02    0.4985558757E-02
    0.3700000000E+03    0.6870431242E-04    0.6628422552E+00    0.3513500531E-03    0.1402478572E-02    0.4981733350E-02
    0.3900000000E+03    0.7188382145E-04    0.6644193943E+00    0.3731417493E-03    0.1497936434E-02    0.4977336073E-02
    0.4100000000E+03    0.7519246914E-04    0.6658490434E+00    0.3957011465E-03    0.1596407383E-02    0.4972395730E-02
    0.4300000000E+03    0.7863413207E-04    0.6671509585E+00    0.4190577296E-03    0.1698047743E-02    0.4966933732E-02
    0.4500000000E+03    0.8221320668E-04    0.6683415183E+00    0.4432440336E-03    0.1803022264E-02    0.4960965428E-02
    0.4700000000E+03    0.8593460760E-04    0.6694344165E+00    0.4682956364E-03    0.1911504926E-02    0.4954501097E-02
    0.4900000000E+03    0.8980377220E-04    0.6704411900E+00    0.4942512017E-03    0.2023679794E-02    0.4947546710E-02
    0.1000000000E+03    0.3756744929E-04    0.5891820489E+00    0.1263230610E-03    0.3409119919E-03    0.4934844147E-02
    0.3000000000E+03    0.5854962037E-04    0.6557589474E+00    0.2807741528E-03    0.1090017190E-02    0.4992341574E-02
    0.5000000000E+03    0.9179561043E-04    0.6709153980E+00    0.5075809167E-03    0.2081212300E-02    0.4943886575E-02
    0.7000000000E+03    0.1412090169E-03    0.6776233508E+00    0.8340549360E-03    0.3481775621E-02    0.4843760322E-02
    0.9000000000E+03    0.2170734469E-03    0.6814055353E+00    0.1328905937E-02    0.5595009514E-02    0.4678608597E-02
    0.1100000000E+04    0.3414527151E-03    0.6838325643E+00    0.2136233026E-02    0.9041388232E-02    0.4404958395E-02
    0.1300000000E+04    0.5621058599E-03    0.6855216054E+00    0.3567327700E-02    0.1516060337E-01    0.3928978203E-02
    0.1500000000E+04    0.9659862070E-03    0.6867645139E+00    0.6192850191E-02    0.2642719923E-01    0.3099599394E-02
    0.1700000000E+04    0.1557923463E-02    0.6877172070E+00    0.1006646454E-01    0.4317087539E-01    0.2003437315E-02
    0.1900000000E+04    0.2031520670E-02    0.6884705478E+00    0.1321760552E-01    0.5702352210E-01    0.1323137939E-02
    0.2100000000E+04    0.2289539973E-02    0.6890810662E+00    0.1499535874E-01    0.6510714541E-01    0.1135934520E-02
    0.2300000000E+04    0.2464850351E-02    0.6895857732E+00    0.1624886945E-01    0.7100479418E-01    0.1103785523E-02
    0.2500000000E+04    0.2615460204E-02    0.6900099145E+00    0.1735262242E-01    0.7631393078E-01    0.1102386104E-02
    0.2700000000E+04    0.2754819819E-02    0.6903713009E+00    0.1839334792E-01    0.8140448374E-01    0.1106246663E-02
    0.2900000000E+04    0.2885928097E-02    0.6906828569E+00    0.1938982632E-01    0.8635442909E-01    0.1110762834E-02
    0.3100000000E+04    0.3009692640E-02    0.6909541883E+00    0.2034720198E-01    0.9118293754E-01    0.1115144662E-02
    0.3300000000E+04    0.3126598124E-02    0.6911925830E+00    0.2126789003E-01    0.9589749875E-01    0.1119280926E-02
    0.3500000000E+04    0.3237028862E-02    0.6914036700E+00    0.2215369518E-01    0.1005031234E+00    0.1123177605E-02
    0.3700000000E+04    0.3341332066E-02    0.6915918662E+00    0.2300622690E-01    0.1050041468E+00    0.1126857688E-02
    0.3900000000E+04    0.3439831288E-02    0.6917606854E+00    0.2382698529E-01    0.1094045942E+00    0.1130343805E-02
    0.4100000000E+04    0.3532830162E-02    0.6919129581E+00    0.2461738278E-01    0.1137082645E+00    0.1133655726E-02
    0.4300000000E+04    0.3620614175E-02    0.6920509898E+00    0.2537875281E-01    0.1179187576E+00    0.1136810428E-02
    0.4500000000E+04    0.3703451986E-02    0.6921766773E+00    0.2611235569E-01    0.1220394899E+00    0.1139822527E-02
    0.4700000000E+04    0.3781596576E-02    0.6922915951E+00    0.2681938346E-01    0.1260737059E+00    0.1142704680E-02
    0.4900000000E+04    0.3855286293E-02    0.6923970614E+00    0.2750096440E-01    0.1300244898E+00    0.1145467922E-02
    0.1000000000E+04    0.2710556327E-03    0.6827385014E+00    0.1679552826E-02    0.7091568649E-02    0.4559651694E-02
    0.3000000000E+04    0.2948694179E-02    0.6908230499E+00    0.1987322679E-01    0.8878329342E-01    0.1112982725E-02
    0.5000000000E+04    0.3890531301E-02    0.6924466047E+00    0.2783254848E-01    0.1319695169E+00    0.1146808021E-02
    0.7000000000E+04    0.4409739103E-02    0.6931376868E+00    0.3335993358E-01    0.1671317511E+00    0.1169196486E-02
    0.9000000000E+04    0.4673088695E-02    0.6935182210E+00    0.3726784569E-01    0.1965464822E+00    0.1186039650E-02
    0.1100000000E+05    0.4777645175E-02    0.6937580127E+00    0.4005605064E-01    0.2216766681E+00    0.1199586613E-02
    0.1300000000E+05    0.4782221594E-02    0.6939223068E+00    0.4204681342E-01    0.2435089095E+00    0.1210940660E-02
    0.1500000000E+05    0.4723593616E-02    0.6940414944E+00    0.4345602611E-01    0.2627351762E+00    0.1220727076E-02
    0.1700000000E+05    0.4625327718E-02    0.6941316276E+00    0.4443294167E-01    0.2798568917E+00    0.1229335326E-02
    0.1900000000E+05    0.4502810931E-02    0.6942019757E+00    0.4508349112E-01    0.2952475512E+00    0.1237024791E-02
    0.2100000000E+05    0.4366227345E-02    0.6942582608E+00    0.4548454600E-01    0.3091919842E+00    0.1243977092E-02
    0.2300000000E+05    0.4222376863E-02    0.6943042037E+00    0.4569295606E-01    0.3219118595E+00    0.1250324455E-02
    0.2500000000E+05    0.4075817223E-02    0.6943423270E+00    0.4575145319E-01    0.3335827677E+00    0.1256166202E-02
    0.2700000000E+05    0.3929597997E-02    0.6943744001E+00    0.4569261179E-01    0.3443459733E+00    0.1261578865E-02
    0.2900000000E+05    0.3785741904E-02    0.6944017003E+00    0.4554156772E-01    0.3543166913E+00    0.1266622692E-02
    0.3100000000E+05    0.3645565920E-02    0.6944251722E+00    0.4531792388E-01    0.3635900410E+00    0.1271345979E-02
    0.3300000000E+05    0.3509898727E-02    0.6944455289E+00    0.4503711021E-01    0.3722454084E+00    0.1275788042E-02
    0.3500000000E+05    0.3379229833E-02    0.6944633189E+00    0.4471137025E-01    0.3803496972E+00    0.1279981329E-02
    0.3700000000E+05    0.3253812968E-02    0.6944789704E+00    0.4435048756E-01    0.3879597896E+00    0.1283952931E-02
    0.3900000000E+05    0.3133738407E-02    0.6944928226E+00    0.4396232749E-01    0.3951244331E+00    0.1287725707E-02
    0.4100000000E+05    0.3018983938E-02    0.6945051476E+00    0.4355324629E-01    0.4018857072E+00    0.1291319128E-02
    0.4300000000E+05    0.2909450983E-02    0.6945161663E+00    0.4312840330E-01    0.4082801755E+00    0.1294749911E-02
    0.4500000000E+05    0.2804990288E-02    0.6945260593E+00    0.4269200167E-01    0.4143398009E+00    0.1298032525E-02
    0.4700000000E+05    0.2705420242E-02    0.6945349762E+00    0.4224747554E-01    0.4200926799E+00    0.1301179572E-02
    0.4900000000E+05    0.2610539928E-02    0.6945430417E+00    0.4179763693E-01    0.4255636362E+00    0.1304202099E-02
    0.1000000000E+05    0.4740882454E-02    0.6936504063E+00    0.3877864924E-01    0.2095769510E+00    0.1193140517E-02
    0.3000000000E+05    0.3715132677E-02    0.6944138657E+00    0.4543777166E-01    0.3590352495E+00    0.1269021763E-02
    0.5000000000E+05    0.2564792697E-02    0.6945467885E+00    0.4157146318E-01    0.4282003769E+00    0.1305669756E-02
    0.7000000000E+05    0.1845526999E-02    0.6945953857E+00    0.3714662410E-01    0.4703796618E+00    0.1330342773E-02
    0.9000000000E+05    0.1386243056E-02    0.6946176908E+00    0.3326961151E-01    0.4993386355E+00    0.1349060151E-02
    0.1100000000E+06    0.1078353053E-02    0.6946288664E+00    0.3001282420E-01    0.5206298537E+00    0.1364187719E-02
    0.1300000000E+06    0.8626456746E-03    0.6946344933E+00    0.2728577791E-01    0.5370133289E+00    0.1376906650E-02
    0.1500000000E+06    0.7058586205E-03    0.6946370588E+00    0.2498655884E-01    0.5500423408E+00    0.1387893844E-02
    0.1700000000E+06    0.5883774710E-03    0.6946378179E+00    0.2302955429E-01    0.5606671279E+00    0.1397574164E-02
    0.1900000000E+06    0.4980880417E-03    0.6946374612E+00    0.2134747266E-01    0.5695052851E+00    0.1406232156E-02
    0.2100000000E+06    0.4271980912E-03    0.6946363937E+00    0.1988823737E-01    0.5769772012E+00    0.1414067923E-02
    0.2300000000E+06    0.3705164868E-03    0.6946348650E+00    0.1861149697E-01    0.5833797092E+00    0.1421227641E-02
    0.2500000000E+06    0.3244786985E-03    0.6946330348E+00    0.1748575071E-01    0.5889287537E+00    0.1427821410E-02
    0.2700000000E+06    0.2865720461E-03    0.6946310082E+00    0.1648616631E-01    0.5937853911E+00    0.1433934260E-02
    0.2900000000E+06    0.2549842684E-03    0.6946288564E+00    0.1559296442E-01    0.5980723009E+00    0.1439633259E-02
    0.3100000000E+06    0.2283816830E-03    0.6946266284E+00    0.1479022826E-01    0.6018846395E+00    0.1444972250E-02
    0.3300000000E+06    0.2057651431E-03    0.6946243582E+00    0.1406502318E-01    0.6052973888E+00    0.1449995133E-02
    0.3500000000E+06    0.1863741339E-03    0.6946220699E+00    0.1340674055E-01    0.6083704583E+00    0.1454738177E-02
    0.3700000000E+06    0.1696214740E-03    0.6946197807E+00    0.1280660410E-01    0.6111523064E+00    0.1459231699E-02
    0.3900000000E+06    0.1550479521E-03    0.6946175026E+00    0.1225729501E-01    0.6136825620E+00    0.1463501304E-02
    0.4100000000E+06    0.1422902374E-03    0.6946152444E+00    0.1175266419E-01    0.6159939544E+00    0.1467568815E-02
    0.4300000000E+06    0.1310578026E-03    0.6946130122E+00    0.1128750945E-01    0.6181137568E+00    0.1471452990E-02
    0.4500000000E+06    0.1211160791E-03    0.6946108103E+00    0.1085740125E-01    0.6200648809E+00    0.1475170070E-02
    0.4700000000E+06    0.1122739922E-03    0.6946086414E+00    0.1045854527E-01    0.6218667175E+00    0.1478734209E-02
    0.4900000000E+06    0.1043746209E-03    0.6946065076E+00    0.1008767312E-01    0.6235357890E+00    0.1482157825E-02
    0.1000000000E+06    0.1217890550E-02    0.6946242111E+00    0.3156837011E-01    0.5107309206E+00    0.1356982385E-02
    0.3000000000E+06    0.2411288073E-03    0.6946277495E+00    0.1518115782E-01    0.6000327009E+00    0.1442344809E-02
    0.5000000000E+06    0.1007369763E-03    0.6946054542E+00    0.9911831502E-02    0.6243250454E+00    0.1483820409E-02
    0.7000000000E+06    0.5530208316E-04    0.6945862786E+00    0.7343329159E-02    0.6357082938E+00    0.1511784595E-02
    0.9000000000E+06    0.3502424381E-04    0.6945702459E+00    0.5826243260E-02    0.6423142132E+00    0.1533012845E-02
    0.1100000000E+07    0.2422653552E-04    0.6945565877E+00    0.4825698796E-02    0.6466281607E+00    0.1550176199E-02
    0.1300000000E+07    0.1779235459E-04    0.6945447181E+00    0.4116696060E-02    0.6496661879E+00    0.1564610253E-02
    0.1500000000E+07    0.1364653019E-04    0.6945342289E+00    0.3588230194E-02    0.6519211403E+00    0.1577081125E-02
    0.1700000000E+07    0.1081682710E-04    0.6945248330E+00    0.3179254033E-02    0.6536610308E+00    0.1588069974E-02
    0.1900000000E+07    0.8798091495E-05    0.6945163225E+00    0.2853431433E-02    0.6550441189E+00    0.1597899204E-02
    0.2100000000E+07    0.7306528609E-05    0.6945085433E+00    0.2587789769E-02    0.6561698693E+00    0.1606795616E-02
    0.2300000000E+07    0.6172639815E-05    0.6945013779E+00    0.2367097142E-02    0.6571039317E+00    0.1614924934E-02
    0.2500000000E+07    0.5290073688E-05    0.6944947351E+00    0.2180857159E-02    0.6578913834E+00    0.1622412007E-02
    0.2700000000E+07    0.4589334534E-05    0.6944885424E+00    0.2021602393E-02    0.6585642003E+00    0.1629353277E-02
    0.2900000000E+07    0.4023437322E-05    0.6944827416E+00    0.1883875929E-02    0.6591456936E+00    0.1635824819E-02
    0.3100000000E+07    0.3559682461E-05    0.6944772849E+00    0.1763597797E-02    0.6596532581E+00    0.1641887719E-02
    0.3300000000E+07    0.3174737337E-05    0.6944721331E+00    0.1657656693E-02    0.6601001364E+00    0.1647591786E-02
    0.3500000000E+07    0.2851587403E-05    0.6944672531E+00    0.1563638783E-02    0.6604965880E+00    0.1652978173E-02
    0.3700000000E+07    0.2577586212E-05    0.6944626170E+00    0.1479642745E-02    0.6608506840E+00    0.1658081283E-02
    0.3900000000E+07    0.2343173720E-05    0.6944582010E+00    0.1404150690E-02    0.6611688615E+00    0.1662930176E-02
    0.4100000000E+07    0.2141013208E-05    0.6944539848E+00    0.1335936204E-02    0.6614563164E+00    0.1667549621E-02
    0.4300000000E+07    0.1965397474E-05    0.6944499504E+00    0.1273997628E-02    0.6617172891E+00    0.1671960907E-02
    0.4500000000E+07    0.1811832318E-05    0.6944460827E+00    0.1217508864E-02    0.6619552744E+00    0.1676182467E-02
    0.4700000000E+07    0.1676739283E-05    0.6944423679E+00    0.1165782549E-02    0.6621731784E+00    0.1680230371E-02
    0.4900000000E+07    0.1557240119E-05    0.6944387941E+00    0.1118242123E-02    0.6623734373E+00    0.1684118712E-02
    0.1000000000E+07    0.2887187389E-04    0.6945631615E+00    0.5279373666E-02    0.6446760971E+00    0.1542000588E-02
    0.3000000000E+07    0.3780427430E-05    0.6944799728E+00    0.1821769286E-02    0.6594078080E+00    0.1638904007E-02
    0.5000000000E+07    0.1502590354E-05    0.6944370567E+00    0.1095886358E-02    0.6624676056E+00    0.1686006989E-02
    0.7000000000E+07    0.8401697248E-06    0.6944076762E+00    0.7822118994E-03    0.6637889169E+00    0.1717768206E-02
    0.9000000000E+07    0.5559277139E-06    0.6943852087E+00    0.6075310909E-03    0.6645251063E+00    0.1741879739E-02
    0.1100000000E+08    0.4065189656E-06    0.6943669633E+00    0.4963085480E-03    0.6649942196E+00    0.1761374618E-02
    0.1300000000E+08    0.3174395418E-06    0.6943515733E+00    0.4193222060E-03    0.6653192079E+00    0.1777769601E-02
    0.1500000000E+08    0.2595486438E-06    0.6943382475E+00    0.3628945644E-03    0.6655576125E+00    0.1791934770E-02
    0.1700000000E+08    0.2194885849E-06    0.6943264854E+00    0.3197729627E-03    0.6657399501E+00    0.1804416608E-02
    0.1900000000E+08    0.1904099293E-06    0.6943159503E+00    0.2857548687E-03    0.6658839087E+00    0.1815581295E-02
    0.2100000000E+08    0.1684934363E-06    0.6943064043E+00    0.2582376127E-03    0.6660004460E+00    0.1825686431E-02
    0.2300000000E+08    0.1514660513E-06    0.6942976731E+00    0.2355235496E-03    0.6660967125E+00    0.1834920253E-02
    0.2500000000E+08    0.1379024044E-06    0.6942896251E+00    0.2164583153E-03    0.6661775721E+00    0.1843424568E-02
    0.2700000000E+08    0.1268695662E-06    0.6942821584E+00    0.2002297012E-03    0.6662464483E+00    0.1851308919E-02
