  Pressure (Pa) 23mC5-500 (mol/kg) 24mC5-500 (mol/kg) 2mC6-500 (mol/kg) 3mC6-500 (mol/kg) C7-500 (mol/kg)
    0.1000000000E+01    0.2864350795E-05    0.6964730631E-01    0.1946290488E-04    0.7348305394E-06    0.4226057862E-02
    0.3000000000E+01    0.6857856995E-05    0.1740636186E+00    0.4512744209E-04    0.1899794091E-05    0.4322840619E-02
    0.5000000000E+01    0.9476921648E-05    0.2486078588E+00    0.6092022493E-04    0.2975452786E-05    0.4391296161E-02
    0.7000000000E+01    0.1128999615E-04    0.3044957563E+00    0.7126631649E-04    0.4007416845E-05    0.4442982882E-02
    0.9000000000E+01    0.1259804852E-04    0.3479526853E+00    0.7841240274E-04    0.5011208616E-05    0.4483529547E-02
    0.1100000000E+02    0.1357409577E-04    0.3827113911E+00    0.8359670742E-04    0.5994634555E-05    0.4516259282E-02
    0.1300000000E+02    0.1432368957E-04    0.4111460488E+00    0.8754165378E-04    0.6962358104E-05    0.4543280632E-02
    0.1500000000E+02    0.1491427152E-04    0.4348388091E+00    0.9068742817E-04    0.7917461084E-05    0.4566000221E-02
    0.1700000000E+02    0.1539056602E-04    0.4548846559E+00    0.9331155053E-04    0.8862121533E-05    0.4585393867E-02
    0.1900000000E+02    0.1578315323E-04    0.4720655165E+00    0.9559380422E-04    0.9797954611E-05    0.4602160473E-02
    0.2100000000E+02    0.1611348346E-04    0.4869546806E+00    0.9765321001E-04    0.1072620228E-04    0.4616814138E-02
    0.2300000000E+02    0.1639693205E-04    0.4999820381E+00    0.9956992472E-04    0.1164784700E-04    0.4629741702E-02
    0.2500000000E+02    0.1664472571E-04    0.5114762786E+00    0.1013986474E-03    0.1256368382E-04    0.4641239990E-02
    0.2700000000E+02    0.1686519381E-04    0.5216930168E+00    0.1031770613E-03    0.1347436833E-04    0.4651540675E-02
    0.2900000000E+02    0.1706460233E-04    0.5308340314E+00    0.1049312810E-03    0.1438044965E-04    0.4660827307E-02
    0.3100000000E+02    0.1724772219E-04    0.5390607303E+00    0.1066794412E-03    0.1528239387E-04    0.4669247251E-02
    0.3300000000E+02    0.1741822457E-04    0.5465037661E+00    0.1084341059E-03    0.1618060118E-04    0.4676920239E-02
    0.3500000000E+02    0.1757896059E-04    0.5532700289E+00    0.1102039116E-03    0.1707541863E-04    0.4683944586E-02
    0.3700000000E+02    0.1773216243E-04    0.5594478138E+00    0.1119947040E-03    0.1796714980E-04    0.4690401808E-02
    0.3900000000E+02    0.1787959004E-04    0.5651106959E+00    0.1138103337E-03    0.1885606236E-04    0.4696360083E-02
    0.4100000000E+02    0.1802263956E-04    0.5703204754E+00    0.1156532203E-03    0.1974239389E-04    0.4701876890E-02
    0.4300000000E+02    0.1816242427E-04    0.5751294426E+00    0.1175247549E-03    0.2062635663E-04    0.4707001044E-02
    0.4500000000E+02    0.1829983583E-04    0.5795821393E+00    0.1194255902E-03    0.2150814121E-04    0.4711774280E-02
    0.4700000000E+02    0.1843559102E-04    0.5837167430E+00    0.1213558512E-03    0.2238791974E-04    0.4716232502E-02
    0.4900000000E+02    0.1857026761E-04    0.5875661644E+00    0.1233152885E-03    0.2326584830E-04    0.4720406775E-02
    0.1000000000E+02    0.1311983271E-04    0.3662474769E+00    0.8119604784E-04    0.5505127055E-05    0.4500718927E-02
    0.3000000000E+02    0.1715794685E-04    0.5350528762E+00    0.1058052250E-03    0.1483191251E-04    0.4665137566E-02
    0.5000000000E+02    0.1863735100E-04    0.5893929959E+00    0.1243057962E-03    0.2370416377E-04    0.4722396015E-02
    0.7000000000E+02    0.1999707806E-04    0.6162163785E+00    0.1454604632E-03    0.3240215036E-04    0.4752290518E-02
    0.9000000000E+02    0.2145863910E-04    0.6322009717E+00    0.1685900161E-03    0.4102284882E-04    0.4770792186E-02
    0.1100000000E+03    0.2303511173E-04    0.6428119135E+00    0.1930468392E-03    0.4961576040E-04    0.4783339914E-02
    0.1300000000E+03    0.2471173778E-04    0.6503688295E+00    0.2184455399E-03    0.5821102749E-04    0.4792327148E-02
    0.1500000000E+03    0.2647279932E-04    0.6560242160E+00    0.2445609030E-03    0.6682907704E-04    0.4798984656E-02
    0.1700000000E+03    0.2830570364E-04    0.6604154808E+00    0.2712580509E-03    0.7548481429E-04    0.4804015882E-02
    0.1900000000E+03    0.3020096446E-04    0.6639237849E+00    0.2984541623E-03    0.8418973269E-04    0.4807854936E-02
    0.2100000000E+03    0.3215153685E-04    0.6667910505E+00    0.3260975507E-03    0.9295308747E-04    0.4810785791E-02
    0.2300000000E+03    0.3415219224E-04    0.6691782207E+00    0.3541558610E-03    0.1017825985E-03    0.4813002911E-02
    0.2500000000E+03    0.3619903985E-04    0.6711965251E+00    0.3826091578E-03    0.1106848958E-03    0.4814644463E-02
    0.2700000000E+03    0.3828917930E-04    0.6729252988E+00    0.4114457349E-03    0.1196658157E-03    0.4815811632E-02
    0.2900000000E+03    0.4042045163E-04    0.6744226494E+00    0.4406594907E-03    0.1287306042E-03    0.4816580418E-02
    0.3100000000E+03    0.4259126022E-04    0.6757321112E+00    0.4702482395E-03    0.1378840622E-03    0.4817009131E-02
    0.3300000000E+03    0.4480044108E-04    0.6768869447E+00    0.5002125968E-03    0.1471306511E-03    0.4817143336E-02
    0.3500000000E+03    0.4704716769E-04    0.6779129979E+00    0.5305552293E-03    0.1564745722E-03    0.4817019195E-02
    0.3700000000E+03    0.4933088049E-04    0.6788306626E+00    0.5612803388E-03    0.1659198270E-03    0.4816665803E-02
    0.3900000000E+03    0.5165123403E-04    0.6796562415E+00    0.5923933038E-03    0.1754702645E-03    0.4816106842E-02
    0.4100000000E+03    0.5400805686E-04    0.6804029245E+00    0.6239004255E-03    0.1851296181E-03    0.4815361788E-02
    0.4300000000E+03    0.5640132093E-04    0.6810814975E+00    0.6558087468E-03    0.1949015357E-03    0.4814446801E-02
    0.4500000000E+03    0.5883111786E-04    0.6817008664E+00    0.6881259222E-03    0.2047896047E-03    0.4813375390E-02
    0.4700000000E+03    0.6129764051E-04    0.6822684495E+00    0.7208601238E-03    0.2147973713E-03    0.4812158928E-02
    0.4900000000E+03    0.6380116855E-04    0.6827904756E+00    0.7540199728E-03    0.2249283586E-03    0.4810807042E-02
    0.1000000000E+03    0.2223329897E-04    0.6379932694E+00    0.1806814702E-03    0.4532059385E-04    0.4777621336E-02
    0.3000000000E+03    0.4150099552E-04    0.6750985858E+00    0.4554070080E-03    0.1332959638E-03    0.4816834182E-02
    0.5000000000E+03    0.6506691788E-04    0.6830360836E+00    0.7707623198E-03    0.2300411580E-03    0.4810082923E-02
    0.7000000000E+03    0.9244563853E-04    0.6864913989E+00    0.1130367353E-02    0.3396390129E-03    0.4789936893E-02
    0.9000000000E+03    0.1242710149E-03    0.6884238537E+00    0.1545149906E-02    0.4658584794E-03    0.4760757870E-02
    0.1100000000E+04    0.1615787611E-03    0.6896577414E+00    0.2029578599E-02    0.6132485541E-03    0.4723117377E-02
    0.1300000000E+04    0.2058079161E-03    0.6905134763E+00    0.2602815019E-02    0.7877220385E-03    0.4676215038E-02
    0.1500000000E+04    0.2589350531E-03    0.6911415507E+00    0.3290785025E-02    0.9972420521E-03    0.4618314606E-02
    0.1700000000E+04    0.3237068299E-03    0.6916219805E+00    0.4129329467E-02    0.1252806843E-02    0.4546700574E-02
    0.1900000000E+04    0.4040054507E-03    0.6920012320E+00    0.5169027359E-02    0.1569941918E-02    0.4457392873E-02
    0.2100000000E+04    0.5054149098E-03    0.6923081345E+00    0.6482628028E-02    0.1970997313E-02    0.4344633787E-02
    0.2300000000E+04    0.6360824053E-03    0.6925615216E+00    0.8176363009E-02    0.2488651119E-02    0.4200103154E-02
    0.2500000000E+04    0.8079512766E-03    0.6927742165E+00    0.1040620005E-01    0.3170966308E-02    0.4011860271E-02
    0.2700000000E+04    0.1038206209E-02    0.6929552521E+00    0.1339710569E-01    0.4087451018E-02    0.3763330457E-02
    0.2900000000E+04    0.1349752256E-02    0.6931111745E+00    0.1745023955E-01    0.5331574914E-02    0.3433839128E-02
    0.3100000000E+04    0.1766491059E-02    0.6932468432E+00    0.2288322498E-01    0.7002985090E-02    0.3005368318E-02
    0.3300000000E+04    0.2294357604E-02    0.6933659416E+00    0.2978525588E-01    0.9132906948E-02    0.2484104034E-02
    0.3500000000E+04    0.2887226945E-02    0.6934713121E+00    0.3757153201E-01    0.1154671715E-01    0.1933214458E-02
    0.3700000000E+04    0.3443707974E-02    0.6935651828E+00    0.4493121798E-01    0.1384467173E-01    0.1464300165E-02
    0.3900000000E+04    0.3881716755E-02    0.6936493255E+00    0.5078918425E-01    0.1569445465E-01    0.1151134881E-02
    0.4100000000E+04    0.4196472474E-02    0.6937251662E+00    0.5506865888E-01    0.1706789301E-01    0.9799455539E-03
    0.4300000000E+04    0.4426842931E-02    0.6937938657E+00    0.5826494729E-01    0.1811377424E-01    0.8977835296E-03
    0.4500000000E+04    0.4609633878E-02    0.6938563783E+00    0.6085241035E-01    0.1897632476E-01    0.8613485283E-03
    0.4700000000E+04    0.4767145935E-02    0.6939134961E+00    0.6311976250E-01    0.1974375067E-01    0.8462319927E-03
    0.4900000000E+04    0.4910784923E-02    0.6939658816E+00    0.6521499458E-01    0.2046137758E-01    0.8406284980E-03
    0.1000000000E+04    0.1421602294E-03    0.6891021360E+00    0.1777590899E-02    0.5365766238E-03    0.4743021803E-02
    0.3000000000E+04    0.1543815589E-02    0.6931812874E+00    0.1997858558E-01    0.6108863381E-02    0.3232544947E-02
    0.5000000000E+04    0.4979246230E-02    0.6939904778E+00    0.6622199700E-01    0.2080884914E-01    0.8395786658E-03
    0.7000000000E+04    0.6126131654E-02    0.6943325716E+00    0.8384155615E-01    0.2712609571E-01    0.8516026401E-03
    0.9000000000E+04    0.6989639691E-02    0.6945198003E+00    0.9827673014E-01    0.3267479147E-01    0.8637084957E-03
    0.1100000000E+05    0.7649271710E-02    0.6946370854E+00    0.1103366185E+00    0.3763454979E-01    0.8734737193E-03
    0.1300000000E+05    0.8156554779E-02    0.6947169669E+00    0.1205484713E+00    0.4212108619E-01    0.8816731770E-03
    0.1500000000E+05    0.8547925858E-02    0.6947745671E+00    0.1292945861E+00    0.4622019173E-01    0.8887496628E-03
    0.1700000000E+05    0.8849756966E-02    0.6948178562E+00    0.1368588772E+00    0.4999698619E-01    0.8949801742E-03
    0.1900000000E+05    0.9081519605E-02    0.6948514278E+00    0.1434565783E+00    0.5350190697E-01    0.9005497790E-03
    0.2100000000E+05    0.9257840966E-02    0.6948781117E+00    0.1492538057E+00    0.5677471179E-01    0.9055883816E-03
    0.2300000000E+05    0.9389876448E-02    0.6948997447E+00    0.1543808000E+00    0.5984722715E-01    0.9101907413E-03
    0.2500000000E+05    0.9486247656E-02    0.6949175699E+00    0.1589411061E+00    0.6274528058E-01    0.9144281462E-03
    0.2700000000E+05    0.9553696946E-02    0.6949324573E+00    0.1630180729E+00    0.6549008782E-01    0.9183556009E-03
    0.2900000000E+05    0.9597552703E-02    0.6949450340E+00    0.1666795444E+00    0.6809926734E-01    0.9220164532E-03
    0.3100000000E+05    0.9622065617E-02    0.6949557629E+00    0.1699813007E+00    0.7058759477E-01    0.9254454826E-03
    0.3300000000E+05    0.9630655372E-02    0.6949649926E+00    0.1729696232E+00    0.7296757241E-01    0.9286710270E-03
    0.3500000000E+05    0.9626094091E-02    0.6949729908E+00    0.1756832316E+00    0.7524986507E-01    0.9317164873E-03
    0.3700000000E+05    0.9610644422E-02    0.6949799663E+00    0.1781547658E+00    0.7744363771E-01    0.9346014154E-03
    0.3900000000E+05    0.9586164658E-02    0.6949860839E+00    0.1804119327E+00    0.7955682001E-01    0.9373423177E-03
    0.4100000000E+05    0.9554189593E-02    0.6949914757E+00    0.1824784033E+00    0.8159631586E-01    0.9399532590E-03
    0.4300000000E+05    0.9515993298E-02    0.6949962487E+00    0.1843745201E+00    0.8356817085E-01    0.9424463231E-03
    0.4500000000E+05    0.9472638284E-02    0.6950004903E+00    0.1861178619E+00    0.8547770725E-01    0.9448319695E-03
    0.4700000000E+05    0.9425014323E-02    0.6950042726E+00    0.1877236965E+00    0.8732963388E-01    0.9471193136E-03
    0.4900000000E+05    0.9373869333E-02    0.6950076556E+00    0.1892053479E+00    0.8912813606E-01    0.9493163480E-03
    0.1000000000E+05    0.7341289620E-02    0.6945845392E+00    0.1045665301E+00    0.3522021524E-01    0.8688244421E-03
    0.3000000000E+05    0.9611996216E-02    0.6949506054E+00    0.1683722970E+00    0.6935770855E-01    0.9237580437E-03
    0.5000000000E+05    0.9347177576E-02    0.6950092134E+00    0.1899033119E+00    0.9000853628E-01    0.9503832343E-03
    0.7000000000E+05    0.8738146199E-02    0.6950281994E+00    0.1995365626E+00    0.1055386457E+00    0.9683244089E-03
    0.9000000000E+05    0.8117972875E-02    0.6950353159E+00    0.2042558147E+00    0.1183175406E+00    0.9819405107E-03
    0.1100000000E+06    0.7552676932E-02    0.6950376401E+00    0.2065209601E+00    0.1293468339E+00    0.9929478067E-03
    0.1300000000E+06    0.7051033086E-02    0.6950377090E+00    0.2074135635E+00    0.1391472831E+00    0.1002203946E-02
    0.1500000000E+06    0.6607989556E-02    0.6950366209E+00    0.2074797517E+00    0.1480266269E+00    0.1010200702E-02
    0.1700000000E+06    0.6215734290E-02    0.6950349116E+00    0.2070227619E+00    0.1561832858E+00    0.1017246858E-02
    0.1900000000E+06    0.5866723751E-02    0.6950328652E+00    0.2062230194E+00    0.1637535301E+00    0.1023549276E-02
    0.2100000000E+06    0.5554429095E-02    0.6950306410E+00    0.2051936489E+00    0.1708355224E+00    0.1029253460E-02
    0.2300000000E+06    0.5273400687E-02    0.6950283322E+00    0.2040085310E+00    0.1775026631E+00    0.1034465718E-02
    0.2500000000E+06    0.5019141269E-02    0.6950259949E+00    0.2027175039E+00    0.1838115049E+00    0.1039266131E-02
    0.2700000000E+06    0.4787943982E-02    0.6950236633E+00    0.2013550738E+00    0.1898067017E+00    0.1043716554E-02
    0.2900000000E+06    0.4576743177E-02    0.6950213585E+00    0.1999456393E+00    0.1955242400E+00    0.1047865779E-02
    0.3100000000E+06    0.4382989716E-02    0.6950190933E+00    0.1985067471E+00    0.2009936272E+00    0.1051752982E-02
    0.3300000000E+06    0.4204550575E-02    0.6950168753E+00    0.1970511885E+00    0.2062394183E+00    0.1055410103E-02
    0.3500000000E+06    0.4039629182E-02    0.6950147087E+00    0.1955883871E+00    0.2112823112E+00    0.1058863535E-02
    0.3700000000E+06    0.3886702473E-02    0.6950125955E+00    0.1941253391E+00    0.2161399483E+00    0.1062135338E-02
    0.3900000000E+06    0.3744471094E-02    0.6950105362E+00    0.1926672657E+00    0.2208275164E+00    0.1065244146E-02
    0.4100000000E+06    0.3611819856E-02    0.6950085306E+00    0.1912180719E+00    0.2253582036E+00    0.1068205841E-02
    0.4300000000E+06    0.3487786161E-02    0.6950065775E+00    0.1897806769E+00    0.2297435518E+00    0.1071034075E-02
    0.4500000000E+06    0.3371534653E-02    0.6950046756E+00    0.1883572532E+00    0.2339937333E+00    0.1073740667E-02
    0.4700000000E+06    0.3262336715E-02    0.6950028232E+00    0.1869494040E+00    0.2381177698E+00    0.1076335921E-02
    0.4900000000E+06    0.3159553811E-02    0.6950010188E+00    0.1855582946E+00    0.2421237094E+00    0.1078828873E-02
    0.1000000000E+06    0.7827353812E-02    0.6950368670E+00    0.2056094643E+00    0.1240114681E+00    0.9877047229E-03
    0.3000000000E+06    0.4477827571E-02    0.6950202204E+00    0.1992289834E+00    0.1982883163E+00    0.1049839990E-02
    0.5000000000E+06    0.3110389676E-02    0.6950001339E+00    0.1848692869E+00    0.2440846770E+00    0.1080039514E-02
    0.7000000000E+06    0.2357420893E-02    0.6949845242E+00    0.1720586882E+00    0.2785251665E+00    0.1100402801E-02
    0.9000000000E+06    0.1877897659E-02    0.6949719393E+00    0.1609930460E+00    0.3063123652E+00    0.1115861744E-02
    0.1100000000E+07    0.1545610206E-02    0.6949614184E+00    0.1513792954E+00    0.3295927413E+00    0.1128360900E-02
    0.1300000000E+07    0.1302202925E-02    0.6949523801E+00    0.1429421956E+00    0.3495718332E+00    0.1138872677E-02
    0.1500000000E+07    0.1116713882E-02    0.6949444551E+00    0.1354659399E+00    0.3670106826E+00    0.1147954892E-02
    0.1700000000E+07    0.9710991317E-03    0.6949373961E+00    0.1287847672E+00    0.3824273642E+00    0.1155957897E-02
    0.1900000000E+07    0.8540995437E-03    0.6949310295E+00    0.1227702674E+00    0.3961936400E+00    0.1163116451E-02
    0.2100000000E+07    0.7583141269E-03    0.6949252295E+00    0.1173214811E+00    0.4085868588E+00    0.1169595703E-02
    0.2300000000E+07    0.6786740547E-03    0.6949199016E+00    0.1123578054E+00    0.4198202064E+00    0.1175516332E-02
    0.2500000000E+07    0.6115903836E-03    0.6949149731E+00    0.1078139652E+00    0.4300614754E+00    0.1180969252E-02
    0.2700000000E+07    0.5544511164E-03    0.6949103872E+00    0.1036364167E+00    0.4394452957E+00    0.1186024691E-02
    0.2900000000E+07    0.5053107321E-03    0.6949060984E+00    0.9978073479E-01    0.4480814267E+00    0.1190738050E-02
    0.3100000000E+07    0.4626911799E-03    0.6949020695E+00    0.9620968472E-01    0.4560605661E+00    0.1195153811E-02
    0.3300000000E+07    0.4254501824E-03    0.6948982703E+00    0.9289177488E-01    0.4634585301E+00    0.1199308246E-02
    0.3500000000E+07    0.3926916604E-03    0.6948946753E+00    0.8980015470E-01    0.4703393332E+00    0.1203231326E-02
    0.3700000000E+07    0.3637033380E-03    0.6948912632E+00    0.8691176348E-01    0.4767575020E+00    0.1206948104E-02
    0.3900000000E+07    0.3379123630E-03    0.6948880158E+00    0.8420666476E-01    0.4827598442E+00    0.1210479741E-02
    0.4100000000E+07    0.3148531513E-03    0.6948849176E+00    0.8166751978E-01    0.4883868211E+00    0.1213844276E-02
    0.4300000000E+07    0.2941437027E-03    0.6948819552E+00    0.7927916647E-01    0.4936736272E+00    0.1217057212E-02
    0.4500000000E+07    0.2754678954E-03    0.6948791168E+00    0.7702827980E-01    0.4986510495E+00    0.1220131973E-02
    0.4700000000E+07    0.2585620719E-03    0.6948763922E+00    0.7490309514E-01    0.5033461581E+00    0.1223080263E-02
    0.4900000000E+07    0.2432047543E-03    0.6948737724E+00    0.7289318129E-01    0.5077828677E+00    0.1225912345E-02
    0.1000000000E+07    0.1697909322E-02    0.6949664637E+00    0.1560232880E+00    0.3184265704E+00    0.1122407001E-02
    0.3000000000E+07    0.4832639030E-03    0.6949040535E+00    0.9796171927E-01    0.4521480736E+00    0.1192980696E-02
    0.5000000000E+07    0.2360471067E-03    0.6948724993E+00    0.7192850890E-01    0.5099110481E+00    0.1227287679E-02
    0.7000000000E+07    0.1410658432E-03    0.6948510106E+00    0.5689328965E-01    0.5429862727E+00    0.1250421403E-02
    0.9000000000E+07    0.9415438370E-04    0.6948346212E+00    0.4706311992E-01    0.5645287786E+00    0.1267983768E-02
    0.1100000000E+08    0.6744471323E-04    0.6948213336E+00    0.4012531276E-01    0.5797002800E+00    0.1282183699E-02
    0.1300000000E+08    0.5075516666E-04    0.6948101388E+00    0.3496483781E-01    0.5909698536E+00    0.1294125855E-02
    0.1500000000E+08    0.3961492664E-04    0.6948004541E+00    0.3097573815E-01    0.5996732749E+00    0.1304443932E-02
    0.1700000000E+08    0.3180167977E-04    0.6947919120E+00    0.2779978316E-01    0.6065979438E+00    0.1313535945E-02
    0.1900000000E+08    0.2610655940E-04    0.6947842656E+00    0.2521142872E-01    0.6122386147E+00    0.1321668594E-02
    0.2100000000E+08    0.2182509815E-04    0.6947773407E+00    0.2306152592E-01    0.6169219787E+00    0.1329029501E-02
    0.2300000000E+08    0.1852377580E-04    0.6947710097E+00    0.2124747655E-01    0.6208725117E+00    0.1335755766E-02
    0.2500000000E+08    0.1592373136E-04    0.6947651765E+00    0.1969637698E-01    0.6242495795E+00    0.1341950673E-02
    0.2700000000E+08    0.1383887559E-04    0.6947597665E+00    0.1835499641E-01    0.6271694616E+00    0.1347694008E-02
