  Pressure (Pa) 23mC5-500 (mol/kg) 24mC5-500 (mol/kg) 2mC6-500 (mol/kg) 3mC6-500 (mol/kg) C7-500 (mol/kg)
    0.1000000000E+01    0.3087784537E-05    0.3666031729E-01    0.1780532286E-04    0.7188887040E-05    0.4170916383E-02
    0.3000000000E+01    0.8132759547E-05    0.9948844102E-01    0.4585493228E-04    0.1810760233E-04    0.4210691884E-02
    0.5000000000E+01    0.1211687137E-04    0.1513731701E+00    0.6726761077E-04    0.2810511329E-04    0.4237787369E-02
    0.7000000000E+01    0.1532660843E-04    0.1949450882E+00    0.8399465533E-04    0.3767106917E-04    0.4259777120E-02
    0.9000000000E+01    0.1795364572E-04    0.2320541560E+00    0.9730077991E-04    0.4696880500E-04    0.4278242704E-02
    0.1100000000E+02    0.2013291113E-04    0.2640392788E+00    0.1080570327E-03    0.5607952355E-04    0.4294019645E-02
    0.1300000000E+02    0.2196218702E-04    0.2918933845E+00    0.1168819858E-03    0.6505133195E-04    0.4307662924E-02
    0.1500000000E+02    0.2351394856E-04    0.3163683978E+00    0.1242249294E-03    0.7391581687E-04    0.4319573398E-02
    0.1700000000E+02    0.2484293139E-04    0.3380441794E+00    0.1304182463E-03    0.8269518680E-04    0.4330053054E-02
    0.1900000000E+02    0.2599114641E-04    0.3573750821E+00    0.1357116907E-03    0.9140584243E-04    0.4339335542E-02
    0.2100000000E+02    0.2699129637E-04    0.3747221654E+00    0.1402954747E-03    0.1000603531E-03    0.4347605196E-02
    0.2300000000E+02    0.2786915794E-04    0.3903759733E+00    0.1443161832E-03    0.1086686361E-03    0.4355009715E-02
    0.2500000000E+02    0.2864527598E-04    0.4045729480E+00    0.1478879632E-03    0.1172387015E-03    0.4361668998E-02
    0.2700000000E+02    0.2933618979E-04    0.4175074635E+00    0.1511005291E-03    0.1257771458E-03    0.4367681474E-02
    0.2900000000E+02    0.2995533471E-04    0.4293407836E+00    0.1540249771E-03    0.1342894900E-03    0.4373128747E-02
    0.3100000000E+02    0.3051371433E-04    0.4402078248E+00    0.1567180670E-03    0.1427804201E-03    0.4378079081E-02
    0.3300000000E+02    0.3102040809E-04    0.4502223257E+00    0.1592254138E-03    0.1512539606E-03    0.4382590028E-02
    0.3500000000E+02    0.3148295901E-04    0.4594808465E+00    0.1615838949E-03    0.1597136053E-03    0.4386710471E-02
    0.3700000000E+02    0.3190767307E-04    0.4680658936E+00    0.1638234824E-03    0.1681624149E-03    0.4390482200E-02
    0.3900000000E+02    0.3229985254E-04    0.4760483874E+00    0.1659686528E-03    0.1766030932E-03    0.4393941164E-02
    0.4100000000E+02    0.3266397954E-04    0.4834896269E+00    0.1680394792E-03    0.1850380465E-03    0.4397118457E-02
    0.4300000000E+02    0.3300386165E-04    0.4904428682E+00    0.1700524857E-03    0.1934694309E-03    0.4400041118E-02
    0.4500000000E+02    0.3332274819E-04    0.4969546013E+00    0.1720213200E-03    0.2018991899E-03    0.4402732772E-02
    0.4700000000E+02    0.3362342392E-04    0.5030655922E+00    0.1739572863E-03    0.2103290853E-03    0.4405214157E-02
    0.4900000000E+02    0.3390828493E-04    0.5088117372E+00    0.1758697704E-03    0.2187607224E-03    0.4407503549E-02
    0.1000000000E+02    0.1909243325E-04    0.2486184939E+00    0.1029542306E-03    0.5154402364E-04    0.4286428029E-02
    0.3000000000E+02    0.3024151266E-04    0.4348875358E+00    0.1553973611E-03    0.1385373665E-03    0.4375662210E-02
    0.5000000000E+02    0.3404544287E-04    0.5115580550E+00    0.1768197007E-03    0.2229776582E-03    0.4408581375E-02
    0.7000000000E+02    0.3633495324E-04    0.5533774833E+00    0.1959028914E-03    0.3077095783E-03    0.4423146736E-02
    0.9000000000E+02    0.3828103206E-04    0.5797096861E+00    0.2165720761E-03    0.3937694506E-03    0.4429261080E-02
    0.1100000000E+03    0.4021781502E-04    0.5978143440E+00    0.2393748497E-03    0.4817450392E-03    0.4430673661E-02
    0.1300000000E+03    0.4225838110E-04    0.6110267501E+00    0.2642605149E-03    0.5720511307E-03    0.4429118944E-02
    0.1500000000E+03    0.4444449984E-04    0.6210939607E+00    0.2910956652E-03    0.6650231029E-03    0.4425507487E-02
    0.1700000000E+03    0.4679235937E-04    0.6290196337E+00    0.3197698700E-03    0.7609576392E-03    0.4420359986E-02
    0.1900000000E+03    0.4930868064E-04    0.6354214312E+00    0.3502123666E-03    0.8601335434E-03    0.4413992278E-02
    0.2100000000E+03    0.5199695386E-04    0.6407003110E+00    0.3823889713E-03    0.9628237741E-03    0.4406603574E-02
    0.2300000000E+03    0.5486000024E-04    0.6451279032E+00    0.4162957931E-03    0.1069303176E-02    0.4398322274E-02
    0.2500000000E+03    0.5790105934E-04    0.6488947636E+00    0.4519536675E-03    0.1179853952E-02    0.4389231383E-02
    0.2700000000E+03    0.6112425545E-04    0.6521385221E+00    0.4894039805E-03    0.1294769907E-02    0.4379383379E-02
    0.2900000000E+03    0.6453479701E-04    0.6549610651E+00    0.5287057576E-03    0.1414360011E-02    0.4368809270E-02
    0.3100000000E+03    0.6813906337E-04    0.6574394321E+00    0.5699337503E-03    0.1538951630E-02    0.4357524314E-02
    0.3300000000E+03    0.7194464863E-04    0.6596329544E+00    0.6131772822E-03    0.1668893614E-02    0.4345531709E-02
    0.3500000000E+03    0.7596039481E-04    0.6615880671E+00    0.6585396717E-03    0.1804559379E-02    0.4332825014E-02
    0.3700000000E+03    0.8019642948E-04    0.6633416322E+00    0.7061381055E-03    0.1946350106E-02    0.4319389752E-02
    0.3900000000E+03    0.8466421512E-04    0.6649232849E+00    0.7561038738E-03    0.2094698113E-02    0.4305204447E-02
    0.4100000000E+03    0.8937661374E-04    0.6663571218E+00    0.8085829114E-03    0.2250070491E-02    0.4290241290E-02
    0.4300000000E+03    0.9434796875E-04    0.6676629369E+00    0.8637366068E-03    0.2412973047E-02    0.4274466517E-02
    0.4500000000E+03    0.9959420531E-04    0.6688571414E+00    0.9217428622E-03    0.2583954641E-02    0.4257840579E-02
    0.4700000000E+03    0.1051329503E-03    0.6699534561E+00    0.9827973937E-03    0.2763611959E-02    0.4240318155E-02
    0.4900000000E+03    0.1109836735E-03    0.6709634416E+00    0.1047115275E-02    0.2952594807E-02    0.4221848031E-02
    0.1000000000E+03    0.3924093140E-04    0.5895290037E+00    0.2277054614E-03    0.4374892931E-03    0.4430419298E-02
    0.3000000000E+03    0.6631226882E-04    0.6562392126E+00    0.5490737266E-03    0.1476009367E-02    0.4363255199E-02
    0.5000000000E+03    0.1140326547E-03    0.6714391854E+00    0.1080570913E-02    0.3050802327E-02    0.4212239909E-02
    0.7000000000E+03    0.1982208329E-03    0.6781708340E+00    0.1995575119E-02    0.5725979632E-02    0.3951857919E-02
    0.9000000000E+03    0.3621297952E-03    0.6819687120E+00    0.3763882089E-02    0.1088872187E-01    0.3467356573E-02
    0.1100000000E+04    0.7085578926E-03    0.6844072733E+00    0.7502819006E-02    0.2183904079E-01    0.2513720883E-02
    0.1300000000E+04    0.1266194454E-02    0.6861053488E+00    0.1356694628E-01    0.3975343959E-01    0.1181017498E-02
    0.1500000000E+04    0.1656742470E-02    0.6873556464E+00    0.1791326174E-01    0.5289538368E-01    0.5515156893E-03
    0.1700000000E+04    0.1862926434E-02    0.6883145719E+00    0.2031182174E-01    0.6045983951E-01    0.4458867359E-03
    0.1900000000E+04    0.2021886407E-02    0.6890732922E+00    0.2222457613E-01    0.6668103456E-01    0.4352329334E-03
    0.2100000000E+04    0.2165427100E-02    0.6896885370E+00    0.2399218843E-01    0.7255126458E-01    0.4362721586E-03
    0.2300000000E+04    0.2298638621E-02    0.6901974558E+00    0.2566770667E-01    0.7822118391E-01    0.4385078997E-03
    0.2500000000E+04    0.2422756576E-02    0.6906253938E+00    0.2726250770E-01    0.8371889188E-01    0.4407108955E-03
    0.2700000000E+04    0.2538464298E-02    0.6909902353E+00    0.2878210797E-01    0.8905550913E-01    0.4427596888E-03
    0.2900000000E+04    0.2646332450E-02    0.6913049606E+00    0.3023095489E-01    0.9423938272E-01    0.4446613262E-03
    0.3100000000E+04    0.2746880166E-02    0.6915792189E+00    0.3161308600E-01    0.9927802351E-01    0.4464342282E-03
    0.3300000000E+04    0.2840586292E-02    0.6918203323E+00    0.3293223981E-01    0.1041784056E+00    0.4480948672E-03
    0.3500000000E+04    0.2927893743E-02    0.6920339577E+00    0.3419189141E-01    0.1089470422E+00    0.4496569028E-03
    0.3700000000E+04    0.3009212687E-02    0.6922245342E+00    0.3539527592E-01    0.1135900269E+00    0.4511316549E-03
    0.3900000000E+04    0.3084923330E-02    0.6923955942E+00    0.3654540855E-01    0.1181130685E+00    0.4525285923E-03
    0.4100000000E+04    0.3155378420E-02    0.6925499839E+00    0.3764510255E-01    0.1225215206E+00    0.4538557133E-03
    0.4300000000E+04    0.3220905528E-02    0.6926900218E+00    0.3869698550E-01    0.1268204098E+00    0.4551198356E-03
    0.4500000000E+04    0.3281809111E-02    0.6928176156E+00    0.3970351403E-01    0.1310144599E+00    0.4563268184E-03
    0.4700000000E+04    0.3338372383E-02    0.6929343496E+00    0.4066698721E-01    0.1351081152E+00    0.4574817339E-03
    0.4900000000E+04    0.3390859024E-02    0.6930415501E+00    0.4158955873E-01    0.1391055606E+00    0.4585890033E-03
    0.1000000000E+04    0.5036176454E-03    0.6833078328E+00    0.5289482007E-02    0.1535022693E-01    0.3067395589E-02
    0.3000000000E+04    0.2697490551E-02    0.6914466450E+00    0.3093011978E-01    0.9677640994E-01    0.4455627701E-03
    0.5000000000E+04    0.3415651049E-02    0.6930919320E+00    0.4203614239E-01    0.1410694463E+00    0.4591260009E-03
    0.7000000000E+04    0.3748916389E-02    0.6937968186E+00    0.4924934070E-01    0.1761436449E+00    0.4680975109E-03
    0.9000000000E+04    0.3871282301E-02    0.6941875247E+00    0.5404392210E-01    0.2049502125E+00    0.4748470661E-03
    0.1100000000E+05    0.3874531211E-02    0.6944353946E+00    0.5725713564E-01    0.2292596827E+00    0.4802758418E-03
    0.1300000000E+05    0.3809762550E-02    0.6946064014E+00    0.5939563554E-01    0.2502050191E+00    0.4848259094E-03
    0.1500000000E+05    0.3706581089E-02    0.6947313392E+00    0.6078162327E-01    0.2685490300E+00    0.4887478148E-03
    0.1700000000E+05    0.3582638478E-02    0.6948265068E+00    0.6162830523E-01    0.2848268659E+00    0.4921976145E-03
    0.1900000000E+05    0.3448664859E-02    0.6949013356E+00    0.6208140917E-01    0.2994269144E+00    0.4952792417E-03
    0.2100000000E+05    0.3311251476E-02    0.6949616599E+00    0.6224324585E-01    0.3126391736E+00    0.4980654722E-03
    0.2300000000E+05    0.3174450797E-02    0.6950112818E+00    0.6218727276E-01    0.3246854622E+00    0.5006092903E-03
    0.2500000000E+05    0.3040726908E-02    0.6950527841E+00    0.6196723820E-01    0.3357389973E+00    0.5029504939E-03
    0.2700000000E+05    0.2911535428E-02    0.6950879828E+00    0.6162310622E-01    0.3459374908E+00    0.5051197510E-03
    0.2900000000E+05    0.2787685401E-02    0.6951181913E+00    0.6118500121E-01    0.3553921550E+00    0.5071412037E-03
    0.3100000000E+05    0.2669569390E-02    0.6951443832E+00    0.6067589749E-01    0.3641940487E+00    0.5090342044E-03
    0.3300000000E+05    0.2557312002E-02    0.6951672952E+00    0.6011349165E-01    0.3724186440E+00    0.5108145085E-03
    0.3500000000E+05    0.2450866945E-02    0.6951874948E+00    0.5951153051E-01    0.3801291784E+00    0.5124951177E-03
    0.3700000000E+05    0.2350081003E-02    0.6952054266E+00    0.5888076855E-01    0.3873791558E+00    0.5140868883E-03
    0.3900000000E+05    0.2254736480E-02    0.6952214433E+00    0.5822966845E-01    0.3942142428E+00    0.5155989809E-03
    0.4100000000E+05    0.2164579413E-02    0.6952358285E+00    0.5756492054E-01    0.4006737261E+00    0.5170391972E-03
    0.4300000000E+05    0.2079338300E-02    0.6952488128E+00    0.5689183267E-01    0.4067916470E+00    0.5184142370E-03
    0.4500000000E+05    0.1998736462E-02    0.6952605855E+00    0.5621462588E-01    0.4125976953E+00    0.5197298978E-03
    0.4700000000E+05    0.1922500085E-02    0.6952713034E+00    0.5553666103E-01    0.4181179203E+00    0.5209912297E-03
    0.4900000000E+05    0.1850363332E-02    0.6952810978E+00    0.5486061394E-01    0.4233753026E+00    0.5222026598E-03
    0.1000000000E+05    0.3883940044E-02    0.6943239545E+00    0.5581097778E-01    0.2175853046E+00    0.4776926376E-03
    0.3000000000E+05    0.2727897910E-02    0.6951317386E+00    0.6093811217E-01    0.3598696600E+00    0.5081027028E-03
    0.5000000000E+05    0.1815752219E-02    0.6952856839E+00    0.5452399265E-01    0.4259118860E+00    0.5227908994E-03
    0.7000000000E+05    0.1284328271E-02    0.6953483651E+00    0.4821737269E-01    0.4667654183E+00    0.5326800839E-03
    0.9000000000E+05    0.9555938342E-03    0.6953813296E+00    0.4293713626E-01    0.4951616080E+00    0.5401824360E-03
    0.1100000000E+06    0.7390553635E-03    0.6954011082E+00    0.3859726347E-01    0.5162469940E+00    0.5462460662E-03
    0.1300000000E+06    0.5889844852E-03    0.6954139615E+00    0.3500854302E-01    0.5326023526E+00    0.5513443427E-03
    0.1500000000E+06    0.4806868138E-03    0.6954227654E+00    0.3200682029E-01    0.5456943822E+00    0.5557485470E-03
    0.1700000000E+06    0.3999451061E-03    0.6954290181E+00    0.2946563726E-01    0.5564287347E+00    0.5596289529E-03
    0.1900000000E+06    0.3381169705E-03    0.6954335730E+00    0.2728982259E-01    0.5653990008E+00    0.5630996022E-03
    0.2100000000E+06    0.2897050330E-03    0.6954369492E+00    0.2540760847E-01    0.5730122696E+00    0.5662406931E-03
    0.2300000000E+06    0.2510767863E-03    0.6954394798E+00    0.2376432617E-01    0.5795578994E+00    0.5691108123E-03
    0.2500000000E+06    0.2197532957E-03    0.6954413871E+00    0.2231780519E-01    0.5852476418E+00    0.5717540866E-03
    0.2700000000E+06    0.1939954701E-03    0.6954428250E+00    0.2103509215E-01    0.5902402565E+00    0.5742045971E-03
    0.2900000000E+06    0.1725537339E-03    0.6954439025E+00    0.1989011272E-01    0.5946572414E+00    0.5764892236E-03
    0.3100000000E+06    0.1545112924E-03    0.6954446993E+00    0.1886199246E-01    0.5985932335E+00    0.5786295478E-03
    0.3300000000E+06    0.1391830211E-03    0.6954452746E+00    0.1793383735E-01    0.6021230884E+00    0.5806431648E-03
    0.3500000000E+06    0.1260484980E-03    0.6954456729E+00    0.1709183719E-01    0.6053068199E+00    0.5825446117E-03
    0.3700000000E+06    0.1147066029E-03    0.6954459287E+00    0.1632459815E-01    0.6081931223E+00    0.5843460400E-03
    0.3900000000E+06    0.1048440900E-03    0.6954460687E+00    0.1562263996E-01    0.6108219305E+00    0.5860577124E-03
    0.4100000000E+06    0.9621342255E-04    0.6954461139E+00    0.1497801263E-01    0.6132263124E+00    0.5876883767E-03
    0.4300000000E+06    0.8861687390E-04    0.6954460810E+00    0.1438400114E-01    0.6154338893E+00    0.5892455511E-03
    0.4500000000E+06    0.8189494748E-04    0.6954459837E+00    0.1383489572E-01    0.6174679163E+00    0.5907357450E-03
    0.4700000000E+06    0.7591782364E-04    0.6954458328E+00    0.1332581115E-01    0.6193481147E+00    0.5921646326E-03
    0.4900000000E+06    0.7057896124E-04    0.6954456372E+00    0.1285254373E-01    0.6210913207E+00    0.5935371906E-03
    0.1000000000E+06    0.8368376564E-03    0.6953923564E+00    0.4066159999E-01    0.5064206716E+00    0.5433579126E-03
    0.3000000000E+06    0.1631549374E-03    0.6954443319E+00    0.1936258255E-01    0.5966802856E+00    0.5775762427E-03
    0.5000000000E+06    0.6812073256E-04    0.6954455250E+00    0.1262818546E-01    0.6219161517E+00    0.5942037380E-03
    0.7000000000E+06    0.3743097838E-04    0.6954421770E+00    0.9353005684E-02    0.6338495957E+00    0.6054151272E-03
    0.9000000000E+06    0.2373921731E-04    0.6954381557E+00    0.7419888387E-02    0.6408066116E+00    0.6139262679E-03
    0.1100000000E+07    0.1644775060E-04    0.6954342071E+00    0.6145344082E-02    0.6453623422E+00    0.6208078534E-03
    0.1300000000E+07    0.1210155072E-04    0.6954305018E+00    0.5242314341E-02    0.6485764831E+00    0.6265952760E-03
    0.1500000000E+07    0.9299945531E-05    0.6954270658E+00    0.4569282626E-02    0.6509652204E+00    0.6315956512E-03
    0.1700000000E+07    0.7386808574E-05    0.6954238842E+00    0.4048453225E-02    0.6528100873E+00    0.6360018675E-03
    0.1900000000E+07    0.6021234863E-05    0.6954209319E+00    0.3633532121E-02    0.6542776877E+00    0.6399431722E-03
    0.2100000000E+07    0.5011692289E-05    0.6954181830E+00    0.3295255526E-02    0.6554729055E+00    0.6435104883E-03
    0.2300000000E+07    0.4243773990E-05    0.6954156140E+00    0.3014222179E-02    0.6564650584E+00    0.6467702549E-03
    0.2500000000E+07    0.3645685278E-05    0.6954132041E+00    0.2777063494E-02    0.6573017927E+00    0.6497725244E-03
    0.2700000000E+07    0.3170503733E-05    0.6954109356E+00    0.2574269157E-02    0.6580169366E+00    0.6525559609E-03
    0.2900000000E+07    0.2786499835E-05    0.6954087932E+00    0.2398889644E-02    0.6586351699E+00    0.6551510638E-03
    0.3100000000E+07    0.2471586715E-05    0.6954067639E+00    0.2245729145E-02    0.6591749196E+00    0.6575823238E-03
    0.3300000000E+07    0.2210001028E-05    0.6954048365E+00    0.2110825521E-02    0.6596502221E+00    0.6598697098E-03
    0.3500000000E+07    0.1990245280E-05    0.6954030011E+00    0.1991104881E-02    0.6600719566E+00    0.6620297216E-03
    0.3700000000E+07    0.1803771698E-05    0.6954012495E+00    0.1884146025E-02    0.6604486854E+00    0.6640761523E-03
    0.3900000000E+07    0.1644117047E-05    0.6953995742E+00    0.1788016046E-02    0.6607872395E+00    0.6660206524E-03
    0.4100000000E+07    0.1506319973E-05    0.6953979688E+00    0.1701153214E-02    0.6610931347E+00    0.6678731527E-03
    0.4300000000E+07    0.1386520062E-05    0.6953964277E+00    0.1622282016E-02    0.6613708736E+00    0.6696421888E-03
    0.4500000000E+07    0.1281676590E-05    0.6953949458E+00    0.1550350503E-02    0.6616241681E+00    0.6713351514E-03
    0.4700000000E+07    0.1189367757E-05    0.6953935187E+00    0.1484483391E-02    0.6618561053E+00    0.6729584832E-03
    0.4900000000E+07    0.1107645107E-05    0.6953921424E+00    0.1423946496E-02    0.6620692740E+00    0.6745178350E-03
    0.1000000000E+07    0.1958486229E-04    0.6954361560E+00    0.6723227250E-02    0.6432996573E+00    0.6175298491E-03
    0.3000000000E+07    0.2621511666E-05    0.6954077652E+00    0.2319803859E-02    0.6589138918E+00    0.6563858342E-03
    0.5000000000E+07    0.1070247188E-05    0.6953914721E+00    0.1395479175E-02    0.6621695171E+00    0.6752750991E-03
    0.7000000000E+07    0.6151273471E-06    0.6953800388E+00    0.9960530669E-03    0.6635763043E+00    0.6880127680E-03
    0.9000000000E+07    0.4179307390E-06    0.6953711934E+00    0.7736180904E-03    0.6643602548E+00    0.6976829842E-03
    0.1100000000E+08    0.3132044234E-06    0.6953639601E+00    0.6319894367E-03    0.6648598168E+00    0.7055018969E-03
    0.1300000000E+08    0.2500984486E-06    0.6953578301E+00    0.5339564520E-03    0.6652058895E+00    0.7120776977E-03
    0.1500000000E+08    0.2086429811E-06    0.6953525038E+00    0.4621025178E-03    0.6654597479E+00    0.7177592839E-03
    0.1700000000E+08    0.1796451119E-06    0.6953477900E+00    0.4071922488E-03    0.6656538929E+00    0.7227657950E-03
    0.1900000000E+08    0.1583700797E-06    0.6953435588E+00    0.3638742230E-03    0.6658071634E+00    0.7272440725E-03
    0.2100000000E+08    0.1421657112E-06    0.6953397180E+00    0.3288342500E-03    0.6659312308E+00    0.7312974188E-03
    0.2300000000E+08    0.1294461467E-06    0.6953361996E+00    0.2999105791E-03    0.6660337109E+00    0.7350013200E-03
    0.2500000000E+08    0.1192121894E-06    0.6953329522E+00    0.2756332636E-03    0.6661197841E+00    0.7384126451E-03
    0.2700000000E+08    0.1108066816E-06    0.6953299359E+00    0.2549680510E-03    0.6661930970E+00    0.7415753241E-03
