  Pressure (Pa) 23mC5-500 (mol/kg) 24mC5-500 (mol/kg) 2mC6-500 (mol/kg) 3mC6-500 (mol/kg) C7-500 (mol/kg)
    0.1000000000E+01    0.2119926399E-05    0.2142763860E+00    0.4680352904E-05    0.7725333125E-06    0.4196718341E-02
    0.3000000000E+01    0.3597637388E-05    0.3978337655E+00    0.7564740356E-05    0.1983097572E-05    0.4230876352E-02
    0.5000000000E+01    0.4141381111E-05    0.4800864337E+00    0.8672408162E-05    0.3096645294E-05    0.4245793467E-02
    0.7000000000E+01    0.4437066415E-05    0.5267618699E+00    0.9463157418E-05    0.4162514883E-05    0.4254440456E-02
    0.9000000000E+01    0.4648236682E-05    0.5568383741E+00    0.1020791035E-04    0.5197444169E-05    0.4260155787E-02
    0.1100000000E+02    0.4827900863E-05    0.5778336856E+00    0.1096848015E-04    0.6209839250E-05    0.4264246110E-02
    0.1300000000E+02    0.4996290653E-05    0.5933212363E+00    0.1175723731E-04    0.7204718073E-05    0.4267334573E-02
    0.1500000000E+02    0.5161857704E-05    0.6052170046E+00    0.1257350207E-04    0.8185395382E-05    0.4269758059E-02
    0.1700000000E+02    0.5328268520E-05    0.6146406293E+00    0.1341340438E-04    0.9154213332E-05    0.4271715489E-02
    0.1900000000E+02    0.5497083032E-05    0.6222901960E+00    0.1427275504E-04    0.1011290863E-04    0.4273332310E-02
    0.2100000000E+02    0.5668886037E-05    0.6286235672E+00    0.1514784521E-04    0.1106281666E-04    0.4274691793E-02
    0.2300000000E+02    0.5843800189E-05    0.6339535282E+00    0.1603559818E-04    0.1200499382E-04    0.4275851525E-02
    0.2500000000E+02    0.6021730668E-05    0.6385010304E+00    0.1693352360E-04    0.1294029503E-04    0.4276852691E-02
    0.2700000000E+02    0.6202485911E-05    0.6424265899E+00    0.1783962290E-04    0.1386942530E-04    0.4277725586E-02
    0.2900000000E+02    0.6385838256E-05    0.6458496279E+00    0.1875229433E-04    0.1479297515E-04    0.4278493029E-02
    0.3100000000E+02    0.6571554393E-05    0.6488608310E+00    0.1967025147E-04    0.1571144586E-04    0.4279172566E-02
    0.3300000000E+02    0.6759410237E-05    0.6515303031E+00    0.2059245735E-04    0.1662526784E-04    0.4279777927E-02
    0.3500000000E+02    0.6949197657E-05    0.6539130916E+00    0.2151807241E-04    0.1753481433E-04    0.4280320026E-02
    0.3700000000E+02    0.7140726915E-05    0.6560530232E+00    0.2244641386E-04    0.1844041186E-04    0.4280807656E-02
    0.3900000000E+02    0.7333826898E-05    0.6579854247E+00    0.2337692395E-04    0.1934234827E-04    0.4281247993E-02
    0.4100000000E+02    0.7528344234E-05    0.6597390881E+00    0.2430914517E-04    0.2024087907E-04    0.4281646954E-02
    0.4300000000E+02    0.7724141924E-05    0.6613377146E+00    0.2524270088E-04    0.2113623246E-04    0.4282009466E-02
    0.4500000000E+02    0.7921097781E-05    0.6628009928E+00    0.2617727994E-04    0.2202861339E-04    0.4282339671E-02
    0.4700000000E+02    0.8119102882E-05    0.6641454125E+00    0.2711262464E-04    0.2291820686E-04    0.4282641077E-02
    0.4900000000E+02    0.8318060095E-05    0.6653848897E+00    0.2804852101E-04    0.2380518061E-04    0.4282916681E-02
    0.1000000000E+02    0.4740330909E-05    0.5681931342E+00    0.1058493034E-04    0.5706092302E-05    0.4262355684E-02
    0.3000000000E+02    0.6478415178E-05    0.6474019197E+00    0.1921068217E-04    0.1525281702E-04    0.4278842852E-02
    0.5000000000E+02    0.8417868281E-05    0.6659690409E+00    0.2851661923E-04    0.2424773335E-04    0.4283045624E-02
    0.7000000000E+02    0.1044735666E-04    0.6742559445E+00    0.3787763098E-04    0.3299217183E-04    0.4284739212E-02
    0.9000000000E+02    0.1251423336E-04    0.6789491861E+00    0.4720568679E-04    0.4159010318E-04    0.4285419779E-02
    0.1100000000E+03    0.1459929136E-04    0.6819697379E+00    0.5649221347E-04    0.5009418870E-04    0.4285567697E-02
    0.1300000000E+03    0.1669467394E-04    0.6840765172E+00    0.6574399180E-04    0.5853607022E-04    0.4285391640E-02
    0.1500000000E+03    0.1879699399E-04    0.6856296550E+00    0.7497039391E-04    0.6693678249E-04    0.4284999254E-02
    0.1700000000E+03    0.2090483291E-04    0.6868220171E+00    0.8418038050E-04    0.7531129182E-04    0.4284452654E-02
    0.1900000000E+03    0.2301770655E-04    0.6877662095E+00    0.9338184948E-04    0.8367078456E-04    0.4283790636E-02
    0.2100000000E+03    0.2513559529E-04    0.6885323936E+00    0.1025816113E-03    0.9202394258E-04    0.4283038898E-02
    0.2300000000E+03    0.2725871492E-04    0.6891665619E+00    0.1117855232E-03    0.1003777086E-03    0.4282215254E-02
    0.2500000000E+03    0.2938739927E-04    0.6897001200E+00    0.1209986461E-03    0.1087377718E-03    0.4281332507E-02
    0.2700000000E+03    0.3152203786E-04    0.6901552440E+00    0.1302253857E-03    0.1171088912E-03    0.4280400134E-02
    0.2900000000E+03    0.3366304211E-04    0.6905480395E+00    0.1394696106E-03    0.1254951173E-03    0.4279425322E-02
    0.3100000000E+03    0.3581082685E-04    0.6908904852E+00    0.1487347469E-03    0.1338999507E-03    0.4278413631E-02
    0.3300000000E+03    0.3796580045E-04    0.6911916754E+00    0.1580238557E-03    0.1423264571E-03    0.4277369440E-02
    0.3500000000E+03    0.4012835963E-04    0.6914586388E+00    0.1673396935E-03    0.1507773531E-03    0.4276296248E-02
    0.3700000000E+03    0.4229888718E-04    0.6916968934E+00    0.1766847625E-03    0.1592550719E-03    0.4275196888E-02
    0.3900000000E+03    0.4447775108E-04    0.6919108315E+00    0.1860613502E-03    0.1677618133E-03    0.4274073676E-02
    0.4100000000E+03    0.4666530469E-04    0.6921039933E+00    0.1954715623E-03    0.1762995838E-03    0.4272928526E-02
    0.4300000000E+03    0.4886188733E-04    0.6922792633E+00    0.2049173497E-03    0.1848702276E-03    0.4271763035E-02
    0.4500000000E+03    0.5106782512E-04    0.6924390160E+00    0.2144005303E-03    0.1934754522E-03    0.4270578539E-02
    0.4700000000E+03    0.5328343202E-04    0.6925852236E+00    0.2239228079E-03    0.2021168492E-03    0.4269376169E-02
    0.4900000000E+03    0.5550901078E-04    0.6927195374E+00    0.2334857878E-03    0.2107959108E-03    0.4268156884E-02
    0.1000000000E+03    0.1355513244E-04    0.6806071988E+00    0.5185384587E-04    0.4585157206E-04    0.4285543842E-02
    0.3000000000E+03    0.3473606117E-04    0.6907249313E+00    0.1440993657E-03    0.1296950074E-03    0.4278923789E-02
    0.5000000000E+03    0.5662563142E-04    0.6927826783E+00    0.2382830189E-03    0.2151500085E-03    0.4267541159E-02
    0.7000000000E+03    0.7954855525E-04    0.6936674601E+00    0.3367004204E-03    0.3045185996E-03    0.4254484151E-02
    0.9000000000E+03    0.1037616987E-03    0.6941594910E+00    0.4406082387E-03    0.3989551313E-03    0.4240195951E-02
    0.1100000000E+04    0.1294894136E-03    0.6944726470E+00    0.5510207015E-03    0.4993829747E-03    0.4224757693E-02
    0.1300000000E+04    0.1569535219E-03    0.6946893895E+00    0.6689140977E-03    0.6066918466E-03    0.4208139761E-02
    0.1500000000E+04    0.1863886853E-03    0.6948482543E+00    0.7953107917E-03    0.7218155160E-03    0.4190260849E-02
    0.1700000000E+04    0.2180525843E-03    0.6949696602E+00    0.9313289082E-03    0.8457771518E-03    0.4171005894E-02
    0.1900000000E+04    0.2522345074E-03    0.6950654350E+00    0.1078221720E-02    0.9797252487E-03    0.4150231319E-02
    0.2100000000E+04    0.2892639403E-03    0.6951429032E+00    0.1237415860E-02    0.1124968593E-02    0.4127765147E-02
    0.2300000000E+04    0.3295200625E-03    0.6952068426E+00    0.1410552999E-02    0.1283014531E-02    0.4103404428E-02
    0.2500000000E+04    0.3734428316E-03    0.6952605023E+00    0.1599538233E-02    0.1455613504E-02    0.4076910780E-02
    0.2700000000E+04    0.4215463151E-03    0.6953061689E+00    0.1806598163E-02    0.1644812592E-02    0.4048004225E-02
    0.2900000000E+04    0.4744349997E-03    0.6953454981E+00    0.2034351904E-02    0.1853021070E-02    0.4016355229E-02
    0.3100000000E+04    0.5328239559E-03    0.6953797182E+00    0.2285898892E-02    0.2083091544E-02    0.3981574632E-02
    0.3300000000E+04    0.5975639420E-03    0.6954097597E+00    0.2564928246E-02    0.2338421105E-02    0.3943201057E-02
    0.3500000000E+04    0.6696727948E-03    0.6954363403E+00    0.2875855613E-02    0.2623078020E-02    0.3900685212E-02
    0.3700000000E+04    0.7503747628E-03    0.6954600223E+00    0.3223994784E-02    0.2941960770E-02    0.3853370394E-02
    0.3900000000E+04    0.8411497722E-03    0.6954812528E+00    0.3615772868E-02    0.3300997691E-02    0.3800468408E-02
    0.4100000000E+04    0.9437948844E-03    0.6955003913E+00    0.4058999070E-02    0.3707396687E-02    0.3741030060E-02
    0.4300000000E+04    0.1060500246E-02    0.6955177306E+00    0.4563197411E-02    0.4169954892E-02    0.3673909608E-02
    0.4500000000E+04    0.1193941268E-02    0.6955335114E+00    0.5140011456E-02    0.4699436226E-02    0.3597723075E-02
    0.4700000000E+04    0.1347386852E-02    0.6955479331E+00    0.5803681064E-02    0.5309017629E-02    0.3510801857E-02
    0.4900000000E+04    0.1524818735E-02    0.6955611627E+00    0.6571570956E-02    0.6014786490E-02    0.3411146119E-02
    0.1000000000E+04    0.1164225306E-03    0.6943317313E+00    0.4949407312E-03    0.4483649050E-03    0.4232620854E-02
    0.3000000000E+04    0.5028922851E-03    0.6953631828E+00    0.2156935946E-02    0.1965125345E-02    0.3999383357E-02
    0.5000000000E+04    0.1623997681E-02    0.6955673754E+00    0.7001008784E-02    0.6409687199E-02    0.3355817891E-02
    0.7000000000E+04    0.6004546118E-02    0.6956538874E+00    0.2611075734E-01    0.2411980620E-01    0.1144761810E-02
    0.9000000000E+04    0.9229630000E-02    0.6957013786E+00    0.4073678405E-01    0.3821511475E-01    0.1873974799E-03
    0.1100000000E+05    0.1058109580E-01    0.6957312306E+00    0.4742571484E-01    0.4519960719E-01    0.1689706817E-03
    0.1300000000E+05    0.1170893592E-01    0.6957516381E+00    0.5327338718E-01    0.5155620813E-01    0.1702569084E-03
    0.1500000000E+05    0.1268308533E-01    0.6957664114E+00    0.5855450258E-01    0.5751337831E-01    0.1716131989E-03
    0.1700000000E+05    0.1352688892E-01    0.6957775605E+00    0.6334586364E-01    0.6312017987E-01    0.1728122233E-03
    0.1900000000E+05    0.1425902407E-01    0.6957862444E+00    0.6770899160E-01    0.6841556928E-01    0.1738846898E-03
    0.2100000000E+05    0.1489498450E-01    0.6957931782E+00    0.7169552914E-01    0.7343259510E-01    0.1748553054E-03
    0.2300000000E+05    0.1544772041E-01    0.6957988263E+00    0.7534917595E-01    0.7819952882E-01    0.1757421780E-03
    0.2500000000E+05    0.1592812534E-01    0.6958035033E+00    0.7870715588E-01    0.8274071319E-01    0.1765589473E-03
    0.2700000000E+05    0.1634541686E-01    0.6958074297E+00    0.8180137061E-01    0.8707723408E-01    0.1773161469E-03
    0.2900000000E+05    0.1670743690E-01    0.6958107645E+00    0.8465931576E-01    0.9122745797E-01    0.1780220847E-03
    0.3100000000E+05    0.1702089082E-01    0.6958136253E+00    0.8730481451E-01    0.9520746558E-01    0.1786834306E-03
    0.3300000000E+05    0.1729153910E-01    0.6958161007E+00    0.8975860964E-01    0.9903140436E-01    0.1793056225E-03
    0.3500000000E+05    0.1752435211E-01    0.6958182590E+00    0.9203884488E-01    0.1027117771E+00    0.1798931529E-03
    0.3700000000E+05    0.1772363606E-01    0.6958201533E+00    0.9416145885E-01    0.1062596801E+00    0.1804497770E-03
    0.3900000000E+05    0.1789313599E-01    0.6958218256E+00    0.9614050968E-01    0.1096850001E+00    0.1809786663E-03
    0.4100000000E+05    0.1803612053E-01    0.6958233098E+00    0.9798844395E-01    0.1129965795E+00    0.1814825242E-03
    0.4300000000E+05    0.1815545214E-01    0.6958246332E+00    0.9971632083E-01    0.1162023542E+00    0.1819636739E-03
    0.4500000000E+05    0.1825364541E-01    0.6958258182E+00    0.1013339999E+00    0.1193094702E+00    0.1824241270E-03
    0.4700000000E+05    0.1833291597E-01    0.6958268833E+00    0.1028502994E+00    0.1223243827E+00    0.1828656368E-03
    0.4900000000E+05    0.1839522141E-01    0.6958278439E+00    0.1042731297E+00    0.1252529398E+00    0.1832897411E-03
    0.1000000000E+05    0.9946830318E-02    0.6957178431E+00    0.4424332707E-01    0.4183689110E-01    0.1702104423E-03
    0.3000000000E+05    0.1686985442E-01    0.6958122480E+00    0.8600725843E-01    0.9323781294E-01    0.1783579667E-03
    0.5000000000E+05    0.1842056205E-01    0.6958282891E+00    0.1049517462E+00    0.1266865147E+00    0.1834956964E-03
    0.7000000000E+05    0.1836677358E-01    0.6958339752E+00    0.1150152367E+00    0.1518893360E+00    0.1869598850E-03
    0.9000000000E+05    0.1775252401E-01    0.6958364696E+00    0.1207396536E+00    0.1723640668E+00    0.1895897404E-03
    0.1100000000E+06    0.1694453968E-01    0.6958376300E+00    0.1240454727E+00    0.1897550314E+00    0.1917160942E-03
    0.1300000000E+06    0.1608885207E-01    0.6958381352E+00    0.1258831787E+00    0.2049590836E+00    0.1935043732E-03
    0.1500000000E+06    0.1524709783E-01    0.6958382852E+00    0.1267759614E+00    0.2185193853E+00    0.1950494699E-03
    0.1700000000E+06    0.1444516847E-01    0.6958382302E+00    0.1270347148E+00    0.2307907418E+00    0.1964109826E-03
    0.1900000000E+06    0.1369281126E-01    0.6958380519E+00    0.1268551158E+00    0.2420185308E+00    0.1976288459E-03
    0.2100000000E+06    0.1299223209E-01    0.6958377976E+00    0.1263659366E+00    0.2523801631E+00    0.1987311530E-03
    0.2300000000E+06    0.1234210817E-01    0.6958374964E+00    0.1256549685E+00    0.2620085422E+00    0.1997384322E-03
    0.2500000000E+06    0.1173953905E-01    0.6958371663E+00    0.1247837929E+00    0.2710061492E+00    0.2006661486E-03
    0.2700000000E+06    0.1118101830E-01    0.6958368193E+00    0.1237966230E+00    0.2794539211E+00    0.2015262485E-03
    0.2900000000E+06    0.1066292005E-01    0.6958364630E+00    0.1227258147E+00    0.2874170779E+00    0.2023281558E-03
    0.3100000000E+06    0.1018173771E-01    0.6958361028E+00    0.1215954234E+00    0.2949490803E+00    0.2030794375E-03
    0.3300000000E+06    0.9734193585E-02    0.6958357423E+00    0.1204235675E+00    0.3020943984E+00    0.2037862638E-03
    0.3500000000E+06    0.9317280969E-02    0.6958353839E+00    0.1192240400E+00    0.3088904966E+00    0.2044537326E-03
    0.3700000000E+06    0.8928270954E-02    0.6958350292E+00    0.1180074309E+00    0.3153692910E+00    0.2050861059E-03
    0.3900000000E+06    0.8564701574E-02    0.6958346795E+00    0.1167819256E+00    0.3215582383E+00    0.2056869834E-03
    0.4100000000E+06    0.8224358709E-02    0.6958343353E+00    0.1155538817E+00    0.3274811649E+00    0.2062594337E-03
    0.4300000000E+06    0.7905253865E-02    0.6958339972E+00    0.1143282525E+00    0.3331589072E+00    0.2068060940E-03
    0.4500000000E+06    0.7605601581E-02    0.6958336655E+00    0.1131089025E+00    0.3386098142E+00    0.2073292481E-03
    0.4700000000E+06    0.7323797834E-02    0.6958333403E+00    0.1118988444E+00    0.3438501449E+00    0.2078308865E-03
    0.4900000000E+06    0.7058400110E-02    0.6958330216E+00    0.1107004202E+00    0.3488943888E+00    0.2083127554E-03
    0.1000000000E+06    0.1736072285E-01    0.6958371606E+00    0.1226215786E+00    0.1813777581E+00    0.1907032157E-03
    0.3000000000E+06    0.1041792534E-01    0.6958362832E+00    0.1221668171E+00    0.2912340097E+00    0.2027097108E-03
    0.5000000000E+06    0.6931442404E-02    0.6958328647E+00    0.1101061542E+00    0.3513470870E+00    0.2085467647E-03
    0.7000000000E+06    0.4998949188E-02    0.6958300448E+00    0.9908893669E-01    0.3926557163E+00    0.2124830003E-03
    0.9000000000E+06    0.3800502324E-02    0.6958277210E+00    0.8980223659E-01    0.4235658548E+00    0.2154713848E-03
    0.1100000000E+07    0.2998791061E-02    0.6958257561E+00    0.8201342918E-01    0.4478332161E+00    0.2178877018E-03
    0.1300000000E+07    0.2432793153E-02    0.6958240561E+00    0.7542829853E-01    0.4675049632E+00    0.2199198823E-03
    0.1500000000E+07    0.2016743257E-02    0.6958225585E+00    0.6980242538E-01    0.4838281891E+00    0.2216757364E-03
    0.1700000000E+07    0.1701131780E-02    0.6958212200E+00    0.6494642153E-01    0.4976194632E+00    0.2232229797E-03
    0.1900000000E+07    0.1455570469E-02    0.6958200097E+00    0.6071511248E-01    0.5094415657E+00    0.2246069874E-03
    0.2100000000E+07    0.1260483768E-02    0.6958189048E+00    0.5699660122E-01    0.5196976338E+00    0.2258596811E-03
    0.2300000000E+07    0.1102758118E-02    0.6958178882E+00    0.5370372641E-01    0.5286853508E+00    0.2270043872E-03
    0.2500000000E+07    0.9733195589E-03    0.6958169466E+00    0.5076778584E-01    0.5366300176E+00    0.2280586789E-03
    0.2700000000E+07    0.8657155593E-03    0.6958160695E+00    0.4813398687E-01    0.5437056859E+00    0.2290361316E-03
    0.2900000000E+07    0.7752492933E-03    0.6958152484E+00    0.4575813996E-01    0.5500491751E+00    0.2299474537E-03
    0.3100000000E+07    0.6984320767E-03    0.6958144764E+00    0.4360423482E-01    0.5557696603E+00    0.2308012444E-03
    0.3300000000E+07    0.6326263272E-03    0.6958137480E+00    0.4164264362E-01    0.5609554043E+00    0.2316045150E-03
    0.3500000000E+07    0.5758065075E-03    0.6958130582E+00    0.3984877364E-01    0.5656785901E+00    0.2323630591E-03
    0.3700000000E+07    0.5263952998E-03    0.6958124032E+00    0.3820204501E-01    0.5699988588E+00    0.2330817198E-03
    0.3900000000E+07    0.4831489995E-03    0.6958117795E+00    0.3668510658E-01    0.5739659437E+00    0.2337645877E-03
    0.4100000000E+07    0.4450758543E-03    0.6958111842E+00    0.3528322800E-01    0.5776216621E+00    0.2344151501E-03
    0.4300000000E+07    0.4113769099E-03    0.6958106148E+00    0.3398382376E-01    0.5810014407E+00    0.2350364038E-03
    0.4500000000E+07    0.3814025141E-03    0.6958100690E+00    0.3277607707E-01    0.5841354995E+00    0.2356309442E-03
    0.4700000000E+07    0.3546198995E-03    0.6958095450E+00    0.3165064009E-01    0.5870497798E+00    0.2362010334E-03
    0.4900000000E+07    0.3305887208E-03    0.6958090409E+00    0.3059939301E-01    0.5897666797E+00    0.2367486557E-03
    0.1000000000E+07    0.3362596389E-02    0.6958267004E+00    0.8573980694E-01    0.4363766336E+00    0.2167366935E-03
    0.3000000000E+07    0.7353161002E-03    0.6958148566E+00    0.4465542836E-01    0.5529813508E+00    0.2303810700E-03
    0.5000000000E+07    0.3194878963E-03    0.6958087959E+00    0.3009934023E-01    0.5910572896E+00    0.2370145968E-03
    0.7000000000E+07    0.1787139559E-03    0.6958046561E+00    0.2267148144E-01    0.6101029185E+00    0.2414879593E-03
    0.9000000000E+07    0.1143123084E-03    0.6958014942E+00    0.1816997022E-01    0.6215402165E+00    0.2448841348E-03
    0.1100000000E+08    0.7948693458E-04    0.6957989285E+00    0.1515195175E-01    0.6291684781E+00    0.2476301804E-03
    0.1300000000E+08    0.5851953004E-04    0.6957967656E+00    0.1298879103E-01    0.6346178005E+00    0.2499396704E-03
    0.1500000000E+08    0.4491088283E-04    0.6957948937E+00    0.1136287283E-01    0.6387043020E+00    0.2519351264E-03
    0.1700000000E+08    0.3557353101E-04    0.6957932421E+00    0.1009648270E-01    0.6418818631E+00    0.2536935043E-03
    0.1900000000E+08    0.2888647305E-04    0.6957917632E+00    0.9082446481E-02    0.6444230262E+00    0.2552663712E-03
    0.2100000000E+08    0.2393162255E-04    0.6957904237E+00    0.8252304095E-02    0.6465013233E+00    0.2566900048E-03
    0.2300000000E+08    0.2015709592E-04    0.6957891987E+00    0.7560284281E-02    0.6482324856E+00    0.2579909146E-03
    0.2500000000E+08    0.1721479796E-04    0.6957880699E+00    0.6974628791E-02    0.6496966536E+00    0.2591890719E-03
    0.2700000000E+08    0.1487628243E-04    0.6957870229E+00    0.6472613615E-02    0.6509510776E+00    0.2602999045E-03
