  Pressure (Pa) 23mC5-500 (mol/kg) 24mC5-500 (mol/kg) 2mC6-500 (mol/kg) 3mC6-500 (mol/kg) C7-500 (mol/kg)
    0.1000000000E+01    0.2875171843E-05    0.6964904501E-01    0.1959550841E-04    0.2318910517E-05    0.4206263488E-02
    0.3000000000E+01    0.6882637451E-05    0.1740745192E+00    0.4542967354E-04    0.5958343106E-05    0.4276726342E-02
    0.5000000000E+01    0.9514072993E-05    0.2486301708E+00    0.6137209949E-04    0.9312325980E-05    0.4325557050E-02
    0.7000000000E+01    0.1133882097E-04    0.3045293319E+00    0.7185935963E-04    0.1252834632E-04    0.4362234268E-02
    0.9000000000E+01    0.1265813956E-04    0.3479966554E+00    0.7914189031E-04    0.1565634058E-04    0.4390905533E-02
    0.1100000000E+02    0.1364519716E-04    0.3827647286E+00    0.8445982676E-04    0.1872134566E-04    0.4413976314E-02
    0.1300000000E+02    0.1440563994E-04    0.4112077628E+00    0.8853675482E-04    0.2173828393E-04    0.4432963715E-02
    0.1500000000E+02    0.1500697407E-04    0.4349080061E+00    0.9181363689E-04    0.2471699856E-04    0.4448876966E-02
    0.1700000000E+02    0.1549397047E-04    0.4549605517E+00    0.9456854189E-04    0.2766443537E-04    0.4462415087E-02
    0.1900000000E+02    0.1589724412E-04    0.4721474299E+00    0.9698165761E-04    0.3058573840E-04    0.4474078220E-02
    0.2100000000E+02    0.1623827212E-04    0.4870420217E+00    0.9917231215E-04    0.3348485869E-04    0.4484233995E-02
    0.2300000000E+02    0.1653245087E-04    0.5000742958E+00    0.1012209018E-03    0.3636491869E-04    0.4493158882E-02
    0.2500000000E+02    0.1679102399E-04    0.5115730086E+00    0.1031823162E-03    0.3922844327E-04    0.4501064927E-02
    0.2700000000E+02    0.1702233463E-04    0.5217938314E+00    0.1050943928E-03    0.4207751291E-04    0.4508117566E-02
    0.2900000000E+02    0.1723266013E-04    0.5309385911E+00    0.1069833733E-03    0.4491386926E-04    0.4514447827E-02
    0.3100000000E+02    0.1742678097E-04    0.5391687363E+00    0.1088674982E-03    0.4773899000E-04    0.4520160875E-02
    0.3300000000E+02    0.1760837639E-04    0.5466149543E+00    0.1107594212E-03    0.5055414346E-04    0.4525342129E-02
    0.3500000000E+02    0.1778030443E-04    0.5533841651E+00    0.1126678554E-03    0.5336042926E-04    0.4530061712E-02
    0.3700000000E+02    0.1794480323E-04    0.5595646892E+00    0.1145987126E-03    0.5615880927E-04    0.4534377747E-02
    0.3900000000E+02    0.1810363798E-04    0.5652301236E+00    0.1165559013E-03    0.5895013148E-04    0.4538338834E-02
    0.4100000000E+02    0.1825820937E-04    0.5704422877E+00    0.1185418917E-03    0.6173514871E-04    0.4541985939E-02
    0.4300000000E+02    0.1840963475E-04    0.5752534882E+00    0.1205581201E-03    0.6451453356E-04    0.4545353841E-02
    0.4500000000E+02    0.1855880942E-04    0.5797082815E+00    0.1226052797E-03    0.6728889035E-04    0.4548472270E-02
    0.4700000000E+02    0.1870645339E-04    0.5838448578E+00    0.1246835318E-03    0.7005876488E-04    0.4551366794E-02
    0.4900000000E+02    0.1885314740E-04    0.5876961388E+00    0.1267926600E-03    0.7282465243E-04    0.4554059531E-02
    0.1000000000E+02    0.1318545410E-04    0.3662962592E+00    0.8199261843E-04    0.1719562730E-04    0.4403031059E-02
    0.3000000000E+02    0.1733149411E-04    0.5351591940E+00    0.1079251431E-03    0.4632775044E-04    0.4517375760E-02
    0.5000000000E+02    0.1892628858E-04    0.5895238608E+00    0.1278586601E-03    0.7420624371E-04    0.4555336339E-02
    0.7000000000E+02    0.2041447240E-04    0.6163610044E+00    0.1506186312E-03    0.1017203534E-03    0.4573848028E-02
    0.9000000000E+02    0.2201945846E-04    0.6323545685E+00    0.1755476528E-03    0.1291794438E-03    0.4584270051E-02
    0.1100000000E+03    0.2375546499E-04    0.6429719204E+00    0.2020117793E-03    0.1567441166E-03    0.4590459471E-02
    0.1300000000E+03    0.2560863771E-04    0.6505337057E+00    0.2296368000E-03    0.1845148777E-03    0.4594108121E-02
    0.1500000000E+03    0.2756408089E-04    0.6561929558E+00    0.2582078596E-03    0.2125624136E-03    0.4596082719E-02
    0.1700000000E+03    0.2961000184E-04    0.6605873873E+00    0.2876002636E-03    0.2409407139E-03    0.4596876455E-02
    0.1900000000E+03    0.3173771944E-04    0.6640983528E+00    0.3177414976E-03    0.2696936587E-03    0.4596792084E-02
    0.2100000000E+03    0.3394101343E-04    0.6669679002E+00    0.3485904658E-03    0.2988586798E-03    0.4596026387E-02
    0.2300000000E+03    0.3621550794E-04    0.6693570582E+00    0.3801257846E-03    0.3284689551E-03    0.4594713074E-02
    0.2500000000E+03    0.3855819858E-04    0.6713771178E+00    0.4123389383E-03    0.3585548051E-03    0.4592946234E-02
    0.2700000000E+03    0.4096710931E-04    0.6731074586E+00    0.4452301376E-03    0.3891446256E-03    0.4590793962E-02
    0.2900000000E+03    0.4344104688E-04    0.6746062215E+00    0.4788057390E-03    0.4202655377E-03    0.4588306657E-02
    0.3100000000E+03    0.4597942487E-04    0.6759169667E+00    0.5130765929E-03    0.4519438570E-03    0.4585522293E-02
    0.3300000000E+03    0.4858213684E-04    0.6770729746E+00    0.5480569664E-03    0.4842054447E-03    0.4582469877E-02
    0.3500000000E+03    0.5124946400E-04    0.6781001091E+00    0.5837638285E-03    0.5170759780E-03    0.4579171795E-02
    0.3700000000E+03    0.5398200761E-04    0.6790187747E+00    0.6202163715E-03    0.5505811650E-03    0.4575645433E-02
    0.3900000000E+03    0.5678063900E-04    0.6798452847E+00    0.6574356899E-03    0.5847469209E-03    0.4571904334E-02
    0.4100000000E+03    0.5964646261E-04    0.6805928374E+00    0.6954445657E-03    0.6195995154E-03    0.4567959031E-02
    0.4300000000E+03    0.6258078848E-04    0.6812722260E+00    0.7342673295E-03    0.6551657011E-03    0.4563817661E-02
    0.4500000000E+03    0.6558511198E-04    0.6818923624E+00    0.7739297732E-03    0.6914728265E-03    0.4559486422E-02
    0.4700000000E+03    0.6866109892E-04    0.6824606699E+00    0.8144591024E-03    0.7285489399E-03    0.4554969922E-02
    0.4900000000E+03    0.7181057484E-04    0.6829833818E+00    0.8558839167E-03    0.7664228844E-03    0.4550271447E-02
    0.1000000000E+03    0.2287181218E-04    0.6381503113E+00    0.1886160496E-03    0.1429413747E-03    0.4587760142E-02
    0.3000000000E+03    0.4470219750E-04    0.6752828143E+00    0.4958534380E-03    0.4360333979E-03    0.4586949616E-02
    0.5000000000E+03    0.7341348345E-04    0.6832293194E+00    0.8769414496E-03    0.7856682970E-03    0.4547854685E-02
    0.7000000000E+03    0.1099018662E-03    0.6866898831E+00    0.1353348678E-02    0.1220417809E-02    0.4490021674E-02
    0.9000000000E+03    0.1570614777E-03    0.6886260191E+00    0.1965240150E-02    0.1778357246E-02    0.4411918866E-02
    0.1100000000E+04    0.2197338919E-03    0.6898627387E+00    0.2776373362E-02    0.2518316749E-02    0.4306840228E-02
    0.1300000000E+04    0.3059719860E-03    0.6907207751E+00    0.3891685830E-02    0.3536781823E-02    0.4162595316E-02
    0.1500000000E+04    0.4295873971E-03    0.6913507890E+00    0.5490870704E-02    0.4999073218E-02    0.3958258011E-02
    0.1700000000E+04    0.6147304510E-03    0.6918328958E+00    0.7888569447E-02    0.7195301374E-02    0.3658293805E-02
    0.1900000000E+04    0.9017302125E-03    0.6922136253E+00    0.1161224536E-01    0.1061387317E-01    0.3207019097E-02
    0.2100000000E+04    0.1340209298E-02    0.6925218495E+00    0.1731831591E-01    0.1586970157E-01    0.2548171565E-02
    0.2300000000E+04    0.1918026130E-02    0.6927764326E+00    0.2487628725E-01    0.2286893185E-01    0.1742966359E-02
    0.2500000000E+04    0.2464518594E-02    0.6929902199E+00    0.3209428799E-01    0.2962025891E-01    0.1082605626E-02
    0.2700000000E+04    0.2834805768E-02    0.6931722613E+00    0.3707688378E-01    0.3436828671E-01    0.7505080339E-03
    0.2900000000E+04    0.3070808626E-02    0.6933291158E+00    0.4034242041E-01    0.3756487996E-01    0.6323168726E-03
    0.3100000000E+04    0.3246743600E-02    0.6934656532E+00    0.4284409661E-01    0.4007633110E-01    0.5969545315E-03
    0.3300000000E+04    0.3398355454E-02    0.6935855653E+00    0.4504387803E-01    0.4232532497E-01    0.5878207584E-03
    0.3500000000E+04    0.3538320928E-02    0.6936917009E+00    0.4710578919E-01    0.4446219600E-01    0.5864595364E-03
    0.3700000000E+04    0.3670858225E-02    0.6937862941E+00    0.4908401466E-01    0.4653629640E-01    0.5873273427E-03
    0.3900000000E+04    0.3797451301E-02    0.6938711211E+00    0.5099710421E-01    0.4856408634E-01    0.5887934125E-03
    0.4100000000E+04    0.3918723588E-02    0.6939476117E+00    0.5285238150E-01    0.5055164635E-01    0.5903813781E-03
    0.4300000000E+04    0.4035023480E-02    0.6940169303E+00    0.5465360309E-01    0.5250177275E-01    0.5919545346E-03
    0.4500000000E+04    0.4146605787E-02    0.6940800340E+00    0.5640334014E-01    0.5441619218E-01    0.5934763230E-03
    0.4700000000E+04    0.4253688381E-02    0.6941377173E+00    0.5810372275E-01    0.5629625504E-01    0.5949396040E-03
    0.4900000000E+04    0.4356470289E-02    0.6941906451E+00    0.5975667661E-01    0.5814315525E-01    0.5963456533E-03
    0.1000000000E+04    0.1860525110E-03    0.6893057985E+00    0.2340599743E-02    0.2120708376E-02    0.4363359101E-02
    0.3000000000E+04    0.3163256110E-02    0.6933996704E+00    0.4164963148E-01    0.3887049628E-01    0.6091773063E-03
    0.5000000000E+04    0.4406307126E-02    0.6942155042E+00    0.6056593413E-01    0.5905451841E-01    0.5970282690E-03
    0.7000000000E+04    0.5217513280E-02    0.6945619904E+00    0.7465212351E-01    0.7578264663E-01    0.6084757407E-03
    0.9000000000E+04    0.5759332566E-02    0.6947525228E+00    0.8557109893E-01    0.9017749982E-01    0.6171292850E-03
    0.1100000000E+05    0.6118412944E-02    0.6948724648E+00    0.9420191767E-01    0.1028042194E+00    0.6241088462E-03
    0.1300000000E+05    0.6350337454E-02    0.6949545729E+00    0.1011301548E+00    0.1140512240E+00    0.6299693374E-03
    0.1500000000E+05    0.6492003530E-02    0.6950140921E+00    0.1067603216E+00    0.1241952226E+00    0.6350272238E-03
    0.1700000000E+05    0.6568606061E-02    0.6950590692E+00    0.1113804390E+00    0.1334393270E+00    0.6394804765E-03
    0.1900000000E+05    0.6597759206E-02    0.6950941484E+00    0.1152009024E+00    0.1419364503E+00    0.6434613645E-03
    0.2100000000E+05    0.6592024094E-02    0.6951221954E+00    0.1183788096E+00    0.1498042408E+00    0.6470627319E-03
    0.2300000000E+05    0.6560510274E-02    0.6951450729E+00    0.1210337106E+00    0.1571349347E+00    0.6503523045E-03
    0.2500000000E+05    0.6509919252E-02    0.6951640434E+00    0.1232581046E+00    0.1640020466E+00    0.6533810328E-03
    0.2700000000E+05    0.6445241316E-02    0.6951799920E+00    0.1251246145E+00    0.1704650270E+00    0.6561882297E-03
    0.2900000000E+05    0.6370230939E-02    0.6951935575E+00    0.1266910028E+00    0.1765725781E+00    0.6588048767E-03
    0.3100000000E+05    0.6287737342E-02    0.6952052123E+00    0.1280037480E+00    0.1823650601E+00    0.6612558314E-03
    0.3300000000E+05    0.6199938248E-02    0.6952153128E+00    0.1291006400E+00    0.1878762695E+00    0.6635613476E-03
    0.3500000000E+05    0.6108507697E-02    0.6952241330E+00    0.1300126944E+00    0.1931347730E+00    0.6657381505E-03
    0.3700000000E+05    0.6014738170E-02    0.6952318870E+00    0.1307655845E+00    0.1981649235E+00    0.6678002145E-03
    0.3900000000E+05    0.5919630551E-02    0.6952387442E+00    0.1313807271E+00    0.2029876437E+00    0.6697593371E-03
    0.4100000000E+05    0.5823961136E-02    0.6952448404E+00    0.1318761151E+00    0.2076210373E+00    0.6716255708E-03
    0.4300000000E+05    0.5728332050E-02    0.6952502859E+00    0.1322669632E+00    0.2120808715E+00    0.6734075522E-03
    0.4500000000E+05    0.5633209521E-02    0.6952551710E+00    0.1325662144E+00    0.2163809614E+00    0.6751127573E-03
    0.4700000000E+05    0.5538953191E-02    0.6952595701E+00    0.1327849395E+00    0.2205334790E+00    0.6767477009E-03
    0.4900000000E+05    0.5445838718E-02    0.6952635455E+00    0.1329326567E+00    0.2245492040E+00    0.6783180957E-03
    0.1000000000E+05    0.5957693347E-02    0.6948186543E+00    0.9013067881E-01    0.9668439345E-01    0.6207858321E-03
    0.3000000000E+05    0.6329769928E-02    0.6951995992E+00    0.1273765405E+00    0.1795059541E+00    0.6600497061E-03
    0.5000000000E+05    0.5399777261E-02    0.6952653910E+00    0.1329825014E+00    0.2265088085E+00    0.6790806850E-03
    0.7000000000E+05    0.4566822140E-02    0.6952892127E+00    0.1317542797E+00    0.2603774556E+00    0.6919047721E-03
    0.9000000000E+05    0.3904677560E-02    0.6952999974E+00    0.1284104216E+00    0.2871706848E+00    0.7016374743E-03
    0.1100000000E+06    0.3381005827E-02    0.6953052859E+00    0.1243778640E+00    0.3094303137E+00    0.7095054902E-03
    0.1300000000E+06    0.2961396909E-02    0.6953078469E+00    0.1201889025E+00    0.3284871381E+00    0.7161218283E-03
    0.1500000000E+06    0.2619843222E-02    0.6953089115E+00    0.1160633287E+00    0.3451369393E+00    0.7218379889E-03
    0.1700000000E+06    0.2337654148E-02    0.6953090988E+00    0.1120942715E+00    0.3598995174E+00    0.7268746787E-03
    0.1900000000E+06    0.2101386946E-02    0.6953087485E+00    0.1083185210E+00    0.3731363510E+00    0.7313797569E-03
    0.2100000000E+06    0.1901236808E-02    0.6953080593E+00    0.1047463867E+00    0.3851107839E+00    0.7354572241E-03
    0.2300000000E+06    0.1729928223E-02    0.6953071530E+00    0.1013754433E+00    0.3960216461E+00    0.7391830675E-03
    0.2500000000E+06    0.1581968837E-02    0.6953061072E+00    0.9819723175E-01    0.4060233560E+00    0.7426145271E-03
    0.2700000000E+06    0.1453144958E-02    0.6953049729E+00    0.9520065223E-01    0.4152386056E+00    0.7457958162E-03
    0.2900000000E+06    0.1340175729E-02    0.6953037843E+00    0.9237371950E-01    0.4237667259E+00    0.7487618093E-03
    0.3100000000E+06    0.1240472115E-02    0.6953025647E+00    0.8970447202E-01    0.4316894067E+00    0.7515405087E-03
    0.3300000000E+06    0.1151966050E-02    0.6953013304E+00    0.8718143192E-01    0.4390747300E+00    0.7541547459E-03
    0.3500000000E+06    0.1072987340E-02    0.6953000927E+00    0.8479382116E-01    0.4459800893E+00    0.7566233848E-03
    0.3700000000E+06    0.1002173582E-02    0.6952988594E+00    0.8253164480E-01    0.4524543491E+00    0.7589621947E-03
    0.3900000000E+06    0.9384032988E-03    0.6952976363E+00    0.8038570188E-01    0.4585394758E+00    0.7611844946E-03
    0.4100000000E+06    0.8807456393E-03    0.6952964271E+00    0.7834755811E-01    0.4642717888E+00    0.7633016374E-03
    0.4300000000E+06    0.8284220847E-03    0.6952952345E+00    0.7640949954E-01    0.4696829363E+00    0.7653233807E-03
    0.4500000000E+06    0.7807769538E-03    0.6952940604E+00    0.7456447813E-01    0.4748006646E+00    0.7672581731E-03
    0.4700000000E+06    0.7372544533E-03    0.6952929060E+00    0.7280605534E-01    0.4796494349E+00    0.7691133795E-03
    0.4900000000E+06    0.6973806474E-03    0.6952917718E+00    0.7112834710E-01    0.4842509197E+00    0.7708954592E-03
    0.1000000000E+06    0.3627867895E-02    0.6953031009E+00    0.1264360032E+00    0.2987667809E+00    0.7057577257E-03
    0.3000000000E+06    0.1288805551E-02    0.6953031772E+00    0.9102011719E-01    0.4277992108E+00    0.7501730386E-03
    0.5000000000E+06    0.6786827029E-03    0.6952912125E+00    0.7031806092E-01    0.4864650416E+00    0.7717608835E-03
    0.7000000000E+06    0.4227912435E-03    0.6952810771E+00    0.5726386837E-01    0.5214977599E+00    0.7863176548E-03
    0.9000000000E+06    0.2898881231E-03    0.6952726469E+00    0.4829063103E-01    0.5450140376E+00    0.7973686816E-03
    0.1100000000E+07    0.2116348397E-03    0.6952654844E+00    0.4174242306E-01    0.5619500948E+00    0.8063039557E-03
    0.1300000000E+07    0.1615377059E-03    0.6952592700E+00    0.3675262195E-01    0.5747482025E+00    0.8138185752E-03
    0.1500000000E+07    0.1274757207E-03    0.6952537845E+00    0.3282390881E-01    0.5847671430E+00    0.8203112810E-03
    0.1700000000E+07    0.1032367263E-03    0.6952488747E+00    0.2965038369E-01    0.5928265726E+00    0.8260325148E-03
    0.1900000000E+07    0.8535989721E-04    0.6952444304E+00    0.2703348758E-01    0.5994514860E+00    0.8311500904E-03
    0.2100000000E+07    0.7178930477E-04    0.6952403700E+00    0.2483868591E-01    0.6049941796E+00    0.8357820630E-03
    0.2300000000E+07    0.6123954884E-04    0.6952366314E+00    0.2297157397E-01    0.6097000684E+00    0.8400146988E-03
    0.2500000000E+07    0.5287271892E-04    0.6952331666E+00    0.2136394624E-01    0.6137454535E+00    0.8439129871E-03
    0.2700000000E+07    0.4612327867E-04    0.6952299376E+00    0.1996529485E-01    0.6172602973E+00    0.8475271308E-03
    0.2900000000E+07    0.4059811902E-04    0.6952269136E+00    0.1873741796E-01    0.6203425317E+00    0.8508967317E-03
    0.3100000000E+07    0.3601699159E-04    0.6952240697E+00    0.1765088676E-01    0.6230673655E+00    0.8540535896E-03
    0.3300000000E+07    0.3217567416E-04    0.6952213851E+00    0.1668266373E-01    0.6254935204E+00    0.8570236331E-03
    0.3500000000E+07    0.2892245567E-04    0.6952188426E+00    0.1581445706E-01    0.6276675177E+00    0.8598282864E-03
    0.3700000000E+07    0.2614270104E-04    0.6952164276E+00    0.1503155866E-01    0.6296266921E+00    0.8624854594E-03
    0.3900000000E+07    0.2374846832E-04    0.6952141275E+00    0.1432200762E-01    0.6314013544E+00    0.8650102794E-03
    0.4100000000E+07    0.2167137076E-04    0.6952119318E+00    0.1367597759E-01    0.6330163695E+00    0.8674156415E-03
    0.4300000000E+07    0.1985757322E-04    0.6952098310E+00    0.1308532110E-01    0.6344923270E+00    0.8697126286E-03
    0.4500000000E+07    0.1826422280E-04    0.6952078172E+00    0.1254322578E-01    0.6358464230E+00    0.8719108373E-03
    0.4700000000E+07    0.1685686195E-04    0.6952058832E+00    0.1204395174E-01    0.6370931310E+00    0.8740186332E-03
    0.4900000000E+07    0.1560752637E-04    0.6952040228E+00    0.1158262861E-01    0.6382447209E+00    0.8760433536E-03
    0.1000000000E+07    0.2460900209E-03    0.6952689300E+00    0.4477936255E-01    0.5541166599E+00    0.8020476803E-03
    0.3000000000E+07    0.3820377231E-04    0.6952254705E+00    0.1817805166E-01    0.6217456249E+00    0.8525000136E-03
    0.5000000000E+07    0.1503479838E-04    0.6952031185E+00    0.1136487466E-01    0.6387881795E+00    0.8770266130E-03
    0.7000000000E+07    0.8030076626E-05    0.6951878304E+00    0.8253082114E-02    0.6465469549E+00    0.8935656161E-03
    0.9000000000E+07    0.5005048216E-05    0.6951761457E+00    0.6472994103E-02    0.6509798975E+00    0.9061216680E-03
    0.1100000000E+08    0.3425596392E-05    0.6951666602E+00    0.5321322733E-02    0.6538463051E+00    0.9162738931E-03
    0.1300000000E+08    0.2496713734E-05    0.6951586616E+00    0.4515642099E-02    0.6558510489E+00    0.9248120043E-03
    0.1500000000E+08    0.1903823336E-05    0.6951517374E+00    0.3920619258E-02    0.6573314568E+00    0.9321890295E-03
    0.1700000000E+08    0.1502033089E-05    0.6951456269E+00    0.3463314640E-02    0.6584691927E+00    0.9386895114E-03
    0.1900000000E+08    0.1216998079E-05    0.6951401549E+00    0.3100953876E-02    0.6593707361E+00    0.9445041164E-03
    0.2100000000E+08    0.1007352399E-05    0.6951351974E+00    0.2806801091E-02    0.6601026185E+00    0.9497669772E-03
    0.2300000000E+08    0.8485786840E-06    0.6951306637E+00    0.2563289208E-02    0.6607085446E+00    0.9545761086E-03
    0.2500000000E+08    0.7253894824E-06    0.6951264853E+00    0.2358401668E-02    0.6612184052E+00    0.9590053514E-03
    0.2700000000E+08    0.6278470129E-06    0.6951226093E+00    0.2183641773E-02    0.6616533332E+00    0.9631117464E-03
