  Pressure (Pa) 23mC5-500 (mol/kg) 24mC5-500 (mol/kg) 2mC6-500 (mol/kg) 3mC6-500 (mol/kg) C7-500 (mol/kg)
    0.1000000000E+01    0.2716460943E-05    0.9949781955E-01    0.6136145833E-05    0.4638250806E-05    0.4204111553E-02
    0.3000000000E+01    0.5994480407E-05    0.2321014087E+00    0.1301118464E-04    0.1191974136E-04    0.4264420965E-02
    0.5000000000E+01    0.7848084001E-05    0.3164503127E+00    0.1659912057E-04    0.1863236534E-04    0.4301586085E-02
    0.7000000000E+01    0.9003828397E-05    0.3748300347E+00    0.1872547102E-04    0.2507094926E-04    0.4327374029E-02
    0.9000000000E+01    0.9778904915E-05    0.4176338627E+00    0.2013672978E-04    0.3133528074E-04    0.4346393660E-02
    0.1100000000E+02    0.1033079043E-04    0.4503617470E+00    0.2117839708E-04    0.3747537547E-04    0.4361025712E-02
    0.1300000000E+02    0.1074491944E-04    0.4761968740E+00    0.2202407348E-04    0.4352103569E-04    0.4372641086E-02
    0.1500000000E+02    0.1107078310E-04    0.4971093224E+00    0.2276617631E-04    0.4949191553E-04    0.4382088545E-02
    0.1700000000E+02    0.1133853317E-04    0.5143836895E+00    0.2345595046E-04    0.5540188151E-04    0.4389922926E-02
    0.1900000000E+02    0.1156728468E-04    0.5288933728E+00    0.2412259549E-04    0.6126120184E-04    0.4396522806E-02
    0.2100000000E+02    0.1176954950E-04    0.5412529118E+00    0.2478300093E-04    0.6707776267E-04    0.4402155651E-02
    0.2300000000E+02    0.1195373314E-04    0.5519072735E+00    0.2544695542E-04    0.7285779607E-04    0.4407015982E-02
    0.2500000000E+02    0.1212560383E-04    0.5611865668E+00    0.2612004945E-04    0.7860634135E-04    0.4411248773E-02
    0.2700000000E+02    0.1228918943E-04    0.5693408567E+00    0.2680534731E-04    0.8432755113E-04    0.4414964364E-02
    0.2900000000E+02    0.1244734248E-04    0.5765630386E+00    0.2750437665E-04    0.9002490197E-04    0.4418248276E-02
    0.3100000000E+02    0.1260210591E-04    0.5830042927E+00    0.2821772709E-04    0.9570134389E-04    0.4421167859E-02
    0.3300000000E+02    0.1275495541E-04    0.5887847822E+00    0.2894541878E-04    0.1013594094E-03    0.4423776907E-02
    0.3500000000E+02    0.1290696328E-04    0.5940012199E+00    0.2968713228E-04    0.1070012946E-03    0.4426118924E-02
    0.3700000000E+02    0.1305891135E-04    0.5987323229E+00    0.3044235327E-04    0.1126289210E-03    0.4428229490E-02
    0.3900000000E+02    0.1321136998E-04    0.6030428116E+00    0.3121046397E-04    0.1182439830E-03    0.4430138002E-02
    0.4100000000E+02    0.1336475411E-04    0.6069863890E+00    0.3199080093E-04    0.1238479856E-03    0.4431868969E-02
    0.4300000000E+02    0.1351936356E-04    0.6106079888E+00    0.3278269116E-04    0.1294422738E-03    0.4433442998E-02
    0.4500000000E+02    0.1367541239E-04    0.6139454955E+00    0.3358547446E-04    0.1350280565E-03    0.4434877546E-02
    0.4700000000E+02    0.1383305036E-04    0.6170310746E+00    0.3439851657E-04    0.1406064262E-03    0.4436187503E-02
    0.4900000000E+02    0.1399237890E-04    0.6198922121E+00    0.3522121664E-04    0.1461783748E-03    0.4437385656E-02
    0.1000000000E+02    0.1007627979E-04    0.4350210268E+00    0.2069031021E-04    0.3441868172E-04    0.4354156348E-02
    0.3000000000E+02    0.1252504459E-04    0.5798731455E+00    0.2785925034E-04    0.9286556954E-04    0.4419749972E-02
    0.5000000000E+02    0.1407269860E-04    0.6212461309E+00    0.3563601073E-04    0.1489622270E-03    0.4437946317E-02
    0.7000000000E+02    0.1577256212E-04    0.6408413302E+00    0.4432247019E-04    0.2044859760E-03    0.4445317031E-02
    0.9000000000E+02    0.1763234482E-04    0.6522707862E+00    0.5354546166E-04    0.2600588861E-03    0.4448305063E-02
    0.1100000000E+03    0.1961991327E-04    0.6597584234E+00    0.6313583721E-04    0.3160075312E-03    0.4449007444E-02
    0.1300000000E+03    0.2171170381E-04    0.6650433907E+00    0.7301665082E-04    0.3725395877E-03    0.4448324868E-02
    0.1500000000E+03    0.2389265613E-04    0.6689729276E+00    0.8315198090E-04    0.4298040858E-03    0.4446712862E-02
    0.1700000000E+03    0.2615334476E-04    0.6720091483E+00    0.9352570865E-04    0.4879175165E-03    0.4444428131E-02
    0.1900000000E+03    0.2848794168E-04    0.6744255405E+00    0.1041320587E-03    0.5469769422E-03    0.4441626820E-02
    0.2100000000E+03    0.3089295737E-04    0.6763942954E+00    0.1149710487E-03    0.6070672946E-03    0.4438409374E-02
    0.2300000000E+03    0.3336647067E-04    0.6780292315E+00    0.1260461557E-03    0.6682657622E-03    0.4434843155E-02
    0.2500000000E+03    0.3590764947E-04    0.6794085969E+00    0.1373630559E-03    0.7306445978E-03    0.4430974753E-02
    0.2700000000E+03    0.3851644517E-04    0.6805879577E+00    0.1489289172E-03    0.7942730090E-03    0.4426837110E-02
    0.2900000000E+03    0.4119339352E-04    0.6816078613E+00    0.1607519903E-03    0.8592184916E-03    0.4422453842E-02
    0.3100000000E+03    0.4393948224E-04    0.6824985892E+00    0.1728413693E-03    0.9255478099E-03    0.4417841985E-02
    0.3300000000E+03    0.4675606146E-04    0.6832832124E+00    0.1852068520E-03    0.9933277449E-03    0.4413013788E-02
    0.3500000000E+03    0.4964478271E-04    0.6839796170E+00    0.1978588596E-03    0.1062625690E-02    0.4407977924E-02
    0.3700000000E+03    0.5260755707E-04    0.6846018832E+00    0.2108083957E-03    0.1133510137E-02    0.4402740330E-02
    0.3900000000E+03    0.5564652659E-04    0.6851612465E+00    0.2240670289E-03    0.1206051099E-02    0.4397304796E-02
    0.4100000000E+03    0.5876404532E-04    0.6856667815E+00    0.2376468930E-03    0.1280320470E-02    0.4391673394E-02
    0.4300000000E+03    0.6196266702E-04    0.6861258975E+00    0.2515606976E-03    0.1356392363E-02    0.4385846783E-02
    0.4500000000E+03    0.6524513813E-04    0.6865447039E+00    0.2658217486E-03    0.1434343419E-02    0.4379824442E-02
    0.4700000000E+03    0.6861439451E-04    0.6869282830E+00    0.2804439737E-03    0.1514253105E-02    0.4373604838E-02
    0.4900000000E+03    0.7207356132E-04    0.6872808974E+00    0.2954419542E-03    0.1596204004E-02    0.4367185555E-02
    0.1000000000E+03    0.1861186393E-04    0.6563678702E+00    0.5830088033E-04    0.2879714355E-03    0.4448870495E-02
    0.3000000000E+03    0.4255771862E-04    0.6820677889E+00    0.1667627945E-03    0.8922060055E-03    0.4420175626E-02
    0.5000000000E+03    0.7383789003E-04    0.6874467407E+00    0.3030865969E-03    0.1637971640E-02    0.4363900060E-02
    0.7000000000E+03    0.1147826945E-03    0.6897760271E+00    0.4799337964E-03    0.2604084524E-02    0.4286527645E-02
    0.9000000000E+03    0.1701679393E-03    0.6910757314E+00    0.7184921280E-03    0.3908171172E-02    0.4181138826E-02
    0.1100000000E+04    0.2483500592E-03    0.6919045995E+00    0.1055064612E-02    0.5750315896E-02    0.4033561294E-02
    0.1300000000E+04    0.3645473446E-03    0.6924790532E+00    0.1555583887E-02    0.8494071927E-02    0.3817904822E-02
    0.1500000000E+04    0.5475059273E-03    0.6929005205E+00    0.2344764134E-02    0.1282870062E-01    0.3486778161E-02
    0.1700000000E+04    0.8494478375E-03    0.6932228514E+00    0.3650120975E-02    0.2001737967E-01    0.2959821495E-02
    0.1900000000E+04    0.1333985529E-02    0.6934772842E+00    0.5752727521E-02    0.3164322927E-01    0.2160777859E-02
    0.2100000000E+04    0.1944395432E-02    0.6936831855E+00    0.8420061876E-02    0.4649884825E-01    0.1251920349E-02
    0.2300000000E+04    0.2428292442E-02    0.6938531993E+00    0.1056581619E-01    0.5862912552E-01    0.6739503235E-03
    0.2500000000E+04    0.2716122383E-02    0.6939959308E+00    0.1187826227E-01    0.6625462375E-01    0.4666368810E-03
    0.2700000000E+04    0.2909740706E-02    0.6941174393E+00    0.1279064345E-01    0.7172162359E-01    0.4118501046E-03
    0.2900000000E+04    0.3070057913E-02    0.6942221145E+00    0.1356495454E-01    0.7646606520E-01    0.3994804212E-03
    0.3100000000E+04    0.3216554491E-02    0.6943132148E+00    0.1428521519E-01    0.8095001764E-01    0.3975838869E-03
    0.3300000000E+04    0.3354678025E-02    0.6943932091E+00    0.1497474438E-01    0.8530095956E-01    0.3981648438E-03
    0.3500000000E+04    0.3486048475E-02    0.6944640026E+00    0.1564022989E-01    0.8955424306E-01    0.3992896712E-03
    0.3700000000E+04    0.3611286588E-02    0.6945270886E+00    0.1628401260E-01    0.9372108853E-01    0.4004959515E-03
    0.3900000000E+04    0.3730747318E-02    0.6945836541E+00    0.1690728766E-01    0.9780639609E-01    0.4016761668E-03
    0.4100000000E+04    0.3844707700E-02    0.6946346548E+00    0.1751092771E-01    0.1018133457E+00    0.4028083501E-03
    0.4300000000E+04    0.3953415364E-02    0.6946808684E+00    0.1809569553E-01    0.1057445876E+00    0.4038908914E-03
    0.4500000000E+04    0.4057101505E-02    0.6947229344E+00    0.1866230027E-01    0.1096025548E+00    0.4049267068E-03
    0.4700000000E+04    0.4155984733E-02    0.6947613834E+00    0.1921141347E-01    0.1133895481E+00    0.4059194202E-03
    0.4900000000E+04    0.4250272552E-02    0.6947966593E+00    0.1974367447E-01    0.1171077634E+00    0.4068724800E-03
    0.1000000000E+04    0.2056758430E-03    0.6915314586E+00    0.8713483655E-03    0.4744473305E-02    0.4113881167E-02
    0.3000000000E+04    0.3144541727E-02    0.6942691918E+00    0.1392972572E-01    0.7872899424E-01    0.3979676399E-03
    0.5000000000E+04    0.4295755200E-02    0.6948132266E+00    0.2000367707E-01    0.1189417393E+00    0.4073351244E-03
    0.7000000000E+04    0.5007221117E-02    0.6950440602E+00    0.2445331660E-01    0.1524767551E+00    0.4151009514E-03
    0.9000000000E+04    0.5432494867E-02    0.6951709155E+00    0.2776482152E-01    0.1810532743E+00    0.4209804563E-03
    0.1100000000E+05    0.5666934544E-02    0.6952507308E+00    0.3025201240E-01    0.2058112317E+00    0.4257268968E-03
    0.1300000000E+05    0.5772299227E-02    0.6953053441E+00    0.3212805739E-01    0.2275536042E+00    0.4297146683E-03
    0.1500000000E+05    0.5789620918E-02    0.6953449150E+00    0.3354218262E-01    0.2468637323E+00    0.4331577341E-03
    0.1700000000E+05    0.5746732807E-02    0.6953748049E+00    0.3460154140E-01    0.2641766704E+00    0.4361901357E-03
    0.1900000000E+05    0.5662835675E-02    0.6953981071E+00    0.3538476217E-01    0.2798242977E+00    0.4389015239E-03
    0.2100000000E+05    0.5551355128E-02    0.6954167300E+00    0.3595062824E-01    0.2940648073E+00    0.4413548779E-03
    0.2300000000E+05    0.5421777795E-02    0.6954319138E+00    0.3634380296E-01    0.3071025517E+00    0.4435961676E-03
    0.2500000000E+05    0.5280858974E-02    0.6954444990E+00    0.3659870368E-01    0.3191017423E+00    0.4456599940E-03
    0.2700000000E+05    0.5133433085E-02    0.6954550748E+00    0.3674218257E-01    0.3301961229E+00    0.4475730662E-03
    0.2900000000E+05    0.4982967266E-02    0.6954640662E+00    0.3679541928E-01    0.3404959386E+00    0.4493564404E-03
    0.3100000000E+05    0.4831945459E-02    0.6954717876E+00    0.3677528119E-01    0.3500930488E+00    0.4510270159E-03
    0.3300000000E+05    0.4682138562E-02    0.6954784760E+00    0.3669531687E-01    0.3590647385E+00    0.4525985657E-03
    0.3500000000E+05    0.4534796778E-02    0.6954843138E+00    0.3656649209E-01    0.3674766036E+00    0.4540824658E-03
    0.3700000000E+05    0.4390788031E-02    0.6954894433E+00    0.3639774241E-01    0.3753847637E+00    0.4554882229E-03
    0.3900000000E+05    0.4250698521E-02    0.6954939772E+00    0.3619639296E-01    0.3828375797E+00    0.4568238645E-03
    0.4100000000E+05    0.4114906377E-02    0.6954980058E+00    0.3596848086E-01    0.3898770039E+00    0.4580962316E-03
    0.4300000000E+05    0.3983636000E-02    0.6955016024E+00    0.3571900530E-01    0.3965396503E+00    0.4593112024E-03
    0.4500000000E+05    0.3856998400E-02    0.6955048270E+00    0.3545212329E-01    0.4028576528E+00    0.4604738659E-03
    0.4700000000E+05    0.3735021300E-02    0.6955077292E+00    0.3517130417E-01    0.4088593586E+00    0.4615886573E-03
    0.4900000000E+05    0.3617671687E-02    0.6955103502E+00    0.3487945263E-01    0.4145698937E+00    0.4626594663E-03
    0.1000000000E+05    0.5569106585E-02    0.6952149274E+00    0.2909629896E-01    0.1938531555E+00    0.4234666681E-03
    0.3000000000E+05    0.4907401034E-02    0.6954680693E+00    0.3679360719E-01    0.3453771976E+00    0.4502049036E-03
    0.5000000000E+05    0.3560709529E-02    0.6955115664E+00    0.3473016764E-01    0.4173230593E+00    0.4631794651E-03
    0.7000000000E+05    0.2634396073E-02    0.6955272143E+00    0.3158418559E-01    0.4614295618E+00    0.4719248999E-03
    0.9000000000E+05    0.2014241826E-02    0.6955342322E+00    0.2861264521E-01    0.4917532077E+00    0.4785630331E-03
    0.1100000000E+06    0.1586258242E-02    0.6955376215E+00    0.2602045524E-01    0.5140526562E+00    0.4839297827E-03
    0.1300000000E+06    0.1280423571E-02    0.6955392157E+00    0.2379853267E-01    0.5312089846E+00    0.4884429964E-03
    0.1500000000E+06    0.1054909958E-02    0.6955398286E+00    0.2189473888E-01    0.5448484437E+00    0.4923423117E-03
    0.1700000000E+06    0.8840764610E-03    0.6955398687E+00    0.2025495994E-01    0.5559672790E+00    0.4957782150E-03
    0.1900000000E+06    0.7516522402E-03    0.6955395599E+00    0.1883260839E-01    0.5652133549E+00    0.4988515313E-03
    0.2100000000E+06    0.6469589718E-03    0.6955390325E+00    0.1758969960E-01    0.5730277300E+00    0.5016331837E-03
    0.2300000000E+06    0.5627713716E-03    0.6955383664E+00    0.1649577246E-01    0.5797218084E+00    0.5041749937E-03
    0.2500000000E+06    0.4940661970E-03    0.6955376125E+00    0.1552645579E-01    0.5855220917E+00    0.5065159997E-03
    0.2700000000E+06    0.4372664075E-03    0.6955368038E+00    0.1466217784E-01    0.5905974674E+00    0.5086863568E-03
    0.2900000000E+06    0.3897701851E-03    0.6955359625E+00    0.1388712067E-01    0.5950765440E+00    0.5107098512E-03
    0.3100000000E+06    0.3496490577E-03    0.6955351038E+00    0.1318840462E-01    0.5990590487E+00    0.5126055826E-03
    0.3300000000E+06    0.3154494024E-03    0.6955342380E+00    0.1255546084E-01    0.6026235428E+00    0.5143891240E-03
    0.3500000000E+06    0.2860588798E-03    0.6955333724E+00    0.1197954978E-01    0.6058327787E+00    0.5160733425E-03
    0.3700000000E+06    0.2606146689E-03    0.6955325119E+00    0.1145339074E-01    0.6087375012E+00    0.5176689945E-03
    0.3900000000E+06    0.2384392180E-03    0.6955316601E+00    0.1097087522E-01    0.6113791986E+00    0.5191851652E-03
    0.4100000000E+06    0.2189944857E-03    0.6955308193E+00    0.1052684387E-01    0.6137921284E+00    0.5206295988E-03
    0.4300000000E+06    0.2018488365E-03    0.6955299912E+00    0.1011691142E-01    0.6160048308E+00    0.5220089513E-03
    0.4500000000E+06    0.1866527483E-03    0.6955291769E+00    0.9737328426E-02    0.6180412771E+00    0.5233289859E-03
    0.4700000000E+06    0.1731207504E-03    0.6955283770E+00    0.9384871219E-02    0.6199217509E+00    0.5245947265E-03
    0.4900000000E+06    0.1610178326E-03    0.6955275918E+00    0.9056753682E-02    0.6216635326E+00    0.5258105796E-03
    0.1000000000E+06    0.1781451660E-02    0.6955362296E+00    0.2726777293E-01    0.5036851232E+00    0.4813734034E-03
    0.3000000000E+06    0.3688879015E-03    0.6955355346E+00    0.1352892845E-01    0.5971245336E+00    0.5116726422E-03
    0.5000000000E+06    0.1554400386E-03    0.6955272048E+00    0.8901053458E-02    0.6224871274E+00    0.5264010308E-03
    0.7000000000E+06    0.8552113303E-04    0.6955202104E+00    0.6617483469E-02    0.6343626106E+00    0.5363327752E-03
    0.9000000000E+06    0.5415163228E-04    0.6955144099E+00    0.5260818759E-02    0.6412518172E+00    0.5438727727E-03
    0.1100000000E+07    0.3740255144E-04    0.6955094888E+00    0.4362998183E-02    0.6457499911E+00    0.5499692919E-03
    0.1300000000E+07    0.2740763541E-04    0.6955052227E+00    0.3725340748E-02    0.6489174719E+00    0.5550965501E-03
    0.1500000000E+07    0.2096288260E-04    0.6955014590E+00    0.3249284359E-02    0.6512684020E+00    0.5595265858E-03
    0.1700000000E+07    0.1656299574E-04    0.6954980915E+00    0.2880421509E-02    0.6530823103E+00    0.5634302634E-03
    0.1900000000E+07    0.1342434183E-04    0.6954950440E+00    0.2586279916E-02    0.6545242298E+00    0.5669220754E-03
    0.2100000000E+07    0.1110606983E-04    0.6954922603E+00    0.2346287269E-02    0.6556978709E+00    0.5700825670E-03
    0.2300000000E+07    0.9344614701E-05    0.6954896976E+00    0.2146780942E-02    0.6566716803E+00    0.5729705948E-03
    0.2500000000E+07    0.7974483003E-05    0.6954873228E+00    0.1978333520E-02    0.6574926526E+00    0.5756304995E-03
    0.2700000000E+07    0.6887475891E-05    0.6954851098E+00    0.1834230771E-02    0.6581941228E+00    0.5780965333E-03
    0.2900000000E+07    0.6010414944E-05    0.6954830374E+00    0.1709561699E-02    0.6588003922E+00    0.5803957159E-03
    0.3100000000E+07    0.5292358814E-05    0.6954810885E+00    0.1600651638E-02    0.6593295937E+00    0.5825497436E-03
    0.3300000000E+07    0.4696953527E-05    0.6954792488E+00    0.1504696474E-02    0.6597955319E+00    0.5845763072E-03
    0.3500000000E+07    0.4197687658E-05    0.6954775066E+00    0.1419519422E-02    0.6602089014E+00    0.5864900242E-03
    0.3700000000E+07    0.3774856293E-05    0.6954758517E+00    0.1343404997E-02    0.6605781160E+00    0.5883031143E-03
    0.3900000000E+07    0.3413564671E-05    0.6954742756E+00    0.1274983043E-02    0.6609098854E+00    0.5900258988E-03
    0.4100000000E+07    0.3102383477E-05    0.6954727709E+00    0.1213146057E-02    0.6612096263E+00    0.5916671759E-03
    0.4300000000E+07    0.2832423425E-05    0.6954713314E+00    0.1156989168E-02    0.6614817587E+00    0.5932345075E-03
    0.4500000000E+07    0.2596686035E-05    0.6954699514E+00    0.1105765857E-02    0.6617299259E+00    0.5947344413E-03
    0.4700000000E+07    0.2389600222E-05    0.6954686261E+00    0.1058854787E-02    0.6619571571E+00    0.5961726850E-03
    0.4900000000E+07    0.2206686266E-05    0.6954673513E+00    0.1015734636E-02    0.6621659920E+00    0.5975542451E-03
    0.1000000000E+07    0.4461212276E-04    0.6955118555E+00    0.4770393660E-02    0.6437146310E+00    0.5470652358E-03
    0.3000000000E+07    0.5634059171E-05    0.6954820485E+00    0.1653329140E-02    0.6590736788E+00    0.5814896869E-03
    0.5000000000E+07    0.2123130042E-05    0.6954667315E+00    0.9954557400E-03    0.6622641944E+00    0.5982251692E-03
    0.7000000000E+07    0.1117545353E-05    0.6954562540E+00    0.7108035836E-03    0.6636422226E+00    0.6095105900E-03
    0.9000000000E+07    0.6938045206E-06    0.6954482442E+00    0.5521891354E-03    0.6644101245E+00    0.6180783389E-03
    0.1100000000E+08    0.4754990964E-06    0.6954417403E+00    0.4511606238E-03    0.6648994975E+00    0.6250058761E-03
    0.1300000000E+08    0.3481170416E-06    0.6954362546E+00    0.3812141151E-03    0.6652385468E+00    0.6308320399E-03
    0.1500000000E+08    0.2671890417E-06    0.6954315047E+00    0.3299378823E-03    0.6654872791E+00    0.6358659438E-03
    0.1700000000E+08    0.2124890754E-06    0.6954273120E+00    0.2907481057E-03    0.6656775218E+00    0.6403017401E-03
    0.1900000000E+08    0.1737314470E-06    0.6954235566E+00    0.2598288132E-03    0.6658277240E+00    0.6442695275E-03
    0.2100000000E+08    0.1452306812E-06    0.6954201537E+00    0.2348162627E-03    0.6659493162E+00    0.6478608297E-03
    0.2300000000E+08    0.1236336810E-06    0.6954170411E+00    0.2141684102E-03    0.6660497574E+00    0.6511425264E-03
    0.2500000000E+08    0.1068575606E-06    0.6954141719E+00    0.1968365626E-03    0.6661341220E+00    0.6541650024E-03
    0.2700000000E+08    0.9355223747E-07    0.6954115098E+00    0.1820827823E-03    0.6662059817E+00    0.6569671793E-03
