  Pressure (Pa) 23mC5-500 (mol/kg) 24mC5-500 (mol/kg) 2mC6-500 (mol/kg) 3mC6-500 (mol/kg) C7-500 (mol/kg)
    0.1000000000E+01    0.2513628927E-05    0.1514032901E+00    0.2300000243E-04    0.2041669244E-05    0.4146262803E-02
    0.3000000000E+01    0.4894393503E-05    0.3164919558E+00    0.4287286361E-04    0.5038890461E-05    0.4172220389E-02
    0.5000000000E+01    0.5999916878E-05    0.4047650503E+00    0.5172990777E-04    0.7756449981E-05    0.4179557081E-02
    0.7000000000E+01    0.6634026572E-05    0.4597186256E+00    0.5718988739E-04    0.1034206005E-04    0.4183135750E-02
    0.9000000000E+01    0.7059003195E-05    0.4972234077E+00    0.6144980187E-04    0.1284451902E-04    0.4185151289E-02
    0.1100000000E+02    0.7380893744E-05    0.5244516107E+00    0.6528174280E-04    0.1528797378E-04    0.4186342160E-02
    0.1300000000E+02    0.7648675331E-05    0.5451182469E+00    0.6898776147E-04    0.1768668509E-04    0.4187039535E-02
    0.1500000000E+02    0.7887106026E-05    0.5613402064E+00    0.7269193184E-04    0.2004999382E-04    0.4187416859E-02
    0.1700000000E+02    0.8109529754E-05    0.5744121743E+00    0.7644469239E-04    0.2238445390E-04    0.4187574511E-02
    0.1900000000E+02    0.8323478431E-05    0.5851704896E+00    0.8026432221E-04    0.2469489602E-04    0.4187574848E-02
    0.2100000000E+02    0.8533344605E-05    0.5941794867E+00    0.8415472145E-04    0.2698501537E-04    0.4187458729E-02
    0.2300000000E+02    0.8741745351E-05    0.6018337629E+00    0.8811344555E-04    0.2925772174E-04    0.4187254070E-02
    0.2500000000E+02    0.8950256706E-05    0.6084175324E+00    0.9213545821E-04    0.3151536057E-04    0.4186980601E-02
    0.2700000000E+02    0.9159826791E-05    0.6141407015E+00    0.9621490831E-04    0.3375985901E-04    0.4186652656E-02
    0.2900000000E+02    0.9371016687E-05    0.6191616639E+00    0.1003459619E-03    0.3599282621E-04    0.4186280902E-02
    0.3100000000E+02    0.9584145103E-05    0.6236021894E+00    0.1045231715E-03    0.3821562425E-04    0.4185873434E-02
    0.3300000000E+02    0.9799377429E-05    0.6275574311E+00    0.1087416174E-03    0.4042941972E-04    0.4185436503E-02
    0.3500000000E+02    0.1001678168E-04    0.6311028207E+00    0.1129969370E-03    0.4263522209E-04    0.4184975011E-02
    0.3700000000E+02    0.1023636422E-04    0.6342989265E+00    0.1172853013E-03    0.4483391277E-04    0.4184492851E-02
    0.3900000000E+02    0.1045809285E-04    0.6371949427E+00    0.1216033689E-03    0.4702626751E-04    0.4183993153E-02
    0.4100000000E+02    0.1068191191E-04    0.6398312389E+00    0.1259482330E-03    0.4921297397E-04    0.4183478459E-02
    0.4300000000E+02    0.1090775219E-04    0.6422412548E+00    0.1303173679E-03    0.5139464561E-04    0.4182950853E-02
    0.4500000000E+02    0.1113553741E-04    0.6444529255E+00    0.1347085801E-03    0.5357183294E-04    0.4182412061E-02
    0.4700000000E+02    0.1136518856E-04    0.6464897693E+00    0.1391199636E-03    0.5574503252E-04    0.4181863517E-02
    0.4900000000E+02    0.1159662661E-04    0.6483717280E+00    0.1435498609E-03    0.5791469444E-04    0.4181306428E-02
    0.1000000000E+02    0.7228971422E-05    0.5118386632E+00    0.6339423835E-04    0.1407257827E-04    0.4185823809E-02
    0.3000000000E+02    0.9477325428E-05    0.6214480032E+00    0.1024291177E-03    0.3710541938E-04    0.4186081205E-02
    0.5000000000E+02    0.1171299150E-04    0.6492600434E+00    0.1457712939E-03    0.5899832828E-04    0.4181025003E-02
    0.7000000000E+02    0.1411727383E-04    0.6619573730E+00    0.1909079893E-03    0.8056828557E-04    0.4175127152E-02
    0.9000000000E+02    0.1663557749E-04    0.6692286968E+00    0.2370344223E-03    0.1020953908E-03    0.4168948568E-02
    0.1100000000E+03    0.1923967753E-04    0.6739397820E+00    0.2839444864E-03    0.1237243869E-03    0.4162630590E-02
    0.1300000000E+03    0.2191608083E-04    0.6772404019E+00    0.3316023136E-03    0.1455459336E-03    0.4156217464E-02
    0.1500000000E+03    0.2465840507E-04    0.6796815033E+00    0.3800282301E-03    0.1676241099E-03    0.4149722747E-02
    0.1700000000E+03    0.2746390171E-04    0.6815601463E+00    0.4292627871E-03    0.1900082607E-03    0.4143148485E-02
    0.1900000000E+03    0.3033181317E-04    0.6830506419E+00    0.4793540152E-03    0.2127389161E-03    0.4136491956E-02
    0.2100000000E+03    0.3326254695E-04    0.6842620176E+00    0.5303526294E-03    0.2358510705E-03    0.4129748341E-02
    0.2300000000E+03    0.3625723648E-04    0.6852659636E+00    0.5823102350E-03    0.2593761457E-03    0.4122911876E-02
    0.2500000000E+03    0.3931749644E-04    0.6861115552E+00    0.6352787419E-03    0.2833432404E-03    0.4115976368E-02
    0.2700000000E+03    0.4244528174E-04    0.6868335188E+00    0.6893102815E-03    0.3077799659E-03    0.4108935433E-02
    0.2900000000E+03    0.4564280410E-04    0.6874571186E+00    0.7444573334E-03    0.3327130331E-03    0.4101782594E-02
    0.3100000000E+03    0.4891248227E-04    0.6880011738E+00    0.8007729338E-03    0.3581686782E-03    0.4094511321E-02
    0.3300000000E+03    0.5225691238E-04    0.6884799911E+00    0.8583109119E-03    0.3841729864E-03    0.4087115036E-02
    0.3500000000E+03    0.5567885102E-04    0.6889046400E+00    0.9171261296E-03    0.4107521449E-03    0.4079587102E-02
    0.3700000000E+03    0.5918120634E-04    0.6892838199E+00    0.9772747168E-03    0.4379326483E-03    0.4071920801E-02
    0.3900000000E+03    0.6276703462E-04    0.6896244622E+00    0.1038814298E-02    0.4657414710E-03    0.4064109318E-02
    0.4100000000E+03    0.6643954051E-04    0.6899321573E+00    0.1101804211E-02    0.4942062167E-03    0.4056145711E-02
    0.4300000000E+03    0.7020207994E-04    0.6902114644E+00    0.1166305723E-02    0.5233552519E-03    0.4048022891E-02
    0.4500000000E+03    0.7405816502E-04    0.6904661386E+00    0.1232382240E-02    0.5532178279E-03    0.4039733593E-02
    0.4700000000E+03    0.7801147043E-04    0.6906993005E+00    0.1300099515E-02    0.5838241962E-03    0.4031270357E-02
    0.4900000000E+03    0.8206584112E-04    0.6909135652E+00    0.1369525859E-02    0.6152057193E-03    0.4022625498E-02
    0.1000000000E+03    0.1792797388E-04    0.6718115999E+00    0.2603957743E-03    0.1128906577E-03    0.4165803131E-02
    0.3000000000E+03    0.4726846536E-04    0.6877381068E+00    0.7724657221E-03    0.3453739028E-03    0.4098162171E-02
    0.5000000000E+03    0.8413217617E-04    0.6910143147E+00    0.1404902032E-02    0.6311972952E-03    0.4018232493E-02
    0.7000000000E+03    0.1318755612E-03    0.6924278176E+00    0.2221594184E-02    0.1000616512E-02    0.3918706582E-02
    0.9000000000E+03    0.1960251734E-03    0.6932154902E+00    0.3318656033E-02    0.1497546692E-02    0.3789288218E-02
    0.1100000000E+04    0.2858321840E-03    0.6937175943E+00    0.4855597215E-02    0.2194810164E-02    0.3613650954E-02
    0.1300000000E+04    0.4174185662E-03    0.6940655755E+00    0.7110391031E-02    0.3219532405E-02    0.3364515839E-02
    0.1500000000E+04    0.6190884123E-03    0.6943209410E+00    0.1057225977E-01    0.4796124484E-02    0.2996570645E-02
    0.1700000000E+04    0.9354655697E-03    0.6945163138E+00    0.1601689710E-01    0.7282539950E-02    0.2445779406E-02
    0.1900000000E+04    0.1403804463E-02    0.6946706059E+00    0.2410800455E-01    0.1099269915E-01    0.1683642860E-02
    0.2100000000E+04    0.1953587271E-02    0.6947955368E+00    0.3367044045E-01    0.1540835776E-01    0.8848606987E-03
    0.2300000000E+04    0.2400061164E-02    0.6948987556E+00    0.4153636687E-01    0.1908853280E-01    0.3648947153E-03
    0.2500000000E+04    0.2690301946E-02    0.6949854670E+00    0.4676411923E-01    0.2158866851E-01    0.1487332403E-03
    0.2700000000E+04    0.2892737212E-02    0.6950593353E+00    0.5050775379E-01    0.2342475355E-01    0.7842709345E-04
    0.2900000000E+04    0.3058695881E-02    0.6951230155E+00    0.5364392755E-01    0.2499408380E-01    0.5755162295E-04
    0.3100000000E+04    0.3208606899E-02    0.6951784776E+00    0.5652274523E-01    0.2645594712E-01    0.5156609638E-04
    0.3300000000E+04    0.3349379060E-02    0.6952272149E+00    0.5926222428E-01    0.2786390392E-01    0.4992984268E-04
    0.3500000000E+04    0.3483366515E-02    0.6952703795E+00    0.6190185502E-01    0.2923557189E-01    0.4955783199E-04
    0.3700000000E+04    0.3611486243E-02    0.6953088746E+00    0.6445629823E-01    0.3057717408E-01    0.4955214258E-04
    0.3900000000E+04    0.3734201890E-02    0.6953434182E+00    0.6693240792E-01    0.3189135805E-01    0.4965020147E-04
    0.4100000000E+04    0.3851827196E-02    0.6953745884E+00    0.6933450042E-01    0.3317962587E-01    0.4977480057E-04
    0.4300000000E+04    0.3964619744E-02    0.6954028558E+00    0.7166598548E-01    0.3444308806E-01    0.4990326461E-04
    0.4500000000E+04    0.4072810494E-02    0.6954286073E+00    0.7392987816E-01    0.3568269983E-01    0.5002909820E-04
    0.4700000000E+04    0.4176613547E-02    0.6954521641E+00    0.7612896548E-01    0.3689933695E-01    0.5015063169E-04
    0.4900000000E+04    0.4276229770E-02    0.6954737948E+00    0.7826586542E-01    0.3809382152E-01    0.5026762682E-04
    0.1000000000E+04    0.2369259271E-03    0.6934915671E+00    0.4018432783E-02    0.1814873566E-02    0.3708619881E-02
    0.3000000000E+04    0.3135055598E-02    0.6951516712E+00    0.5510520281E-01    0.2573376317E-01    0.5364104273E-04
    0.5000000000E+04    0.4324527400E-02    0.6954839602E+00    0.7931177344E-01    0.3868300140E-01    0.5032447027E-04
    0.7000000000E+04    0.5111422475E-02    0.6956261666E+00    0.9750156379E-01    0.4947355289E-01    0.5127996006E-04
    0.9000000000E+04    0.5641058876E-02    0.6957050243E+00    0.1116191819E+00    0.5873539966E-01    0.5200426812E-04
    0.1100000000E+05    0.5998352943E-02    0.6957551049E+00    0.1228343622E+00    0.6685476489E-01    0.5258940183E-04
    0.1300000000E+05    0.6236669985E-02    0.6957897023E+00    0.1319108693E+00    0.7409207722E-01    0.5308123260E-04
    0.1500000000E+05    0.6390884070E-02    0.6958150179E+00    0.1393681081E+00    0.8063010474E-01    0.5350601844E-04
    0.1700000000E+05    0.6484525014E-02    0.6958343333E+00    0.1455713429E+00    0.8660140618E-01    0.5388022769E-04
    0.1900000000E+05    0.6533895032E-02    0.6958495473E+00    0.1507847567E+00    0.9210481303E-01    0.5421488385E-04
    0.2100000000E+05    0.6550543108E-02    0.6958618348E+00    0.1552040406E+00    0.9721575886E-01    0.5451773571E-04
    0.2300000000E+05    0.6542806743E-02    0.6958719613E+00    0.1589771605E+00    0.1019929918E+00    0.5479444203E-04
    0.2500000000E+05    0.6516802670E-02    0.6958804474E+00    0.1622180132E+00    0.1064830748E+00    0.5504926382E-04
    0.2700000000E+05    0.6477080687E-02    0.6958876588E+00    0.1650156565E+00    0.1107234846E+00    0.5528549127E-04
    0.2900000000E+05    0.6427065330E-02    0.6958938603E+00    0.1674406983E+00    0.1147447982E+00    0.5550571892E-04
    0.3100000000E+05    0.6369360424E-02    0.6958992485E+00    0.1695498152E+00    0.1185722662E+00    0.5571202959E-04
    0.3300000000E+05    0.6305962932E-02    0.6959039718E+00    0.1713890070E+00    0.1222269686E+00    0.5590612112E-04
    0.3500000000E+05    0.6238415580E-02    0.6959081448E+00    0.1729959826E+00    0.1257266754E+00    0.5608939611E-04
    0.3700000000E+05    0.6167917385E-02    0.6959118574E+00    0.1744019347E+00    0.1290864996E+00    0.5626302688E-04
    0.3900000000E+05    0.6095404751E-02    0.6959151808E+00    0.1756328789E+00    0.1323193982E+00    0.5642800344E-04
    0.4100000000E+05    0.6021611681E-02    0.6959181722E+00    0.1767106762E+00    0.1354365608E+00    0.5658516960E-04
    0.4300000000E+05    0.5947114970E-02    0.6959208785E+00    0.1776538236E+00    0.1384477164E+00    0.5673525049E-04
    0.4500000000E+05    0.5872368463E-02    0.6959233378E+00    0.1784780712E+00    0.1413613760E+00    0.5687887394E-04
    0.4700000000E+05    0.5797729241E-02    0.6959255821E+00    0.1791969085E+00    0.1441850274E+00    0.5701658716E-04
    0.4900000000E+05    0.5723477831E-02    0.6959276377E+00    0.1798219516E+00    0.1469252934E+00    0.5714887008E-04
    0.1000000000E+05    0.5837366025E-02    0.6957325815E+00    0.1175346898E+00    0.6291936645E-01    0.5231072452E-04
    0.3000000000E+05    0.6399037070E-02    0.6958966459E+00    0.1685316536E+00    0.1166813589E+00    0.5561049993E-04
    0.5000000000E+05    0.5686568218E-02    0.6959286019E+00    0.1801024959E+00    0.1482660220E+00    0.5721310943E-04
    0.7000000000E+05    0.5001182312E-02    0.6959419330E+00    0.1826357524E+00    0.1718405824E+00    0.5829358534E-04
    0.9000000000E+05    0.4433468964E-02    0.6959491345E+00    0.1819603484E+00    0.1911108940E+00    0.5911379900E-04
    0.1100000000E+06    0.3968868397E-02    0.6959535854E+00    0.1799195633E+00    0.2076174167E+00    0.5977696276E-04
    0.1300000000E+06    0.3584912805E-02    0.6959565745E+00    0.1772537977E+00    0.2221611678E+00    0.6033468067E-04
    0.1500000000E+06    0.3263276178E-02    0.6959586982E+00    0.1743051479E+00    0.2352184536E+00    0.6081655203E-04
    0.1700000000E+06    0.2990263658E-02    0.6959602696E+00    0.1712462884E+00    0.2470990245E+00    0.6124116626E-04
    0.1900000000E+06    0.2755751863E-02    0.6959614683E+00    0.1681693825E+00    0.2580176161E+00    0.6162097903E-04
    0.2100000000E+06    0.2552190193E-02    0.6959624045E+00    0.1651251806E+00    0.2681303929E+00    0.6196475246E-04
    0.2300000000E+06    0.2373864378E-02    0.6959631496E+00    0.1621418535E+00    0.2775552167E+00    0.6227888912E-04
    0.2500000000E+06    0.2216381740E-02    0.6959637515E+00    0.1592347198E+00    0.2863837093E+00    0.6256821233E-04
    0.2700000000E+06    0.2076314116E-02    0.6959642437E+00    0.1564115504E+00    0.2946888287E+00    0.6283644797E-04
    0.2900000000E+06    0.1950948205E-02    0.6959646503E+00    0.1536755901E+00    0.3025298400E+00    0.6308653510E-04
    0.3100000000E+06    0.1838108693E-02    0.6959649888E+00    0.1510273383E+00    0.3099556997E+00    0.6332083374E-04
    0.3300000000E+06    0.1736031052E-02    0.6959652727E+00    0.1484656295E+00    0.3170074297E+00    0.6354126815E-04
    0.3500000000E+06    0.1643268679E-02    0.6959655119E+00    0.1459883013E+00    0.3237198284E+00    0.6374942831E-04
    0.3700000000E+06    0.1558624099E-02    0.6959657143E+00    0.1435926163E+00    0.3301227318E+00    0.6394664338E-04
    0.3900000000E+06    0.1481097315E-02    0.6959658861E+00    0.1412755291E+00    0.3362419620E+00    0.6413403601E-04
    0.4100000000E+06    0.1409846507E-02    0.6959660323E+00    0.1390338590E+00    0.3421000523E+00    0.6431256319E-04
    0.4300000000E+06    0.1344157791E-02    0.6959661568E+00    0.1368643989E+00    0.3477168108E+00    0.6448304740E-04
    0.4500000000E+06    0.1283421682E-02    0.6959662629E+00    0.1347639852E+00    0.3531097653E+00    0.6464620084E-04
    0.4700000000E+06    0.1227114587E-02    0.6959663531E+00    0.1327295412E+00    0.3582945169E+00    0.6480264435E-04
    0.4900000000E+06    0.1174784115E-02    0.6959664297E+00    0.1307581030E+00    0.3632850263E+00    0.6495292246E-04
    0.1000000000E+06    0.4189746140E-02    0.6959515988E+00    0.1810505808E+00    0.1996490777E+00    0.5946106928E-04
    0.3000000000E+06    0.1893081333E-02    0.6959648271E+00    0.1523405438E+00    0.3062919367E+00    0.6320552885E-04
    0.5000000000E+06    0.1149985269E-02    0.6959664635E+00    0.1297951192E+00    0.3657114126E+00    0.6502590180E-04
    0.7000000000E+06    0.7900333424E-03    0.6959667419E+00    0.1132267168E+00    0.4065232357E+00    0.6625347839E-04
    0.9000000000E+06    0.5821449952E-03    0.6959666597E+00    0.1005245956E+00    0.4369342710E+00    0.6718545577E-04
    0.1100000000E+07    0.4492600159E-03    0.6959664552E+00    0.9044708795E-01    0.4606911719E+00    0.6793902684E-04
    0.1300000000E+07    0.3584128839E-03    0.6959662072E+00    0.8223954199E-01    0.4798540088E+00    0.6857279999E-04
    0.1500000000E+07    0.2932298237E-03    0.6959659466E+00    0.7541612255E-01    0.4956810922E+00    0.6912039713E-04
    0.1700000000E+07    0.2447133917E-03    0.6959656866E+00    0.6964855766E-01    0.5089960005E+00    0.6960293610E-04
    0.1900000000E+07    0.2075420264E-03    0.6959654331E+00    0.6470625096E-01    0.5203651956E+00    0.7003456775E-04
    0.2100000000E+07    0.1783860142E-03    0.6959651886E+00    0.6042202957E-01    0.5301932887E+00    0.7042524720E-04
    0.2300000000E+07    0.1550668041E-03    0.6959649540E+00    0.5667150104E-01    0.5387780736E+00    0.7078224905E-04
    0.2500000000E+07    0.1361061813E-03    0.6959647294E+00    0.5336005598E-01    0.5463441590E+00    0.7111105379E-04
    0.2700000000E+07    0.1204702577E-03    0.6959645144E+00    0.5041437925E-01    0.5530644620E+00    0.7141589500E-04
    0.2900000000E+07    0.1074171001E-03    0.6959643086E+00    0.4777673124E-01    0.5590744476E+00    0.7170011233E-04
    0.3100000000E+07    0.9640240191E-04    0.6959641115E+00    0.4540099152E-01    0.5644818545E+00    0.7196638751E-04
    0.3300000000E+07    0.8701910229E-04    0.6959639225E+00    0.4324985812E-01    0.5693735088E+00    0.7221690715E-04
    0.3500000000E+07    0.7895760237E-04    0.6959637411E+00    0.4129282440E-01    0.5738202044E+00    0.7245347801E-04
    0.3700000000E+07    0.7197888487E-04    0.6959635667E+00    0.3950469148E-01    0.5778802667E+00    0.7267761051E-04
    0.3900000000E+07    0.6589594461E-04    0.6959633989E+00    0.3786445700E-01    0.5816021996E+00    0.7289058040E-04
    0.4100000000E+07    0.6056070531E-04    0.6959632372E+00    0.3635447295E-01    0.5850266811E+00    0.7309347518E-04
    0.4300000000E+07    0.5585463777E-04    0.6959630813E+00    0.3495979943E-01    0.5881880886E+00    0.7328722953E-04
    0.4500000000E+07    0.5168192480E-04    0.6959629307E+00    0.3366770268E-01    0.5911156786E+00    0.7347265279E-04
    0.4700000000E+07    0.4796440943E-04    0.6959627851E+00    0.3246726124E-01    0.5938345104E+00    0.7365045048E-04
    0.4900000000E+07    0.4463781198E-04    0.6959626442E+00    0.3134905380E-01    0.5963661754E+00    0.7382124142E-04
    0.1000000000E+07    0.5089526585E-03    0.6959665661E+00    0.9521307044E-01    0.4494904801E+00    0.6758006431E-04
    0.3000000000E+07    0.1016830579E-03    0.6959642090E+00    0.4655863409E-01    0.5618476214E+00    0.7183534596E-04
    0.5000000000E+07    0.4310409455E-04    0.6959625755E+00    0.3081819137E-01    0.5975677650E+00    0.7390418246E-04
    0.7000000000E+07    0.2383131973E-04    0.6959613883E+00    0.2300961782E-01    0.6152212603E+00    0.7529932912E-04
    0.9000000000E+07    0.1514049591E-04    0.6959604559E+00    0.1834508101E-01    0.6257500868E+00    0.7635853118E-04
    0.1100000000E+08    0.1048196105E-04    0.6959596870E+00    0.1524525507E-01    0.6327412274E+00    0.7721497471E-04
    0.1300000000E+08    0.7693731519E-05    0.6959590320E+00    0.1303672201E-01    0.6377197798E+00    0.7793526734E-04
    0.1500000000E+08    0.5891754432E-05    0.6959584607E+00    0.1138387970E-01    0.6414445413E+00    0.7855762015E-04
    0.1700000000E+08    0.4659315993E-05    0.6959579538E+00    0.1010074189E-01    0.6443355865E+00    0.7910603360E-04
    0.1900000000E+08    0.3778891080E-05    0.6959574978E+00    0.9075940359E-02    0.6466442745E+00    0.7959659020E-04
    0.2100000000E+08    0.3127829549E-05    0.6959570832E+00    0.8238725589E-02    0.6485302047E+00    0.8004060403E-04
    0.2300000000E+08    0.2632665792E-05    0.6959567030E+00    0.7542002184E-02    0.6500995762E+00    0.8044634274E-04
    0.2500000000E+08    0.2247196717E-05    0.6959563517E+00    0.6953209689E-02    0.6514257903E+00    0.8082003497E-04
    0.2700000000E+08    0.1941173669E-05    0.6959560251E+00    0.6449119264E-02    0.6525612002E+00    0.8116649224E-04
