  Pressure (Pa) 23mC5-500 (mol/kg) 24mC5-500 (mol/kg) 2mC6-500 (mol/kg) 3mC6-500 (mol/kg) C7-500 (mol/kg)
    0.1000000000E+01    0.3046401777E-05    0.3665910075E-01    0.6952809707E-05    0.5264839670E-05    0.4218747576E-02
    0.3000000000E+01    0.8040932504E-05    0.9947928444E-01    0.1796706866E-04    0.1358244551E-04    0.4317840168E-02
    0.5000000000E+01    0.1198111106E-04    0.1513515412E+00    0.2635387451E-04    0.2126532071E-04    0.4398155262E-02
    0.7000000000E+01    0.1514966409E-04    0.1949085395E+00    0.3287803489E-04    0.2864302782E-04    0.4465671329E-02
    0.9000000000E+01    0.1773713575E-04    0.2320014622E+00    0.3804061798E-04    0.3582731680E-04    0.4523355667E-02
    0.1100000000E+02    0.1987792116E-04    0.2639699473E+00    0.4218774529E-04    0.4287425235E-04    0.4573258472E-02
    0.1300000000E+02    0.2166949384E-04    0.2918073676E+00    0.4556550704E-04    0.4981726304E-04    0.4616881961E-02
    0.1500000000E+02    0.2318412615E-04    0.3162659185E+00    0.4835274131E-04    0.5667840581E-04    0.4655359536E-02
    0.1700000000E+02    0.2447640926E-04    0.3379256231E+00    0.5068177907E-04    0.6347324922E-04    0.4689564518E-02
    0.1900000000E+02    0.2558824522E-04    0.3572409284E+00    0.5265205680E-04    0.7021332633E-04    0.4720181476E-02
    0.2100000000E+02    0.2655225138E-04    0.3745729449E+00    0.5433929765E-04    0.7690749802E-04    0.4747754949E-02
    0.2300000000E+02    0.2739413544E-04    0.3902122390E+00    0.5580184592E-04    0.8356276925E-04    0.4772723702E-02
    0.2500000000E+02    0.2813438520E-04    0.4043952578E+00    0.5708512326E-04    0.9018480647E-04    0.4795445328E-02
    0.2700000000E+02    0.2878949198E-04    0.4173163683E+00    0.5822481758E-04    0.9677828093E-04    0.4816214269E-02
    0.2900000000E+02    0.2937285013E-04    0.4291368203E+00    0.5924919981E-04    0.1033471051E-03    0.4835275219E-02
    0.3100000000E+02    0.2989542782E-04    0.4399915118E+00    0.6018083012E-04    0.1098946003E-03    0.4852833249E-02
    0.3300000000E+02    0.3036627355E-04    0.4499941606E+00    0.6103782998E-04    0.1164236194E-03    0.4869061539E-02
    0.3500000000E+02    0.3079290307E-04    0.4592413044E+00    0.6183484123E-04    0.1229366375E-03    0.4884107376E-02
    0.3700000000E+02    0.3118159815E-04    0.4678154274E+00    0.6258375643E-04    0.1294358216E-03    0.4898096838E-02
    0.3900000000E+02    0.3153763939E-04    0.4757874274E+00    0.6329428041E-04    0.1359230837E-03    0.4911138488E-02
    0.4100000000E+02    0.3186548943E-04    0.4832185818E+00    0.6397436564E-04    0.1424001232E-03    0.4923326337E-02
    0.4300000000E+02    0.3216893814E-04    0.4901621255E+00    0.6463055247E-04    0.1488684599E-03    0.4934742203E-02
    0.4500000000E+02    0.3245121877E-04    0.4966645285E+00    0.6526823704E-04    0.1553294613E-03    0.4945457642E-02
    0.4700000000E+02    0.3271510135E-04    0.5027665375E+00    0.6589188355E-04    0.1617843638E-03    0.4955535514E-02
    0.4900000000E+02    0.3296296840E-04    0.5085040309E+00    0.6650519371E-04    0.1682342912E-03    0.4965031270E-02
    0.1000000000E+02    0.1885657021E-04    0.2485575098E+00    0.4022384785E-04    0.3936551342E-04    0.4549175598E-02
    0.3000000000E+02    0.2964113104E-04    0.4346773341E+00    0.5972538486E-04    0.1066233307E-03    0.4844230605E-02
    0.5000000000E+02    0.3308155010E-04    0.5112461412E+00    0.6680895492E-04    0.1714577133E-03    0.4969576423E-02
    0.7000000000E+02    0.3498636809E-04    0.5529951027E+00    0.7285830477E-04    0.2358739007E-03    0.5039310612E-02
    0.9000000000E+02    0.3651734256E-04    0.5792757094E+00    0.7940760776E-04    0.3005811781E-03    0.5083581199E-02
    0.1100000000E+03    0.3800270782E-04    0.5973408409E+00    0.8665265041E-04    0.3659581822E-03    0.5113906880E-02
    0.1300000000E+03    0.3955078418E-04    0.6105218848E+00    0.9455395163E-04    0.4322511851E-03    0.5135676115E-02
    0.1500000000E+03    0.4119896483E-04    0.6205635151E+00    0.1030401315E-03    0.4996417430E-03    0.5151760549E-02
    0.1700000000E+03    0.4295911147E-04    0.6284678572E+00    0.1120489577E-03    0.5682760254E-03    0.5163837154E-02
    0.1900000000E+03    0.4483349431E-04    0.6348515431E+00    0.1215333796E-03    0.6382795706E-03    0.5172953971E-02
    0.2100000000E+03    0.4682092080E-04    0.6401148123E+00    0.1314598878E-03    0.7097655301E-03    0.5179801085E-02
    0.2300000000E+03    0.4891921961E-04    0.6445287783E+00    0.1418056999E-03    0.7828396583E-03    0.5184852022E-02
    0.2500000000E+03    0.5112626365E-04    0.6482836154E+00    0.1525562770E-03    0.8576035398E-03    0.5188442680E-02
    0.2700000000E+03    0.5344037737E-04    0.6515166658E+00    0.1637034126E-03    0.9341567985E-03    0.5190817854E-02
    0.2900000000E+03    0.5586047787E-04    0.6543295942E+00    0.1752438253E-03    0.1012598692E-02    0.5192159935E-02
    0.3100000000E+03    0.5838610128E-04    0.6567992667E+00    0.1871781391E-03    0.1093029317E-02    0.5192607288E-02
    0.3300000000E+03    0.6101738222E-04    0.6589848767E+00    0.1995101481E-03    0.1175550573E-02    0.5192266418E-02
    0.3500000000E+03    0.6375501714E-04    0.6609327484E+00    0.2122462875E-03    0.1260266957E-02    0.5191220236E-02
    0.3700000000E+03    0.6660022530E-04    0.6626796534E+00    0.2253952546E-03    0.1347286255E-02    0.5189533824E-02
    0.3900000000E+03    0.6955471336E-04    0.6642551524E+00    0.2389677386E-03    0.1436720170E-02    0.5187258540E-02
    0.4100000000E+03    0.7262064589E-04    0.6656832799E+00    0.2529762320E-03    0.1528684897E-02    0.5184434990E-02
    0.4300000000E+03    0.7580062234E-04    0.6669837784E+00    0.2674349028E-03    0.1623301692E-02    0.5181095214E-02
    0.4500000000E+03    0.7909766031E-04    0.6681730148E+00    0.2823595133E-03    0.1720697416E-02    0.5177264328E-02
    0.4700000000E+03    0.8251518464E-04    0.6692646727E+00    0.2977673759E-03    0.1821005096E-02    0.5172961753E-02
    0.4900000000E+03    0.8605702184E-04    0.6702702806E+00    0.3136773374E-03    0.1924364490E-02    0.5168202166E-02
    0.1000000000E+03    0.3725638431E-04    0.5890740462E+00    0.8294388957E-04    0.3331685480E-03    0.5100066817E-02
    0.3000000000E+03    0.5711010443E-04    0.6556032888E+00    0.1811615747E-03    0.1052559096E-02    0.5192488161E-02
    0.5000000000E+03    0.8787586309E-04    0.6707439316E+00    0.3218269163E-03    0.1977234238E-02    0.5165654465E-02
    0.7000000000E+03    0.1320692064E-03    0.6774433115E+00    0.5171824173E-03    0.3236341989E-02    0.5091590774E-02
    0.9000000000E+03    0.1968504221E-03    0.6812198523E+00    0.7995698347E-03    0.5046901775E-02    0.4967064347E-02
    0.1100000000E+04    0.2967968675E-03    0.6836427586E+00    0.1232684571E-02    0.7821319529E-02    0.4766968855E-02
    0.1300000000E+04    0.4618788573E-03    0.6853285872E+00    0.1946763082E-02    0.1239997949E-01    0.4436044370E-02
    0.1500000000E+04    0.7524274136E-03    0.6865688808E+00    0.3204621879E-02    0.2048454364E-01    0.3868303043E-02
    0.1700000000E+04    0.1247990644E-02    0.6875193773E+00    0.5357712415E-02    0.3438389425E-01    0.2954689754E-02
    0.1900000000E+04    0.1853189427E-02    0.6882708293E+00    0.8009541010E-02    0.5165671806E-01    0.1970229590E-02
    0.2100000000E+04    0.2267915683E-02    0.6888796935E+00    0.9863868709E-02    0.6398229837E-01    0.1477327352E-02
    0.2300000000E+04    0.2501951255E-02    0.6893829306E+00    0.1094899184E-01    0.7144988576E-01    0.1349644662E-02
    0.2500000000E+04    0.2672143294E-02    0.6898057504E+00    0.1176509383E-01    0.7724120771E-01    0.1327792129E-02
    0.2700000000E+04    0.2821536077E-02    0.6901659371E+00    0.1249775259E-01    0.8254598724E-01    0.1328216623E-02
    0.2900000000E+04    0.2960622944E-02    0.6904763949E+00    0.1319209200E-01    0.8765309768E-01    0.1332766393E-02
    0.3100000000E+04    0.3091956238E-02    0.6907467140E+00    0.1385876494E-01    0.9262889655E-01    0.1337842237E-02
    0.3300000000E+04    0.3216354921E-02    0.6909841700E+00    0.1450087971E-01    0.9749087123E-01    0.1342765413E-02
    0.3500000000E+04    0.3334255624E-02    0.6911943821E+00    0.1511989481E-01    0.1022458864E+00    0.1347430758E-02
    0.3700000000E+04    0.3445999393E-02    0.6913817590E+00    0.1571687591E-01    0.1068983809E+00    0.1351842537E-02
    0.3900000000E+04    0.3551893122E-02    0.6915498079E+00    0.1629276529E-01    0.1114521281E+00    0.1356023009E-02
    0.4100000000E+04    0.3652223453E-02    0.6917013539E+00    0.1684844174E-01    0.1159106213E+00    0.1359994851E-02
    0.4300000000E+04    0.3747260539E-02    0.6918386977E+00    0.1738473569E-01    0.1202771657E+00    0.1363778202E-02
    0.4500000000E+04    0.3837259621E-02    0.6919637322E+00    0.1790243468E-01    0.1245549059E+00    0.1367390543E-02
    0.4700000000E+04    0.3922462065E-02    0.6920780285E+00    0.1840228640E-01    0.1287468386E+00    0.1370847044E-02
    0.4900000000E+04    0.4003096247E-02    0.6921829020E+00    0.1888500131E-01    0.1328558223E+00    0.1374160935E-02
    0.1000000000E+04    0.2410589520E-03    0.6825506153E+00    0.9913345137E-03    0.6275233621E-02    0.4878990275E-02
    0.3000000000E+04    0.3027191905E-02    0.6906160718E+00    0.1352862435E-01    0.9015587703E-01    0.1335305574E-02
    0.5000000000E+04    0.4041768252E-02    0.6922321587E+00    0.1912014484E-01    0.1348800657E+00    0.1375768084E-02
    0.7000000000E+04    0.4622139613E-02    0.6929185414E+00    0.2307090683E-01    0.1716115310E+00    0.1402617947E-02
    0.9000000000E+04    0.4931625997E-02    0.6932956305E+00    0.2590295318E-01    0.2025017947E+00    0.1422817358E-02
    0.1100000000E+05    0.5068541061E-02    0.6935326953E+00    0.2794699749E-01    0.2289706567E+00    0.1439063664E-02
    0.1300000000E+05    0.5094163105E-02    0.6936947285E+00    0.2942146168E-01    0.2519965626E+00    0.1452680033E-02
    0.1500000000E+05    0.5047744678E-02    0.6938119826E+00    0.3047554093E-01    0.2722777371E+00    0.1464416365E-02
    0.1700000000E+05    0.4954977584E-02    0.6939004251E+00    0.3121404219E-01    0.2903272833E+00    0.1474739746E-02
    0.1900000000E+05    0.4832960760E-02    0.6939692701E+00    0.3171235063E-01    0.3065318167E+00    0.1483961247E-02
    0.2100000000E+05    0.4693215790E-02    0.6940242012E+00    0.3202578969E-01    0.3211889897E+00    0.1492298685E-02
    0.2300000000E+05    0.4543570677E-02    0.6940689118E+00    0.3219566548E-01    0.3345322896E+00    0.1499910640E-02
    0.2500000000E+05    0.4389365955E-02    0.6941059038E+00    0.3225328015E-01    0.3467478942E+00    0.1506916224E-02
    0.2700000000E+05    0.4234243504E-02    0.6941369310E+00    0.3222266236E-01    0.3579864144E+00    0.1513407222E-02
    0.2900000000E+05    0.4080672005E-02    0.6941632585E+00    0.3212246539E-01    0.3683712556E+00    0.1519455889E-02
    0.3100000000E+05    0.3930302581E-02    0.6941858210E+00    0.3196731195E-01    0.3780046909E+00    0.1525120144E-02
    0.3300000000E+05    0.3784212857E-02    0.6942053237E+00    0.3176876333E-01    0.3869723479E+00    0.1530447139E-02
    0.3500000000E+05    0.3643076451E-02    0.6942223085E+00    0.3153602864E-01    0.3953465796E+00    0.1535475787E-02
    0.3700000000E+05    0.3507281881E-02    0.6942371982E+00    0.3127649096E-01    0.4031890303E+00    0.1540238577E-02
    0.3900000000E+05    0.3377016724E-02    0.6942503275E+00    0.3099610261E-01    0.4105526178E+00    0.1544762926E-02
    0.4100000000E+05    0.3252327589E-02    0.6942619647E+00    0.3069968540E-01    0.4174830800E+00    0.1549072182E-02
    0.4300000000E+05    0.3133163110E-02    0.6942723271E+00    0.3039116111E-01    0.4240201976E+00    0.1553186396E-02
    0.4500000000E+05    0.3019404886E-02    0.6942815928E+00    0.3007373007E-01    0.4301987687E+00    0.1557122917E-02
    0.4700000000E+05    0.2910889816E-02    0.6942899086E+00    0.2975001071E-01    0.4360493938E+00    0.1560896860E-02
    0.4900000000E+05    0.2807426219E-02    0.6942973972E+00    0.2942214948E-01    0.4415991135E+00    0.1564521473E-02
    0.1000000000E+05    0.5017175424E-02    0.6934263821E+00    0.2700781488E-01    0.2162197159E+00    0.1431333142E-02
    0.3000000000E+05    0.4005008522E-02    0.6941749618E+00    0.3205097326E-01    0.3732762012E+00    0.1522332902E-02
    0.5000000000E+05    0.2757523944E-02    0.6943008640E+00    0.2925722920E-01    0.4442687408E+00    0.1566281485E-02
    0.7000000000E+05    0.1972738974E-02    0.6943447647E+00    0.2602994307E-01    0.4864838632E+00    0.1595869137E-02
    0.9000000000E+05    0.1473158686E-02    0.6943635179E+00    0.2321274601E-01    0.5148692514E+00    0.1618314601E-02
    0.1100000000E+06    0.1139959445E-02    0.6943718282E+00    0.2085952276E-01    0.5353890745E+00    0.1636455093E-02
    0.1300000000E+06    0.9077604725E-03    0.6943750488E+00    0.1890022180E-01    0.5509624838E+00    0.1651707119E-02
    0.1500000000E+06    0.7398312899E-03    0.6943755376E+00    0.1725695411E-01    0.5632065295E+00    0.1664882438E-02
    0.1700000000E+06    0.6145745766E-03    0.6943744682E+00    0.1586486671E-01    0.5730958654E+00    0.1676490555E-02
    0.1900000000E+06    0.5187035062E-03    0.6943724769E+00    0.1467338002E-01    0.5812554395E+00    0.1686872704E-02
    0.2100000000E+06    0.4437072694E-03    0.6943699306E+00    0.1364362441E-01    0.5881054986E+00    0.1696268850E-02
    0.2300000000E+06    0.3839394836E-03    0.6943670512E+00    0.1274567250E-01    0.5939395546E+00    0.1704854290E-02
    0.2500000000E+06    0.3355383576E-03    0.6943639774E+00    0.1195629530E-01    0.5989690583E+00    0.1712761054E-02
    0.2700000000E+06    0.2957917978E-03    0.6943607982E+00    0.1125727674E-01    0.6033503344E+00    0.1720091113E-02
    0.2900000000E+06    0.2627505050E-03    0.6943575721E+00    0.1063417622E-01    0.6072015187E+00    0.1726924892E-02
    0.3100000000E+06    0.2349845714E-03    0.6943543378E+00    0.1007542344E-01    0.6106135900E+00    0.1733326962E-02
    0.3300000000E+06    0.2114259640E-03    0.6943511210E+00    0.9571653126E-02    0.6136577736E+00    0.1739349966E-02
    0.3500000000E+06    0.1912639874E-03    0.6943479391E+00    0.9115212007E-02    0.6163906418E+00    0.1745037396E-02
    0.3700000000E+06    0.1738743260E-03    0.6943448032E+00    0.8699789884E-02    0.6188577070E+00    0.1750425610E-02
    0.3900000000E+06    0.1587698940E-03    0.6943417209E+00    0.8320140661E-02    0.6210960045E+00    0.1755545311E-02
    0.4100000000E+06    0.1455661622E-03    0.6943386966E+00    0.7971869256E-02    0.6231359825E+00    0.1760422672E-02
    0.4300000000E+06    0.1339562893E-03    0.6943357328E+00    0.7651267191E-02    0.6250029069E+00    0.1765080184E-02
    0.4500000000E+06    0.1236930137E-03    0.6943328309E+00    0.7355184537E-02    0.6267179205E+00    0.1769537323E-02
    0.4700000000E+06    0.1145752853E-03    0.6943299909E+00    0.7080929246E-02    0.6282988525E+00    0.1773811064E-02
    0.4900000000E+06    0.1064382699E-03    0.6943272124E+00    0.6826187360E-02    0.6297608438E+00    0.1777916296E-02
    0.1000000000E+06    0.1290745827E-02    0.6943685371E+00    0.2198179417E-01    0.5258873204E+00    0.1627814707E-02
    0.3000000000E+06    0.2482819259E-03    0.6943559541E+00    0.1034738689E-01    0.6089575976E+00    0.1730176358E-02
    0.5000000000E+06    0.1026940225E-03    0.6943258460E+00    0.6705498254E-02    0.6304513558E+00    0.1779909887E-02
    0.7000000000E+06    0.5609729984E-04    0.6943014066E+00    0.4949374357E-02    0.6403516541E+00    0.1813441242E-02
    0.9000000000E+06    0.3542284776E-04    0.6942813795E+00    0.3918129371E-02    0.6460465923E+00    0.1838895338E-02
    0.1100000000E+07    0.2445414275E-04    0.6942644926E+00    0.3240473263E-02    0.6497457535E+00    0.1859475149E-02
    0.1300000000E+07    0.1793438761E-04    0.6942499081E+00    0.2761469408E-02    0.6523414824E+00    0.1876782240E-02
    0.1500000000E+07    0.1374105684E-04    0.6942370736E+00    0.2405083878E-02    0.6542631993E+00    0.1891735282E-02
    0.1700000000E+07    0.1088288439E-04    0.6942256112E+00    0.2129660047E-02    0.6557431236E+00    0.1904911245E-02
    0.1900000000E+07    0.8846055029E-05    0.6942152526E+00    0.1910473879E-02    0.6569178095E+00    0.1916696727E-02
    0.2100000000E+07    0.7342444044E-05    0.6942058007E+00    0.1731928944E-02    0.6578728045E+00    0.1927363686E-02
    0.2300000000E+07    0.6200223178E-05    0.6941971069E+00    0.1583702548E-02    0.6586644284E+00    0.1937110844E-02
    0.2500000000E+07    0.5311711164E-05    0.6941890565E+00    0.1458691680E-02    0.6593312713E+00    0.1946087907E-02
    0.2700000000E+07    0.4606615275E-05    0.6941815589E+00    0.1351849246E-02    0.6599006602E+00    0.1954410516E-02
    0.2900000000E+07    0.4037452868E-05    0.6941745416E+00    0.1259490854E-02    0.6603924883E+00    0.1962169892E-02
    0.3100000000E+07    0.3571202682E-05    0.6941679453E+00    0.1178864256E-02    0.6608215812E+00    0.1969439285E-02
    0.3300000000E+07    0.3184317854E-05    0.6941617213E+00    0.1107872271E-02    0.6611992136E+00    0.1976278416E-02
    0.3500000000E+07    0.2859637365E-05    0.6941558288E+00    0.1044888953E-02    0.6615341121E+00    0.1982736634E-02
    0.3700000000E+07    0.2584412315E-05    0.6941502335E+00    0.9886343558E-03    0.6618331366E+00    0.1988855190E-02
    0.3900000000E+07    0.2349009523E-05    0.6941449062E+00    0.9380872006E-03    0.6621017539E+00    0.1994668928E-02
    0.4100000000E+07    0.2146039113E-05    0.6941398217E+00    0.8924227165E-03    0.6623443741E+00    0.2000207549E-02
    0.4300000000E+07    0.1969754613E-05    0.6941349583E+00    0.8509675751E-03    0.6625645940E+00    0.2005496579E-02
    0.4500000000E+07    0.1815632385E-05    0.6941302971E+00    0.8131666786E-03    0.6627653765E+00    0.2010558121E-02
    0.4700000000E+07    0.1680071604E-05    0.6941258215E+00    0.7785583174E-03    0.6629491844E+00    0.2015411443E-02
    0.4900000000E+07    0.1560176824E-05    0.6941215170E+00    0.7467553356E-03    0.6631180813E+00    0.2020073445E-02
    0.1000000000E+07    0.2916914731E-04    0.6942726043E+00    0.3547497486E-02    0.6480738178E+00    0.1849672162E-02
    0.3000000000E+07    0.3793114422E-05    0.6941711940E+00    0.1217855002E-02    0.6606141025E+00    0.1965861829E-02
    0.5000000000E+07    0.1505352001E-05    0.6941194248E+00    0.7318016342E-03    0.6631974933E+00    0.2022337428E-02
    0.7000000000E+07    0.8411363611E-06    0.6940840758E+00    0.5220917196E-03    0.6643111978E+00    0.2060417768E-02
    0.9000000000E+07    0.5563440859E-06    0.6940570778E+00    0.4053930948E-03    0.6649313196E+00    0.2089326053E-02
    0.1100000000E+08    0.4067147222E-06    0.6940351697E+00    0.3311209136E-03    0.6653263611E+00    0.2112698986E-02
    0.1300000000E+08    0.3175312470E-06    0.6940166996E+00    0.2797255779E-03    0.6656000008E+00    0.2132355189E-02
    0.1500000000E+08    0.2595856948E-06    0.6940007128E+00    0.2420626187E-03    0.6658007290E+00    0.2149337902E-02
    0.1700000000E+08    0.2194946893E-06    0.6939866060E+00    0.2132851813E-03    0.6659542517E+00    0.2164302356E-02
    0.1900000000E+08    0.1903975450E-06    0.6939739737E+00    0.1905856655E-03    0.6660754644E+00    0.2177687599E-02
    0.2100000000E+08    0.1684695759E-06    0.6939625296E+00    0.1722257217E-03    0.6661735937E+00    0.2189802491E-02
    0.2300000000E+08    0.1514348794E-06    0.6939520641E+00    0.1570716942E-03    0.6662546591E+00    0.2200872723E-02
    0.2500000000E+08    0.1378665020E-06    0.6939424188E+00    0.1443528409E-03    0.6663227552E+00    0.2211068318E-02
    0.2700000000E+08    0.1268305889E-06    0.6939334713E+00    0.1335269395E-03    0.6663807639E+00    0.2220520615E-02
