  Pressure (Pa) 23mC5-500 (mol/kg) 24mC5-500 (mol/kg) 2mC6-500 (mol/kg) 3mC6-500 (mol/kg) C7-500 (mol/kg)
    0.1000000000E+01    0.2860465715E-05    0.6964853247E-01    0.3235814001E-05    0.3604261309E-05    0.4235412757E-02
    0.3000000000E+01    0.6849385965E-05    0.1740704378E+00    0.7503633796E-05    0.9343799889E-05    0.4345268036E-02
    0.5000000000E+01    0.9464668986E-05    0.2486202432E+00    0.1012781894E-04    0.1465168796E-04    0.4423330678E-02
    0.7000000000E+01    0.1127433175E-04    0.3045122898E+00    0.1184504500E-04    0.1974910273E-04    0.4482311863E-02
    0.9000000000E+01    0.1257922215E-04    0.3479718817E+00    0.1302951663E-04    0.2471139459E-04    0.4528588637E-02
    0.1100000000E+02    0.1355231052E-04    0.3827320088E+00    0.1388749893E-04    0.2957647369E-04    0.4565943740E-02
    0.1300000000E+02    0.1429912597E-04    0.4111671257E+00    0.1453933802E-04    0.3436699130E-04    0.4596781232E-02
    0.1500000000E+02    0.1488709690E-04    0.4348596249E+00    0.1505836104E-04    0.3909791795E-04    0.4622706104E-02
    0.1700000000E+02    0.1536093855E-04    0.4549046815E+00    0.1549079450E-04    0.4377983446E-04    0.4644832249E-02
    0.1900000000E+02    0.1575122403E-04    0.4720843695E+00    0.1586658155E-04    0.4842058755E-04    0.4663957668E-02
    0.2100000000E+02    0.1607939778E-04    0.4869720889E+00    0.1620554226E-04    0.5302621107E-04    0.4680669456E-02
    0.2300000000E+02    0.1636083007E-04    0.4999978128E+00    0.1652102219E-04    0.5760147830E-04    0.4695409425E-02
    0.2500000000E+02    0.1660674316E-04    0.5114902926E+00    0.1682212613E-04    0.6215025234E-04    0.4708516613E-02
    0.2700000000E+02    0.1682546249E-04    0.5217051895E+00    0.1711512461E-04    0.6667571881E-04    0.4720255649E-02
    0.2900000000E+02    0.1702325046E-04    0.5308443167E+00    0.1740436137E-04    0.7118054628E-04    0.4730836204E-02
    0.3100000000E+02    0.1720487485E-04    0.5390691078E+00    0.1769285136E-04    0.7566700016E-04    0.4740426621E-02
    0.3300000000E+02    0.1737400397E-04    0.5465102348E+00    0.1798268202E-04    0.8013702586E-04    0.4749163673E-02
    0.3500000000E+02    0.1753348638E-04    0.5532746019E+00    0.1827528701E-04    0.8459231076E-04    0.4757159674E-02
    0.3700000000E+02    0.1768555195E-04    0.5594505145E+00    0.1857163551E-04    0.8903433133E-04    0.4764507745E-02
    0.3900000000E+02    0.1783195855E-04    0.5651115553E+00    0.1887236481E-04    0.9346438961E-04    0.4771285771E-02
    0.4100000000E+02    0.1797410043E-04    0.5703195298E+00    0.1917787420E-04    0.9788364179E-04    0.4777559414E-02
    0.4300000000E+02    0.1811308916E-04    0.5751267320E+00    0.1948839197E-04    0.1022931210E-03    0.4783384438E-02
    0.4500000000E+02    0.1824981487E-04    0.5795777061E+00    0.1980402376E-04    0.1066937555E-03    0.4788808519E-02
    0.4700000000E+02    0.1838499294E-04    0.5837106311E+00    0.2012478756E-04    0.1110863839E-03    0.4793872672E-02
    0.4900000000E+02    0.1851919989E-04    0.5875584182E+00    0.2045063926E-04    0.1154717670E-03    0.4798612383E-02
    0.1000000000E+02    0.1309950325E-04    0.3662675212E+00    0.1349036823E-04    0.2715443310E-04    0.4548207459E-02
    0.3000000000E+02    0.1711583180E-04    0.5350622087E+00    0.1754855121E-04    0.7342594164E-04    0.4735745986E-02
    0.5000000000E+02    0.1858608840E-04    0.5893844493E+00    0.2061544703E-04    0.1176619606E-03    0.4800870378E-02
    0.7000000000E+02    0.1994733380E-04    0.6161940324E+00    0.2414707196E-04    0.1612260948E-03    0.4834727930E-02
    0.9000000000E+02    0.2142036404E-04    0.6321682599E+00    0.2802885416E-04    0.2045928106E-03    0.4855561622E-02
    0.1100000000E+03    0.2301801536E-04    0.6427712254E+00    0.3215245464E-04    0.2480068831E-03    0.4869582794E-02
    0.1300000000E+03    0.2472550884E-04    0.6503218293E+00    0.3645366811E-04    0.2916197572E-03    0.4879524133E-02
    0.1500000000E+03    0.2652722790E-04    0.6559720943E+00    0.4089522234E-04    0.3355362628E-03    0.4886790412E-02
    0.1700000000E+03    0.2841075867E-04    0.6603591150E+00    0.4545505335E-04    0.3798349125E-03    0.4892184196E-02
    0.1900000000E+03    0.3036684864E-04    0.6638638387E+00    0.5011988251E-04    0.4245781059E-03    0.4896200486E-02
    0.2100000000E+03    0.3238872903E-04    0.6667280384E+00    0.5488170613E-04    0.4698178049E-03    0.4899162843E-02
    0.2300000000E+03    0.3447148258E-04    0.6691125492E+00    0.5973581447E-04    0.5155989342E-03    0.4901292614E-02
    0.2500000000E+03    0.3661156058E-04    0.6711285214E+00    0.6467963164E-04    0.5619615409E-03    0.4902746857E-02
    0.2700000000E+03    0.3880643282E-04    0.6728552301E+00    0.6971201205E-04    0.6089422317E-03    0.4903640389E-02
    0.2900000000E+03    0.4105433694E-04    0.6743507370E+00    0.7483280012E-04    0.6565751674E-03    0.4904059253E-02
    0.3100000000E+03    0.4335409859E-04    0.6756585407E+00    0.8004254720E-04    0.7048927750E-03    0.4904069277E-02
    0.3300000000E+03    0.4570500122E-04    0.6768118730E+00    0.8534232527E-04    0.7539262727E-03    0.4903721712E-02
    0.3500000000E+03    0.4810669093E-04    0.6778365594E+00    0.9073360186E-04    0.8037060679E-03    0.4903057047E-02
    0.3700000000E+03    0.5055910619E-04    0.6787529730E+00    0.9621815491E-04    0.8542620658E-03    0.4902107676E-02
    0.3900000000E+03    0.5306242543E-04    0.6795774014E+00    0.1017980139E-03    0.9056239152E-03    0.4900899784E-02
    0.4100000000E+03    0.5561702760E-04    0.6803230217E+00    0.1074754191E-03    0.9578212084E-03    0.4899454719E-02
    0.4300000000E+03    0.5822346228E-04    0.6810006095E+00    0.1132527929E-03    0.1010883648E-02    0.4897790011E-02
    0.4500000000E+03    0.6088242690E-04    0.6816190616E+00    0.1191327206E-03    0.1064841185E-02    0.4895920130E-02
    0.4700000000E+03    0.6359474931E-04    0.6821857890E+00    0.1251179363E-03    0.1119724147E-02    0.4893857065E-02
    0.4900000000E+03    0.6636137451E-04    0.6827070138E+00    0.1312113146E-03    0.1175563342E-02    0.4891610774E-02
    0.1000000000E+03    0.2220440449E-04    0.6379563232E+00    0.3006525769E-04    0.2262830184E-03    0.4863208018E-02
    0.3000000000E+03    0.4219778983E-04    0.6750258231E+00    0.7742649729E-04    0.6806464129E-03    0.4904111877E-02
    0.5000000000E+03    0.6776537542E-04    0.6829522399E+00    0.1342995001E-03    0.1203851309E-02    0.4890421561E-02
    0.7000000000E+03    0.9900927488E-04    0.6864017667E+00    0.2025586098E-03    0.1827984307E-02    0.4858376452E-02
    0.9000000000E+03    0.1375067911E-03    0.6883305099E+00    0.2860639590E-03    0.2590602815E-02    0.4811542674E-02
    0.1100000000E+04    0.1858033554E-03    0.6895617410E+00    0.3904913913E-03    0.3544431544E-02    0.4748382858E-02
    0.1300000000E+04    0.2478030523E-03    0.6904154400E+00    0.5243693770E-03    0.4768075150E-02    0.4664500870E-02
    0.1500000000E+04    0.3296101820E-03    0.6910418801E+00    0.7009622886E-03    0.6383658225E-02    0.4552233510E-02
    0.1700000000E+04    0.4410572754E-03    0.6915209534E+00    0.9416183763E-03    0.8587882372E-02    0.4399002087E-02
    0.1900000000E+04    0.5983874078E-03    0.6918990503E+00    0.1281640044E-02    0.1170656106E-01    0.4184285636E-02
    0.2100000000E+04    0.8284309744E-03    0.6922049509E+00    0.1779479954E-02    0.1628063207E-01    0.3875336787E-02
    0.2300000000E+04    0.1171902032E-02    0.6924574548E+00    0.2524271744E-02    0.2313918459E-01    0.3425988445E-02
    0.2500000000E+04    0.1669736770E-02    0.6926693614E+00    0.3607066379E-02    0.3314279249E-01    0.2801045213E-02
    0.2700000000E+04    0.2293478729E-02    0.6928496858E+00    0.4970515508E-02    0.4580518907E-01    0.2070090045E-02
    0.2900000000E+04    0.2879040154E-02    0.6930049609E+00    0.6262176011E-02    0.5791288078E-01    0.1465492518E-02
    0.3100000000E+04    0.3290538498E-02    0.6931400363E+00    0.7185204122E-02    0.6671134189E-01    0.1135457304E-02
    0.3300000000E+04    0.3557287012E-02    0.6932585871E+00    0.7799067142E-02    0.7270952719E-01    0.1003429726E-02
    0.3500000000E+04    0.3751922812E-02    0.6933634493E+00    0.8259359881E-02    0.7732254218E-01    0.9591059939E-03
    0.3700000000E+04    0.3915621055E-02    0.6934568462E+00    0.8654913042E-02    0.8136446379E-01    0.9462994224E-03
    0.3900000000E+04    0.4064975729E-02    0.6935405450E+00    0.9021625368E-02    0.8516535535E-01    0.9439534864E-03
    0.4100000000E+04    0.4206031642E-02    0.6936159683E+00    0.9372547594E-02    0.8884507666E-01    0.9449478200E-03
    0.4300000000E+04    0.4340987191E-02    0.6936842740E+00    0.9712365157E-02    0.9244618517E-01    0.9469530820E-03
    0.4500000000E+04    0.4470705424E-02    0.6937464139E+00    0.1004285082E-01    0.9598423259E-01    0.9492168860E-03
    0.4700000000E+04    0.4595590062E-02    0.6938031780E+00    0.1036477499E-01    0.9946546467E-01    0.9514997407E-03
    0.4900000000E+04    0.4715884585E-02    0.6938552270E+00    0.1067856047E-01    0.1028929122E+00    0.9537284890E-03
    0.1000000000E+04    0.1602254013E-03    0.6890073665E+00    0.3352131509E-03    0.3039470007E-02    0.4782212989E-02
    0.3000000000E+04    0.3107606297E-02    0.6930747709E+00    0.6772358508E-02    0.6275238659E-01    0.1267644317E-02
    0.5000000000E+04    0.4774369460E-02    0.6938796609E+00    0.1083249678E-01    0.1045870810E+00    0.9548156392E-03
    0.7000000000E+04    0.5740378935E-02    0.6942191190E+00    0.1354206955E-01    0.1359914306E+00    0.9731086620E-03
    0.9000000000E+04    0.6397031565E-02    0.6944044439E+00    0.1567002678E-01    0.1633692770E+00    0.9869410904E-03
    0.1100000000E+05    0.6831224437E-02    0.6945202362E+00    0.1735367230E-01    0.1875206538E+00    0.9980976129E-03
    0.1300000000E+05    0.7103612245E-02    0.6945988885E+00    0.1869217622E-01    0.2090397326E+00    0.1007465281E-02
    0.1500000000E+05    0.7257322514E-02    0.6946554426E+00    0.1975873435E-01    0.2283777114E+00    0.1015549975E-02
    0.1700000000E+05    0.7323504343E-02    0.6946978206E+00    0.2060839198E-01    0.2458838903E+00    0.1022668160E-02
    0.1900000000E+05    0.7324956872E-02    0.6947305844E+00    0.2128322793E-01    0.2618333233E+00    0.1029031272E-02
    0.2100000000E+05    0.7278557127E-02    0.6947565427E+00    0.2181587572E-01    0.2764458952E+00    0.1034787722E-02
    0.2300000000E+05    0.7196917795E-02    0.6947775166E+00    0.2223196836E-01    0.2898997733E+00    0.1040045774E-02
    0.2500000000E+05    0.7089539721E-02    0.6947947377E+00    0.2255186960E-01    0.3023410792E+00    0.1044886871E-02
    0.2700000000E+05    0.6963626054E-02    0.6948090676E+00    0.2279192157E-01    0.3138909665E+00    0.1049373856E-02
    0.2900000000E+05    0.6824665686E-02    0.6948211264E+00    0.2296535841E-01    0.3246508824E+00    0.1053556253E-02
    0.3100000000E+05    0.6676856750E-02    0.6948313715E+00    0.2308298499E-01    0.3347065375E+00    0.1057473797E-02
    0.3300000000E+05    0.6523417618E-02    0.6948401475E+00    0.2315368780E-01    0.3441309395E+00    0.1061158863E-02
    0.3500000000E+05    0.6366817665E-02    0.6948477183E+00    0.2318482420E-01    0.3529867409E+00    0.1064638187E-02
    0.3700000000E+05    0.6208950129E-02    0.6948542896E+00    0.2318252212E-01    0.3613280758E+00    0.1067934106E-02
    0.3900000000E+05    0.6051262703E-02    0.6948600241E+00    0.2315191337E-01    0.3692020123E+00    0.1071065479E-02
    0.4100000000E+05    0.5894856965E-02    0.6948650515E+00    0.2309731676E-01    0.3766497115E+00    0.1074048374E-02
    0.4300000000E+05    0.5740564610E-02    0.6948694771E+00    0.2302238317E-01    0.3837073608E+00    0.1076896598E-02
    0.4500000000E+05    0.5589006262E-02    0.6948733867E+00    0.2293021144E-01    0.3904069320E+00    0.1079622099E-02
    0.4700000000E+05    0.5440637119E-02    0.6948768511E+00    0.2282344149E-01    0.3967768019E+00    0.1082235292E-02
    0.4900000000E+05    0.5295782546E-02    0.6948799291E+00    0.2270432980E-01    0.4028422629E+00    0.1084745308E-02
    0.1000000000E+05    0.6637651158E-02    0.6944683964E+00    0.1656046583E-01    0.1758071846E+00    0.9927859317E-03
    0.3000000000E+05    0.6751646210E-02    0.6948264519E+00    0.2303055268E-01    0.3297619123E+00    0.1055545958E-02
    0.5000000000E+05    0.5224746392E-02    0.6948813389E+00    0.2264076146E-01    0.4057680068E+00    0.1085964179E-02
    0.7000000000E+05    0.4009218132E-02    0.6948978465E+00    0.2106752911E-01    0.4527193933E+00    0.1106461122E-02
    0.9000000000E+05    0.3137676700E-02    0.6949030924E+00    0.1936880593E-01    0.4850037792E+00    0.1122016795E-02
    0.1100000000E+06    0.2510949321E-02    0.6949039093E+00    0.1779547167E-01    0.5086909500E+00    0.1134591996E-02
    0.1300000000E+06    0.2050592422E-02    0.6949027134E+00    0.1639868561E-01    0.5268587738E+00    0.1145166564E-02
    0.1500000000E+06    0.1704388643E-02    0.6949005341E+00    0.1517364439E-01    0.5412553992E+00    0.1154302338E-02
    0.1700000000E+06    0.1438233473E-02    0.6948978644E+00    0.1410073786E-01    0.5529543128E+00    0.1162352092E-02
    0.1900000000E+06    0.1229548798E-02    0.6948949596E+00    0.1315835159E-01    0.5626537975E+00    0.1169552160E-02
    0.2100000000E+06    0.1063057922E-02    0.6948919589E+00    0.1232677375E-01    0.5708287896E+00    0.1176068773E-02
    0.2300000000E+06    0.9281830546E-03    0.6948889410E+00    0.1158912811E-01    0.5778140686E+00    0.1182023384E-02
    0.2500000000E+06    0.8174362953E-03    0.6948859508E+00    0.1093131379E-01    0.5838526528E+00    0.1187507485E-02
    0.2700000000E+06    0.7254076807E-03    0.6948830141E+00    0.1034164945E-01    0.5891253507E+00    0.1192591741E-02
    0.2900000000E+06    0.6481151268E-03    0.6948801453E+00    0.9810470508E-02    0.5937695393E+00    0.1197331894E-02
    0.3100000000E+06    0.5825776870E-03    0.6948773518E+00    0.9329762085E-02    0.5978915060E+00    0.1201772702E-02
    0.3300000000E+06    0.5265294786E-03    0.6948746368E+00    0.8892849643E-02    0.6015747956E+00    0.1205950655E-02
    0.3500000000E+06    0.4782240990E-03    0.6948720011E+00    0.8494146592E-02    0.6048859986E+00    0.1209895904E-02
    0.3700000000E+06    0.4362984435E-03    0.6948694434E+00    0.8128951411E-02    0.6078788530E+00    0.1213633654E-02
    0.3900000000E+06    0.3996762706E-03    0.6948669619E+00    0.7793285427E-02    0.6105972083E+00    0.1217185192E-02
    0.4100000000E+06    0.3674988445E-03    0.6948645539E+00    0.7483763169E-02    0.6130772035E+00    0.1220568663E-02
    0.4300000000E+06    0.3390743310E-03    0.6948622167E+00    0.7197488539E-02    0.6153488928E+00    0.1223799664E-02
    0.4500000000E+06    0.3138403864E-03    0.6948599472E+00    0.6931971339E-02    0.6174374766E+00    0.1226891696E-02
    0.4700000000E+06    0.2913361576E-03    0.6948577425E+00    0.6685059863E-02    0.6193642440E+00    0.1229856532E-02
    0.4900000000E+06    0.2711810896E-03    0.6948555995E+00    0.6454886190E-02    0.6211473045E+00    0.1232704494E-02
    0.1000000000E+06    0.2799313814E-02    0.6949038538E+00    0.1856110382E-01    0.4976866682E+00    0.1128602081E-02
    0.3000000000E+06    0.6140327520E-03    0.6948787388E+00    0.9564252833E-02    0.5958901236E+00    0.1199587268E-02
    0.5000000000E+06    0.2618834545E-03    0.6948545502E+00    0.6345558745E-02    0.6219898779E+00    0.1234087536E-02
    0.7000000000E+06    0.1448253749E-03    0.6948361753E+00    0.4734773489E-02    0.6340996319E+00    0.1257350564E-02
    0.9000000000E+06    0.9196262650E-04    0.6948214907E+00    0.3771710680E-02    0.6410901440E+00    0.1275010749E-02
    0.1100000000E+07    0.6363293531E-04    0.6948092716E+00    0.3132056528E-02    0.6456404747E+00    0.1289289619E-02
    0.1300000000E+07    0.4668687797E-04    0.6947988046E+00    0.2676689695E-02    0.6488380329E+00    0.1301298083E-02
    0.1500000000E+07    0.3574169693E-04    0.6947896447E+00    0.2336167296E-02    0.6512077549E+00    0.1311673403E-02
    0.1700000000E+07    0.2826006247E-04    0.6947814971E+00    0.2071999463E-02    0.6530341291E+00    0.1320815828E-02
    0.1900000000E+07    0.2291794389E-04    0.6947741566E+00    0.1861147425E-02    0.6544847133E+00    0.1328993549E-02
    0.2100000000E+07    0.1896914683E-04    0.6947674746E+00    0.1688983603E-02    0.6556646073E+00    0.1336395238E-02
    0.2300000000E+07    0.1596693390E-04    0.6947613405E+00    0.1545777014E-02    0.6566430707E+00    0.1343158757E-02
    0.2500000000E+07    0.1363048355E-04    0.6947556693E+00    0.1424804060E-02    0.6574675984E+00    0.1349387968E-02
    0.2700000000E+07    0.1177602745E-04    0.6947503946E+00    0.1321270873E-02    0.6581718457E+00    0.1355163101E-02
    0.2900000000E+07    0.1027918169E-04    0.6947454634E+00    0.1231667834E-02    0.6587803264E+00    0.1360547444E-02
    0.3100000000E+07    0.9053303075E-05    0.6947408325E+00    0.1153366809E-02    0.6593113186E+00    0.1365591816E-02
    0.3300000000E+07    0.8036524581E-05    0.6947364667E+00    0.1084360937E-02    0.6597787287E+00    0.1370337653E-02
    0.3500000000E+07    0.7183707197E-05    0.6947323365E+00    0.1023091425E-02    0.6601933243E+00    0.1374819192E-02
    0.3700000000E+07    0.6461286490E-05    0.6947284173E+00    0.9683291860E-03    0.6605635724E+00    0.1379065056E-02
    0.3900000000E+07    0.5843881807E-05    0.6947246879E+00    0.9190921091E-03    0.6608962226E+00    0.1383099418E-02
    0.4100000000E+07    0.5312011025E-05    0.6947211303E+00    0.8745860312E-03    0.6611967213E+00    0.1386942886E-02
    0.4300000000E+07    0.4850517093E-05    0.6947177291E+00    0.8341618607E-03    0.6614695118E+00    0.1390613172E-02
    0.4500000000E+07    0.4447463691E-05    0.6947144707E+00    0.7972839209E-03    0.6617182550E+00    0.1394125609E-02
    0.4700000000E+07    0.4093346637E-05    0.6947113433E+00    0.7635062322E-03    0.6619459942E+00    0.1397493569E-02
    0.4900000000E+07    0.3780521866E-05    0.6947083365E+00    0.7324545050E-03    0.6621552803E+00    0.1400728775E-02
    0.1000000000E+07    0.7583716154E-04    0.6948151258E+00    0.3422527667E-02    0.6435828883E+00    0.1282487972E-02
    0.3000000000E+07    0.9636706744E-05    0.6947431127E+00    0.1191242201E-02    0.6590545538E+00    0.1363109346E-02
    0.5000000000E+07    0.3637608026E-05    0.6947068754E+00    0.7178500415E-03    0.6622536899E+00    0.1402299875E-02
    0.7000000000E+07    0.1916889318E-05    0.6946822212E+00    0.5127680868E-03    0.6636343320E+00    0.1428726355E-02
    0.9000000000E+07    0.1191242343E-05    0.6946634239E+00    0.3984264682E-03    0.6644035231E+00    0.1448788311E-02
    0.1100000000E+08    0.8171963313E-06    0.6946481863E+00    0.3255729102E-03    0.6648937012E+00    0.1465009167E-02
    0.1300000000E+08    0.5988424315E-06    0.6946353490E+00    0.2751220644E-03    0.6652333217E+00    0.1478650852E-02
    0.1500000000E+08    0.4600639390E-06    0.6946242432E+00    0.2381318923E-03    0.6654824913E+00    0.1490437276E-02
    0.1700000000E+08    0.3662278961E-06    0.6946144475E+00    0.2098574720E-03    0.6656730852E+00    0.1500823117E-02
    0.1900000000E+08    0.2997169672E-06    0.6946056784E+00    0.1875479738E-03    0.6658235788E+00    0.1510113042E-02
    0.2100000000E+08    0.2507906596E-06    0.6945977362E+00    0.1694991187E-03    0.6659454185E+00    0.1518521378E-02
    0.2300000000E+08    0.2137031142E-06    0.6945904748E+00    0.1545989131E-03    0.6660460738E+00    0.1526204742E-02
    0.2500000000E+08    0.1848843965E-06    0.6945837837E+00    0.1420910350E-03    0.6661306261E+00    0.1533281122E-02
    0.2700000000E+08    0.1620201257E-06    0.6945775778E+00    0.1314432273E-03    0.6662026523E+00    0.1539841660E-02
