  Pressure (Pa) 23mC5-500 (mol/kg) 24mC5-500 (mol/kg) 2mC6-500 (mol/kg) 3mC6-500 (mol/kg) C7-500 (mol/kg)
    0.1000000000E+01    0.2315098196E-05    0.1741034972E+00    0.5132528768E-05    0.7346141137E-06    0.4216147499E-02
    0.3000000000E+01    0.4265662819E-05    0.3481041981E+00    0.8980102881E-05    0.1898294498E-05    0.4272323525E-02
    0.5000000000E+01    0.5068166577E-05    0.4350666308E+00    0.1046641360E-04    0.2971745912E-05    0.4300481187E-02
    0.7000000000E+01    0.5494609455E-05    0.4872321732E+00    0.1134816168E-04    0.4000668879E-05    0.4317796489E-02
    0.9000000000E+01    0.5769273914E-05    0.5220042846E+00    0.1205932537E-04    0.5000632273E-05    0.4329648315E-02
    0.1100000000E+02    0.5975656584E-05    0.5468391002E+00    0.1273257724E-04    0.5979472803E-05    0.4338336733E-02
    0.1300000000E+02    0.6149751179E-05    0.5654638844E+00    0.1341202221E-04    0.6941875880E-05    0.4345018652E-02
    0.1500000000E+02    0.6308612295E-05    0.5799490271E+00    0.1411175806E-04    0.7890940318E-05    0.4350342281E-02
    0.1700000000E+02    0.6460838035E-05    0.5915366240E+00    0.1483493716E-04    0.8828857840E-05    0.4354700270E-02
    0.1900000000E+02    0.6610931766E-05    0.6010170317E+00    0.1558067357E-04    0.9757254938E-05    0.4358345010E-02
    0.2100000000E+02    0.6761292526E-05    0.6089171188E+00    0.1634671492E-04    0.1067738315E-04    0.4361446497E-02
    0.2300000000E+02    0.6913189531E-05    0.6156016202E+00    0.1713050539E-04    0.1159023312E-04    0.4364123653E-02
    0.2500000000E+02    0.7067266197E-05    0.6213310491E+00    0.1792960039E-04    0.1249660705E-04    0.4366462314E-02
    0.2700000000E+02    0.7223812339E-05    0.6262964408E+00    0.1874181144E-04    0.1339716676E-04    0.4368526088E-02
    0.2900000000E+02    0.7382916267E-05    0.6306410673E+00    0.1956523796E-04    0.1429246686E-04    0.4370363179E-02
    0.3100000000E+02    0.7544552033E-05    0.6344744862E+00    0.2039825339E-04    0.1518297835E-04    0.4372010835E-02
    0.3300000000E+02    0.7708630472E-05    0.6378819070E+00    0.2123947501E-04    0.1606910578E-04    0.4373498328E-02
    0.3500000000E+02    0.7875029437E-05    0.6409305987E+00    0.2208773034E-04    0.1695120009E-04    0.4374849005E-02
    0.3700000000E+02    0.8043611812E-05    0.6436743755E+00    0.2294202519E-04    0.1782956841E-04    0.4376081736E-02
    0.3900000000E+02    0.8214236216E-05    0.6461568004E+00    0.2380151549E-04    0.1870448157E-04    0.4377211949E-02
    0.4100000000E+02    0.8386763274E-05    0.6484135154E+00    0.2466548307E-04    0.1957618001E-04    0.4378252398E-02
    0.4300000000E+02    0.8561059157E-05    0.6504739634E+00    0.2553331535E-04    0.2044487858E-04    0.4379213723E-02
    0.4500000000E+02    0.8736997471E-05    0.6523626797E+00    0.2640448834E-04    0.2131077026E-04    0.4380104879E-02
    0.4700000000E+02    0.8914460104E-05    0.6541002739E+00    0.2727855263E-04    0.2217402928E-04    0.4380933461E-02
    0.4900000000E+02    0.9093337456E-05    0.6557041846E+00    0.2815512162E-04    0.2303481369E-04    0.4381705959E-02
    0.1000000000E+02    0.5878110949E-05    0.5353771276E+00    0.1239685513E-04    0.5492351120E-05    0.4334299157E-02
    0.3000000000E+02    0.7463422191E-05    0.6326158679E+00    0.1998063880E-04    0.1473829451E-04    0.4371208698E-02
    0.5000000000E+02    0.9183274698E-05    0.6564607383E+00    0.2859423934E-04    0.2346432339E-04    0.4382072953E-02
    0.7000000000E+02    0.1103576936E-04    0.6672383676E+00    0.3744776809E-04    0.3195374604E-04    0.4387487766E-02
    0.9000000000E+02    0.1295486847E-04    0.6733796741E+00    0.4635579064E-04    0.4030460140E-04    0.4390700389E-02
    0.1100000000E+03    0.1491124411E-04    0.6773465782E+00    0.5527009515E-04    0.4856662671E-04    0.4392756477E-02
    0.1300000000E+03    0.1689094724E-04    0.6801200896E+00    0.6417856631E-04    0.5676974046E-04    0.4394110150E-02
    0.1500000000E+03    0.1888681840E-04    0.6821682493E+00    0.7308037685E-04    0.6493384842E-04    0.4394995587E-02
    0.1700000000E+03    0.2089498699E-04    0.6837426525E+00    0.8197845012E-04    0.7307312273E-04    0.4395547957E-02
    0.1900000000E+03    0.2291330175E-04    0.6849906000E+00    0.9087684951E-04    0.8119816139E-04    0.4395851771E-02
    0.2100000000E+03    0.2494056496E-04    0.6860040650E+00    0.9977981115E-04    0.8931719265E-04    0.4395963112E-02
    0.2300000000E+03    0.2697613225E-04    0.6868434392E+00    0.1086913846E-03    0.9743679821E-04    0.4395920964E-02
    0.2500000000E+03    0.2901969173E-04    0.6875500169E+00    0.1176153133E-03    0.1055623725E-03    0.4395753438E-02
    0.2700000000E+03    0.3107113647E-04    0.6881529901E+00    0.1265550121E-03    0.1136984280E-03    0.4395481424E-02
    0.2900000000E+03    0.3313048818E-04    0.6886735797E+00    0.1355135837E-03    0.1218488057E-03    0.4395120838E-02
    0.3100000000E+03    0.3519785020E-04    0.6891275819E+00    0.1444938488E-03    0.1300168247E-03    0.4394684065E-02
    0.3300000000E+03    0.3727337785E-04    0.6895269977E+00    0.1534983787E-03    0.1382053915E-03    0.4394180914E-02
    0.3500000000E+03    0.3935725932E-04    0.6898811080E+00    0.1625295271E-03    0.1464170811E-03    0.4393619277E-02
    0.3700000000E+03    0.4144970325E-04    0.6901972028E+00    0.1715894590E-03    0.1546541992E-03    0.4393005588E-02
    0.3900000000E+03    0.4355093051E-04    0.6904810880E+00    0.1806801751E-03    0.1629188295E-03    0.4392345156E-02
    0.4100000000E+03    0.4566116879E-04    0.6907374445E+00    0.1898035341E-03    0.1712128722E-03    0.4391642403E-02
    0.4300000000E+03    0.4778064896E-04    0.6909700884E+00    0.1989612709E-03    0.1795380728E-03    0.4390901054E-02
    0.4500000000E+03    0.4990960272E-04    0.6911821617E+00    0.2081550130E-03    0.1878960469E-03    0.4390124265E-02
    0.4700000000E+03    0.5204826106E-04    0.6913762748E+00    0.2173862938E-03    0.1962882995E-03    0.4389314732E-02
    0.4900000000E+03    0.5419685325E-04    0.6915546147E+00    0.2266565648E-03    0.2047162410E-03    0.4388474777E-02
    0.1000000000E+03    0.1392949092E-04    0.6755557541E+00    0.5081333085E-04    0.4444453936E-04    0.4391837136E-02
    0.3000000000E+03    0.3416315915E-04    0.6889080798E+00    0.1400008384E-03    0.1259304198E-03    0.4394911310E-02
    0.5000000000E+03    0.5527494556E-04    0.6916384578E+00    0.2313067553E-03    0.2089440133E-03    0.4388044028E-02
    0.7000000000E+03    0.7741233613E-04    0.6928136626E+00    0.3266643894E-03    0.2956648360E-03    0.4378200765E-02
    0.9000000000E+03    0.1007877625E-03    0.6934673780E+00    0.4272250224E-03    0.3871797237E-03    0.4366547398E-02
    0.1100000000E+04    0.1256007780E-03    0.6938834367E+00    0.5339275346E-03    0.4843521776E-03    0.4353437629E-02
    0.1300000000E+04    0.1520528043E-03    0.6941713593E+00    0.6476752528E-03    0.5880092671E-03    0.4338979153E-02
    0.1500000000E+04    0.1803581700E-03    0.6943823499E+00    0.7694112749E-03    0.6990146127E-03    0.4323173631E-02
    0.1700000000E+04    0.2107523486E-03    0.6945435470E+00    0.9001632916E-03    0.8183102923E-03    0.4305963620E-02
    0.1900000000E+04    0.2434992541E-03    0.6946706734E+00    0.1041078884E-02    0.9469494106E-03    0.4287250579E-02
    0.2100000000E+04    0.2788986673E-03    0.6947734665E+00    0.1193459419E-02    0.1086127289E-02    0.4266901559E-02
    0.2300000000E+04    0.3172944773E-03    0.6948582783E+00    0.1358796687E-02    0.1237215196E-02    0.4244750510E-02
    0.2500000000E+04    0.3590842913E-03    0.6949294289E+00    0.1538815125E-02    0.1401799282E-02    0.4220596501E-02
    0.2700000000E+04    0.4047309577E-03    0.6949899581E+00    0.1735522204E-02    0.1581727086E-02    0.4194199686E-02
    0.2900000000E+04    0.4547766142E-03    0.6950420672E+00    0.1951269730E-02    0.1779164181E-02    0.4165275309E-02
    0.3100000000E+04    0.5098599988E-03    0.6950873892E+00    0.2188829340E-02    0.1996664005E-02    0.4133485660E-02
    0.3300000000E+04    0.5707379357E-03    0.6951271608E+00    0.2451486209E-02    0.2237254598E-02    0.4098429745E-02
    0.3500000000E+04    0.6383121389E-03    0.6951623362E+00    0.2743156004E-02    0.2504546954E-02    0.4059630212E-02
    0.3700000000E+04    0.7136627560E-03    0.6951936628E+00    0.3068531337E-02    0.2802870827E-02    0.4016516988E-02
    0.3900000000E+04    0.7980903956E-03    0.6952217346E+00    0.3433265420E-02    0.3137445205E-02    0.3968406904E-02
    0.4100000000E+04    0.8931687045E-03    0.6952470297E+00    0.3844202075E-02    0.3514592061E-02    0.3914478523E-02
    0.4300000000E+04    0.1000809788E-02    0.6952699370E+00    0.4309662326E-02    0.3942003088E-02    0.3853741383E-02
    0.4500000000E+04    0.1123344688E-02    0.6952907761E+00    0.4839797578E-02    0.4429069008E-02    0.3784999131E-02
    0.4700000000E+04    0.1263620273E-02    0.6953098122E+00    0.5447015917E-02    0.4987278089E-02    0.3706806749E-02
    0.4900000000E+04    0.1425111403E-02    0.6953272672E+00    0.6146477407E-02    0.5630680895E-02    0.3617423885E-02
    0.1000000000E+04    0.1130021756E-03    0.6936962210E+00    0.4797523676E-03    0.4350073049E-03    0.4360164446E-02
    0.3000000000E+04    0.4816443416E-03    0.6950654916E+00    0.2067130980E-02    0.1885229274E-02    0.4149762084E-02
    0.5000000000E+04    0.1515100114E-02    0.6953354614E+00    0.6536421252E-02    0.5989545831E-02    0.3567900155E-02
    0.7000000000E+04    0.5636323972E-02    0.6954493230E+00    0.2451597604E-01    0.2265327991E-01    0.1488815969E-02
    0.9000000000E+04    0.9212217076E-02    0.6955115290E+00    0.4065978873E-01    0.3814313313E-01    0.3350831375E-03
    0.1100000000E+05    0.1058088981E-01    0.6955504349E+00    0.4742442358E-01    0.4519837336E-01    0.3102142818E-03
    0.1300000000E+05    0.1170900902E-01    0.6955768930E+00    0.5327337074E-01    0.5155618585E-01    0.3127042020E-03
    0.1500000000E+05    0.1268315834E-01    0.6955959424E+00    0.5855450873E-01    0.5751337878E-01    0.3151981033E-03
    0.1700000000E+05    0.1352695769E-01    0.6956102372E+00    0.6334586957E-01    0.6312018087E-01    0.3174008870E-03
    0.1900000000E+05    0.1425908921E-01    0.6956213059E+00    0.6770899696E-01    0.6841557035E-01    0.3193710252E-03
    0.2100000000E+05    0.1489504653E-01    0.6956300898E+00    0.7169553404E-01    0.7343259622E-01    0.3211539848E-03
    0.2300000000E+05    0.1544777974E-01    0.6956371992E+00    0.7534918046E-01    0.7819952998E-01    0.3227830576E-03
    0.2500000000E+05    0.1592818230E-01    0.6956430473E+00    0.7870716006E-01    0.8274071439E-01    0.3242833164E-03
    0.2700000000E+05    0.1634547171E-01    0.6956479230E+00    0.8180137450E-01    0.8707723532E-01    0.3256741229E-03
    0.2900000000E+05    0.1670748987E-01    0.6956520343E+00    0.8465931940E-01    0.9122745925E-01    0.3269707462E-03
    0.3100000000E+05    0.1702094209E-01    0.6956555348E+00    0.8730481794E-01    0.9520746690E-01    0.3281854443E-03
    0.3300000000E+05    0.1729158882E-01    0.6956585401E+00    0.8975861288E-01    0.9903140571E-01    0.3293282102E-03
    0.3500000000E+05    0.1752440042E-01    0.6956611390E+00    0.9203884795E-01    0.1027117785E+00    0.3304072994E-03
    0.3700000000E+05    0.1772368308E-01    0.6956634006E+00    0.9416146177E-01    0.1062596815E+00    0.3314296121E-03
    0.3900000000E+05    0.1789318181E-01    0.6956653795E+00    0.9614051247E-01    0.1096850016E+00    0.3324009758E-03
    0.4100000000E+05    0.1803616525E-01    0.6956671193E+00    0.9798844661E-01    0.1129965810E+00    0.3333263575E-03
    0.4300000000E+05    0.1815549582E-01    0.6956686556E+00    0.9971632338E-01    0.1162023557E+00    0.3342100258E-03
    0.4500000000E+05    0.1825368814E-01    0.6956700171E+00    0.1013340024E+00    0.1193094718E+00    0.3350556763E-03
    0.4700000000E+05    0.1833295779E-01    0.6956712278E+00    0.1028503017E+00    0.1223243843E+00    0.3358665304E-03
    0.4900000000E+05    0.1839526239E-01    0.6956723073E+00    0.1042731320E+00    0.1252529414E+00    0.3366454134E-03
    0.1000000000E+05    0.9944671359E-02    0.6955330116E+00    0.4423337147E-01    0.4182750214E-01    0.3115578618E-03
    0.3000000000E+05    0.1686990652E-01    0.6956538529E+00    0.8600726197E-01    0.9323781424E-01    0.3275876653E-03
    0.5000000000E+05    0.1842060263E-01    0.6956728033E+00    0.1049517484E+00    0.1266865163E+00    0.3370236560E-03
    0.7000000000E+05    0.1836680800E-01    0.6956787415E+00    0.1150152383E+00    0.1518893378E+00    0.3433855816E-03
    0.9000000000E+05    0.1775255444E-01    0.6956808197E+00    0.1207396549E+00    0.1723640689E+00    0.3482151107E-03
    0.1100000000E+06    0.1694456727E-01    0.6956813582E+00    0.1240454738E+00    0.1897550337E+00    0.3521199205E-03
    0.1300000000E+06    0.1608887749E-01    0.6956811835E+00    0.1258831796E+00    0.2049590861E+00    0.3554038496E-03
    0.1500000000E+06    0.1524712154E-01    0.6956806505E+00    0.1267759622E+00    0.2185193879E+00    0.3582411794E-03
    0.1700000000E+06    0.1444519077E-01    0.6956799312E+00    0.1270347155E+00    0.2307907446E+00    0.3607413664E-03
    0.1900000000E+06    0.1369283238E-01    0.6956791156E+00    0.1268551164E+00    0.2420185337E+00    0.3629777516E-03
    0.2100000000E+06    0.1299225220E-01    0.6956782536E+00    0.1263659372E+00    0.2523801661E+00    0.3650019283E-03
    0.2300000000E+06    0.1234212740E-01    0.6956773740E+00    0.1256549690E+00    0.2620085454E+00    0.3668515961E-03
    0.2500000000E+06    0.1173955751E-01    0.6956764937E+00    0.1247837935E+00    0.2710061525E+00    0.3685551561E-03
    0.2700000000E+06    0.1118103608E-01    0.6956756229E+00    0.1237966235E+00    0.2794539245E+00    0.3701345471E-03
    0.2900000000E+06    0.1066293722E-01    0.6956747673E+00    0.1227258152E+00    0.2874170814E+00    0.3716070752E-03
    0.3100000000E+06    0.1018175433E-01    0.6956739306E+00    0.1215954238E+00    0.2949490840E+00    0.3729866367E-03
    0.3300000000E+06    0.9734209702E-02    0.6956731145E+00    0.1204235679E+00    0.3020944021E+00    0.3742845624E-03
    0.3500000000E+06    0.9317296629E-02    0.6956723199E+00    0.1192240404E+00    0.3088905004E+00    0.3755102143E-03
    0.3700000000E+06    0.8928286193E-02    0.6956715470E+00    0.1180074313E+00    0.3153692949E+00    0.3766714191E-03
    0.3900000000E+06    0.8564716426E-02    0.6956707954E+00    0.1167819260E+00    0.3215582423E+00    0.3777747872E-03
    0.4100000000E+06    0.8224373201E-02    0.6956700649E+00    0.1155538820E+00    0.3274811690E+00    0.3788259535E-03
    0.4300000000E+06    0.7905268023E-02    0.6956693547E+00    0.1143282528E+00    0.3331589114E+00    0.3798297611E-03
    0.4500000000E+06    0.7605615428E-02    0.6956686641E+00    0.1131089028E+00    0.3386098184E+00    0.3807904038E-03
    0.4700000000E+06    0.7323811390E-02    0.6956679925E+00    0.1118988447E+00    0.3438501493E+00    0.3817115369E-03
    0.4900000000E+06    0.7058413392E-02    0.6956673389E+00    0.1107004205E+00    0.3488943933E+00    0.3825963671E-03
    0.1000000000E+06    0.1736075176E-01    0.6956812129E+00    0.1226215798E+00    0.1813777603E+00    0.3502598907E-03
    0.3000000000E+06    0.1041794222E-01    0.6956743465E+00    0.1221668176E+00    0.2912340132E+00    0.3723077164E-03
    0.5000000000E+06    0.6931455555E-02    0.6956670187E+00    0.1101061545E+00    0.3513470914E+00    0.3830260654E-03
    0.7000000000E+06    0.4998960343E-02    0.6956613908E+00    0.9908893689E-01    0.3926557215E+00    0.3902539164E-03
    0.9000000000E+06    0.3800512188E-02    0.6956568742E+00    0.8980223675E-01    0.4235658606E+00    0.3957412417E-03
    0.1100000000E+07    0.2998800002E-02    0.6956531075E+00    0.8201342931E-01    0.4478332224E+00    0.4001780972E-03
    0.1300000000E+07    0.2432801392E-02    0.6956498764E+00    0.7542829865E-01    0.4675049700E+00    0.4039095793E-03
    0.1500000000E+07    0.2016750939E-02    0.6956470463E+00    0.6980242548E-01    0.4838281963E+00    0.4071336578E-03
    0.1700000000E+07    0.1701139005E-02    0.6956445273E+00    0.6494642162E-01    0.4976194708E+00    0.4099746769E-03
    0.1900000000E+07    0.1455577311E-02    0.6956422567E+00    0.6071511256E-01    0.5094415737E+00    0.4125159575E-03
    0.2100000000E+07    0.1260490283E-02    0.6956401890E+00    0.5699660129E-01    0.5196976422E+00    0.4148161159E-03
    0.2300000000E+07    0.1102764350E-02    0.6956382903E+00    0.5370372647E-01    0.5286853596E+00    0.4169179850E-03
    0.2500000000E+07    0.9733255414E-03    0.6956365345E+00    0.5076778591E-01    0.5366300267E+00    0.4188538339E-03
    0.2700000000E+07    0.8657213206E-03    0.6956349011E+00    0.4813398693E-01    0.5437056953E+00    0.4206485897E-03
    0.2900000000E+07    0.7752548566E-03    0.6956333738E+00    0.4575814002E-01    0.5500491848E+00    0.4223219161E-03
    0.3100000000E+07    0.6984374614E-03    0.6956319394E+00    0.4360423487E-01    0.5557696703E+00    0.4238896030E-03
    0.3300000000E+07    0.6326315495E-03    0.6956305869E+00    0.4164264367E-01    0.5609554146E+00    0.4253645250E-03
    0.3500000000E+07    0.5758115816E-03    0.6956293073E+00    0.3984877369E-01    0.5656786007E+00    0.4267573201E-03
    0.3700000000E+07    0.5264002377E-03    0.6956280929E+00    0.3820204506E-01    0.5699988696E+00    0.4280768814E-03
    0.3900000000E+07    0.4831538118E-03    0.6956269372E+00    0.3668510663E-01    0.5739659548E+00    0.4293307204E-03
    0.4100000000E+07    0.4450805503E-03    0.6956258348E+00    0.3528322804E-01    0.5776216734E+00    0.4305252401E-03
    0.4300000000E+07    0.4113814977E-03    0.6956247807E+00    0.3398382379E-01    0.5810014523E+00    0.4316659438E-03
    0.4500000000E+07    0.3814070009E-03    0.6956237709E+00    0.3277607710E-01    0.5841355113E+00    0.4327575967E-03
    0.4700000000E+07    0.3546242919E-03    0.6956228016E+00    0.3165064013E-01    0.5870497919E+00    0.4338043528E-03
    0.4900000000E+07    0.3305930245E-03    0.6956218696E+00    0.3059939304E-01    0.5897666920E+00    0.4348098556E-03
    0.1000000000E+07    0.3362605757E-02    0.6956549129E+00    0.8573980709E-01    0.4363766397E+00    0.3980646121E-03
    0.3000000000E+07    0.7353215720E-03    0.6956326457E+00    0.4465542842E-01    0.5529813606E+00    0.4231181006E-03
    0.5000000000E+07    0.3194921576E-03    0.6956214168E+00    0.3009934027E-01    0.5910573020E+00    0.4352981562E-03
    0.7000000000E+07    0.1787175702E-03    0.6956137743E+00    0.2267148146E-01    0.6101029328E+00    0.4435117584E-03
    0.9000000000E+07    0.1143155044E-03    0.6956079470E+00    0.1816997024E-01    0.6215402325E+00    0.4497474700E-03
    0.1100000000E+08    0.7948983158E-04    0.6956032231E+00    0.1515195177E-01    0.6291684956E+00    0.4547894462E-03
    0.1300000000E+08    0.5852219959E-04    0.6955992435E+00    0.1298879105E-01    0.6346178194E+00    0.4590298457E-03
    0.1500000000E+08    0.4491337180E-04    0.6955958010E+00    0.1136287285E-01    0.6387043221E+00    0.4626936381E-03
    0.1700000000E+08    0.3557587208E-04    0.6955927647E+00    0.1009648272E-01    0.6418818843E+00    0.4659221259E-03
    0.1900000000E+08    0.2888869008E-04    0.6955900468E+00    0.9082446491E-02    0.6444230484E+00    0.4688099942E-03
    0.2100000000E+08    0.2393373360E-04    0.6955875853E+00    0.8252304103E-02    0.6465013466E+00    0.4714238537E-03
    0.2300000000E+08    0.2015911503E-04    0.6955853350E+00    0.7560284289E-02    0.6482325099E+00    0.4738123794E-03
    0.2500000000E+08    0.1721673633E-04    0.6955832616E+00    0.6974628799E-02    0.6496966787E+00    0.4760122413E-03
    0.2700000000E+08    0.1487814914E-04    0.6955813387E+00    0.6472613622E-02    0.6509511036E+00    0.4780517668E-03
