  Pressure (Pa) 23mC5-500 (mol/kg) 24mC5-500 (mol/kg) 2mC6-500 (mol/kg) 3mC6-500 (mol/kg) C7-500 (mol/kg)
    0.1000000000E+01    0.2945306627E-05    0.6965210349E-01    0.2386587974E-04    0.6128186617E-05    0.4146715992E-02
    0.3000000000E+01    0.7034669428E-05    0.1740938696E+00    0.5517628872E-04    0.1513799804E-04    0.4176763244E-02
    0.5000000000E+01    0.9736112406E-05    0.2486700956E+00    0.7477498389E-04    0.2332155029E-04    0.4188468224E-02
    0.7000000000E+01    0.1162567971E-04    0.3045898358E+00    0.8793517031E-04    0.3112071713E-04    0.4195832762E-02
    0.9000000000E+01    0.1300673340E-04    0.3480763851E+00    0.9731291169E-04    0.3868125006E-04    0.4201001284E-02
    0.1100000000E+02    0.1405346933E-04    0.3828619812E+00    0.1043698836E-03    0.4607518537E-04    0.4204801826E-02
    0.1300000000E+02    0.1487213861E-04    0.4113208478E+00    0.1099589569E-03    0.5334502537E-04    0.4207665907E-02
    0.1500000000E+02    0.1553064313E-04    0.4350353696E+00    0.1146002348E-03    0.6051858821E-04    0.4209852305E-02
    0.1700000000E+02    0.1607403091E-04    0.4551008091E+00    0.1186220629E-03    0.6761538149E-04    0.4211529289E-02
    0.1900000000E+02    0.1653312053E-04    0.4722993631E+00    0.1222375351E-03    0.7464977878E-04    0.4212812294E-02
    0.2100000000E+02    0.1692954419E-04    0.4872045641E+00    0.1255880489E-03    0.8163277363E-04    0.4213783670E-02
    0.2300000000E+02    0.1727881984E-04    0.5002465133E+00    0.1287691038E-03    0.8857302393E-04    0.4214503957E-02
    0.2500000000E+02    0.1759228855E-04    0.5117540822E+00    0.1318461007E-03    0.9547751070E-04    0.4215018769E-02
    0.2700000000E+02    0.1787837319E-04    0.5219830404E+00    0.1348642956E-03    0.1023519733E-03    0.4215363170E-02
    0.2900000000E+02    0.1814341733E-04    0.5311352993E+00    0.1378552268E-03    0.1092012081E-03    0.4215564590E-02
    0.3100000000E+02    0.1839225730E-04    0.5393723797E+00    0.1408409527E-03    0.1160292791E-03    0.4215644804E-02
    0.3300000000E+02    0.1862862001E-04    0.5468250313E+00    0.1438368995E-03    0.1228396719E-03    0.4215621327E-02
    0.3500000000E+02    0.1885540464E-04    0.5536002276E+00    0.1468538051E-03    0.1296354075E-03    0.4215508410E-02
    0.3700000000E+02    0.1907488526E-04    0.5597863354E+00    0.1498990662E-03    0.1364191283E-03    0.4215317770E-02
    0.3900000000E+02    0.1928885861E-04    0.5654569921E+00    0.1529776822E-03    0.1431931652E-03    0.4215059127E-02
    0.4100000000E+02    0.1949875339E-04    0.5706740523E+00    0.1560929257E-03    0.1499595893E-03    0.4214740614E-02
    0.4300000000E+02    0.1970571202E-04    0.5754898534E+00    0.1592468215E-03    0.1567202531E-03    0.4214369087E-02
    0.4500000000E+02    0.1991065233E-04    0.5799489787E+00    0.1624404932E-03    0.1634768240E-03    0.4213950366E-02
    0.4700000000E+02    0.2011431478E-04    0.5840896423E+00    0.1656744144E-03    0.1702308110E-03    0.4213489422E-02
    0.4900000000E+02    0.2031729871E-04    0.5879447871E+00    0.1689485935E-03    0.1769835867E-03    0.4212990528E-02
    0.1000000000E+02    0.1356409991E-04    0.3663849671E+00    0.1010680730E-03    0.4239593112E-04    0.4203040037E-02
    0.3000000000E+02    0.1826960767E-04    0.5353594362E+00    0.1393476471E-03    0.1126176591E-03    0.4215618666E-02
    0.5000000000E+02    0.2041869203E-04    0.5897743632E+00    0.1706006890E-03    0.1803599164E-03    0.4212728024E-02
    0.7000000000E+02    0.2248969949E-04    0.6166404418E+00    0.2055945881E-03    0.2480794670E-03    0.4206161951E-02
    0.9000000000E+02    0.2471837233E-04    0.6326531446E+00    0.2437365350E-03    0.3166534138E-03    0.4198057941E-02
    0.1100000000E+03    0.2712652357E-04    0.6432842868E+00    0.2843961169E-03    0.3865679936E-03    0.4189087454E-02
    0.1300000000E+03    0.2970630395E-04    0.6508565989E+00    0.3272242886E-03    0.4581579296E-03    0.4179517956E-02
    0.1500000000E+03    0.3244824513E-04    0.6565242244E+00    0.3720502278E-03    0.5316873228E-03    0.4169469130E-02
    0.1700000000E+03    0.3534583188E-04    0.6609255303E+00    0.4188065478E-03    0.6073846506E-03    0.4158996195E-02
    0.1900000000E+03    0.3839572951E-04    0.6644422760E+00    0.4674880514E-03    0.6854605045E-03    0.4148122478E-02
    0.2100000000E+03    0.4159726437E-04    0.6673167783E+00    0.5181293695E-03    0.7661177041E-03    0.4136853877E-02
    0.2300000000E+03    0.4495189834E-04    0.6697102511E+00    0.5707926075E-03    0.8495576618E-03    0.4125185880E-02
    0.2500000000E+03    0.4846282741E-04    0.6717341171E+00    0.6255603985E-03    0.9359847614E-03    0.4113107210E-02
    0.2700000000E+03    0.5213470094E-04    0.6734678529E+00    0.6825319871E-03    0.1025609631E-02    0.4100601807E-02
    0.2900000000E+03    0.5597343502E-04    0.6749696723E+00    0.7418210898E-03    0.1118651790E-02    0.4087649922E-02
    0.3100000000E+03    0.5998609530E-04    0.6762831915E+00    0.8035548428E-03    0.1215341946E-02    0.4074228728E-02
    0.3300000000E+03    0.6418083087E-04    0.6774417344E+00    0.8678734529E-03    0.1315924108E-02    0.4060312640E-02
    0.3500000000E+03    0.6856684642E-04    0.6784712000E+00    0.9349303280E-03    0.1420657636E-02    0.4045873457E-02
    0.3700000000E+03    0.7315440381E-04    0.6793920208E+00    0.1004892559E-02    0.1529819291E-02    0.4030880378E-02
    0.3900000000E+03    0.7795484744E-04    0.6802205328E+00    0.1077941677E-02    0.1643705360E-02    0.4015299952E-02
    0.4100000000E+03    0.8298064955E-04    0.6809699532E+00    0.1154274640E-02    0.1762633886E-02    0.3999095952E-02
    0.4300000000E+03    0.8824547314E-04    0.6816510911E+00    0.1234105031E-02    0.1886947060E-02    0.3982229210E-02
    0.4500000000E+03    0.9376425128E-04    0.6822728715E+00    0.1317664462E-02    0.2017013800E-02    0.3964657407E-02
    0.4700000000E+03    0.9955328207E-04    0.6828427290E+00    0.1405204171E-02    0.2153232552E-02    0.3946334824E-02
    0.4900000000E+03    0.1056303395E-03    0.6833669064E+00    0.1496996830E-02    0.2296034363E-02    0.3927212062E-02
    0.1000000000E+03    0.2590034488E-04    0.6384562886E+00    0.2637787928E-03    0.3514199439E-03    0.4193659215E-02
    0.3000000000E+03    0.5795753997E-04    0.6756476845E+00    0.7723739280E-03    0.1166525953E-02    0.4080999525E-02
    0.5000000000E+03    0.1087828670E-03    0.6836135477E+00    0.1544579585E-02    0.2370048354E-02    0.3917334093E-02
    0.7000000000E+03    0.1929371935E-03    0.6870852579E+00    0.2810409522E-02    0.4338808646E-02    0.3661621629E-02
    0.9000000000E+03    0.3465029039E-03    0.6890291429E+00    0.5116289480E-02    0.7930928471E-02    0.3220185222E-02
    0.1100000000E+04    0.6508061537E-03    0.6902717839E+00    0.9695071121E-02    0.1508915490E-01    0.2404960526E-02
    0.1300000000E+04    0.1169048564E-02    0.6911346083E+00    0.1754201872E-01    0.2744274510E-01    0.1173404980E-02
    0.1500000000E+04    0.1626615845E-02    0.6917686410E+00    0.2458242783E-01    0.3871100280E-01    0.3533010983E-03
    0.1700000000E+04    0.1875237459E-02    0.6922542113E+00    0.2854425621E-01    0.4527351395E-01    0.1503578554E-03
    0.1900000000E+04    0.2048445059E-02    0.6926379849E+00    0.3140386766E-01    0.5016975540E-01    0.1186139791E-03
    0.2100000000E+04    0.2199930201E-02    0.6929489255E+00    0.3396438992E-01    0.5464920632E-01    0.1145033806E-03
    0.2300000000E+04    0.2340168154E-02    0.6932059618E+00    0.3638138518E-01    0.5895247704E-01    0.1144036402E-03
    0.2500000000E+04    0.2471364435E-02    0.6934219864E+00    0.3868570391E-01    0.6312451732E-01    0.1148522706E-03
    0.2700000000E+04    0.2594346525E-02    0.6936060845E+00    0.4088746511E-01    0.6717777611E-01    0.1153482327E-03
    0.2900000000E+04    0.2709686563E-02    0.6937648428E+00    0.4299309916E-01    0.7111912022E-01    0.1158218258E-03
    0.3100000000E+04    0.2817882345E-02    0.6939031527E+00    0.4500809760E-01    0.7495418597E-01    0.1162663793E-03
    0.3300000000E+04    0.2919389064E-02    0.6940247231E+00    0.4693748323E-01    0.7868810780E-01    0.1166840315E-03
    0.3500000000E+04    0.3014627105E-02    0.6941324171E+00    0.4878591341E-01    0.8232566189E-01    0.1170777236E-03
    0.3700000000E+04    0.3103985731E-02    0.6942284803E+00    0.5055772140E-01    0.8587131229E-01    0.1174500904E-03
    0.3900000000E+04    0.3187825871E-02    0.6943146986E+00    0.5225694526E-01    0.8932923894E-01    0.1178033765E-03
    0.4100000000E+04    0.3266482541E-02    0.6943925102E+00    0.5388735244E-01    0.9270336054E-01    0.1181394916E-03
    0.4300000000E+04    0.3340267025E-02    0.6944630861E+00    0.5545246185E-01    0.9599735507E-01    0.1184600706E-03
    0.4500000000E+04    0.3409468835E-02    0.6945273896E+00    0.5695556376E-01    0.9921467822E-01    0.1187665239E-03
    0.4700000000E+04    0.3474357489E-02    0.6945862204E+00    0.5839973779E-01    0.1023585801E+00    0.1190600767E-03
    0.4900000000E+04    0.3535184127E-02    0.6946402476E+00    0.5978786930E-01    0.1054321208E+00    0.1193418001E-03
    0.1000000000E+04    0.4725718762E-03    0.6897120569E+00    0.7011218019E-02    0.1088936917E-01    0.2874113536E-02
    0.3000000000E+04    0.2764648165E-02    0.6938362989E+00    0.4401160468E-01    0.7304960778E-01    0.1160476481E-03
    0.5000000000E+04    0.3564148007E-02    0.6946656398E+00    0.6046177136E-01    0.1069434133E+00    0.1194785245E-03
    0.7000000000E+04    0.3979331089E-02    0.6950210152E+00    0.7157260935E-01    0.1340945502E+00    0.1217708808E-03
    0.9000000000E+04    0.4176994918E-02    0.6952182182E+00    0.7932278537E-01    0.1566587660E+00    0.1235037538E-03
    0.1100000000E+05    0.4246471903E-02    0.6953435171E+00    0.8484123146E-01    0.1759278152E+00    0.1249014342E-03
    0.1300000000E+05    0.4238515735E-02    0.6954301104E+00    0.8881553359E-01    0.1927277925E+00    0.1260750327E-03
    0.1500000000E+05    0.4183280401E-02    0.6954934926E+00    0.9168641436E-01    0.2076147023E+00    0.1270879162E-03
    0.1700000000E+05    0.4099303571E-02    0.6955418657E+00    0.9374818274E-01    0.2209785141E+00    0.1279797255E-03
    0.1900000000E+05    0.3998280726E-02    0.6955799772E+00    0.9520408503E-01    0.2331021899E+00    0.1287769460E-03
    0.2100000000E+05    0.3887732412E-02    0.6956107648E+00    0.9619846067E-01    0.2441969697E+00    0.1294981686E-03
    0.2300000000E+05    0.3772557172E-02    0.6956361437E+00    0.9683626305E-01    0.2544244066E+00    0.1301569548E-03
    0.2500000000E+05    0.3655967429E-02    0.6956574157E+00    0.9719535969E-01    0.2639106453E+00    0.1307635069E-03
    0.2700000000E+05    0.3540070185E-02    0.6956754963E+00    0.9733453357E-01    0.2727559734E+00    0.1313256972E-03
    0.2900000000E+05    0.3426236371E-02    0.6956910483E+00    0.9729883404E-01    0.2810413897E+00    0.1318497294E-03
    0.3100000000E+05    0.3315340811E-02    0.6957045629E+00    0.9712324268E-01    0.2888332302E+00    0.1323405813E-03
    0.3300000000E+05    0.3207920974E-02    0.6957164124E+00    0.9683523898E-01    0.2961864983E+00    0.1328023085E-03
    0.3500000000E+05    0.3104283637E-02    0.6957268834E+00    0.9645663020E-01    0.3031473066E+00    0.1332382602E-03
    0.3700000000E+05    0.3004577499E-02    0.6957362007E+00    0.9600487881E-01    0.3097546993E+00    0.1336512348E-03
    0.3900000000E+05    0.2908843157E-02    0.6957445427E+00    0.9549408015E-01    0.3160420322E+00    0.1340435947E-03
    0.4100000000E+05    0.2817047820E-02    0.6957520532E+00    0.9493569246E-01    0.3220380335E+00    0.1344173529E-03
    0.4300000000E+05    0.2729109581E-02    0.6957588487E+00    0.9433908885E-01    0.3277676283E+00    0.1347742389E-03
    0.4500000000E+05    0.2644914477E-02    0.6957650254E+00    0.9371197935E-01    0.3332525886E+00    0.1351157497E-03
    0.4700000000E+05    0.2564328516E-02    0.6957706628E+00    0.9306073703E-01    0.3385120491E+00    0.1354431900E-03
    0.4900000000E+05    0.2487206153E-02    0.6957758274E+00    0.9239065244E-01    0.3435629224E+00    0.1357577038E-03
    0.1000000000E+05    0.4223952740E-02    0.6952871584E+00    0.8231057394E-01    0.1666455490E+00    0.1242359870E-03
    0.3000000000E+05    0.3370381262E-02    0.6956980347E+00    0.9722665590E-01    0.2849953357E+00    0.1320990307E-03
    0.5000000000E+05    0.2449896688E-02    0.6957782503E+00    0.9204995174E-01    0.3460149005E+00    0.1359104331E-03
    0.7000000000E+05    0.1849687479E-02    0.6958117765E+00    0.8499667584E-01    0.3870097087E+00    0.1384788433E-03
    0.9000000000E+05    0.1447760373E-02    0.6958299207E+00    0.7833229860E-01    0.4174671632E+00    0.1404281556E-03
    0.1100000000E+06    0.1166149790E-02    0.6958411561E+00    0.7241663764E-01    0.4413598245E+00    0.1420040280E-03
    0.1300000000E+06    0.9609379109E-03    0.6958487164E+00    0.6723630737E-01    0.4607663071E+00    0.1433292235E-03
    0.1500000000E+06    0.8065170830E-03    0.6958540990E+00    0.6270057677E-01    0.4769217019E+00    0.1444741357E-03
    0.1700000000E+06    0.6872185242E-03    0.6958580905E+00    0.5871248512E-01    0.4906227301E+00    0.1454829651E-03
    0.1900000000E+06    0.5930205669E-03    0.6958611423E+00    0.5518623548E-01    0.5024137644E+00    0.1463853235E-03
    0.2100000000E+06    0.5172640417E-03    0.6958635319E+00    0.5204998019E-01    0.5126829612E+00    0.1472020395E-03
    0.2300000000E+06    0.4553777261E-03    0.6958654387E+00    0.4924460362E-01    0.5217163722E+00    0.1479483313E-03
    0.2500000000E+06    0.4041350769E-03    0.6958669834E+00    0.4672164044E-01    0.5297304392E+00    0.1486356626E-03
    0.2700000000E+06    0.3612033343E-03    0.6958682506E+00    0.4444126339E-01    0.5368925179E+00    0.1492728883E-03
    0.2900000000E+06    0.3248603467E-03    0.6958693008E+00    0.4237058052E-01    0.5433343805E+00    0.1498669930E-03
    0.3100000000E+06    0.2938112433E-03    0.6958701786E+00    0.4048226178E-01    0.5491613993E+00    0.1504235851E-03
    0.3300000000E+06    0.2670665342E-03    0.6958709173E+00    0.3875345129E-01    0.5544589717E+00    0.1509472371E-03
    0.3500000000E+06    0.2438591146E-03    0.6958715426E+00    0.3716491080E-01    0.5592971220E+00    0.1514417272E-03
    0.3700000000E+06    0.2235865564E-03    0.6958720744E+00    0.3570034486E-01    0.5637338667E+00    0.1519102138E-03
    0.3900000000E+06    0.2057702191E-03    0.6958725283E+00    0.3434586722E-01    0.5678177198E+00    0.1523553643E-03
    0.4100000000E+06    0.1900257836E-03    0.6958729167E+00    0.3308957667E-01    0.5715895869E+00    0.1527794526E-03
    0.4300000000E+06    0.1760416886E-03    0.6958732496E+00    0.3192121799E-01    0.5750842187E+00    0.1531844330E-03
    0.4500000000E+06    0.1635631304E-03    0.6958735354E+00    0.3083190909E-01    0.5783313391E+00    0.1535719976E-03
    0.4700000000E+06    0.1523800372E-03    0.6958737807E+00    0.2981392012E-01    0.5813565313E+00    0.1539436215E-03
    0.4900000000E+06    0.1423179259E-03    0.6958739911E+00    0.2886049355E-01    0.5841819416E+00    0.1543005984E-03
    0.1000000000E+06    0.1295229552E-02    0.6958361387E+00    0.7527832839E-01    0.4300770831E+00    0.1412533910E-03
    0.3000000000E+06    0.3087419376E-03    0.6958697589E+00    0.4140514796E-01    0.5463190009E+00    0.1501496713E-03
    0.5000000000E+06    0.1376606803E-03    0.6958740847E+00    0.2840610843E-01    0.5855258503E+00    0.1544739561E-03
    0.7000000000E+06    0.7803236740E-04    0.6958749304E+00    0.2159079548E-01    0.6054957937E+00    0.1573899463E-03
    0.9000000000E+06    0.5033086966E-04    0.6958748348E+00    0.1739993613E-01    0.6176205888E+00    0.1596037289E-03
    0.1100000000E+07    0.3520523590E-04    0.6958744101E+00    0.1456419677E-01    0.6257671106E+00    0.1613937123E-03
    0.1300000000E+07    0.2603680657E-04    0.6958738613E+00    0.1251867723E-01    0.6316174821E+00    0.1628991244E-03
    0.1500000000E+07    0.2005621604E-04    0.6958732703E+00    0.1097395669E-01    0.6360222489E+00    0.1641998339E-03
    0.1700000000E+07    0.1593667001E-04    0.6958726730E+00    0.9766475736E-02    0.6394579785E+00    0.1653460055E-03
    0.1900000000E+07    0.1297709128E-04    0.6958720857E+00    0.8796853867E-02    0.6422125076E+00    0.1663712537E-03
    0.2100000000E+07    0.1077840947E-04    0.6958715159E+00    0.8001235561E-02    0.6444699662E+00    0.1672992260E-03
    0.2300000000E+07    0.9099756343E-05    0.6958709669E+00    0.7336725757E-02    0.6463536265E+00    0.1681472026E-03
    0.2500000000E+07    0.7788694238E-05    0.6958704394E+00    0.6773445781E-02    0.6479491261E+00    0.1689282015E-03
    0.2700000000E+07    0.6744897541E-05    0.6958699333E+00    0.6289946646E-02    0.6493178103E+00    0.1696522794E-03
    0.2900000000E+07    0.5900127827E-05    0.6958694478E+00    0.5870433588E-02    0.6505047737E+00    0.1703273689E-03
    0.3100000000E+07    0.5206649831E-05    0.6958689820E+00    0.5503019089E-02    0.6515439061E+00    0.1709598401E-03
    0.3300000000E+07    0.4630251854E-05    0.6958685347E+00    0.5178585695E-02    0.6524611683E+00    0.1715548871E-03
    0.3500000000E+07    0.4145890721E-05    0.6958681047E+00    0.4890024028E-02    0.6532767821E+00    0.1721168015E-03
    0.3700000000E+07    0.3734890509E-05    0.6958676909E+00    0.4631709111E-02    0.6540067329E+00    0.1726491711E-03
    0.3900000000E+07    0.3383092002E-05    0.6958672923E+00    0.4399132396E-02    0.6546638231E+00    0.1731550261E-03
    0.4100000000E+07    0.3079601018E-05    0.6958669080E+00    0.4188638041E-02    0.6552584269E+00    0.1736369498E-03
    0.4300000000E+07    0.2815923800E-05    0.6958665369E+00    0.3997230537E-02    0.6557990397E+00    0.1740971623E-03
    0.4500000000E+07    0.2585358424E-05    0.6958661783E+00    0.3822432155E-02    0.6562926845E+00    0.1745375861E-03
    0.4700000000E+07    0.2382559040E-05    0.6958658314E+00    0.3662175772E-02    0.6567452180E+00    0.1749598970E-03
    0.4900000000E+07    0.2203219029E-05    0.6958654954E+00    0.3514723256E-02    0.6571615624E+00    0.1753655649E-03
    0.1000000000E+07    0.4174942619E-04    0.6958746463E+00    0.1585726724E-01    0.6220577826E+00    0.1605410582E-03
    0.3000000000E+07    0.5536871977E-05    0.6958692125E+00    0.5680838430E-02    0.6510410402E+00    0.1706485832E-03
    0.5000000000E+07    0.2121225842E-05    0.6958653314E+00    0.3445329456E-02    0.6573574915E+00    0.1755625689E-03
    0.7000000000E+07    0.1130368921E-05    0.6958624923E+00    0.2467956330E-02    0.6601166197E+00    0.1788763505E-03
    0.9000000000E+07    0.7097666990E-06    0.6958602547E+00    0.1920648025E-02    0.6616617088E+00    0.1813921753E-03
    0.1100000000E+08    0.4918864266E-06    0.6958584051E+00    0.1571029129E-02    0.6626489712E+00    0.1834263978E-03
    0.1300000000E+08    0.3641537240E-06    0.6958568263E+00    0.1328507638E-02    0.6633340461E+00    0.1851372290E-03
    0.1500000000E+08    0.2826511897E-06    0.6958554474E+00    0.1150478025E-02    0.6638371294E+00    0.1866154302E-03
    0.1700000000E+08    0.2273341016E-06    0.6958542222E+00    0.1014273569E-02    0.6642221633E+00    0.1879180087E-03
    0.1900000000E+08    0.1879796685E-06    0.6958531189E+00    0.9067283067E-03    0.6645262907E+00    0.1890831643E-03
    0.2100000000E+08    0.1589230753E-06    0.6958521147E+00    0.8196732999E-03    0.6647725595E+00    0.1901377706E-03
    0.2300000000E+08    0.1368158767E-06    0.6958511928E+00    0.7477723663E-03    0.6649760277E+00    0.1911014654E-03
    0.2500000000E+08    0.1195737215E-06    0.6958503403E+00    0.6873926851E-03    0.6651469480E+00    0.1919890431E-03
    0.2700000000E+08    0.1058428971E-06    0.6958495471E+00    0.6359756846E-03    0.6652925425E+00    0.1928119322E-03
