  Pressure (Pa) 23mC5-500 (mol/kg) 24mC5-500 (mol/kg) 2mC6-500 (mol/kg) 3mC6-500 (mol/kg) C7-500 (mol/kg)
    0.1000000000E+01    0.3616984004E-05    0.6964944268E-01    0.2973255449E-04    0.8382669469E-06    0.4184499149E-02
    0.3000000000E+01    0.8654129062E-05    0.1740775524E+00    0.6889323312E-04    0.2129978300E-05    0.4230316382E-02
    0.5000000000E+01    0.1196717956E-04    0.2486373588E+00    0.9315592162E-04    0.3314789746E-05    0.4260019536E-02
    0.7000000000E+01    0.1426999827E-04    0.3045414586E+00    0.1092079427E-03    0.4448222474E-05    0.4282006155E-02
    0.9000000000E+01    0.1593984379E-04    0.3480140673E+00    0.1204352315E-03    0.5548947960E-05    0.4299057836E-02
    0.1100000000E+02    0.1719350906E-04    0.3827875149E+00    0.1287029991E-03    0.6626293698E-05    0.4312694990E-02
    0.1300000000E+02    0.1816324710E-04    0.4112358631E+00    0.1350995698E-03    0.7685804978E-05    0.4323856273E-02
    0.1500000000E+02    0.1893356885E-04    0.4349412744E+00    0.1402883180E-03    0.8731132524E-05    0.4333159805E-02
    0.1700000000E+02    0.1956052848E-04    0.4549987958E+00    0.1446877044E-03    0.9764848401E-05    0.4341031260E-02
    0.1900000000E+02    0.2008246190E-04    0.4721904351E+00    0.1485690130E-03    0.1078885494E-04    0.4347774100E-02
    0.2100000000E+02    0.2052626719E-04    0.4870895651E+00    0.1521120031E-03    0.1180461160E-04    0.4353610825E-02
    0.2300000000E+02    0.2091123079E-04    0.5001261552E+00    0.1554378730E-03    0.1281327059E-04    0.4358708455E-02
    0.2500000000E+02    0.2125144033E-04    0.5116289678E+00    0.1586294428E-03    0.1381576277E-04    0.4363194904E-02
    0.2700000000E+02    0.2155735205E-04    0.5218536829E+00    0.1617438671E-03    0.1481285450E-04    0.4367169856E-02
    0.2900000000E+02    0.2183683542E-04    0.5310021378E+00    0.1648208394E-03    0.1580518686E-04    0.4370712182E-02
    0.3100000000E+02    0.2209588533E-04    0.5392357920E+00    0.1678879996E-03    0.1679330336E-04    0.4373885135E-02
    0.3300000000E+02    0.2233911737E-04    0.5466853442E+00    0.1709645663E-03    0.1777767018E-04    0.4376740051E-02
    0.3500000000E+02    0.2257011831E-04    0.5534577251E+00    0.1740638136E-03    0.1875869126E-04    0.4379319045E-02
    0.3700000000E+02    0.2279169828E-04    0.5596412655E+00    0.1771947869E-03    0.1973671971E-04    0.4381657004E-02
    0.3900000000E+02    0.2300607464E-04    0.5653095726E+00    0.1803635043E-03    0.2071206663E-04    0.4383783082E-02
    0.4100000000E+02    0.2321500788E-04    0.5705244750E+00    0.1835738083E-03    0.2168500809E-04    0.4385721839E-02
    0.4300000000E+02    0.2341990322E-04    0.5753382881E+00    0.1868279746E-03    0.2265579056E-04    0.4387494116E-02
    0.4500000000E+02    0.2362188740E-04    0.5797955764E+00    0.1901271511E-03    0.2362463541E-04    0.4389117719E-02
    0.4700000000E+02    0.2382186730E-04    0.5839345375E+00    0.1934716768E-03    0.2459174245E-04    0.4390607954E-02
    0.4900000000E+02    0.2402057501E-04    0.5877881003E+00    0.1968613143E-03    0.2555729289E-04    0.4391978054E-02
    0.1000000000E+02    0.1660900106E-04    0.3663163584E+00    0.1248581182E-03    0.6090138176E-05    0.4306234938E-02
    0.3000000000E+02    0.2196859844E-04    0.5352245178E+00    0.1663542810E-03    0.1629974134E-04    0.4372341378E-02
    0.5000000000E+02    0.2411964156E-04    0.5896169266E+00    0.1985728613E-03    0.2603953656E-04    0.4392621708E-02
    0.7000000000E+02    0.2612934019E-04    0.6164720698E+00    0.2349164023E-03    0.3563615319E-04    0.4401320560E-02
    0.9000000000E+02    0.2828067536E-04    0.6324782772E+00    0.2744513042E-03    0.4520249997E-04    0.4405222317E-02
    0.1100000000E+03    0.3059319975E-04    0.6431050526E+00    0.3162518256E-03    0.5479687540E-04    0.4406619212E-02
    0.1300000000E+03    0.3305061844E-04    0.6506741765E+00    0.3597711911E-03    0.6445555646E-04    0.4406511557E-02
    0.1500000000E+03    0.3563496783E-04    0.6563393350E+00    0.4046964874E-03    0.7420390076E-04    0.4405408952E-02
    0.1700000000E+03    0.3833196001E-04    0.6607386490E+00    0.4508471660E-03    0.8406115048E-04    0.4403599560E-02
    0.1900000000E+03    0.4113107329E-04    0.6642537339E+00    0.4981191918E-03    0.9404284051E-04    0.4401259021E-02
    0.2100000000E+03    0.4402478194E-04    0.6671268164E+00    0.5464545108E-03    0.1041621349E-03    0.4398500557E-02
    0.2300000000E+03    0.4700781087E-04    0.6695190514E+00    0.5958238471E-03    0.1144306270E-03    0.4395400360E-02
    0.2500000000E+03    0.5007656014E-04    0.6715418211E+00    0.6462166593E-03    0.1248588472E-03    0.4392011430E-02
    0.2700000000E+03    0.5322868613E-04    0.6732745732E+00    0.6976350729E-03    0.1354566026E-03    0.4388371596E-02
    0.2900000000E+03    0.5646280149E-04    0.6747755006E+00    0.7500901063E-03    0.1462332114E-03    0.4384508384E-02
    0.3100000000E+03    0.5977825987E-04    0.6760882035E+00    0.8035992618E-03    0.1571976732E-03    0.4380442104E-02
    0.3300000000E+03    0.6317500068E-04    0.6772459939E+00    0.8581849566E-03    0.1683587948E-03    0.4376187861E-02
    0.3500000000E+03    0.6665343613E-04    0.6782747611E+00    0.9138734861E-03    0.1797252872E-03    0.4371756925E-02
    0.3700000000E+03    0.7021436844E-04    0.6791949302E+00    0.9706943304E-03    0.1913058420E-03    0.4367157665E-02
    0.3900000000E+03    0.7385892870E-04    0.6800228310E+00    0.1028679691E-02    0.2031091934E-03    0.4362396222E-02
    0.4100000000E+03    0.7758853152E-04    0.6807716760E+00    0.1087864183E-02    0.2151441703E-03    0.4357476979E-02
    0.4300000000E+03    0.8140484138E-04    0.6814522699E+00    0.1148284634E-02    0.2274197405E-03    0.4352402920E-02
    0.4500000000E+03    0.8530974772E-04    0.6820735343E+00    0.1209979961E-02    0.2399450494E-03    0.4347175888E-02
    0.4700000000E+03    0.8930534659E-04    0.6826429010E+00    0.1272991103E-02    0.2527294557E-03    0.4341796781E-02
    0.4900000000E+03    0.9339392752E-04    0.6831666103E+00    0.1337360994E-02    0.2657825633E-03    0.4336265700E-02
    0.1000000000E+03    0.2941762351E-04    0.6382790480E+00    0.2951096247E-03    0.4999357764E-04    0.4406154709E-02
    0.3000000000E+03    0.5811037882E-04    0.6754530960E+00    0.7767116187E-03    0.1516914070E-03    0.4382499580E-02
    0.5000000000E+03    0.9547385229E-04    0.6834130253E+00    0.1370069432E-02    0.2724129559E-03    0.4333443012E-02
    0.7000000000E+03    0.1426653301E-03    0.6868810135E+00    0.2107859993E-02    0.4217589488E-03    0.4268566016E-02
    0.9000000000E+03    0.2032566081E-03    0.6888221417E+00    0.3049519243E-02    0.6122350497E-03    0.4184788690E-02
    0.1100000000E+04    0.2831231091E-03    0.6900625760E+00    0.4287797752E-02    0.8628332946E-03    0.4075127499E-02
    0.1300000000E+04    0.3918484719E-03    0.6909235525E+00    0.5972370839E-02    0.1204090959E-02    0.3927856096E-02
    0.1500000000E+04    0.5454655201E-03    0.6915559913E+00    0.8353209537E-02    0.1687037477E-02    0.3723639543E-02
    0.1700000000E+04    0.7711371541E-03    0.6920401577E+00    0.1185438207E-01    0.2398430823E-02    0.3430850449E-02
    0.1900000000E+04    0.1112649734E-02    0.6924226750E+00    0.1716206886E-01    0.3479239349E-02    0.3001810098E-02
    0.2100000000E+04    0.1623323764E-02    0.6927324780E+00    0.2512079228E-01    0.5104864722E-02    0.2388716929E-02
    0.2300000000E+04    0.2300029116E-02    0.6929884737E+00    0.3571533402E-01    0.7279338345E-02    0.1631831628E-02
    0.2500000000E+04    0.2978048789E-02    0.6932035391E+00    0.4641811436E-01    0.9494726292E-02    0.9629605480E-03
    0.2700000000E+04    0.3472886894E-02    0.6933867471E+00    0.5434945667E-01    0.1116190092E-01    0.5816180001E-03
    0.2900000000E+04    0.3794593089E-02    0.6935446747E+00    0.5963048541E-01    0.1229816833E-01    0.4271242030E-03
    0.3100000000E+04    0.4027375928E-02    0.6936822056E+00    0.6355228653E-01    0.1316283579E-01    0.3746334351E-03
    0.3300000000E+04    0.4221905000E-02    0.6938030425E+00    0.6689804241E-01    0.1391456881E-01    0.3583290222E-03
    0.3500000000E+04    0.4398608514E-02    0.6939100432E+00    0.6998431830E-01    0.1461769188E-01    0.3538510021E-03
    0.3700000000E+04    0.4564881419E-02    0.6940054490E+00    0.7292535853E-01    0.1529536102E-01    0.3531372409E-03
    0.3900000000E+04    0.4723436936E-02    0.6940910421E+00    0.7576244635E-01    0.1595582324E-01    0.3535992660E-03
    0.4100000000E+04    0.4875384935E-02    0.6941682576E+00    0.7851182742E-01    0.1660219667E-01    0.3544100741E-03
    0.4300000000E+04    0.5021285580E-02    0.6942382638E+00    0.8118118078E-01    0.1723584653E-01    0.3553055701E-03
    0.4500000000E+04    0.5161503655E-02    0.6943020218E+00    0.8377517672E-01    0.1785752858E-01    0.3562022398E-03
    0.4700000000E+04    0.5296327995E-02    0.6943603291E+00    0.8629735429E-01    0.1846777631E-01    0.3570748262E-03
    0.4900000000E+04    0.5426012363E-02    0.6944138532E+00    0.8875076293E-01    0.1906703328E-01    0.3579168945E-03
    0.1000000000E+04    0.2402925419E-03    0.6895038984E+00    0.3623945858E-02    0.7284606827E-03    0.4133790766E-02
    0.3000000000E+04    0.3917971037E-02    0.6936157353E+00    0.6169754294E-01    0.1275155363E-01    0.3936213852E-03
    0.5000000000E+04    0.5489000547E-02    0.6944390010E+00    0.8995255679E-01    0.1936266629E-01    0.3583262564E-03
    0.7000000000E+04    0.6528617078E-02    0.6947902533E+00    0.1109737441E+00    0.2478383158E-01    0.3651984098E-03
    0.9000000000E+04    0.7250581884E-02    0.6949843131E+00    0.1274911144E+00    0.2944910607E-01    0.3703938728E-03
    0.1100000000E+05    0.7757986171E-02    0.6951070629E+00    0.1407910360E+00    0.3354995624E-01    0.3745843232E-03
    0.1300000000E+05    0.8115770183E-02    0.6951915077E+00    0.1517129583E+00    0.3721522876E-01    0.3781029134E-03
    0.1500000000E+05    0.8366528823E-02    0.6952530302E+00    0.1608279255E+00    0.4053523467E-01    0.3811396392E-03
    0.1700000000E+05    0.8539139535E-02    0.6952997624E+00    0.1685378821E+00    0.4357542581E-01    0.3838133567E-03
    0.1900000000E+05    0.8653725719E-02    0.6953364043E+00    0.1751339389E+00    0.4638458104E-01    0.3862034766E-03
    0.2100000000E+05    0.8724639289E-02    0.6953658605E+00    0.1808321059E+00    0.4899992496E-01    0.3883657398E-03
    0.2300000000E+05    0.8762320119E-02    0.6953900218E+00    0.1857960403E+00    0.5145044847E-01    0.3903408070E-03
    0.2500000000E+05    0.8774492411E-02    0.6954101715E+00    0.1901519992E+00    0.5375913219E-01    0.3921592678E-03
    0.2700000000E+05    0.8766955695E-02    0.6954272110E+00    0.1939989445E+00    0.5594447627E-01    0.3938447246E-03
    0.2900000000E+05    0.8744120428E-02    0.6954417917E+00    0.1974155398E+00    0.5802157866E-01    0.3954157779E-03
    0.3100000000E+05    0.8709378335E-02    0.6954543959E+00    0.2004651000E+00    0.6000291122E-01    0.3968873519E-03
    0.3300000000E+05    0.8665363307E-02    0.6954653884E+00    0.2031991592E+00    0.6189888889E-01    0.3982716063E-03
    0.3500000000E+05    0.8614138264E-02    0.6954750499E+00    0.2056600882E+00    0.6371829433E-01    0.3995785827E-03
    0.3700000000E+05    0.8557331022E-02    0.6954836000E+00    0.2078830435E+00    0.6546859939E-01    0.4008166710E-03
    0.3900000000E+05    0.8496234407E-02    0.6954912128E+00    0.2098974392E+00    0.6715621190E-01    0.4019929542E-03
    0.4100000000E+05    0.8431880940E-02    0.6954980282E+00    0.2117280722E+00    0.6878666758E-01    0.4031134677E-03
    0.4300000000E+05    0.8365099168E-02    0.6955041599E+00    0.2133959935E+00    0.7036478078E-01    0.4041833968E-03
    0.4500000000E+05    0.8296556594E-02    0.6955097011E+00    0.2149191887E+00    0.7189476436E-01    0.4052072298E-03
    0.4700000000E+05    0.8226792686E-02    0.6955147290E+00    0.2163131159E+00    0.7338032575E-01    0.4061888783E-03
    0.4900000000E+05    0.8156244490E-02    0.6955193080E+00    0.2175911338E+00    0.7482474474E-01    0.4071317719E-03
    0.1000000000E+05    0.7526383916E-02    0.6950519193E+00    0.1344829297E+00    0.3156091396E-01    0.3725892201E-03
    0.3000000000E+05    0.8728057839E-02    0.6954483158E+00    0.1989827368E+00    0.5902352259E-01    0.3961631837E-03
    0.5000000000E+05    0.8120789874E-02    0.6955214464E+00    0.2181903634E+00    0.7553244968E-01    0.4075896449E-03
    0.7000000000E+05    0.7427586987E-02    0.6955501841E+00    0.2262364546E+00    0.8809032093E-01    0.4152895190E-03
    0.9000000000E+05    0.6816365228E-02    0.6955646886E+00    0.2299290152E+00    0.9853339002E-01    0.4211333188E-03
    0.1100000000E+06    0.6295790139E-02    0.6955729787E+00    0.2315215850E+00    0.1076251235E+00    0.4258575470E-03
    0.1300000000E+06    0.5852080127E-02    0.6955780608E+00    0.2319689129E+00    0.1157618420E+00    0.4298302530E-03
    0.1500000000E+06    0.5470546124E-02    0.6955813014E+00    0.2317408327E+00    0.1231785023E+00    0.4332624785E-03
    0.1700000000E+06    0.5139089687E-02    0.6955834047E+00    0.2310931432E+00    0.1300273101E+00    0.4362867371E-03
    0.1900000000E+06    0.4848275539E-02    0.6955847673E+00    0.2301756210E+00    0.1364133149E+00    0.4389918047E-03
    0.2100000000E+06    0.4590811321E-02    0.6955856278E+00    0.2290808861E+00    0.1424125481E+00    0.4414401244E-03
    0.2300000000E+06    0.4361030653E-02    0.6955861369E+00    0.2278686813E+00    0.1480821077E+00    0.4436773200E-03
    0.2500000000E+06    0.4154485284E-02    0.6955863944E+00    0.2265788432E+00    0.1534661573E+00    0.4457377592E-03
    0.2700000000E+06    0.3967642267E-02    0.6955864680E+00    0.2252386468E+00    0.1585996880E+00    0.4476479885E-03
    0.2900000000E+06    0.3797662595E-02    0.6955864054E+00    0.2238671639E+00    0.1635109850E+00    0.4494289471E-03
    0.3100000000E+06    0.3642239251E-02    0.6955862404E+00    0.2224779558E+00    0.1682233028E+00    0.4510974484E-03
    0.3300000000E+06    0.3499477816E-02    0.6955859982E+00    0.2210807909E+00    0.1727560381E+00    0.4526672007E-03
    0.3500000000E+06    0.3367807565E-02    0.6955856971E+00    0.2196827735E+00    0.1771255742E+00    0.4541495304E-03
    0.3700000000E+06    0.3245914503E-02    0.6955853511E+00    0.2182891038E+00    0.1813459009E+00    0.4555539060E-03
    0.3900000000E+06    0.3132690354E-02    0.6955849709E+00    0.2169035999E+00    0.1854290798E+00    0.4568883243E-03
    0.4100000000E+06    0.3027193281E-02    0.6955845648E+00    0.2155290640E+00    0.1893855990E+00    0.4581596020E-03
    0.4300000000E+06    0.2928617313E-02    0.6955841390E+00    0.2141675437E+00    0.1932246487E+00    0.4593735978E-03
    0.4500000000E+06    0.2836268308E-02    0.6955836986E+00    0.2128205200E+00    0.1969543369E+00    0.4605353846E-03
    0.4700000000E+06    0.2749544886E-02    0.6955832476E+00    0.2114890457E+00    0.2005818612E+00    0.4616493844E-03
    0.4900000000E+06    0.2667923165E-02    0.6955827892E+00    0.2101738479E+00    0.2041136471E+00    0.4627194757E-03
    0.1000000000E+06    0.6545493200E-02    0.6955693645E+00    0.2309115627E+00    0.1032181923E+00    0.4236072553E-03
    0.3000000000E+06    0.3718258287E-02    0.6955863339E+00    0.2231740915E+00    0.1658907248E+00    0.4502763350E-03
    0.5000000000E+06    0.2628879838E-02    0.6955825579E+00    0.2095225099E+00    0.2058454632E+00    0.4632391406E-03
    0.7000000000E+06    0.2029672704E-02    0.6955779403E+00    0.1973871266E+00    0.2365921945E+00    0.4719801735E-03
    0.9000000000E+06    0.1644882791E-02    0.6955736978E+00    0.1868100906E+00    0.2618925171E+00    0.4786161676E-03
    0.1100000000E+07    0.1375271141E-02    0.6955699207E+00    0.1775106925E+00    0.2834681500E+00    0.4839817354E-03
    0.1300000000E+07    0.1175413816E-02    0.6955665533E+00    0.1692459532E+00    0.3022873014E+00    0.4884942483E-03
    0.1500000000E+07    0.1021281043E-02    0.6955635275E+00    0.1618300228E+00    0.3189623175E+00    0.4923931323E-03
    0.1700000000E+07    0.8988584124E-03    0.6955607851E+00    0.1551215643E+00    0.3339112856E+00    0.4958287672E-03
    0.1900000000E+07    0.7993757299E-03    0.6955582796E+00    0.1490114492E+00    0.3474354580E+00    0.4989019189E-03
    0.2100000000E+07    0.7170434124E-03    0.6955559739E+00    0.1434138386E+00    0.3597607441E+00    0.5016834754E-03
    0.2300000000E+07    0.6478757530E-03    0.6955538390E+00    0.1382600056E+00    0.3710618421E+00    0.5042252369E-03
    0.2500000000E+07    0.5890344242E-03    0.6955518512E+00    0.1334940437E+00    0.3814771800E+00    0.5065662274E-03
    0.2700000000E+07    0.5384409879E-03    0.6955499915E+00    0.1290698368E+00    0.3911186365E+00    0.5087365926E-03
    0.2900000000E+07    0.4945374069E-03    0.6955482442E+00    0.1249488776E+00    0.4000781239E+00    0.5107601123E-03
    0.3100000000E+07    0.4561322350E-03    0.6955465965E+00    0.1210986670E+00    0.4084321977E+00    0.5126558815E-03
    0.3300000000E+07    0.4222985718E-03    0.6955450374E+00    0.1174915164E+00    0.4162453743E+00    0.5144394698E-03
    0.3500000000E+07    0.3923044471E-03    0.6955435577E+00    0.1141036386E+00    0.4235725773E+00    0.5161237420E-03
    0.3700000000E+07    0.3655641645E-03    0.6955421497E+00    0.1109144458E+00    0.4304609787E+00    0.5177194526E-03
    0.3900000000E+07    0.3416035674E-03    0.6955408065E+00    0.1079059997E+00    0.4369514090E+00    0.5192356855E-03
    0.4100000000E+07    0.3200347736E-03    0.6955395223E+00    0.1050625773E+00    0.4430794539E+00    0.5206801839E-03
    0.4300000000E+07    0.3005374897E-03    0.6955382922E+00    0.1023703218E+00    0.4488763201E+00    0.5220596029E-03
    0.4500000000E+07    0.2828449828E-03    0.6955371115E+00    0.9981696084E-01    0.4543695264E+00    0.5233797052E-03
    0.4700000000E+07    0.2667334073E-03    0.6955359765E+00    0.9739157609E-01    0.4595834621E+00    0.5246455142E-03
    0.4900000000E+07    0.2520135833E-03    0.6955348836E+00    0.9508441349E-01    0.4645398415E+00    0.5258614360E-03
    0.1000000000E+07    0.1499233996E-02    0.6955717537E+00    0.1820173137E+00    0.2730742019E+00    0.4814258666E-03
    0.3000000000E+07    0.4747107113E-03    0.6955474087E+00    0.1229917602E+00    0.4043265553E+00    0.5117229209E-03
    0.5000000000E+07    0.2451243333E-03    0.6955343520E+00    0.9397239640E-01    0.4669275955E+00    0.5264519216E-03
    0.7000000000E+07    0.1516474730E-03    0.6955253348E+00    0.7622508687E-01    0.5049461502E+00    0.5363843289E-03
    0.9000000000E+07    0.1036445577E-03    0.6955184127E+00    0.6416275446E-01    0.5307062684E+00    0.5439249109E-03
    0.1100000000E+08    0.7553629185E-04    0.6955127795E+00    0.5540764011E-01    0.5493710767E+00    0.5500219383E-03
    0.1300000000E+08    0.5759721957E-04    0.6955080217E+00    0.4875595741E-01    0.5635359997E+00    0.5551496424E-03
    0.1500000000E+08    0.4542318843E-04    0.6955038984E+00    0.4352815863E-01    0.5746603079E+00    0.5595800739E-03
    0.1700000000E+08    0.3677066099E-04    0.6955002568E+00    0.3931014375E-01    0.5836309712E+00    0.5634841069E-03
    0.1900000000E+08    0.3039459638E-04    0.6954969937E+00    0.3583467852E-01    0.5910193748E+00    0.5669762413E-03
    0.2100000000E+08    0.2555731228E-04    0.6954940361E+00    0.3292139174E-01    0.5972106826E+00    0.5701370277E-03
    0.2300000000E+08    0.2179845418E-04    0.6954913303E+00    0.3044405117E-01    0.6024741879E+00    0.5730253270E-03
    0.2500000000E+08    0.1881833897E-04    0.6954888358E+00    0.2831163088E-01    0.6070039298E+00    0.5756854834E-03
    0.2700000000E+08    0.1641490536E-04    0.6954865211E+00    0.2645681916E-01    0.6109433086E+00    0.5781517518E-03
