  Pressure (Pa) 23mC5-500 (mol/kg) 24mC5-500 (mol/kg) 2mC6-500 (mol/kg) 3mC6-500 (mol/kg) C7-500 (mol/kg)
    0.1000000000E+01    0.3260666711E-05    0.1266300330E+00    0.2370480521E-04    0.8979436601E-06    0.4169236784E-02
    0.3000000000E+01    0.6720856198E-05    0.2785142728E+00    0.4677867092E-04    0.2258884108E-05    0.4197483990E-02
    0.5000000000E+01    0.8467883272E-05    0.3664146900E+00    0.5761817397E-04    0.3501862919E-05    0.4210278443E-02
    0.7000000000E+01    0.9493246090E-05    0.4237299475E+00    0.6396403107E-04    0.4688351472E-05    0.4218152151E-02
    0.9000000000E+01    0.1016649367E-04    0.4640584769E+00    0.6844486273E-04    0.5838903847E-05    0.4223510224E-02
    0.1100000000E+02    0.1065146114E-04    0.4939776981E+00    0.7211224324E-04    0.6963756970E-05    0.4227371602E-02
    0.1300000000E+02    0.1102948752E-04    0.5170573361E+00    0.7543099765E-04    0.8068984176E-05    0.4230261544E-02
    0.1500000000E+02    0.1134431928E-04    0.5354022595E+00    0.7861964540E-04    0.9158577546E-05    0.4232482245E-02
    0.1700000000E+02    0.1162091790E-04    0.5503339723E+00    0.8178426964E-04    0.1023534610E-04    0.4234221006E-02
    0.1900000000E+02    0.1187417964E-04    0.5627240300E+00    0.8497648818E-04    0.1130136525E-04    0.4235600513E-02
    0.2100000000E+02    0.1211330530E-04    0.5731705206E+00    0.8822043447E-04    0.1235822578E-04    0.4236704664E-02
    0.2300000000E+02    0.1234412921E-04    0.5820975226E+00    0.9152602368E-04    0.1340718259E-04    0.4237592869E-02
    0.2500000000E+02    0.1257042414E-04    0.5898140995E+00    0.9489575349E-04    0.1444924874E-04    0.4238308424E-02
    0.2700000000E+02    0.1279466316E-04    0.5965508162E+00    0.9832829956E-04    0.1548525775E-04    0.4238883658E-02
    0.2900000000E+02    0.1301848011E-04    0.6024831736E+00    0.1018204566E-03    0.1651590641E-04    0.4239343214E-02
    0.3100000000E+02    0.1324295619E-04    0.6077471213E+00    0.1053681976E-03    0.1754178512E-04    0.4239706221E-02
    0.3300000000E+02    0.1346880282E-04    0.6124496051E+00    0.1089672512E-03    0.1856340002E-04    0.4239987760E-02
    0.3500000000E+02    0.1369648086E-04    0.6166759102E+00    0.1126134108E-03    0.1958118940E-04    0.4240199886E-02
    0.3700000000E+02    0.1392627968E-04    0.6204948809E+00    0.1163026927E-03    0.2059553620E-04    0.4240352357E-02
    0.3900000000E+02    0.1415837065E-04    0.6239627002E+00    0.1200314089E-03    0.2160677763E-04    0.4240453157E-02
    0.4100000000E+02    0.1439284354E-04    0.6271256728E+00    0.1237961921E-03    0.2261521275E-04    0.4240508885E-02
    0.4300000000E+02    0.1462973183E-04    0.6300223047E+00    0.1275939939E-03    0.2362110845E-04    0.4240525044E-02
    0.4500000000E+02    0.1486903027E-04    0.6326848786E+00    0.1314220693E-03    0.2462470428E-04    0.4240506261E-02
    0.4700000000E+02    0.1511070731E-04    0.6351406625E+00    0.1352779549E-03    0.2562621634E-04    0.4240456454E-02
    0.4900000000E+02    0.1535471388E-04    0.6374128470E+00    0.1391594437E-03    0.2662584054E-04    0.4240378964E-02
    0.1000000000E+02    0.1042621307E-04    0.4800499675E+00    0.7034296073E-04    0.6404098877E-05    0.4225588007E-02
    0.3000000000E+02    0.1313058426E-04    0.6051914333E+00    0.1035876449E-03    0.1702940862E-04    0.4239535762E-02
    0.5000000000E+02    0.1547757216E-04    0.6384864058E+00    0.1411091636E-03    0.2712500105E-04    0.4240330752E-02
    0.7000000000E+02    0.1804039811E-04    0.6539055856E+00    0.1810679812E-03    0.3704520869E-04    0.4238434165E-02
    0.9000000000E+02    0.2076201632E-04    0.6627983832E+00    0.2222761626E-03    0.4691169970E-04    0.4235497103E-02
    0.1100000000E+03    0.2359908043E-04    0.6685846170E+00    0.2643166629E-03    0.5678681639E-04    0.4232029270E-02
    0.1300000000E+03    0.2652709686E-04    0.6726500643E+00    0.3070351779E-03    0.6670897900E-04    0.4228240242E-02
    0.1500000000E+03    0.2953225691E-04    0.6756629687E+00    0.3503781851E-03    0.7670473031E-04    0.4224231505E-02
    0.1700000000E+03    0.3260667255E-04    0.6779852246E+00    0.3943351822E-03    0.8679394228E-04    0.4220057597E-02
    0.1900000000E+03    0.3574587061E-04    0.6798298798E+00    0.4389155206E-03    0.9699242350E-04    0.4215749929E-02
    0.2100000000E+03    0.3894744214E-04    0.6813305260E+00    0.4841382436E-03    0.1073133646E-03    0.4211327419E-02
    0.2300000000E+03    0.4221028290E-04    0.6825751809E+00    0.5300273325E-03    0.1177682022E-03    0.4206801753E-02
    0.2500000000E+03    0.4553414822E-04    0.6836241954E+00    0.5766093843E-03    0.1283671663E-03    0.4202180185E-02
    0.2700000000E+03    0.4891938232E-04    0.6845203321E+00    0.6239124512E-03    0.1391196446E-03    0.4197467123E-02
    0.2900000000E+03    0.5236674850E-04    0.6852947376E+00    0.6719654632E-03    0.1500344336E-03    0.4192665080E-02
    0.3100000000E+03    0.5587731978E-04    0.6859706357E+00    0.7207979530E-03    0.1611199192E-03    0.4187775257E-02
    0.3300000000E+03    0.5945240703E-04    0.6865656961E+00    0.7704399419E-03    0.1723842099E-03    0.4182797916E-02
    0.3500000000E+03    0.6309351088E-04    0.6870936010E+00    0.8209219145E-03    0.1838352372E-03    0.4177732634E-02
    0.3700000000E+03    0.6680228939E-04    0.6875651097E+00    0.8722748396E-03    0.1954808350E-03    0.4172578461E-02
    0.3900000000E+03    0.7058053604E-04    0.6879888000E+00    0.9245302189E-03    0.2073288018E-03    0.4167334044E-02
    0.4100000000E+03    0.7443016498E-04    0.6883715939E+00    0.9777201484E-03    0.2193869527E-03    0.4161997698E-02
    0.4300000000E+03    0.7835320130E-04    0.6887191390E+00    0.1031877389E-02    0.2316631624E-03    0.4156567470E-02
    0.4500000000E+03    0.8235177480E-04    0.6890360887E+00    0.1087035439E-02    0.2441654021E-03    0.4151041173E-02
    0.4700000000E+03    0.8642811644E-04    0.6893263121E+00    0.1143228609E-02    0.2569017717E-03    0.4145416422E-02
    0.4900000000E+03    0.9058455673E-04    0.6895930522E+00    0.1200492100E-02    0.2698805293E-03    0.4139690644E-02
    0.1000000000E+03    0.2216797717E-04    0.6659683460E+00    0.2432054749E-03    0.5184540995E-04    0.4233812713E-02
    0.3000000000E+03    0.5411405649E-04    0.6856437869E+00    0.6962824079E-03    0.1555553273E-03    0.4190231106E-02
    0.5000000000E+03    0.9269356929E-04    0.6897184887E+00    0.1229536479E-02    0.2764634339E-03    0.4136789021E-02
    0.7000000000E+03    0.1397371066E-03    0.6914791689E+00    0.1876182501E-02    0.4230632420E-03    0.4072690388E-02
    0.9000000000E+03    0.1983752510E-03    0.6924609110E+00    0.2680945364E-02    0.6056692510E-03    0.3994273080E-02
    0.1100000000E+04    0.2732934765E-03    0.6930869027E+00    0.3708951792E-02    0.8391901120E-03    0.3895998010E-02
    0.1300000000E+04    0.3716999529E-03    0.6935207964E+00    0.5059883835E-02    0.1146441871E-02    0.3769485543E-02
    0.1500000000E+04    0.5050245191E-03    0.6938392181E+00    0.6891753367E-02    0.1563635180E-02    0.3601758212E-02
    0.1700000000E+04    0.6917638215E-03    0.6940828263E+00    0.9460609969E-02    0.2149559342E-02    0.3372471741E-02
    0.1900000000E+04    0.9615389577E-03    0.6942751986E+00    0.1317759797E-01    0.2998892802E-02    0.3050584030E-02
    0.2100000000E+04    0.1357104503E-02    0.6944309484E+00    0.1863934399E-01    0.4249795214E-02    0.2595336831E-02
    0.2300000000E+04    0.1917360189E-02    0.6945596151E+00    0.2639875781E-01    0.6032696047E-02    0.1981750645E-02
    0.2500000000E+04    0.2608231286E-02    0.6946676905E+00    0.3601351404E-01    0.8253045276E-02    0.1280461691E-02
    0.2700000000E+04    0.3266196065E-02    0.6947597456E+00    0.4524696444E-01    0.1040367847E-01    0.6944559729E-03
    0.2900000000E+04    0.3750545194E-02    0.6948390919E+00    0.5214361708E-01    0.1203376882E-01    0.3563314772E-03
    0.3100000000E+04    0.4078075980E-02    0.6949081875E+00    0.5690911755E-01    0.1318421348E-01    0.2086489860E-03
    0.3300000000E+04    0.4320021383E-02    0.6949688950E+00    0.6051295992E-01    0.1407376212E-01    0.1528015603E-03
    0.3500000000E+04    0.4522278171E-02    0.6950226519E+00    0.6358472188E-01    0.1484566383E-01    0.1329436012E-03
    0.3700000000E+04    0.4705307489E-02    0.6950705848E+00    0.6640587927E-01    0.1556417161E-01    0.1261353866E-03
    0.3900000000E+04    0.4877254062E-02    0.6951135897E+00    0.6908831957E-01    0.1625480357E-01    0.1239448228E-03
    0.4100000000E+04    0.5041331094E-02    0.6951523878E+00    0.7167575876E-01    0.1692744120E-01    0.1233777089E-03
    0.4300000000E+04    0.5198888307E-02    0.6951875660E+00    0.7418608755E-01    0.1758602521E-01    0.1233783694E-03
    0.4500000000E+04    0.5350578538E-02    0.6952196071E+00    0.7662753791E-01    0.1823227286E-01    0.1235738245E-03
    0.4700000000E+04    0.5496789810E-02    0.6952489118E+00    0.7900469139E-01    0.1886706449E-01    0.1238317894E-03
    0.4900000000E+04    0.5637804683E-02    0.6952758152E+00    0.8132070090E-01    0.1949095790E-01    0.1241053219E-03
    0.1000000000E+04    0.2334234147E-03    0.6928050924E+00    0.3161840250E-02    0.7148748494E-03    0.3948058685E-02
    0.3000000000E+04    0.3929205423E-02    0.6948747930E+00    0.5472897977E-01    0.1265462513E-01    0.2656321027E-03
    0.5000000000E+04    0.5706438371E-02    0.6952884565E+00    0.8245658685E-01    0.1979895385E-01    0.1242422338E-03
    0.7000000000E+04    0.6854754428E-02    0.6954651317E+00    0.1024808946E+00    0.2547092498E-01    0.1265988761E-03
    0.9000000000E+04    0.7673913812E-02    0.6955628932E+00    0.1184273496E+00    0.3038425590E-01    0.1283890143E-03
    0.1100000000E+05    0.8265427486E-02    0.6956248412E+00    0.1314075465E+00    0.3472289478E-01    0.1298348085E-03
    0.1300000000E+05    0.8694894671E-02    0.6956675394E+00    0.1421630017E+00    0.3861305431E-01    0.1310498588E-03
    0.1500000000E+05    0.9006287952E-02    0.6956987100E+00    0.1512073072E+00    0.4214458730E-01    0.1320991539E-03
    0.1700000000E+05    0.9229986559E-02    0.6957224364E+00    0.1589074251E+00    0.4538344030E-01    0.1330234359E-03
    0.1900000000E+05    0.9387517050E-02    0.6957410798E+00    0.1655325167E+00    0.4837927298E-01    0.1338499684E-03
    0.2100000000E+05    0.9494464977E-02    0.6957561002E+00    0.1712844830E+00    0.5117030984E-01    0.1345979114E-03
    0.2300000000E+05    0.9562325031E-02    0.6957684484E+00    0.1763177357E+00    0.5378653626E-01    0.1352812545E-03
    0.2500000000E+05    0.9599711563E-02    0.6957787701E+00    0.1807523833E+00    0.5625186660E-01    0.1359105304E-03
    0.2700000000E+05    0.9613171050E-02    0.6957875193E+00    0.1846832545E+00    0.5858565290E-01    0.1364938707E-03
    0.2900000000E+05    0.9607739717E-02    0.6957950239E+00    0.1881862161E+00    0.6080375856E-01    0.1370376874E-03
    0.3100000000E+05    0.9587333892E-02    0.6958015271E+00    0.1913226864E+00    0.6291933776E-01    0.1375471274E-03
    0.3300000000E+05    0.9555028140E-02    0.6958072129E+00    0.1941429176E+00    0.6494341148E-01    0.1380263858E-03
    0.3500000000E+05    0.9513256573E-02    0.6958122229E+00    0.1966884226E+00    0.6688529987E-01    0.1384789281E-03
    0.3700000000E+05    0.9463960659E-02    0.6958166681E+00    0.1989937950E+00    0.6875295168E-01    0.1389076506E-03
    0.3900000000E+05    0.9408699149E-02    0.6958206364E+00    0.2010880926E+00    0.7055319840E-01    0.1393149992E-03
    0.4100000000E+05    0.9348730799E-02    0.6958241986E+00    0.2029959012E+00    0.7229195276E-01    0.1397030584E-03
    0.4300000000E+05    0.9285077279E-02    0.6958274121E+00    0.2047381626E+00    0.7397436544E-01    0.1400736194E-03
    0.4500000000E+05    0.9218571500E-02    0.6958303242E+00    0.2063328252E+00    0.7560494999E-01    0.1404282331E-03
    0.4700000000E+05    0.9149895059E-02    0.6958329740E+00    0.2077953594E+00    0.7718768344E-01    0.1407682512E-03
    0.4900000000E+05    0.9079607508E-02    0.6958353941E+00    0.2091391710E+00    0.7872608788E-01    0.1410948592E-03
    0.1000000000E+05    0.7993393039E-02    0.6955969977E+00    0.1252352742E+00    0.3261647868E-01    0.1291462670E-03
    0.3000000000E+05    0.9599199394E-02    0.6957983880E+00    0.1897968921E+00    0.6187363081E-01    0.1372964230E-03
    0.5000000000E+05    0.9044006827E-02    0.6958365268E+00    0.2097702637E+00    0.7947965966E-01    0.1412534659E-03
    0.7000000000E+05    0.8323738215E-02    0.6958519682E+00    0.2183279867E+00    0.9283062937E-01    0.1439210830E-03
    0.9000000000E+05    0.7665869492E-02    0.6958600398E+00    0.2223553223E+00    0.1039031771E+00    0.1459460558E-03
    0.1100000000E+06    0.7095572108E-02    0.6958648502E+00    0.2241724457E+00    0.1135219495E+00    0.1475832623E-03
    0.1300000000E+06    0.6604188607E-02    0.6958679525E+00    0.2247734350E+00    0.1221149958E+00    0.1489601262E-03
    0.1500000000E+06    0.6178548137E-02    0.6958700589E+00    0.2246515286E+00    0.1299358109E+00    0.1501497318E-03
    0.1700000000E+06    0.5806813283E-02    0.6958715396E+00    0.2240770597E+00    0.1371483919E+00    0.1511979774E-03
    0.1900000000E+06    0.5479362900E-02    0.6958726053E+00    0.2232092250E+00    0.1438657776E+00    0.1521356157E-03
    0.2100000000E+06    0.5188575021E-02    0.6958733838E+00    0.2221469814E+00    0.1501696819E+00    0.1529842801E-03
    0.2300000000E+06    0.4928427585E-02    0.6958739570E+00    0.2209544715E+00    0.1561214035E+00    0.1537597777E-03
    0.2500000000E+06    0.4694135460E-02    0.6958743794E+00    0.2196746697E+00    0.1617683094E+00    0.1544740168E-03
    0.2700000000E+06    0.4481862756E-02    0.6958746887E+00    0.2183371395E+00    0.1671478971E+00    0.1551361959E-03
    0.2900000000E+06    0.4288504318E-02    0.6958749115E+00    0.2169626552E+00    0.1722904558E+00    0.1557535711E-03
    0.3100000000E+06    0.4111521727E-02    0.6958750674E+00    0.2155660649E+00    0.1772208712E+00    0.1563319689E-03
    0.3300000000E+06    0.3948820185E-02    0.6958751706E+00    0.2141581241E+00    0.1819598898E+00    0.1568761398E-03
    0.3500000000E+06    0.3798655522E-02    0.6958752320E+00    0.2127467036E+00    0.1865250260E+00    0.1573900092E-03
    0.3700000000E+06    0.3659563400E-02    0.6958752598E+00    0.2113376048E+00    0.1909312295E+00    0.1578768585E-03
    0.3900000000E+06    0.3530304895E-02    0.6958752607E+00    0.2099351222E+00    0.1951913847E+00    0.1583394591E-03
    0.4100000000E+06    0.3409824278E-02    0.6958752396E+00    0.2085424384E+00    0.1993166922E+00    0.1587801737E-03
    0.4300000000E+06    0.3297215946E-02    0.6958752005E+00    0.2071619064E+00    0.2033169634E+00    0.1592010328E-03
    0.4500000000E+06    0.3191698295E-02    0.6958751467E+00    0.2057952543E+00    0.2072008525E+00    0.1596037946E-03
    0.4700000000E+06    0.3092592884E-02    0.6958750808E+00    0.2044437356E+00    0.2109760407E+00    0.1599899917E-03
    0.4900000000E+06    0.2999307698E-02    0.6958750049E+00    0.2031082409E+00    0.2146493840E+00    0.1603609685E-03
    0.1000000000E+06    0.7370068648E-02    0.6958627259E+00    0.2234609782E+00    0.1088618954E+00    0.1468033938E-03
    0.3000000000E+06    0.4198106149E-02    0.6958749969E+00    0.2162663716E+00    0.1747807998E+00    0.1560473234E-03
    0.5000000000E+06    0.2954682923E-02    0.6958749638E+00    0.2024467027E+00    0.2164498107E+00    0.1605411254E-03
    0.7000000000E+06    0.2269979554E-02    0.6958739090E+00    0.1901160005E+00    0.2483239296E+00    0.1635715085E-03
    0.9000000000E+06    0.1831053735E-02    0.6958727410E+00    0.1793815301E+00    0.2744156124E+00    0.1658721643E-03
    0.1100000000E+07    0.1524329792E-02    0.6958716239E+00    0.1699674688E+00    0.2965608971E+00    0.1677324028E-03
    0.1300000000E+07    0.1297642874E-02    0.6958705894E+00    0.1616256627E+00    0.3157924148E+00    0.1692969073E-03
    0.1500000000E+07    0.1123359197E-02    0.6958696376E+00    0.1541638442E+00    0.3327632540E+00    0.1706486778E-03
    0.1700000000E+07    0.9853577965E-03    0.6958687610E+00    0.1474348877E+00    0.3479191852E+00    0.1718398464E-03
    0.1900000000E+07    0.8735538920E-03    0.6958679508E+00    0.1413248244E+00    0.3615812073E+00    0.1729053459E-03
    0.2100000000E+07    0.7812953561E-03    0.6958671986E+00    0.1357438626E+00    0.3739898128E+00    0.1738697516E-03
    0.2300000000E+07    0.7040076400E-03    0.6958664973E+00    0.1306200677E+00    0.3853307533E+00    0.1747510217E-03
    0.2500000000E+07    0.6384372744E-03    0.6958658407E+00    0.1258949304E+00    0.3957510045E+00    0.1755626852E-03
    0.2700000000E+07    0.5822052299E-03    0.6958652236E+00    0.1215202171E+00    0.4053691608E+00    0.1763151931E-03
    0.2900000000E+07    0.5335308717E-03    0.6958646416E+00    0.1174556921E+00    0.4142824794E+00    0.1770167896E-03
    0.3100000000E+07    0.4910547139E-03    0.6958640909E+00    0.1136674396E+00    0.4225718146E+00    0.1776740949E-03
    0.3300000000E+07    0.4537208742E-03    0.6958635684E+00    0.1101266065E+00    0.4303051706E+00    0.1782925066E-03
    0.3500000000E+07    0.4206969276E-03    0.6958630714E+00    0.1068084451E+00    0.4375403224E+00    0.1788764850E-03
    0.3700000000E+07    0.3913179288E-03    0.6958625974E+00    0.1036915729E+00    0.4443267870E+00    0.1794297587E-03
    0.3900000000E+07    0.3650464821E-03    0.6958621444E+00    0.1007573930E+00    0.4507073337E+00    0.1799554769E-03
    0.4100000000E+07    0.3414437210E-03    0.6958617105E+00    0.9798963531E-01    0.4567191586E+00    0.1804563242E-03
    0.4300000000E+07    0.3201478657E-03    0.6958612943E+00    0.9537398833E-01    0.4623948111E+00    0.1809346079E-03
    0.4500000000E+07    0.3008581407E-03    0.6958608943E+00    0.9289780121E-01    0.4677629325E+00    0.1813923259E-03
    0.4700000000E+07    0.2833225505E-03    0.6958605093E+00    0.9054984070E-01    0.4728488530E+00    0.1818312198E-03
    0.4900000000E+07    0.2673284745E-03    0.6958601382E+00    0.8832009082E-01    0.4776750774E+00    0.1822528173E-03
    0.1000000000E+07    0.1665246069E-02    0.6958721729E+00    0.1745263256E+00    0.2859050671E+00    0.1668462817E-03
    0.3000000000E+07    0.5115900435E-03    0.6958643625E+00    0.1155289413E+00    0.4185006279E+00    0.1773506164E-03
    0.5000000000E+07    0.2598519924E-03    0.6958599576E+00    0.8724670626E-01    0.4799971637E+00    0.1824575572E-03
    0.7000000000E+07    0.1590742295E-03    0.6958568813E+00    0.7023547977E-01    0.5167039265E+00    0.1859014660E-03
    0.9000000000E+07    0.1079228766E-03    0.6958545077E+00    0.5880670332E-01    0.5412808083E+00    0.1885160861E-03
    0.1100000000E+08    0.7822633486E-04    0.6958525703E+00    0.5058187097E-01    0.5589338876E+00    0.1906301931E-03
    0.1300000000E+08    0.5939733028E-04    0.6958509309E+00    0.4437374846E-01    0.5722422232E+00    0.1924082102E-03
    0.1500000000E+08    0.4668532508E-04    0.6958495082E+00    0.3951967642E-01    0.5826391674E+00    0.1939444624E-03
    0.1700000000E+08    0.3768826035E-04    0.6958482504E+00    0.3561953766E-01    0.5909878115E+00    0.1952981955E-03
    0.1900000000E+08    0.3108127343E-04    0.6958471224E+00    0.3241706934E-01    0.5978398893E+00    0.1965091093E-03
    0.2100000000E+08    0.2608341150E-04    0.6958460993E+00    0.2974039833E-01    0.6035649300E+00    0.1976051329E-03
    0.2300000000E+08    0.2220944067E-04    0.6958451628E+00    0.2746988487E-01    0.6084198894E+00    0.1986066748E-03
    0.2500000000E+08    0.1914466615E-04    0.6958442990E+00    0.2551965427E-01    0.6125890521E+00    0.1995291106E-03
    0.2700000000E+08    0.1667759665E-04    0.6958434972E+00    0.2382645789E-01    0.6162080579E+00    0.2003843175E-03
