  Pressure (Pa) 23mC5-500 (mol/kg) 24mC5-500 (mol/kg) 2mC6-500 (mol/kg) 3mC6-500 (mol/kg) C7-500 (mol/kg)
    0.1000000000E+01    0.3304009256E-05    0.1266314726E+00    0.2427248346E-04    0.2041694843E-05    0.4146593157E-02
    0.3000000000E+01    0.6812790062E-05    0.2785212842E+00    0.4798273667E-04    0.5039052251E-05    0.4173786354E-02
    0.5000000000E+01    0.8600674757E-05    0.3664268956E+00    0.5935745182E-04    0.7756828711E-05    0.4182216015E-02
    0.7000000000E+01    0.9663513449E-05    0.4237463530E+00    0.6619447319E-04    0.1034272610E-04    0.4186648972E-02
    0.9000000000E+01    0.1037221893E-04    0.4640782430E+00    0.7114027092E-04    0.1284553876E-04    0.4189332192E-02
    0.1100000000E+02    0.1089128163E-04    0.4940001871E+00    0.7525497322E-04    0.1528941132E-04    0.4191054585E-02
    0.1300000000E+02    0.1130241875E-04    0.5170820682E+00    0.7900833274E-04    0.1768860295E-04    0.4192183718E-02
    0.1500000000E+02    0.1164961959E-04    0.5354288696E+00    0.8262202981E-04    0.2005245333E-04    0.4192918288E-02
    0.1700000000E+02    0.1195801310E-04    0.5503621781E+00    0.8620432577E-04    0.2238751547E-04    0.4193376337E-02
    0.1900000000E+02    0.1224261708E-04    0.5627536090E+00    0.8980841890E-04    0.2469861929E-04    0.4193632807E-02
    0.2100000000E+02    0.1251272402E-04    0.5732012949E+00    0.9345963500E-04    0.2698945936E-04    0.4193737721E-02
    0.2300000000E+02    0.1277423960E-04    0.5821293478E+00    0.9716881685E-04    0.2926294495E-04    0.4193725802E-02
    0.2500000000E+02    0.1303099343E-04    0.5898468567E+00    0.1009392018E-03    0.3152142107E-04    0.4193621934E-02
    0.2700000000E+02    0.1328550487E-04    0.5965844063E+00    0.1047700674E-03    0.3376681453E-04    0.4193444424E-02
    0.2900000000E+02    0.1353944603E-04    0.6025175135E+00    0.1086587070E-03    0.3600073417E-04    0.4193207044E-02
    0.3100000000E+02    0.1379393030E-04    0.6077821403E+00    0.1126015123E-03    0.3822454182E-04    0.4192920354E-02
    0.3300000000E+02    0.1404969646E-04    0.6124852424E+00    0.1165945684E-03    0.4043940388E-04    0.4192592587E-02
    0.3500000000E+02    0.1430722887E-04    0.6167121135E+00    0.1206339754E-03    0.4264632967E-04    0.4192230252E-02
    0.3700000000E+02    0.1456683740E-04    0.6205316045E+00    0.1247160160E-03    0.4484620046E-04    0.4191838565E-02
    0.3900000000E+02    0.1482871128E-04    0.6239999043E+00    0.1288372361E-03    0.4703979190E-04    0.4191421749E-02
    0.4100000000E+02    0.1509295613E-04    0.6271633222E+00    0.1329944746E-03    0.4922779159E-04    0.4190983263E-02
    0.4300000000E+02    0.1535961948E-04    0.6300603683E+00    0.1371848668E-03    0.5141081296E-04    0.4190525963E-02
    0.4500000000E+02    0.1562870868E-04    0.6327233285E+00    0.1414058325E-03    0.5358940646E-04    0.4190052226E-02
    0.4700000000E+02    0.1590020354E-04    0.6351794740E+00    0.1456550562E-03    0.5576406868E-04    0.4189564049E-02
    0.4900000000E+02    0.1617406523E-04    0.6374519978E+00    0.1499304653E-03    0.5793524973E-04    0.4189063117E-02
    0.1000000000E+02    0.1064912843E-04    0.4800711637E+00    0.7326387225E-04    0.1407379901E-04    0.4190284910E-02
    0.3000000000E+02    0.1366656697E-04    0.6052261209E+00    0.1106235812E-03    0.3711382501E-04    0.4193069302E-02
    0.5000000000E+02    0.1631186802E-04    0.6385257185E+00    0.1520774023E-03    0.5901966431E-04    0.4188808324E-02
    0.7000000000E+02    0.1917743973E-04    0.6539473700E+00    0.1960359696E-03    0.8060821738E-04    0.4183298542E-02
    0.9000000000E+02    0.2221269391E-04    0.6628417656E+00    0.2413960272E-03    0.1021596829E-03    0.4177343475E-02
    0.1100000000E+03    0.2537778814E-04    0.6686291477E+00    0.2877867673E-03    0.1238189870E-03    0.4171163642E-02
    0.1300000000E+03    0.2865063161E-04    0.6726954771E+00    0.3350857969E-03    0.1456770254E-03    0.4164837251E-02
    0.1500000000E+03    0.3201931965E-04    0.6757090907E+00    0.3832650328E-03    0.1677981539E-03    0.4158394997E-02
    0.1700000000E+03    0.3547762182E-04    0.6780319360E+00    0.4323362332E-03    0.1902320289E-03    0.4151848568E-02
    0.1900000000E+03    0.3902260012E-04    0.6798770934E+00    0.4823294500E-03    0.2130195232E-03    0.4145201095E-02
    0.2100000000E+03    0.4265332653E-04    0.6813781758E+00    0.5332837608E-03    0.2361960049E-03    0.4138451513E-02
    0.2300000000E+03    0.4637016480E-04    0.6826232156E+00    0.5852430547E-03    0.2597932997E-03    0.4131596572E-02
    0.2500000000E+03    0.5017435229E-04    0.6836725740E+00    0.6382540656E-03    0.2838409410E-03    0.4124631811E-02
    0.2700000000E+03    0.5406774830E-04    0.6845690212E+00    0.6923654626E-03    0.3083670070E-03    0.4117552062E-02
    0.2900000000E+03    0.5805267866E-04    0.6853437095E+00    0.7476274625E-03    0.3333987081E-03    0.4110351714E-02
    0.3100000000E+03    0.6213183793E-04    0.6860198671E+00    0.8040917097E-03    0.3589628156E-03    0.4103024852E-02
    0.3300000000E+03    0.6630822737E-04    0.6866151672E+00    0.8618112941E-03    0.3850859860E-03    0.4095565332E-02
    0.3500000000E+03    0.7058511582E-04    0.6871432946E+00    0.9208408450E-03    0.4117950168E-03    0.4087966811E-02
    0.3700000000E+03    0.7496601562E-04    0.6876150111E+00    0.9812366654E-03    0.4391170545E-03    0.4080222760E-02
    0.3900000000E+03    0.7945466866E-04    0.6880388962E+00    0.1043056889E-02    0.4670797691E-03    0.4072326467E-02
    0.4100000000E+03    0.8405503970E-04    0.6884218733E+00    0.1106361653E-02    0.4957115070E-03    0.4064271025E-02
    0.4300000000E+03    0.8877131471E-04    0.6887695913E+00    0.1171213275E-02    0.5250414271E-03    0.4056049320E-02
    0.4500000000E+03    0.9360790304E-04    0.6890867049E+00    0.1237676446E-02    0.5550996269E-03    0.4047654015E-02
    0.4700000000E+03    0.9856944253E-04    0.6893770839E+00    0.1305818421E-02    0.5859172612E-03    0.4039077530E-02
    0.4900000000E+03    0.1036608070E-03    0.6896439720E+00    0.1375709220E-02    0.6175266572E-03    0.4030312023E-02
    0.1000000000E+03    0.2378070426E-04    0.6660123443E+00    0.2644734601E-03    0.1129693467E-03    0.4174275086E-02
    0.3000000000E+03    0.6008029874E-04    0.6856928912E+00    0.7757060218E-03    0.3461125456E-03    0.4106704476E-02
    0.5000000000E+03    0.1062567634E-03    0.6897694801E+00    0.1411333119E-02    0.6336387164E-03    0.4025855859E-02
    0.7000000000E+03    0.1664140574E-03    0.6915313243E+00    0.2235663421E-02    0.1006639720E-02    0.3924610438E-02
    0.9000000000E+03    0.2476761044E-03    0.6925139110E+00    0.3348196615E-02    0.1510664957E-02    0.3792269787E-02
    0.1100000000E+04    0.3621119426E-03    0.6931405674E+00    0.4915557492E-02    0.2221814670E-02    0.3611649671E-02
    0.1300000000E+04    0.5309153686E-03    0.6935750098E+00    0.7230179288E-02    0.3273852593E-02    0.3353836143E-02
    0.1500000000E+04    0.7914088403E-03    0.6938938996E+00    0.1080830258E-01    0.4903647889E-02    0.2970769608E-02
    0.1700000000E+04    0.1201518099E-02    0.6941379162E+00    0.1645607351E-01    0.7483488088E-02    0.2396249969E-02
    0.1900000000E+04    0.1802844320E-02    0.6943306511E+00    0.2477095633E-01    0.1129806434E-01    0.1611584763E-02
    0.2100000000E+04    0.2485973614E-02    0.6944867270E+00    0.3428555081E-01    0.1569591712E-01    0.8222950093E-03
    0.2300000000E+04    0.3019660979E-02    0.6946156904E+00    0.4182258238E-01    0.1922925650E-01    0.3379587913E-03
    0.2500000000E+04    0.3363681850E-02    0.6947240379E+00    0.4679545604E-01    0.2161476188E-01    0.1459843082E-03
    0.2700000000E+04    0.3607949934E-02    0.6948163443E+00    0.5042067580E-01    0.2339796423E-01    0.8526994114E-04
    0.2900000000E+04    0.3811444251E-02    0.6948959243E+00    0.5350463830E-01    0.2494458581E-01    0.6757713891E-04
    0.3100000000E+04    0.3996616440E-02    0.6949652382E+00    0.5635515459E-01    0.2639467970E-01    0.6261237617E-04
    0.3300000000E+04    0.4170940268E-02    0.6950261507E+00    0.5907420864E-01    0.2779446688E-01    0.6131819868E-04
    0.3500000000E+04    0.4336970314E-02    0.6950801007E+00    0.6169590578E-01    0.2915908455E-01    0.6107783735E-04
    0.3700000000E+04    0.4495728929E-02    0.6951282163E+00    0.6423317589E-01    0.3049395194E-01    0.6113766826E-04
    0.3900000000E+04    0.4647757816E-02    0.6951713946E+00    0.6669233814E-01    0.3180146474E-01    0.6127955745E-04
    0.4100000000E+04    0.4793438792E-02    0.6952103575E+00    0.6907755890E-01    0.3308305196E-01    0.6144012050E-04
    0.4300000000E+04    0.4933092099E-02    0.6952456930E+00    0.7139221982E-01    0.3433980829E-01    0.6160107792E-04
    0.4500000000E+04    0.5067007263E-02    0.6952778845E+00    0.7363934510E-01    0.3557269101E-01    0.6175739928E-04
    0.4700000000E+04    0.5195453380E-02    0.6953073332E+00    0.7582174084E-01    0.3678258309E-01    0.6190795440E-04
    0.4900000000E+04    0.5318683043E-02    0.6953343748E+00    0.7794204553E-01    0.3797031488E-01    0.6205274390E-04
    0.1000000000E+04    0.2997045745E-03    0.6928584422E+00    0.4060643372E-02    0.1833778035E-02    0.3709446336E-02
    0.3000000000E+04    0.3905669007E-02    0.6949317363E+00    0.5495015985E-01    0.2567764649E-01    0.6431694415E-04
    0.5000000000E+04    0.5378416615E-02    0.6953470832E+00    0.7897969812E-01    0.3855611798E-01    0.6212306857E-04
    0.7000000000E+04    0.6350399708E-02    0.6955248829E+00    0.9701304647E-01    0.4928032006E-01    0.6330455769E-04
    0.9000000000E+04    0.7003157350E-02    0.6956234943E+00    0.1109952480E+00    0.5848053329E-01    0.6419977232E-04
    0.1100000000E+05    0.7442683757E-02    0.6956861278E+00    0.1220971379E+00    0.6654443257E-01    0.6492278822E-04
    0.1300000000E+05    0.7735337249E-02    0.6957294016E+00    0.1310804835E+00    0.7373252102E-01    0.6553041431E-04
    0.1500000000E+05    0.7924352248E-02    0.6957610689E+00    0.1384619001E+00    0.8022712453E-01    0.6605514979E-04
    0.1700000000E+05    0.8038828906E-02    0.6957852326E+00    0.1446039009E+00    0.8616019817E-01    0.6651736886E-04
    0.1900000000E+05    0.8098889247E-02    0.6958042670E+00    0.1497682287E+00    0.9162995537E-01    0.6693070538E-04
    0.2100000000E+05    0.8118765483E-02    0.6958196410E+00    0.1541485031E+00    0.9671125542E-01    0.6730474087E-04
    0.2300000000E+05    0.8108718671E-02    0.6958323123E+00    0.1578909661E+00    0.1014623352E+00    0.6764647122E-04
    0.2500000000E+05    0.8076268554E-02    0.6958429315E+00    0.1611080922E+00    0.1059293116E+00    0.6796116351E-04
    0.2700000000E+05    0.8027003493E-02    0.6958519562E+00    0.1638877693E+00    0.1101492764E+00    0.6825288433E-04
    0.2900000000E+05    0.7965126600E-02    0.6958597178E+00    0.1662996431E+00    0.1141524755E+00    0.6852484012E-04
    0.3100000000E+05    0.7893831719E-02    0.6958664617E+00    0.1683995969E+00    0.1179638753E+00    0.6877960469E-04
    0.3300000000E+05    0.7815567085E-02    0.6958723739E+00    0.1702329750E+00    0.1216043112E+00    0.6901927600E-04
    0.3500000000E+05    0.7732223274E-02    0.6958775976E+00    0.1718369428E+00    0.1250913429E+00    0.6924558704E-04
    0.3700000000E+05    0.7645269166E-02    0.6958822453E+00    0.1732422411E+00    0.1284399020E+00    0.6945998622E-04
    0.3900000000E+05    0.7555851627E-02    0.6958864059E+00    0.1744745077E+00    0.1316627877E+00    0.6966369665E-04
    0.4100000000E+05    0.7464869455E-02    0.6958901513E+00    0.1755552876E+00    0.1347710535E+00    0.6985776075E-04
    0.4300000000E+05    0.7373028846E-02    0.6958935398E+00    0.1765028118E+00    0.1377743091E+00    0.7004307432E-04
    0.4500000000E+05    0.7280885410E-02    0.6958966193E+00    0.1773326062E+00    0.1406809615E+00    0.7022041288E-04
    0.4700000000E+05    0.7188876285E-02    0.6958994296E+00    0.1780579707E+00    0.1434984074E+00    0.7039045243E-04
    0.4900000000E+05    0.7097344889E-02    0.6959020039E+00    0.1786903605E+00    0.1462331892E+00    0.7055378576E-04
    0.1000000000E+05    0.7244741439E-02    0.6956579580E+00    0.1168514349E+00    0.6263597291E-01    0.6457846070E-04
    0.3000000000E+05    0.7930488422E-02    0.6958632042E+00    0.1673855601E+00    0.1160807625E+00    0.6865423051E-04
    0.5000000000E+05    0.7051844849E-02    0.6959032115E+00    0.1789748419E+00    0.1475714238E+00    0.7063310341E-04
    0.7000000000E+05    0.6206659341E-02    0.6959199118E+00    0.1816057980E+00    0.1711205936E+00    0.7196715458E-04
    0.9000000000E+05    0.5505918418E-02    0.6959289389E+00    0.1810343423E+00    0.1903917501E+00    0.7297982818E-04
    0.1100000000E+06    0.4931868333E-02    0.6959345216E+00    0.1790882088E+00    0.2069104793E+00    0.7379858473E-04
    0.1300000000E+06    0.4457017509E-02    0.6959382733E+00    0.1765052712E+00    0.2214715813E+00    0.7448714687E-04
    0.1500000000E+06    0.4058908360E-02    0.6959409406E+00    0.1736283820E+00    0.2345484567E+00    0.7508206317E-04
    0.1700000000E+06    0.3720737167E-02    0.6959429157E+00    0.1706316966E+00    0.2464493974E+00    0.7560628671E-04
    0.1900000000E+06    0.3430068349E-02    0.6959444234E+00    0.1676088621E+00    0.2573883747E+00    0.7607519662E-04
    0.2100000000E+06    0.3177617262E-02    0.6959456020E+00    0.1646119249E+00    0.2675211456E+00    0.7649961140E-04
    0.2300000000E+06    0.2956350823E-02    0.6959465408E+00    0.1616701383E+00    0.2769653571E+00    0.7688743607E-04
    0.2500000000E+06    0.2760858025E-02    0.6959472999E+00    0.1587997108E+00    0.2858125242E+00    0.7724462582E-04
    0.2700000000E+06    0.2586912750E-02    0.6959479213E+00    0.1560091422E+00    0.2941355596E+00    0.7757578078E-04
    0.2900000000E+06    0.2431167803E-02    0.6959484352E+00    0.1533022755E+00    0.3019937195E+00    0.7788452961E-04
    0.3100000000E+06    0.2290937950E-02    0.6959488636E+00    0.1506801034E+00    0.3094359718E+00    0.7817378606E-04
    0.3300000000E+06    0.2164043754E-02    0.6959492232E+00    0.1481418692E+00    0.3165033618E+00    0.7844592589E-04
    0.3500000000E+06    0.2048697488E-02    0.6959495268E+00    0.1456857517E+00    0.3232307178E+00    0.7870291208E-04
    0.3700000000E+06    0.1943418564E-02    0.6959497841E+00    0.1433092997E+00    0.3296479089E+00    0.7894638565E-04
    0.3900000000E+06    0.1846969976E-02    0.6959500029E+00    0.1410097098E+00    0.3357807910E+00    0.7917773263E-04
    0.4100000000E+06    0.1758309941E-02    0.6959501894E+00    0.1387840061E+00    0.3416519312E+00    0.7939813449E-04
    0.4300000000E+06    0.1676554642E-02    0.6959503486E+00    0.1366291571E+00    0.3472811707E+00    0.7960860671E-04
    0.4500000000E+06    0.1600949227E-02    0.6959504846E+00    0.1345421497E+00    0.3526860686E+00    0.7981002855E-04
    0.4700000000E+06    0.1530844994E-02    0.6959506007E+00    0.1325200370E+00    0.3578822562E+00    0.8000316648E-04
    0.4900000000E+06    0.1465681272E-02    0.6959506995E+00    0.1305599676E+00    0.3628837225E+00    0.8018869279E-04
    0.1000000000E+06    0.5204850372E-02    0.6959320294E+00    0.1801733523E+00    0.1989351184E+00    0.7340857723E-04
    0.3000000000E+06    0.2359260053E-02    0.6959486589E+00    0.1519806184E+00    0.3057641057E+00    0.7803143496E-04
    0.5000000000E+06    0.1434797333E-02    0.6959507433E+00    0.1296023384E+00    0.3653154159E+00    0.8027878963E-04
    0.7000000000E+06    0.9862603192E-03    0.6959511158E+00    0.1131086496E+00    0.4062138471E+00    0.8179429441E-04
    0.9000000000E+06    0.7269834343E-03    0.6959510312E+00    0.1004461538E+00    0.4366850781E+00    0.8294486396E-04
    0.1100000000E+07    0.5611609807E-03    0.6959507898E+00    0.9039197866E-01    0.4604857401E+00    0.8387518103E-04
    0.1300000000E+07    0.4477552324E-03    0.6959504916E+00    0.8219919465E-01    0.4796815050E+00    0.8465760135E-04
    0.1500000000E+07    0.3663655534E-03    0.6959501759E+00    0.7538562333E-01    0.4955340474E+00    0.8533363307E-04
    0.1700000000E+07    0.3057749616E-03    0.6959498597E+00    0.6962490400E-01    0.5088690789E+00    0.8592934736E-04
    0.1900000000E+07    0.2593461917E-03    0.6959495507E+00    0.6468751516E-01    0.5202544738E+00    0.8646221417E-04
    0.2100000000E+07    0.2229248830E-03    0.6959492521E+00    0.6040692392E-01    0.5300958126E+00    0.8694452361E-04
    0.2300000000E+07    0.1937922170E-03    0.6959489652E+00    0.5665913676E-01    0.5386915731E+00    0.8738525654E-04
    0.2500000000E+07    0.1701030001E-03    0.6959486902E+00    0.5334980255E-01    0.5462668596E+00    0.8779117887E-04
    0.2700000000E+07    0.1505664511E-03    0.6959484269E+00    0.5040577873E-01    0.5529949549E+00    0.8816751719E-04
    0.2900000000E+07    0.1342561548E-03    0.6959481747E+00    0.4776944422E-01    0.5590116001E+00    0.8851839442E-04
    0.3100000000E+07    0.1204923824E-03    0.6959479330E+00    0.4539476192E-01    0.5644247447E+00    0.8884712130E-04
    0.3300000000E+07    0.1087667464E-03    0.6959477011E+00    0.4324448967E-01    0.5693213785E+00    0.8915639730E-04
    0.3500000000E+07    0.9869254869E-04    0.6959474785E+00    0.4128816455E-01    0.5737724242E+00    0.8944845295E-04
    0.3700000000E+07    0.8997122765E-04    0.6959472645E+00    0.3950062019E-01    0.5778363097E+00    0.8972515291E-04
    0.3900000000E+07    0.8236917637E-04    0.6959470584E+00    0.3786087869E-01    0.5815616211E+00    0.8998807218E-04
    0.4100000000E+07    0.7570140759E-04    0.6959468599E+00    0.3635131078E-01    0.5849891031E+00    0.9023855330E-04
    0.4300000000E+07    0.6981983914E-04    0.6959466684E+00    0.3495699101E-01    0.5881531877E+00    0.9047775018E-04
    0.4500000000E+07    0.6460475847E-04    0.6959464834E+00    0.3366519694E-01    0.5910831766E+00    0.9070666200E-04
    0.4700000000E+07    0.5995851370E-04    0.6959463045E+00    0.3246501603E-01    0.5938041667E+00    0.9092615974E-04
    0.4900000000E+07    0.5580078897E-04    0.6959461313E+00    0.3134703407E-01    0.5963377804E+00    0.9113700737E-04
    0.1000000000E+07    0.6356580258E-03    0.6959509216E+00    0.9514770881E-01    0.4492648024E+00    0.8343202594E-04
    0.3000000000E+07    0.1270910646E-03    0.6959480526E+00    0.4655190361E-01    0.5617877468E+00    0.8868534551E-04
    0.5000000000E+07    0.5388386380E-04    0.6959460468E+00    0.3081627308E-01    0.5975402742E+00    0.9123940108E-04
    0.7000000000E+07    0.2979458198E-04    0.6959445870E+00    0.2300882007E-01    0.6152054838E+00    0.9296175929E-04
    0.9000000000E+07    0.1893103828E-04    0.6959434398E+00    0.1834467523E-01    0.6257398514E+00    0.9426938084E-04
    0.1100000000E+08    0.1310758426E-04    0.6959424936E+00    0.1524502100E-01    0.6327340501E+00    0.9532668931E-04
    0.1300000000E+08    0.9621989709E-05    0.6959416872E+00    0.1303657484E-01    0.6377144695E+00    0.9621591443E-04
    0.1500000000E+08    0.7369238478E-05    0.6959409839E+00    0.1138378118E-01    0.6414404552E+00    0.9698422926E-04
    0.1700000000E+08    0.5828445236E-05    0.6959403598E+00    0.1010067271E-01    0.6443323471E+00    0.9766126330E-04
    0.1900000000E+08    0.4727700568E-05    0.6959397984E+00    0.9075889925E-02    0.6466416454E+00    0.9826687099E-04
    0.2100000000E+08    0.3913686999E-05    0.6959392880E+00    0.8238687689E-02    0.6485280303E+00    0.9881501999E-04
    0.2300000000E+08    0.3294568009E-05    0.6959388198E+00    0.7541972982E-02    0.6500977498E+00    0.9931591703E-04
    0.2500000000E+08    0.2812585951E-05    0.6959383872E+00    0.6953186711E-02    0.6514242364E+00    0.9977725157E-04
    0.2700000000E+08    0.2429926940E-05    0.6959379850E+00    0.6449100859E-02    0.6525598637E+00    0.1002049636E-03
