  Pressure (Pa) 23mC5-500 (mol/kg) 24mC5-500 (mol/kg) 2mC6-500 (mol/kg) 3mC6-500 (mol/kg) C7-500 (mol/kg)
    0.1000000000E+01    0.2694026328E-05    0.2142806001E+00    0.9649658157E-05    0.8976517335E-06    0.4167159532E-02
    0.3000000000E+01    0.4593599447E-05    0.3978498400E+00    0.1576182930E-04    0.2256917651E-05    0.4188209016E-02
    0.5000000000E+01    0.5317842536E-05    0.4801113997E+00    0.1826916899E-04    0.3497045810E-05    0.4195330046E-02
    0.7000000000E+01    0.5728481130E-05    0.5267933085E+00    0.2011969547E-04    0.4679623940E-05    0.4199076096E-02
    0.9000000000E+01    0.6031328410E-05    0.5568747006E+00    0.2186428234E-04    0.5825267211E-05    0.4201371334E-02
    0.1100000000E+02    0.6293314234E-05    0.5778738370E+00    0.2363091022E-04    0.6944252711E-05    0.4202896126E-02
    0.1300000000E+02    0.6540115509E-05    0.5933644698E+00    0.2544684003E-04    0.8042682944E-05    0.4203959061E-02
    0.1500000000E+02    0.6782546320E-05    0.6052627815E+00    0.2731233558E-04    0.9124572402E-05    0.4204721867E-02
    0.1700000000E+02    0.7025362389E-05    0.6146885462E+00    0.2922077977E-04    0.1019274797E-04    0.4205277968E-02
    0.1900000000E+02    0.7270639254E-05    0.6223399429E+00    0.3116461188E-04    0.1124929963E-04    0.4205685297E-02
    0.2100000000E+02    0.7519202935E-05    0.6286749004E+00    0.3313703300E-04    0.1229583035E-04    0.4205981775E-02
    0.2300000000E+02    0.7771280822E-05    0.6340062524E+00    0.3513237226E-04    0.1333360526E-04    0.4206193321E-02
    0.2500000000E+02    0.8026813551E-05    0.6385549866E+00    0.3714603447E-04    0.1436364620E-04    0.4206338273E-02
    0.2700000000E+02    0.8285609864E-05    0.6424816466E+00    0.3917433671E-04    0.1538679419E-04    0.4206429992E-02
    0.2900000000E+02    0.8547425107E-05    0.6459056751E+00    0.4121433585E-04    0.1640375255E-04    0.4206478452E-02
    0.3100000000E+02    0.8812001190E-05    0.6489177758E+00    0.4326367792E-04    0.1741511735E-04    0.4206491255E-02
    0.3300000000E+02    0.9079086539E-05    0.6515880661E+00    0.4532047517E-04    0.1842139968E-04    0.4206474305E-02
    0.3500000000E+02    0.9348445514E-05    0.6539716043E+00    0.4738320859E-04    0.1942304215E-04    0.4206432254E-02
    0.3700000000E+02    0.9619862224E-05    0.6561122263E+00    0.4945065154E-04    0.2042043150E-04    0.4206368825E-02
    0.3900000000E+02    0.9893141393E-05    0.6580452662E+00    0.5152181010E-04    0.2141390826E-04    0.4206287031E-02
    0.4100000000E+02    0.1016810772E-04    0.6597995222E+00    0.5359587645E-04    0.2240377440E-04    0.4206189341E-02
    0.4300000000E+02    0.1044460450E-04    0.6613987010E+00    0.5567219240E-04    0.2339029933E-04    0.4206077792E-02
    0.4500000000E+02    0.1072249200E-04    0.6628624954E+00    0.5775022061E-04    0.2437372482E-04    0.4205954088E-02
    0.4700000000E+02    0.1100164572E-04    0.6642073990E+00    0.5982952183E-04    0.2535426888E-04    0.4205819660E-02
    0.4900000000E+02    0.1128195477E-04    0.6654473313E+00    0.6190973687E-04    0.2633212906E-04    0.4205675722E-02
    0.1000000000E+02    0.6165305352E-05    0.5682314826E+00    0.2274208012E-04    0.6387646227E-05    0.4202205829E-02
    0.3000000000E+02    0.8679384067E-05    0.6474584264E+00    0.4223796668E-04    0.1691010043E-04    0.4206488908E-02
    0.5000000000E+02    0.1142251122E-04    0.6660317001E+00    0.6295009307E-04    0.2682010951E-04    0.4205600515E-02
    0.7000000000E+02    0.1427537913E-04    0.6743219553E+00    0.8375786260E-04    0.3647515322E-04    0.4203783374E-02
    0.9000000000E+02    0.1717857713E-04    0.6790174048E+00    0.1045270788E-03    0.4599735735E-04    0.4201627743E-02
    0.1100000000E+03    0.2011126133E-04    0.6820395682E+00    0.1252613459E-03    0.5544839390E-04    0.4199308645E-02
    0.1300000000E+03    0.2306552088E-04    0.6841476018E+00    0.1459867796E-03    0.6486536859E-04    0.4196896177E-02
    0.1500000000E+03    0.2603842783E-04    0.6857017593E+00    0.1667307341E-03    0.7427307498E-04    0.4194423490E-02
    0.1700000000E+03    0.2902918460E-04    0.6868949766E+00    0.1875175857E-03    0.8368930797E-04    0.4191907973E-02
    0.1900000000E+03    0.3203796545E-04    0.6878399034E+00    0.2083683064E-03    0.9312753115E-04    0.4189359386E-02
    0.2100000000E+03    0.3506540163E-04    0.6886067298E+00    0.2293008889E-03    0.1025983578E-03    0.4186783440E-02
    0.2300000000E+03    0.3811233767E-04    0.6892414681E+00    0.2503308938E-03    0.1121104364E-03    0.4184183556E-02
    0.2500000000E+03    0.4117971110E-04    0.6897755380E+00    0.2714719358E-03    0.1216710111E-03    0.4181561786E-02
    0.2700000000E+03    0.4426849172E-04    0.6902311263E+00    0.2927360790E-03    0.1312862932E-03    0.4178919326E-02
    0.2900000000E+03    0.4737965102E-04    0.6906243462E+00    0.3141341485E-03    0.1409617168E-03    0.4176256826E-02
    0.3100000000E+03    0.5051414733E-04    0.6909671828E+00    0.3356759746E-03    0.1507021191E-03    0.4173574575E-02
    0.3300000000E+03    0.5367291930E-04    0.6912687351E+00    0.3573705840E-03    0.1605118735E-03    0.4170872612E-02
    0.3500000000E+03    0.5685688386E-04    0.6915360357E+00    0.3792263518E-03    0.1703949867E-03    0.4168150810E-02
    0.3700000000E+03    0.6006693658E-04    0.6917746058E+00    0.4012511218E-03    0.1803551741E-03    0.4165408920E-02
    0.3900000000E+03    0.6330395329E-04    0.6919888403E+00    0.4234523034E-03    0.1903959175E-03    0.4162646611E-02
    0.4100000000E+03    0.6656879218E-04    0.6921822815E+00    0.4458369507E-03    0.2005205100E-03    0.4159863489E-02
    0.4300000000E+03    0.6986229628E-04    0.6923578159E+00    0.4684118267E-03    0.2107320928E-03    0.4157059114E-02
    0.4500000000E+03    0.7318529586E-04    0.6925178194E+00    0.4911834569E-03    0.2210336840E-03    0.4154233015E-02
    0.4700000000E+03    0.7653861077E-04    0.6926642654E+00    0.5141581733E-03    0.2314282026E-03    0.4151384692E-02
    0.4900000000E+03    0.7992305272E-04    0.6927988067E+00    0.5373421526E-03    0.2419184882E-03    0.4148513627E-02
    0.1000000000E+03    0.1864189855E-04    0.6806762789E+00    0.1148970817E-03    0.5072907193E-04    0.4200482966E-02
    0.3000000000E+03    0.4894392288E-04    0.6908014373E+00    0.3248865109E-03    0.1458235127E-03    0.4174918162E-02
    0.5000000000E+03    0.8162719827E-04    0.6928620575E+00    0.5490145112E-03    0.2472004134E-03    0.4147069401E-02
    0.7000000000E+03    0.1175408348E-03    0.6937486369E+00    0.7948934744E-03    0.3585279214E-03    0.4116854019E-02
    0.9000000000E+03    0.1575057377E-03    0.6942419809E+00    0.1068467617E-02    0.4825228714E-03    0.4083688465E-02
    0.1100000000E+04    0.2024303892E-03    0.6945561738E+00    0.1376084972E-02    0.6220798245E-03    0.4046897059E-02
    0.1300000000E+04    0.2533997271E-03    0.6947737744E+00    0.1725258938E-02    0.7806288645E-03    0.4005681397E-02
    0.1500000000E+04    0.3117584237E-03    0.6949333719E+00    0.2125278782E-02    0.9624161057E-03    0.3959066855E-02
    0.1700000000E+04    0.3792110564E-03    0.6950554178E+00    0.2587914304E-02    0.1172827105E-02    0.3905835352E-02
    0.1900000000E+04    0.4579549966E-03    0.6951517611E+00    0.3128341293E-02    0.1418812279E-02    0.3844437415E-02
    0.2100000000E+04    0.5508633188E-03    0.6952297410E+00    0.3766412845E-02    0.1709472271E-02    0.3772873824E-02
    0.2300000000E+04    0.6617397897E-03    0.6952941457E+00    0.4528432549E-02    0.2056875813E-02    0.3688534867E-02
    0.2500000000E+04    0.7956734934E-03    0.6953482324E+00    0.5449624434E-02    0.2477201304E-02    0.3587984061E-02
    0.2700000000E+04    0.9595215598E-03    0.6953942935E+00    0.6577504014E-02    0.2992299346E-02    0.3466677537E-02
    0.2900000000E+04    0.1162529166E-02    0.6954339895E+00    0.7976227499E-02    0.3631718077E-02    0.3318632368E-02
    0.3100000000E+04    0.1417013415E-02    0.6954685524E+00    0.9731436235E-02    0.4434981461E-02    0.3136128403E-02
    0.3300000000E+04    0.1738786472E-02    0.6954989157E+00    0.1195339217E-01    0.5453128508E-02    0.2909719445E-02
    0.3500000000E+04    0.2146366451E-02    0.6955257995E+00    0.1477187605E-01    0.6746542433E-02    0.2629263812E-02
    0.3700000000E+04    0.2656832272E-02    0.6955497684E+00    0.1830803240E-01    0.8372275324E-02    0.2287414049E-02
    0.3900000000E+04    0.3275173415E-02    0.6955712709E+00    0.2260116383E-01    0.1035066863E-01    0.1887328057E-02
    0.4100000000E+04    0.3977273221E-02    0.6955906684E+00    0.2749067760E-01    0.1261100129E-01    0.1453367720E-02
    0.4300000000E+04    0.4700103519E-02    0.6956082546E+00    0.3254607368E-01    0.1495830996E-01    0.1034251568E-02
    0.4500000000E+04    0.5362774534E-02    0.6956242713E+00    0.3720923246E-01    0.1713711491E-01    0.6841559190E-03
    0.4700000000E+04    0.5911355369E-02    0.6956389191E+00    0.4110348045E-01    0.1897282009E-01    0.4318210712E-03
    0.4900000000E+04    0.6340273727E-02    0.6956523656E+00    0.4418443769E-01    0.2044229701E-01    0.2709682269E-03
    0.1000000000E+04    0.1792853563E-03    0.6944147666E+00    0.1217585672E-02    0.5501575154E-03    0.4065792446E-02
    0.3000000000E+04    0.1282430687E-02    0.6954518484E+00    0.8802962435E-02    0.4009953276E-02    0.3232242156E-02
    0.5000000000E+04    0.6517325108E-02    0.6956586836E+00    0.4546998261E-01    0.2106192168E-01    0.2172748940E-03
    0.7000000000E+04    0.8500713289E-02    0.6957469601E+00    0.6068388714E-01    0.2878278659E-01    0.6607730843E-04
    0.9000000000E+04    0.9896875471E-02    0.6957957845E+00    0.7222431222E-01    0.3503641621E-01    0.6673017408E-04
    0.1100000000E+05    0.1102135814E-01    0.6958267112E+00    0.8214556072E-01    0.4070983313E-01    0.6747932542E-04
    0.1300000000E+05    0.1193298696E-01    0.6958480208E+00    0.9076013979E-01    0.4590358218E-01    0.6810971570E-04
    0.1500000000E+05    0.1267530093E-01    0.6958635724E+00    0.9830289903E-01    0.5069408690E-01    0.6865426552E-04
    0.1700000000E+05    0.1328138020E-01    0.6958754066E+00    0.1049556604E+00    0.5514152109E-01    0.6913403790E-04
    0.1900000000E+05    0.1377673770E-01    0.6958847028E+00    0.1108613766E+00    0.5929398636E-01    0.6956313951E-04
    0.2100000000E+05    0.1418131213E-01    0.6958921905E+00    0.1161339827E+00    0.6319045148E-01    0.6995148969E-04
    0.2300000000E+05    0.1451087045E-01    0.6958983443E+00    0.1208653986E+00    0.6686286563E-01    0.7030633424E-04
    0.2500000000E+05    0.1477801301E-01    0.6959034869E+00    0.1251305990E+00    0.7033770552E-01    0.7063313031E-04
    0.2700000000E+05    0.1499290560E-01    0.6959078448E+00    0.1289913446E+00    0.7363712651E-01    0.7093609243E-04
    0.2900000000E+05    0.1516382059E-01    0.6959115817E+00    0.1324989697E+00    0.7677983185E-01    0.7121854456E-04
    0.3100000000E+05    0.1529754228E-01    0.6959148192E+00    0.1356964936E+00    0.7978173781E-01    0.7148315536E-04
    0.3300000000E+05    0.1539967425E-01    0.6959176489E+00    0.1386202380E+00    0.8265648891E-01    0.7173210049E-04
    0.3500000000E+05    0.1547487496E-01    0.6959201417E+00    0.1413010823E+00    0.8541586137E-01    0.7196717741E-04
    0.3700000000E+05    0.1552704029E-01    0.6959223527E+00    0.1437654459E+00    0.8807008241E-01    0.7218988862E-04
    0.3900000000E+05    0.1555944620E-01    0.6959243260E+00    0.1460360656E+00    0.9062808528E-01    0.7240150303E-04
    0.4100000000E+05    0.1557486124E-01    0.6959260969E+00    0.1481326161E+00    0.9309771471E-01    0.7260310225E-04
    0.4300000000E+05    0.1557563604E-01    0.6959276940E+00    0.1500722084E+00    0.9548589385E-01    0.7279561580E-04
    0.4500000000E+05    0.1556377491E-01    0.6959291409E+00    0.1518697949E+00    0.9779876081E-01    0.7297984851E-04
    0.4700000000E+05    0.1554099369E-01    0.6959304571E+00    0.1535384989E+00    0.1000417813E+00    0.7315650192E-04
    0.4900000000E+05    0.1550876660E-01    0.6959316588E+00    0.1550898865E+00    0.1022198419E+00    0.7332619133E-04
    0.1000000000E+05    0.1048895825E-01    0.6958128120E+00    0.7736553092E-01    0.3793864438E-01    0.6712222986E-04
    0.3000000000E+05    0.1523495576E-01    0.6959132566E+00    0.1341340835E+00    0.7829748392E-01    0.7135293412E-04
    0.5000000000E+05    0.1548951507E-01    0.6959322212E+00    0.1558248312E+00    0.1032859004E+00    0.7340859663E-04
    0.7000000000E+05    0.1483880229E-01    0.6959398762E+00    0.1663175807E+00    0.1220574484E+00    0.7479466585E-04
    0.9000000000E+05    0.1399435013E-01    0.6959438644E+00    0.1718690545E+00    0.1374268971E+00    0.7584691183E-04
    0.1100000000E+06    0.1314780252E-01    0.6959462322E+00    0.1748371849E+00    0.1506192217E+00    0.7669770208E-04
    0.1300000000E+06    0.1235517130E-01    0.6959477526E+00    0.1763067972E+00    0.1622793590E+00    0.7741322501E-04
    0.1500000000E+06    0.1163009618E-01    0.6959487795E+00    0.1768449523E+00    0.1727906617E+00    0.7803144782E-04
    0.1700000000E+06    0.1097192328E-01    0.6959494971E+00    0.1767756227E+00    0.1824009831E+00    0.7857621637E-04
    0.1900000000E+06    0.1037530924E-01    0.6959500098E+00    0.1762964040E+00    0.1912807516E+00    0.7906350888E-04
    0.2100000000E+06    0.9833740583E-02    0.6959503809E+00    0.1755339810E+00    0.1995527929E+00    0.7950456572E-04
    0.2300000000E+06    0.9340840426E-02    0.6959506511E+00    0.1745728201E+00    0.2073089559E+00    0.7990760049E-04
    0.2500000000E+06    0.8890819376E-02    0.6959508473E+00    0.1734710323E+00    0.2146199998E+00    0.8027880096E-04
    0.2700000000E+06    0.8478586418E-02    0.6959509881E+00    0.1722696273E+00    0.2215417852E+00    0.8062294704E-04
    0.2900000000E+06    0.8099726916E-02    0.6959510866E+00    0.1709981561E+00    0.2281193211E+00    0.8094380927E-04
    0.3100000000E+06    0.7750433680E-02    0.6959511526E+00    0.1696782808E+00    0.2343895054E+00    0.8124441537E-04
    0.3300000000E+06    0.7427426904E-02    0.6959511929E+00    0.1683261060E+00    0.2403830383E+00    0.8152723405E-04
    0.3500000000E+06    0.7127877425E-02    0.6959512130E+00    0.1669537429E+00    0.2461257934E+00    0.8179430514E-04
    0.3700000000E+06    0.6849338423E-02    0.6959512170E+00    0.1655703838E+00    0.2516398225E+00    0.8204733388E-04
    0.3900000000E+06    0.6589686734E-02    0.6959512079E+00    0.1641830547E+00    0.2569441066E+00    0.8228776058E-04
    0.4100000000E+06    0.6347073271E-02    0.6959511883E+00    0.1627971539E+00    0.2620551272E+00    0.8251681301E-04
    0.4300000000E+06    0.6119881500E-02    0.6959511602E+00    0.1614168413E+00    0.2669873082E+00    0.8273554639E-04
    0.4500000000E+06    0.5906692776E-02    0.6959511251E+00    0.1600453265E+00    0.2717533614E+00    0.8294487444E-04
    0.4700000000E+06    0.5706257411E-02    0.6959510844E+00    0.1586850820E+00    0.2763645607E+00    0.8314559369E-04
    0.4900000000E+06    0.5517470509E-02    0.6959510389E+00    0.1573380056E+00    0.2808309628E+00    0.8333840274E-04
    0.1000000000E+06    0.1356627781E-01    0.6959451878E+00    0.1735909828E+00    0.1442464911E+00    0.7629243186E-04
    0.3000000000E+06    0.7921600929E-02    0.6959511232E+00    0.1703431534E+00    0.2312907864E+00    0.8109647868E-04
    0.5000000000E+06    0.5427134491E-02    0.6959510147E+00    0.1566698721E+00    0.2830127194E+00    0.8343203637E-04
    0.7000000000E+06    0.4043967917E-02    0.6959504264E+00    0.1441970164E+00    0.3208218486E+00    0.8500703881E-04
    0.9000000000E+06    0.3168660945E-02    0.6959497966E+00    0.1334470116E+00    0.3505929038E+00    0.8620278474E-04
    0.1100000000E+07    0.2568442123E-02    0.6959492013E+00    0.1241895952E+00    0.3750026096E+00    0.8716963263E-04
    0.1300000000E+07    0.2133947675E-02    0.6959486531E+00    0.1161544422E+00    0.3955479686E+00    0.8798277761E-04
    0.1500000000E+07    0.1806824602E-02    0.6959481507E+00    0.1091170176E+00    0.4131677906E+00    0.8868535700E-04
    0.1700000000E+07    0.1553056935E-02    0.6959476891E+00    0.1029008167E+00    0.4284957560E+00    0.8930446536E-04
    0.1900000000E+07    0.1351479068E-02    0.6959472631E+00    0.9736783323E-01    0.4419821207E+00    0.8985825847E-04
    0.2100000000E+07    0.1188243421E-02    0.6959468681E+00    0.9240933146E-01    0.4539591919E+00    0.9035950899E-04
    0.2300000000E+07    0.1053921519E-02    0.6959465003E+00    0.8793867344E-01    0.4646795193E+00    0.9081755036E-04
    0.2500000000E+07    0.9418814942E-03    0.6959461561E+00    0.8388601490E-01    0.4743395778E+00    0.9123941416E-04
    0.2700000000E+07    0.8473305474E-03    0.6959458329E+00    0.8019441524E-01    0.4830951709E+00    0.9163053219E-04
    0.2900000000E+07    0.7667246495E-03    0.6959455282E+00    0.7681696896E-01    0.4910718440E+00    0.9199518929E-04
    0.3100000000E+07    0.6973910905E-03    0.6959452401E+00    0.7371466806E-01    0.4983721479E+00    0.9233682618E-04
    0.3300000000E+07    0.6372794991E-03    0.6959449668E+00    0.7085479004E-01    0.5050808412E+00    0.9265824833E-04
    0.3500000000E+07    0.5847931445E-03    0.6959447069E+00    0.6820966744E-01    0.5112687017E+00    0.9296177386E-04
    0.3700000000E+07    0.5386719296E-03    0.6959444591E+00    0.6575573761E-01    0.5169953714E+00    0.9324934068E-04
    0.3900000000E+07    0.4979095518E-03    0.6959442224E+00    0.6347280072E-01    0.5223115170E+00    0.9352258561E-04
    0.4100000000E+07    0.4616937735E-03    0.6959439957E+00    0.6134343453E-01    0.5272604951E+00    0.9378290392E-04
    0.4300000000E+07    0.4293626478E-03    0.6959437783E+00    0.5935252822E-01    0.5318796513E+00    0.9403149485E-04
    0.4500000000E+07    0.4003719634E-03    0.6959435694E+00    0.5748690786E-01    0.5362013466E+00    0.9426939678E-04
    0.4700000000E+07    0.3742707097E-03    0.6959433684E+00    0.5573503305E-01    0.5402537773E+00    0.9449751493E-04
    0.4900000000E+07    0.3506823627E-03    0.6959431746E+00    0.5408674926E-01    0.5440616338E+00    0.9471664325E-04
    0.1000000000E+07    0.2842690620E-02    0.6959494933E+00    0.1286494572E+00    0.3633568011E+00    0.8670907591E-04
    0.3000000000E+07    0.7307892779E-03    0.6959453822E+00    0.7523360181E-01    0.4948008779E+00    0.9216869700E-04
    0.5000000000E+07    0.3397296114E-03    0.6959430803E+00    0.5329860880E-01    0.5458807383E+00    0.9482305832E-04
    0.7000000000E+07    0.1971882000E-03    0.6959414752E+00    0.4126488332E-01    0.5735335224E+00    0.9661305959E-04
    0.9000000000E+07    0.1290982393E-03    0.6959402375E+00    0.3365267354E-01    0.5909205324E+00    0.9797203620E-04
    0.1100000000E+08    0.9121548460E-04    0.6959392277E+00    0.2840220228E-01    0.6028719448E+00    0.9907086909E-04
    0.1300000000E+08    0.6794216840E-04    0.6959383733E+00    0.2456220329E-01    0.6115935128E+00    0.9999501741E-04
    0.1500000000E+08    0.5260745241E-04    0.6959376319E+00    0.2163200587E-01    0.6182385667E+00    0.1007935069E-03
    0.1700000000E+08    0.4196207013E-04    0.6959369766E+00    0.1932284554E-01    0.6234694376E+00    0.1014971306E-03
    0.1900000000E+08    0.3426678391E-04    0.6959363889E+00    0.1745644842E-01    0.6276937876E+00    0.1021265228E-03
    0.2100000000E+08    0.2852125964E-04    0.6959358558E+00    0.1591679228E-01    0.6311763301E+00    0.1026961997E-03
    0.2300000000E+08    0.2411656964E-04    0.6959353680E+00    0.1462511636E-01    0.6340964521E+00    0.1032167689E-03
    0.2500000000E+08    0.2066460264E-04    0.6959349180E+00    0.1352607639E-01    0.6365800339E+00    0.1036962218E-03
    0.2700000000E+08    0.1790839006E-04    0.6959345003E+00    0.1257964589E-01    0.6387180144E+00    0.1041407318E-03
