  Pressure (Pa) 23mC5-500 (mol/kg) 24mC5-500 (mol/kg) 2mC6-500 (mol/kg) 3mC6-500 (mol/kg) C7-500 (mol/kg)
    0.1000000000E+01    0.3439890187E-05    0.9950181954E-01    0.3140573428E-05    0.8086098351E-05    0.4169368229E-02
    0.3000000000E+01    0.7590913110E-05    0.2321230333E+00    0.6665364964E-05    0.2036153550E-04    0.4200038168E-02
    0.5000000000E+01    0.9953961758E-05    0.3164902972E+00    0.8534394782E-05    0.3159488586E-04    0.4215354583E-02
    0.7000000000E+01    0.1144140443E-04    0.3748858925E+00    0.9667344336E-05    0.4233760027E-04    0.4225313380E-02
    0.9000000000E+01    0.1245108915E-04    0.4177029669E+00    0.1043969424E-04    0.5277372742E-04    0.4232323214E-02
    0.1100000000E+02    0.1318053596E-04    0.4504418835E+00    0.1102528976E-04    0.6299479937E-04    0.4237482812E-02
    0.1300000000E+02    0.1373693516E-04    0.4762862690E+00    0.1151157073E-04    0.7305505507E-04    0.4241393388E-02
    0.1500000000E+02    0.1418240893E-04    0.4972065683E+00    0.1194515899E-04    0.8299011215E-04    0.4244417270E-02
    0.1700000000E+02    0.1455482629E-04    0.5144876644E+00    0.1235196267E-04    0.9282501448E-04    0.4246787385E-02
    0.1900000000E+02    0.1487821164E-04    0.5290031743E+00    0.1274678911E-04    0.1025782560E-03    0.4248660833E-02
    0.2100000000E+02    0.1516830355E-04    0.5413678061E+00    0.1313823969E-04    0.1122640087E-03    0.4250147643E-02
    0.2300000000E+02    0.1543568577E-04    0.5520266577E+00    0.1353133061E-04    0.1218934516E-03    0.4251327275E-02
    0.2500000000E+02    0.1568762987E-04    0.5613099403E+00    0.1392895436E-04    0.1314756117E-03    0.4252258604E-02
    0.2700000000E+02    0.1592922063E-04    0.5694677997E+00    0.1433272235E-04    0.1410179193E-03    0.4252986209E-02
    0.2900000000E+02    0.1616406511E-04    0.5766931958E+00    0.1474346414E-04    0.1505265908E-03    0.4253544478E-02
    0.3100000000E+02    0.1639475183E-04    0.5831373610E+00    0.1516152996E-04    0.1600068984E-03    0.4253960380E-02
    0.3300000000E+02    0.1662315509E-04    0.5889205010E+00    0.1558697726E-04    0.1694633678E-03    0.4254255365E-02
    0.3500000000E+02    0.1685064096E-04    0.5941393636E+00    0.1601968726E-04    0.1788999238E-03    0.4254446713E-02
    0.3700000000E+02    0.1707820912E-04    0.5988726947E+00    0.1645943862E-04    0.1883200019E-03    0.4254548506E-02
    0.3900000000E+02    0.1730659225E-04    0.6031852391E+00    0.1690595407E-04    0.1977266339E-03    0.4254572332E-02
    0.4100000000E+02    0.1753632657E-04    0.6071307200E+00    0.1735893006E-04    0.2071225148E-03    0.4254527820E-02
    0.4300000000E+02    0.1776780262E-04    0.6107540886E+00    0.1781805540E-04    0.2165100561E-03    0.4254423036E-02
    0.4500000000E+02    0.1800130215E-04    0.6140932440E+00    0.1828302288E-04    0.2258914287E-03    0.4254264787E-02
    0.4700000000E+02    0.1823702530E-04    0.6171803642E+00    0.1875353623E-04    0.2352685976E-03    0.4254058862E-02
    0.4900000000E+02    0.1847511067E-04    0.6200429464E+00    0.1922931415E-04    0.2446433505E-03    0.4253810211E-02
    0.1000000000E+02    0.1284272973E-04    0.4350958950E+00    0.1074906323E-04    0.5790717932E-04    0.4235089204E-02
    0.3000000000E+02    0.1627979710E-04    0.5800047932E+00    0.1495157272E-04    0.1552699916E-03    0.4253768773E-02
    0.5000000000E+02    0.1859506946E-04    0.6213975545E+00    0.1946909404E-04    0.2493303368E-03    0.4253671218E-02
    0.7000000000E+02    0.2112642668E-04    0.6410032201E+00    0.2448654755E-04    0.3432772238E-03    0.4249424883E-02
    0.9000000000E+02    0.2389153639E-04    0.6524393837E+00    0.2983047609E-04    0.4382511884E-03    0.4243487965E-02
    0.1100000000E+03    0.2685543512E-04    0.6599318076E+00    0.3542495512E-04    0.5348804755E-03    0.4236624668E-02
    0.1300000000E+03    0.2999295535E-04    0.6652204325E+00    0.4123871634E-04    0.6335927372E-03    0.4229144919E-02
    0.1500000000E+03    0.3328925797E-04    0.6691528980E+00    0.4726054373E-04    0.7347207677E-03    0.4221193716E-02
    0.1700000000E+03    0.3673650936E-04    0.6721915445E+00    0.5348908615E-04    0.8385483049E-03    0.4212844049E-02
    0.1900000000E+03    0.4033147116E-04    0.6746099980E+00    0.5992834977E-04    0.9453331983E-03    0.4204133170E-02
    0.2100000000E+03    0.4407401051E-04    0.6765805396E+00    0.6658556066E-04    0.1055320540E-02    0.4195078763E-02
    0.2300000000E+03    0.4796619715E-04    0.6782170491E+00    0.7347009708E-04    0.1168750831E-02    0.4185686895E-02
    0.2500000000E+03    0.5201175265E-04    0.6795978180E+00    0.8059294059E-04    0.1285865499E-02    0.4175956206E-02
    0.2700000000E+03    0.5621571186E-04    0.6807784442E+00    0.8796639537E-04    0.1406910920E-02    0.4165880252E-02
    0.2900000000E+03    0.6058421568E-04    0.6817994989E+00    0.9560395487E-04    0.1532141570E-02    0.4155448849E-02
    0.3100000000E+03    0.6512438765E-04    0.6826912819E+00    0.1035202540E-03    0.1661822673E-02    0.4144648882E-02
    0.3300000000E+03    0.6984426606E-04    0.6834768787E+00    0.1117310745E-03    0.1796232559E-02    0.4133464776E-02
    0.3500000000E+03    0.7475277451E-04    0.6841741866E+00    0.1202533855E-03    0.1935664872E-02    0.4121878768E-02
    0.3700000000E+03    0.7985972000E-04    0.6847972953E+00    0.1291054094E-03    0.2080430731E-02    0.4109871056E-02
    0.3900000000E+03    0.8517581229E-04    0.6853574476E+00    0.1383067079E-03    0.2230860912E-02    0.4097419853E-02
    0.4100000000E+03    0.9071270014E-04    0.6858637246E+00    0.1478782858E-03    0.2387308097E-02    0.4084501380E-02
    0.4300000000E+03    0.9648302200E-04    0.6863235407E+00    0.1578427097E-03    0.2550149253E-02    0.4071089813E-02
    0.4500000000E+03    0.1025004698E-03    0.6867430097E+00    0.1682242436E-03    0.2719788155E-02    0.4057157197E-02
    0.4700000000E+03    0.1087798652E-03    0.6871272177E+00    0.1790490001E-03    0.2896658121E-02    0.4042673318E-02
    0.4900000000E+03    0.1153372477E-03    0.6874804307E+00    0.1903451089E-03    0.3081224960E-02    0.4027605557E-02
    0.1000000000E+03    0.2535049273E-04    0.6565390384E+00    0.3259900538E-04    0.4863291732E-03    0.4240147076E-02
    0.3000000000E+03    0.6283236169E-04    0.6822599651E+00    0.9952630284E-04    0.1596408753E-02    0.4150095856E-02
    0.5000000000E+03    0.1187255540E-03    0.6876465626E+00    0.1961793083E-03    0.3176549945E-02    0.4019841827E-02
    0.7000000000E+03    0.2063463385E-03    0.6899805413E+00    0.3467511952E-03    0.5637975730E-02    0.3823353567E-02
    0.9000000000E+03    0.3566863396E-03    0.6912836411E+00    0.6049252514E-03    0.9866099892E-02    0.3499852424E-02
    0.1100000000E+04    0.6424721743E-03    0.6921151755E+00    0.1096567787E-02    0.1794128696E-01    0.2915839647E-02
    0.1300000000E+04    0.1193646196E-02    0.6926918278E+00    0.2048848670E-02    0.3365920141E-01    0.1875479588E-02
    0.1500000000E+04    0.1910920109E-02    0.6931151681E+00    0.3300409217E-02    0.5453130095E-01    0.7230741617E-03
    0.1700000000E+04    0.2361949053E-02    0.6934391318E+00    0.4107473678E-02    0.6833582017E-01    0.2570056276E-03
    0.1900000000E+04    0.2618936600E-02    0.6936950130E+00    0.4586536238E-02    0.7685665183E-01    0.1698109976E-03
    0.2100000000E+04    0.2822977819E-02    0.6939022164E+00    0.4978712449E-02    0.8403018909E-01    0.1574284999E-03
    0.2300000000E+04    0.3008415009E-02    0.6940734136E+00    0.5342908548E-02    0.9082272181E-01    0.1563025214E-03
    0.2500000000E+04    0.3181583338E-02    0.6942172299E+00    0.5689757097E-02    0.9740541953E-01    0.1567629395E-03
    0.2700000000E+04    0.3344023624E-02    0.6943397401E+00    0.6021588980E-02    0.1038119657E+00    0.1574096305E-03
    0.2900000000E+04    0.3496483077E-02    0.6944453463E+00    0.6339373403E-02    0.1100536234E+00    0.1580444299E-03
    0.3100000000E+04    0.3639551992E-02    0.6945373162E+00    0.6643828511E-02    0.1161377619E+00    0.1586431915E-03
    0.3300000000E+04    0.3773765857E-02    0.6946181265E+00    0.6935599172E-02    0.1220708231E+00    0.1592064964E-03
    0.3500000000E+04    0.3899623572E-02    0.6946896888E+00    0.7215287470E-02    0.1278588152E+00    0.1597378948E-03
    0.3700000000E+04    0.4017592330E-02    0.6947535017E+00    0.7483459742E-02    0.1335074103E+00    0.1602408175E-03
    0.3900000000E+04    0.4128110236E-02    0.6948107568E+00    0.7740649706E-02    0.1390219784E+00    0.1607182266E-03
    0.4100000000E+04    0.4231588426E-02    0.6948624132E+00    0.7987360805E-02    0.1444076087E+00    0.1611726506E-03
    0.4300000000E+04    0.4328412957E-02    0.6949092521E+00    0.8224068278E-02    0.1496691284E+00    0.1616062586E-03
    0.4500000000E+04    0.4418946552E-02    0.6949519157E+00    0.8451221050E-02    0.1548111195E+00    0.1620209243E-03
    0.4700000000E+04    0.4503530200E-02    0.6949909370E+00    0.8669243481E-02    0.1598379339E+00    0.1624182770E-03
    0.4900000000E+04    0.4582484637E-02    0.6950267621E+00    0.8878536967E-02    0.1647537082E+00    0.1627997430E-03
    0.1000000000E+04    0.4753983048E-03    0.6917407723E+00    0.8089853051E-03    0.1321432766E-01    0.3253039238E-02
    0.3000000000E+04    0.3569156933E-02    0.6944928655E+00    0.6493225670E-02    0.1131149675E+00    0.1583484313E-03
    0.5000000000E+04    0.4619945932E-02    0.6950435959E+00    0.8980029883E-02    0.1671711924E+00    0.1629849166E-03
    0.7000000000E+04    0.5138125377E-02    0.6952788934E+00    0.1063385564E-01    0.2105522170E+00    0.1660931986E-03
    0.9000000000E+04    0.5345810777E-02    0.6954091187E+00    0.1174252884E-01    0.2463106026E+00    0.1684465035E-03
    0.1100000000E+05    0.5369645320E-02    0.6954916498E+00    0.1248169997E-01    0.2764079058E+00    0.1703463094E-03
    0.1300000000E+05    0.5284477141E-02    0.6955485420E+00    0.1296356440E-01    0.3021665125E+00    0.1719424622E-03
    0.1500000000E+05    0.5135742078E-02    0.6955900788E+00    0.1326246774E-01    0.3245135799E+00    0.1733205983E-03
    0.1700000000E+05    0.4951552747E-02    0.6956216988E+00    0.1342917591E-01    0.3441207007E+00    0.1745343665E-03
    0.1900000000E+05    0.4749514834E-02    0.6956465470E+00    0.1349922417E-01    0.3614878718E+00    0.1756196487E-03
    0.2100000000E+05    0.4540709443E-02    0.6956665682E+00    0.1349800591E-01    0.3769961173E+00    0.1766016520E-03
    0.2300000000E+05    0.4332089734E-02    0.6956830289E+00    0.1344398403E-01    0.3909416620E+00    0.1774987757E-03
    0.2500000000E+05    0.4127959534E-02    0.6956967894E+00    0.1335077933E-01    0.4035588219E+00    0.1783248687E-03
    0.2700000000E+05    0.3930904772E-02    0.6957084543E+00    0.1322856405E-01    0.4150357579E+00    0.1790906213E-03
    0.2900000000E+05    0.3742390558E-02    0.6957184608E+00    0.1308501323E-01    0.4255255792E+00    0.1798044613E-03
    0.3100000000E+05    0.3563149480E-02    0.6957271327E+00    0.1292596713E-01    0.4351543376E+00    0.1804731526E-03
    0.3300000000E+05    0.3393437083E-02    0.6957347152E+00    0.1275590072E-01    0.4440268932E+00    0.1811022078E-03
    0.3500000000E+05    0.3233201494E-02    0.6957413970E+00    0.1257826159E-01    0.4522312908E+00    0.1816961803E-03
    0.3700000000E+05    0.3082196763E-02    0.6957473260E+00    0.1239571658E-01    0.4598420762E+00    0.1822588752E-03
    0.3900000000E+05    0.2940058879E-02    0.6957526193E+00    0.1221033410E-01    0.4669228439E+00    0.1827935054E-03
    0.4100000000E+05    0.2806356772E-02    0.6957573712E+00    0.1202372030E-01    0.4735282187E+00    0.1833028091E-03
    0.4300000000E+05    0.2680626431E-02    0.6957616585E+00    0.1183712195E-01    0.4797054144E+00    0.1837891392E-03
    0.4500000000E+05    0.2562393546E-02    0.6957655438E+00    0.1165150473E-01    0.4854954737E+00    0.1842545324E-03
    0.4700000000E+05    0.2451188304E-02    0.6957690795E+00    0.1146761343E-01    0.4909342620E+00    0.1847007642E-03
    0.4900000000E+05    0.2346554835E-02    0.6957723090E+00    0.1128601845E-01    0.4960532734E+00    0.1851293912E-03
    0.1000000000E+05    0.5375147715E-02    0.6954545537E+00    0.1215017715E-01    0.2619727969E+00    0.1694416305E-03
    0.3000000000E+05    0.3651586046E-02    0.6957229467E+00    0.1300711989E-01    0.4304405981E+00    0.1801440806E-03
    0.5000000000E+05    0.2296565341E-02    0.6957738206E+00    0.1119622175E-01    0.4985016736E+00    0.1853375383E-03
    0.7000000000E+05    0.1549193522E-02    0.6957944352E+00    0.9579004979E-02    0.5359625246E+00    0.1888382197E-03
    0.9000000000E+05    0.1110015207E-02    0.6958052204E+00    0.8305725988E-02    0.5597629374E+00    0.1914954076E-03
    0.1100000000E+06    0.8329766132E-03    0.6958116542E+00    0.7307401438E-02    0.5762422843E+00    0.1936436912E-03
    0.1300000000E+06    0.6477562072E-03    0.6958158078E+00    0.6512466804E-02    0.5883336945E+00    0.1954503222E-03
    0.1500000000E+06    0.5180467892E-03    0.6958186313E+00    0.5867846047E-02    0.5975855725E+00    0.1970112209E-03
    0.1700000000E+06    0.4237601797E-03    0.6958206189E+00    0.5336068310E-02    0.6048936718E+00    0.1983866231E-03
    0.1900000000E+06    0.3531026777E-03    0.6958220516E+00    0.4890625239E-02    0.6108125409E+00    0.1996168868E-03
    0.2100000000E+06    0.2987972091E-03    0.6958231003E+00    0.4512470762E-02    0.6157039860E+00    0.2007304009E-03
    0.2300000000E+06    0.2561620442E-03    0.6958238743E+00    0.4187661168E-02    0.6198141645E+00    0.2017479086E-03
    0.2500000000E+06    0.2220766716E-03    0.6958244464E+00    0.3905795140E-02    0.6233163941E+00    0.2026850363E-03
    0.2700000000E+06    0.1943972381E-03    0.6958248669E+00    0.3658976057E-02    0.6263362485E+00    0.2035538545E-03
    0.2900000000E+06    0.1716118410E-03    0.6958251716E+00    0.3441111259E-02    0.6289669422E+00    0.2043638846E-03
    0.3100000000E+06    0.1526296567E-03    0.6958253863E+00    0.3247430446E-02    0.6312791254E+00    0.2051227718E-03
    0.3300000000E+06    0.1366477372E-03    0.6958255304E+00    0.3074148663E-02    0.6333273226E+00    0.2058367497E-03
    0.3500000000E+06    0.1230644578E-03    0.6958256182E+00    0.2918226339E-02    0.6351542857E+00    0.2065109691E-03
    0.3700000000E+06    0.1114218547E-03    0.6958256611E+00    0.2777195626E-02    0.6367940087E+00    0.2071497355E-03
    0.3900000000E+06    0.1013663407E-03    0.6958256675E+00    0.2649032797E-02    0.6382738613E+00    0.2077566856E-03
    0.4100000000E+06    0.9262140361E-04    0.6958256443E+00    0.2532063149E-02    0.6396161272E+00    0.2083349193E-03
    0.4300000000E+06    0.8496828489E-04    0.6958255970E+00    0.2424889216E-02    0.6408391334E+00    0.2088871011E-03
    0.4500000000E+06    0.7823208158E-04    0.6958255297E+00    0.2326335916E-02    0.6419580907E+00    0.2094155378E-03
    0.4700000000E+06    0.7227159953E-04    0.6958254460E+00    0.2235408175E-02    0.6429857293E+00    0.2099222405E-03
    0.4900000000E+06    0.6697184368E-04    0.6958253489E+00    0.2151257847E-02    0.6439327844E+00    0.2104089732E-03
    0.1000000000E+06    0.9567411458E-03    0.6958088122E+00    0.7777084469E-02    0.5686883264E+00    0.1926203829E-03
    0.3000000000E+06    0.1617010899E-03    0.6958252888E+00    0.3341504311E-02    0.6301591209E+00    0.2047493027E-03
    0.5000000000E+06    0.6453955136E-04    0.6958252960E+00    0.2111492813E-02    0.6443789967E+00    0.2106453440E-03
    0.7000000000E+06    0.3464124467E-04    0.6958239201E+00    0.1540219018E-02    0.6507001727E+00    0.2146212760E-03
    0.9000000000E+06    0.2163330805E-04    0.6958223834E+00    0.1210990192E-02    0.6542722438E+00    0.2176397704E-03
    0.1100000000E+07    0.1481439213E-04    0.6958209086E+00    0.9970867624E-03    0.6565678656E+00    0.2200804209E-03
    0.1300000000E+07    0.1079455934E-04    0.6958195402E+00    0.8470356833E-03    0.6581673281E+00    0.2221330597E-03
    0.1500000000E+07    0.8224884525E-05    0.6958182795E+00    0.7360049789E-03    0.6593455120E+00    0.2239065863E-03
    0.1700000000E+07    0.6481776036E-05    0.6958171172E+00    0.6505508466E-03    0.6602494342E+00    0.2254693998E-03
    0.1900000000E+07    0.5244440587E-05    0.6958160419E+00    0.5827639458E-03    0.6609648432E+00    0.2268673332E-03
    0.2100000000E+07    0.4334049047E-05    0.6958150429E+00    0.5276885849E-03    0.6615451216E+00    0.2281326302E-03
    0.2300000000E+07    0.3644458119E-05    0.6958141108E+00    0.4820623973E-03    0.6620252380E+00    0.2292888520E-03
    0.2500000000E+07    0.3109410036E-05    0.6958132377E+00    0.4436503922E-03    0.6624290561E+00    0.2303537492E-03
    0.2700000000E+07    0.2685795477E-05    0.6958124166E+00    0.4108702635E-03    0.6627734179E+00    0.2313410337E-03
    0.2900000000E+07    0.2344576758E-05    0.6958116418E+00    0.3825704764E-03    0.6630705494E+00    0.2322615221E-03
    0.3100000000E+07    0.2065609943E-05    0.6958109084E+00    0.3578930969E-03    0.6633295399E+00    0.2331239000E-03
    0.3300000000E+07    0.1834562190E-05    0.6958102122E+00    0.3361858794E-03    0.6635572877E+00    0.2339352494E-03
    0.3500000000E+07    0.1641008132E-05    0.6958095497E+00    0.3169441461E-03    0.6637591225E+00    0.2347014221E-03
    0.3700000000E+07    0.1477216472E-05    0.6958089176E+00    0.2997713121E-03    0.6639392271E+00    0.2354273100E-03
    0.3900000000E+07    0.1337354795E-05    0.6958083132E+00    0.2843514339E-03    0.6641009302E+00    0.2361170450E-03
    0.4100000000E+07    0.1216955525E-05    0.6958077343E+00    0.2704297162E-03    0.6642469139E+00    0.2367741494E-03
    0.4300000000E+07    0.1112549380E-05    0.6958071786E+00    0.2577984102E-03    0.6643793633E+00    0.2374016503E-03
    0.4500000000E+07    0.1021408824E-05    0.6958066444E+00    0.2462864406E-03    0.6645000764E+00    0.2380021690E-03
    0.4700000000E+07    0.9413653377E-06    0.6958061301E+00    0.2357516607E-03    0.6646105465E+00    0.2385779906E-03
    0.4900000000E+07    0.8706771708E-06    0.6958056342E+00    0.2260749889E-03    0.6647120238E+00    0.2391311193E-03
    0.1000000000E+07    0.1773761647E-04    0.6958216338E+00    0.1093762419E-02    0.6555326766E+00    0.2189178226E-03
    0.3000000000E+07    0.2198317298E-05    0.6958112702E+00    0.3698237788E-03    0.6632043383E+00    0.2326994996E-03
    0.5000000000E+07    0.8383892899E-06    0.6958053927E+00    0.2215264099E-03    0.6647597263E+00    0.2393997343E-03
    0.7000000000E+07    0.4497101948E-06    0.6958012751E+00    0.1578298379E-03    0.6654280810E+00    0.2439180719E-03
    0.9000000000E+07    0.2854677744E-06    0.6957980903E+00    0.1224588513E-03    0.6657997679E+00    0.2473483877E-03
    0.1100000000E+08    0.2004342550E-06    0.6957954856E+00    0.9997495338E-04    0.6660364152E+00    0.2501220351E-03
    0.1300000000E+08    0.1505085987E-06    0.6957932775E+00    0.8442904272E-04    0.6662002960E+00    0.2524547368E-03
    0.1500000000E+08    0.1185650641E-06    0.6957913583E+00    0.7304342553E-04    0.6663204988E+00    0.2544702467E-03
    0.1700000000E+08    0.9680682200E-07    0.6957896590E+00    0.6434766893E-04    0.6664124322E+00    0.2562462946E-03
    0.1900000000E+08    0.8126256623E-07    0.6957881331E+00    0.5749078245E-04    0.6664850205E+00    0.2578349664E-03
    0.2100000000E+08    0.6973265223E-07    0.6957867474E+00    0.5194623539E-04    0.6665437896E+00    0.2592729044E-03
    0.2300000000E+08    0.6091671571E-07    0.6957854775E+00    0.4737084291E-04    0.6665923437E+00    0.2605868847E-03
    0.2500000000E+08    0.5400484985E-07    0.6957843049E+00    0.4353138735E-04    0.6666331343E+00    0.2617970795E-03
    0.2700000000E+08    0.4847058008E-07    0.6957832153E+00    0.4026385926E-04    0.6666678863E+00    0.2629190717E-03
