  Pressure (Pa) 23mC5-500 (mol/kg) 24mC5-500 (mol/kg) 2mC6-500 (mol/kg) 3mC6-500 (mol/kg) C7-500 (mol/kg)
    0.1000000000E+01    0.3603548545E-05    0.6964899242E-01    0.2625297372E-04    0.8001878320E-06    0.4195947794E-02
    0.3000000000E+01    0.8624427381E-05    0.1740745559E+00    0.6084988095E-04    0.2046071527E-05    0.4253887108E-02
    0.5000000000E+01    0.1192347640E-04    0.2486309107E+00    0.8223406415E-04    0.3191587797E-05    0.4293186074E-02
    0.7000000000E+01    0.1421330205E-04    0.3045313345E+00    0.9633313674E-04    0.4288569217E-05    0.4322578227E-02
    0.9000000000E+01    0.1587076692E-04    0.3480003176E+00    0.1061515361E-03    0.5354520690E-05    0.4345507228E-02
    0.1100000000E+02    0.1711247033E-04    0.3827703020E+00    0.1133446471E-03    0.6398207598E-05    0.4363930912E-02
    0.1300000000E+02    0.1807055090E-04    0.4112153908E+00    0.1188783515E-03    0.7424849849E-05    0.4379075461E-02
    0.1500000000E+02    0.1882944437E-04    0.4349177561E+00    0.1233413226E-03    0.8437888492E-05    0.4391753896E-02
    0.1700000000E+02    0.1944515193E-04    0.4549724392E+00    0.1271048305E-03    0.9439750493E-05    0.4402528300E-02
    0.1900000000E+02    0.1995597031E-04    0.4721614362E+00    0.1304095058E-03    0.1043223250E-04    0.4411800378E-02
    0.2100000000E+02    0.2038876761E-04    0.4870581054E+00    0.1334147456E-03    0.1141671396E-04    0.4419865168E-02
    0.2300000000E+02    0.2076280664E-04    0.5000924013E+00    0.1362279770E-03    0.1239428465E-04    0.4426944426E-02
    0.2500000000E+02    0.2109215602E-04    0.5115930720E+00    0.1389225738E-03    0.1336582551E-04    0.4433208157E-02
    0.2700000000E+02    0.2138725639E-04    0.5218157841E+00    0.1415491405E-03    0.1433206216E-04    0.4438788953E-02
    0.2900000000E+02    0.2165596427E-04    0.5309623626E+00    0.1441427949E-03    0.1529360187E-04    0.4443791798E-02
    0.3100000000E+02    0.2190426359E-04    0.5391942559E+00    0.1467279669E-03    0.1625095968E-04    0.4448300936E-02
    0.3300000000E+02    0.2213676059E-04    0.5466421525E+00    0.1493216210E-03    0.1720457751E-04    0.4452384777E-02
    0.3500000000E+02    0.2235703401E-04    0.5534129741E+00    0.1519354547E-03    0.1815483834E-04    0.4456099471E-02
    0.3700000000E+02    0.2256788697E-04    0.5595950436E+00    0.1545774199E-03    0.1910207706E-04    0.4459491552E-02
    0.3900000000E+02    0.2277153069E-04    0.5652619607E+00    0.1572527887E-03    0.2004658878E-04    0.4462599925E-02
    0.4100000000E+02    0.2296972023E-04    0.5704755474E+00    0.1599649080E-03    0.2098863538E-04    0.4465457377E-02
    0.4300000000E+02    0.2316385600E-04    0.5752881133E+00    0.1627157401E-03    0.2192845072E-04    0.4468091743E-02
    0.4500000000E+02    0.2335506042E-04    0.5797442176E+00    0.1655062508E-03    0.2286624480E-04    0.4470526811E-02
    0.4700000000E+02    0.2354423647E-04    0.5838820532E+00    0.1683366927E-03    0.2380220721E-04    0.4472783038E-02
    0.4900000000E+02    0.2373211274E-04    0.5877345445E+00    0.1712068103E-03    0.2473650988E-04    0.4474878119E-02
    0.1000000000E+02    0.1653389928E-04    0.3663008532E+00    0.1100044196E-03    0.5878766035E-05    0.4355193271E-02
    0.3000000000E+02    0.2178234949E-04    0.5351838484E+00    0.1454352357E-03    0.1577277437E-04    0.4446103481E-02
    0.5000000000E+02    0.2382575222E-04    0.5895628541E+00    0.1726565671E-03    0.2520308830E-04    0.4475870116E-02
    0.7000000000E+02    0.2572481310E-04    0.6164097260E+00    0.2034991562E-03    0.3447925478E-04    0.4490104521E-02
    0.9000000000E+02    0.2776031170E-04    0.6324102663E+00    0.2371052478E-03    0.4370825478E-04    0.4497890618E-02
    0.1100000000E+03    0.2995061066E-04    0.6430328778E+00    0.2726366642E-03    0.5294506185E-04    0.4502309775E-02
    0.1300000000E+03    0.3227859568E-04    0.6505987877E+00    0.3095966773E-03    0.6222359259E-04    0.4504712349E-02
    0.1500000000E+03    0.3472564823E-04    0.6562613733E+00    0.3476984688E-03    0.7156727449E-04    0.4505789535E-02
    0.1700000000E+03    0.3727690500E-04    0.6606585690E+00    0.3867738535E-03    0.8099362610E-04    0.4505934342E-02
    0.1900000000E+03    0.3992130733E-04    0.6641718709E+00    0.4267231210E-03    0.9051655534E-04    0.4505387876E-02
    0.2100000000E+03    0.4265080873E-04    0.6670434255E+00    0.4674876148E-03    0.1001476355E-03    0.4504306784E-02
    0.2300000000E+03    0.4545961621E-04    0.6694343315E+00    0.5090342744E-03    0.1098968691E-03    0.4502797487E-02
    0.2500000000E+03    0.4834360630E-04    0.6714559310E+00    0.5513465963E-03    0.1197731715E-03    0.4500934893E-02
    0.2700000000E+03    0.5129990027E-04    0.6731876418E+00    0.5944191657E-03    0.1297846939E-03    0.4498773254E-02
    0.2900000000E+03    0.5432655955E-04    0.6746876342E+00    0.6382542428E-03    0.1399390452E-03    0.4496352784E-02
    0.3100000000E+03    0.5742236708E-04    0.6759994908E+00    0.6828595762E-03    0.1502434515E-03    0.4493703851E-02
    0.3300000000E+03    0.6058666898E-04    0.6771565101E+00    0.7282469686E-03    0.1607048740E-03    0.4490849736E-02
    0.3500000000E+03    0.6381925909E-04    0.6781845704E+00    0.7744313200E-03    0.1713300972E-03    0.4487808495E-02
    0.3700000000E+03    0.6712029361E-04    0.6791040879E+00    0.8214299786E-03    0.1821257985E-03    0.4484594253E-02
    0.3900000000E+03    0.7049022770E-04    0.6799313853E+00    0.8692622975E-03    0.1930986029E-03    0.4481218122E-02
    0.4100000000E+03    0.7392976785E-04    0.6806796690E+00    0.9179493293E-03    0.2042551280E-03    0.4477688862E-02
    0.4300000000E+03    0.7743983587E-04    0.6813597387E+00    0.9675136169E-03    0.2156020209E-03    0.4474013375E-02
    0.4500000000E+03    0.8102154165E-04    0.6819805121E+00    0.1017979051E-02    0.2271459901E-03    0.4470197066E-02
    0.4700000000E+03    0.8467616243E-04    0.6825494171E+00    0.1069370778E-02    0.2388938330E-03    0.4466244122E-02
    0.4900000000E+03    0.8840512704E-04    0.6830726911E+00    0.1121715137E-02    0.2508524599E-03    0.4462157725E-02
    0.1000000000E+03    0.2883700231E-04    0.6382088098E+00    0.2546677033E-03    0.4832323750E-04    0.4500414329E-02
    0.3000000000E+03    0.5586587232E-04    0.6753647963E+00    0.6604599718E-03    0.1450720513E-03    0.4495055279E-02
    0.5000000000E+03    0.9029797327E-04    0.6833188975E+00    0.1148253103E-02    0.2569130134E-03    0.4460065242E-02
    0.7000000000E+03    0.1325161538E-03    0.6867836236E+00    0.1736467152E-02    0.3910279716E-03    0.4411438704E-02
    0.9000000000E+03    0.1848063771E-03    0.6887225333E+00    0.2460245181E-02    0.5558862853E-03    0.4348965763E-02
    0.1100000000E+04    0.2508118858E-03    0.6899613008E+00    0.3371271663E-02    0.7634484444E-03    0.4269269992E-02
    0.1300000000E+04    0.3361208393E-03    0.6908209473E+00    0.4547430113E-02    0.1031618133E-02    0.4166393563E-02
    0.1500000000E+04    0.4494657189E-03    0.6914522816E+00    0.6109899416E-02    0.1388233814E-02    0.4030836537E-02
    0.1700000000E+04    0.6048189955E-03    0.6919355042E+00    0.8252510085E-02    0.1877871405E-02    0.3847574479E-02
    0.1900000000E+04    0.8247763495E-03    0.6923171981E+00    0.1128918331E-01    0.2572874025E-02    0.3593016602E-02
    0.2100000000E+04    0.1144627929E-02    0.6926262707E+00    0.1571180296E-01    0.3587000774E-02    0.3232264192E-02
    0.2300000000E+04    0.1610384335E-02    0.6928816103E+00    0.2216656108E-01    0.5070872296E-02    0.2725336207E-02
    0.2500000000E+04    0.2245127967E-02    0.6930960801E+00    0.3099409258E-01    0.7107781998E-02    0.2069931734E-02
    0.2700000000E+04    0.2963504249E-02    0.6932787427E+00    0.4104294150E-01    0.9440531064E-02    0.1389176997E-02
    0.2900000000E+04    0.3577806949E-02    0.6934361671E+00    0.4972501954E-01    0.1147728871E-01    0.8906360703E-03
    0.3100000000E+04    0.4002209105E-02    0.6935732310E+00    0.5582951192E-01    0.1293463367E-01    0.6336180997E-03
    0.3300000000E+04    0.4291118357E-02    0.6936936321E+00    0.6008568787E-01    0.1397439712E-01    0.5285065775E-03
    0.3500000000E+04    0.4512421735E-02    0.6938002244E+00    0.6342341091E-01    0.1480780616E-01    0.4903309199E-03
    0.3700000000E+04    0.4702678588E-02    0.6938952458E+00    0.6634621767E-01    0.1554992446E-01    0.4775387175E-03
    0.3900000000E+04    0.4877299473E-02    0.6939804758E+00    0.6906673403E-01    0.1624944345E-01    0.4738575884E-03
    0.4100000000E+04    0.5042348915E-02    0.6940573472E+00    0.7166837527E-01    0.1692541644E-01    0.4733784233E-03
    0.4300000000E+04    0.5200247464E-02    0.6941270265E+00    0.7418400114E-01    0.1758525642E-01    0.4740027533E-03
    0.4500000000E+04    0.5352045403E-02    0.6941904730E+00    0.7662742223E-01    0.1823197976E-01    0.4749886706E-03
    0.4700000000E+04    0.5498278186E-02    0.6942484828E+00    0.7900529877E-01    0.1886695282E-01    0.4760742100E-03
    0.4900000000E+04    0.5639283227E-02    0.6943017222E+00    0.8132156143E-01    0.1949091594E-01    0.4771676401E-03
    0.1000000000E+04    0.2158017108E-03    0.6894034046E+00    0.2888253895E-02    0.6533863110E-03    0.4311576165E-02
    0.3000000000E+04    0.3811983190E-02    0.6935069900E+00    0.5307690194E-01    0.1227364051E-01    0.7362627336E-03
    0.5000000000E+04    0.5707907274E-02    0.6943267321E+00    0.8245749813E-01    0.1979892852E-01    0.4777065250E-03
    0.7000000000E+04    0.6856009127E-02    0.6946756963E+00    0.1024816512E+00    0.2547092778E-01    0.4868556165E-03
    0.9000000000E+04    0.7675024282E-02    0.6948680508E+00    0.1184279515E+00    0.3038425902E-01    0.4937807112E-03
    0.1100000000E+05    0.8266434646E-02    0.6949894369E+00    0.1314080479E+00    0.3472289817E-01    0.4993661944E-03
    0.1300000000E+05    0.8695823126E-02    0.6950727431E+00    0.1421634323E+00    0.3861305796E-01    0.5040561364E-03
    0.1500000000E+05    0.9007153854E-02    0.6951332870E+00    0.1512076851E+00    0.4214459118E-01    0.5081037895E-03
    0.1700000000E+05    0.9230801189E-02    0.6951791602E+00    0.1589077623E+00    0.4538344439E-01    0.5116675807E-03
    0.1900000000E+05    0.9388288653E-02    0.6952150361E+00    0.1655328213E+00    0.4837927727E-01    0.5148533590E-03
    0.2100000000E+05    0.9495199799E-02    0.6952438006E+00    0.1712847610E+00    0.5117031432E-01    0.5177354231E-03
    0.2300000000E+05    0.9563027935E-02    0.6952673311E+00    0.1763179915E+00    0.5378654092E-01    0.5203679708E-03
    0.2500000000E+05    0.9600386426E-02    0.6952869008E+00    0.1807526204E+00    0.5625187143E-01    0.5227917756E-03
    0.2700000000E+05    0.9613821020E-02    0.6953034033E+00    0.1846834755E+00    0.5858565790E-01    0.5250382977E-03
    0.2900000000E+05    0.9608367392E-02    0.6953174839E+00    0.1881864232E+00    0.6080376371E-01    0.5271323304E-03
    0.3100000000E+05    0.9587941448E-02    0.6953296202E+00    0.1913228812E+00    0.6291934306E-01    0.5290937659E-03
    0.3300000000E+05    0.9555617420E-02    0.6953401728E+00    0.1941431016E+00    0.6494341692E-01    0.5309388127E-03
    0.3500000000E+05    0.9513829152E-02    0.6953494192E+00    0.1966885969E+00    0.6688530545E-01    0.5326808552E-03
    0.3700000000E+05    0.9464517899E-02    0.6953575762E+00    0.1989939608E+00    0.6875295740E-01    0.5343310763E-03
    0.3900000000E+05    0.9409242237E-02    0.6953648159E+00    0.2010882506E+00    0.7055320426E-01    0.5358989172E-03
    0.4100000000E+05    0.9349260773E-02    0.6953712760E+00    0.2029960521E+00    0.7229195875E-01    0.5373924226E-03
    0.4300000000E+05    0.9285595059E-02    0.6953770686E+00    0.2047383072E+00    0.7397437155E-01    0.5388185038E-03
    0.4500000000E+05    0.9219077900E-02    0.6953822854E+00    0.2063329638E+00    0.7560495622E-01    0.5401831437E-03
    0.4700000000E+05    0.9150390809E-02    0.6953870023E+00    0.2077954926E+00    0.7718768979E-01    0.5414915557E-03
    0.4900000000E+05    0.9080093261E-02    0.6953912827E+00    0.2091392992E+00    0.7872609434E-01    0.5427483116E-03
    0.1000000000E+05    0.7994448025E-02    0.6949349414E+00    0.1252358210E+00    0.3261648194E-01    0.4967069085E-03
    0.3000000000E+05    0.9599816760E-02    0.6953237703E+00    0.1897970929E+00    0.6187363604E-01    0.5281285349E-03
    0.5000000000E+05    0.9044487806E-02    0.6953932762E+00    0.2097703896E+00    0.7947966618E-01    0.5433585970E-03
    0.7000000000E+05    0.8324146230E-02    0.6954195791E+00    0.2183280793E+00    0.9283063692E-01    0.5536214969E-03
    0.9000000000E+05    0.7666230317E-02    0.6954322385E+00    0.2223553959E+00    0.1039031855E+00    0.5614104547E-03
    0.1100000000E+06    0.7095899197E-02    0.6954390385E+00    0.2241725069E+00    0.1135219587E+00    0.5677071539E-03
    0.1300000000E+06    0.6604490028E-02    0.6954428681E+00    0.2247734876E+00    0.1221150057E+00    0.5730021655E-03
    0.1500000000E+06    0.6178829177E-02    0.6954450272E+00    0.2246515748E+00    0.1299358214E+00    0.5775767847E-03
    0.1700000000E+06    0.5807077630E-02    0.6954461779E+00    0.2240771009E+00    0.1371484031E+00    0.5816076368E-03
    0.1900000000E+06    0.5479613244E-02    0.6954466886E+00    0.2232092622E+00    0.1438657893E+00    0.5852130497E-03
    0.2100000000E+06    0.5188813402E-02    0.6954467781E+00    0.2221470154E+00    0.1501696941E+00    0.5884762526E-03
    0.2300000000E+06    0.4928655587E-02    0.6954465830E+00    0.2209545028E+00    0.1561214162E+00    0.5914580562E-03
    0.2500000000E+06    0.4694354346E-02    0.6954461919E+00    0.2196746986E+00    0.1617683225E+00    0.5942042685E-03
    0.2700000000E+06    0.4482073553E-02    0.6954456643E+00    0.2183371664E+00    0.1671479107E+00    0.5967502723E-03
    0.2900000000E+06    0.4288707870E-02    0.6954450411E+00    0.2169626804E+00    0.1722904698E+00    0.5991239771E-03
    0.3100000000E+06    0.4111718744E-02    0.6954443512E+00    0.2155660886E+00    0.1772208857E+00    0.6013477928E-03
    0.3300000000E+06    0.3949011265E-02    0.6954436150E+00    0.2141581465E+00    0.1819599047E+00    0.6034399908E-03
    0.3500000000E+06    0.3798841179E-02    0.6954428475E+00    0.2127467248E+00    0.1865250413E+00    0.6054156676E-03
    0.3700000000E+06    0.3659744076E-02    0.6954420597E+00    0.2113376250E+00    0.1909312451E+00    0.6072874433E-03
    0.3900000000E+06    0.3530480976E-02    0.6954412597E+00    0.2099351415E+00    0.1951914008E+00    0.6090659768E-03
    0.4100000000E+06    0.3409996101E-02    0.6954404536E+00    0.2085424568E+00    0.1993167086E+00    0.6107603536E-03
    0.4300000000E+06    0.3297383811E-02    0.6954396459E+00    0.2071619240E+00    0.2033169801E+00    0.6123783826E-03
    0.4500000000E+06    0.3191862466E-02    0.6954388401E+00    0.2057952712E+00    0.2072008696E+00    0.6139268252E-03
    0.4700000000E+06    0.3092753599E-02    0.6954380387E+00    0.2044437519E+00    0.2109760581E+00    0.6154115753E-03
    0.4900000000E+06    0.2999465168E-02    0.6954372437E+00    0.2031082565E+00    0.2146494017E+00    0.6168378024E-03
    0.1000000000E+06    0.7370411347E-02    0.6954361340E+00    0.2234610450E+00    0.1088619042E+00    0.5647078502E-03
    0.3000000000E+06    0.4198306353E-02    0.6954447030E+00    0.2162663961E+00    0.1747808140E+00    0.6002533950E-03
    0.5000000000E+06    0.2954838844E-02    0.6954368491E+00    0.2024467181E+00    0.2164498286E+00    0.6175304159E-03
    0.7000000000E+06    0.2270111802E-02    0.6954294826E+00    0.1901160118E+00    0.2483239504E+00    0.6291804875E-03
    0.9000000000E+06    0.1831170677E-02    0.6954231535E+00    0.1793815391E+00    0.2744156356E+00    0.6380249003E-03
    0.1100000000E+07    0.1524435796E-02    0.6954176895E+00    0.1699674763E+00    0.2965609224E+00    0.6451760599E-03
    0.1300000000E+07    0.1297740555E-02    0.6954129035E+00    0.1616256691E+00    0.3157924421E+00    0.6511902537E-03
    0.1500000000E+07    0.1123450270E-02    0.6954086521E+00    0.1541638499E+00    0.3327632830E+00    0.6563865957E-03
    0.1700000000E+07    0.9854434586E-03    0.6954048297E+00    0.1474348927E+00    0.3479192159E+00    0.6609655156E-03
    0.1900000000E+07    0.8736350155E-03    0.6954013582E+00    0.1413248289E+00    0.3615812395E+00    0.6650613167E-03
    0.2100000000E+07    0.7813726014E-03    0.6953981782E+00    0.1357438667E+00    0.3739898464E+00    0.6687684795E-03
    0.2300000000E+07    0.7040815214E-03    0.6953952444E+00    0.1306200715E+00    0.3853307883E+00    0.6721560440E-03
    0.2500000000E+07    0.6385082014E-03    0.6953925208E+00    0.1258949339E+00    0.3957510408E+00    0.6752760221E-03
    0.2700000000E+07    0.5822735348E-03    0.6953899789E+00    0.1215202204E+00    0.4053691984E+00    0.6781685921E-03
    0.2900000000E+07    0.5335968289E-03    0.6953875957E+00    0.1174556952E+00    0.4142825182E+00    0.6808654477E-03
    0.3100000000E+07    0.4911185529E-03    0.6953853521E+00    0.1136674425E+00    0.4225718545E+00    0.6833920391E-03
    0.3300000000E+07    0.4537827893E-03    0.6953832325E+00    0.1101266093E+00    0.4303052116E+00    0.6857691174E-03
    0.3500000000E+07    0.4207570849E-03    0.6953812235E+00    0.1068084477E+00    0.4375403645E+00    0.6880138287E-03
    0.3700000000E+07    0.3913764720E-03    0.6953793139E+00    0.1036915753E+00    0.4443268301E+00    0.6901405069E-03
    0.3900000000E+07    0.3651035361E-03    0.6953774942E+00    0.1007573953E+00    0.4507073778E+00    0.6921612587E-03
    0.4100000000E+07    0.3414993954E-03    0.6953757561E+00    0.9798963756E-01    0.4567192038E+00    0.6940864042E-03
    0.4300000000E+07    0.3202022573E-03    0.6953740924E+00    0.9537399048E-01    0.4623948572E+00    0.6959248134E-03
    0.4500000000E+07    0.3009113353E-03    0.6953724969E+00    0.9289780327E-01    0.4677629795E+00    0.6976841667E-03
    0.4700000000E+07    0.2833746248E-03    0.6953709641E+00    0.9054984268E-01    0.4728489010E+00    0.6993711593E-03
    0.4900000000E+07    0.2673794974E-03    0.6953694891E+00    0.8832009273E-01    0.4776751263E+00    0.7009916636E-03
    0.1000000000E+07    0.1665357135E-02    0.6954203260E+00    0.1745263337E+00    0.2859050913E+00    0.6417696349E-03
    0.3000000000E+07    0.5116549153E-03    0.6953864575E+00    0.1155289443E+00    0.4185006673E+00    0.6821486340E-03
    0.5000000000E+07    0.2599025133E-03    0.6953687719E+00    0.8724670813E-01    0.4799972130E+00    0.7017786252E-03
    0.7000000000E+07    0.1591170792E-03    0.6953566335E+00    0.7023548114E-01    0.5167039837E+00    0.7150158451E-03
    0.9000000000E+07    0.1079607667E-03    0.6953473418E+00    0.5880670441E-01    0.5412808722E+00    0.7250653323E-03
    0.1100000000E+08    0.7826068023E-04    0.6953397927E+00    0.5058187188E-01    0.5589339574E+00    0.7331909177E-03
    0.1300000000E+08    0.5942897906E-04    0.6953334237E+00    0.4437374924E-01    0.5722422984E+00    0.7400246410E-03
    0.1500000000E+08    0.4671483293E-04    0.6953279083E+00    0.3951967711E-01    0.5826392475E+00    0.7459290809E-03
    0.1700000000E+08    0.3771601470E-04    0.6953230401E+00    0.3561953827E-01    0.5909878962E+00    0.7511319705E-03
    0.1900000000E+08    0.3110755718E-04    0.6953186797E+00    0.3241706990E-01    0.5978399781E+00    0.7557859098E-03
    0.2100000000E+08    0.2610843870E-04    0.6953147290E+00    0.2974039883E-01    0.6035650229E+00    0.7599982523E-03
    0.2300000000E+08    0.2223337790E-04    0.6953111156E+00    0.2746988534E-01    0.6084199861E+00    0.7638474446E-03
    0.2500000000E+08    0.1916764609E-04    0.6953077853E+00    0.2551965470E-01    0.6125891525E+00    0.7673925860E-03
    0.2700000000E+08    0.1669972704E-04    0.6953046958E+00    0.2382645829E-01    0.6162081618E+00    0.7706793293E-03
