  Pressure (Pa) 23mC5-500 (mol/kg) 24mC5-500 (mol/kg) 2mC6-500 (mol/kg) 3mC6-500 (mol/kg) C7-500 (mol/kg)
    0.1000000000E+01    0.2917000573E-05    0.1741087814E+00    0.5208190108E-05    0.2400098380E-05    0.4190327862E-02
    0.3000000000E+01    0.5384051300E-05    0.3481255852E+00    0.9149956202E-05    0.6135059454E-05    0.4225107085E-02
    0.5000000000E+01    0.6412111007E-05    0.4351003702E+00    0.1071776555E-04    0.9567048724E-05    0.4241412440E-02
    0.7000000000E+01    0.6968391916E-05    0.4872748399E+00    0.1167556637E-04    0.1285176084E-04    0.4251193265E-02
    0.9000000000E+01    0.7333971851E-05    0.5220536082E+00    0.1245968079E-04    0.1604180764E-04    0.4257752449E-02
    0.1100000000E+02    0.7613573855E-05    0.5468935681E+00    0.1320391295E-04    0.1916354664E-04    0.4262464160E-02
    0.1300000000E+02    0.7852393579E-05    0.5655224517E+00    0.1395301958E-04    0.2223268120E-04    0.4266011286E-02
    0.1500000000E+02    0.8071879642E-05    0.5800109449E+00    0.1472151570E-04    0.2525956768E-04    0.4268773752E-02
    0.1700000000E+02    0.8282869258E-05    0.5916013379E+00    0.1551284039E-04    0.2825151327E-04    0.4270980578E-02
    0.1900000000E+02    0.8491056406E-05    0.6010841199E+00    0.1632631520E-04    0.3121392937E-04    0.4272778430E-02
    0.2100000000E+02    0.8699488562E-05    0.6089862527E+00    0.1715984388E-04    0.3415097217E-04    0.4274265790E-02
    0.2300000000E+02    0.8909789963E-05    0.6156725388E+00    0.1801099171E-04    0.3706592604E-04    0.4275511372E-02
    0.2500000000E+02    0.9122794837E-05    0.6214035411E+00    0.1887741043E-04    0.3996144657E-04    0.4276564651E-02
    0.2700000000E+02    0.9338889738E-05    0.6263703331E+00    0.1975698974E-04    0.4283972166E-04    0.4277462210E-02
    0.2900000000E+02    0.9558205079E-05    0.6307162157E+00    0.2064789362E-04    0.4570258259E-04    0.4278231714E-02
    0.3100000000E+02    0.9780725183E-05    0.6345507695E+00    0.2154854956E-04    0.4855158272E-04    0.4278894498E-02
    0.3300000000E+02    0.1000635280E-04    0.6379592221E+00    0.2245762075E-04    0.5138805494E-04    0.4279467294E-02
    0.3500000000E+02    0.1023494740E-04    0.6410088572E+00    0.2337397406E-04    0.5421315448E-04    0.4279963423E-02
    0.3700000000E+02    0.1046634814E-04    0.6437535010E+00    0.2429664939E-04    0.5702789139E-04    0.4280393631E-02
    0.3900000000E+02    0.1070038747E-04    0.6462367262E+00    0.2522483247E-04    0.5983315571E-04    0.4280766687E-02
    0.4100000000E+02    0.1093689927E-04    0.6484941831E+00    0.2615783135E-04    0.6262973717E-04    0.4281089827E-02
    0.4300000000E+02    0.1117572341E-04    0.6505553213E+00    0.2709505670E-04    0.6541834085E-04    0.4281369076E-02
    0.4500000000E+02    0.1141670829E-04    0.6524446822E+00    0.2803600531E-04    0.6819959984E-04    0.4281609497E-02
    0.4700000000E+02    0.1165971200E-04    0.6541828800E+00    0.2898024638E-04    0.7097408545E-04    0.4281815374E-02
    0.4900000000E+02    0.1190460270E-04    0.6557873576E+00    0.2992741013E-04    0.7374231564E-04    0.4281990362E-02
    0.1000000000E+02    0.7480893195E-05    0.5354291781E+00    0.1283289894E-04    0.1761006904E-04    0.4260286701E-02
    0.3000000000E+02    0.9669069246E-05    0.6326915977E+00    0.2109709128E-04    0.4712872734E-04    0.4278575309E-02
    0.5000000000E+02    0.1202771721E-04    0.6565441823E+00    0.3040198680E-04    0.7512423398E-04    0.4282067272E-02
    0.7000000000E+02    0.1456436331E-04    0.6673259750E+00    0.3998971219E-04    0.1025296580E-03    0.4282554787E-02
    0.9000000000E+02    0.1719964163E-04    0.6734700189E+00    0.4968522461E-04    0.1296662830E-03    0.4281853544E-02
    0.1100000000E+03    0.1989854413E-04    0.6774389226E+00    0.5944575200E-04    0.1566976178E-03    0.4280536047E-02
    0.1300000000E+03    0.2264472342E-04    0.6802139928E+00    0.6926279410E-04    0.1837229837E-03    0.4278845652E-02
    0.1500000000E+03    0.2543006474E-04    0.6822634223E+00    0.7913831566E-04    0.2108095383E-03    0.4276905070E-02
    0.1700000000E+03    0.2825043649E-04    0.6838388928E+00    0.8907761970E-04    0.2380061803E-03    0.4274783468E-02
    0.1900000000E+03    0.3110378847E-04    0.6850877588E+00    0.9908693269E-04    0.2653505355E-03    0.4272523000E-02
    0.2100000000E+03    0.3398922656E-04    0.6861020286E+00    0.1091725410E-03    0.2928728391E-03    0.4270150876E-02
    0.2300000000E+03    0.3690653078E-04    0.6869421186E+00    0.1193404910E-03    0.3205982585E-03    0.4267685436E-02
    0.2500000000E+03    0.3985589027E-04    0.6876493400E+00    0.1295965053E-03    0.3485483652E-03    0.4265139458E-02
    0.2700000000E+03    0.4283775110E-04    0.6882528981E+00    0.1399459845E-03    0.3767421108E-03    0.4262522076E-02
    0.2900000000E+03    0.4585272570E-04    0.6887740232E+00    0.1503940384E-03    0.4051964993E-03    0.4259839943E-02
    0.3100000000E+03    0.4890153754E-04    0.6892285193E+00    0.1609455276E-03    0.4339270646E-03    0.4257097973E-02
    0.3300000000E+03    0.5198498653E-04    0.6896283934E+00    0.1716051047E-03    0.4629482196E-03    0.4254299823E-02
    0.3500000000E+03    0.5510392711E-04    0.6899829309E+00    0.1823772523E-03    0.4922735165E-03    0.4251448227E-02
    0.3700000000E+03    0.5825925423E-04    0.6902994260E+00    0.1932663164E-03    0.5219158460E-03    0.4248545219E-02
    0.3900000000E+03    0.6145189443E-04    0.6905836875E+00    0.2042765360E-03    0.5518875921E-03    0.4245592299E-02
    0.4100000000E+03    0.6468280011E-04    0.6908403992E+00    0.2154120682E-03    0.5822007546E-03    0.4242590548E-02
    0.4300000000E+03    0.6795294605E-04    0.6910733795E+00    0.2266770107E-03    0.6128670476E-03    0.4239540716E-02
    0.4500000000E+03    0.7126332737E-04    0.6912857721E+00    0.2380754203E-03    0.6438979799E-03    0.4236443284E-02
    0.4700000000E+03    0.7461495847E-04    0.6914801893E+00    0.2496113301E-03    0.6753049218E-03    0.4233298516E-02
    0.4900000000E+03    0.7800887260E-04    0.6916588193E+00    0.2612887639E-03    0.7070991610E-03    0.4230106494E-02
    0.1000000000E+03    0.1854243134E-04    0.6756471674E+00    0.5455828212E-04    0.1431879097E-03    0.4281252493E-02
    0.3000000000E+03    0.4737285346E-04    0.6890087752E+00    0.1556565584E-03    0.4195263362E-03    0.4258476184E-02
    0.5000000000E+03    0.7972201389E-04    0.6917428026E+00    0.2671818104E-03    0.7231450336E-03    0.4228492746E-02
    0.7000000000E+03    0.1164749436E-03    0.6929203092E+00    0.3934782776E-03    0.1067188169E-02    0.4193656753E-02
    0.9000000000E+03    0.1588263022E-03    0.6935757139E+00    0.5389005568E-03    0.1463710306E-02    0.4153422864E-02
    0.1100000000E+04    0.2082869361E-03    0.6939931106E+00    0.7087397866E-03    0.1927259577E-02    0.4106641866E-02
    0.1300000000E+04    0.2668427818E-03    0.6942821431E+00    0.9098868195E-03    0.2476779362E-02    0.4051673603E-02
    0.1500000000E+04    0.3371794944E-03    0.6944940831E+00    0.1151638618E-02    0.3137846295E-02    0.3986263381E-02
    0.1700000000E+04    0.4230149028E-03    0.6946561104E+00    0.1446861522E-02    0.3945888644E-02    0.3907297324E-02
    0.1900000000E+04    0.5296056735E-03    0.6947839750E+00    0.1813756305E-02    0.4951074054E-02    0.3810416800E-02
    0.2100000000E+04    0.6645264006E-03    0.6948874331E+00    0.2278573478E-02    0.6225842926E-02    0.3689434993E-02
    0.2300000000E+04    0.8388489101E-03    0.6949728503E+00    0.2879733345E-02    0.7876372521E-02    0.3535489819E-02
    0.2500000000E+04    0.1068808838E-02    0.6950445565E+00    0.3673677051E-02    0.1005894136E-01    0.3335943575E-02
    0.2700000000E+04    0.1377667443E-02    0.6951055994E+00    0.4741489313E-02    0.1299869778E-01    0.3073438140E-02
    0.2900000000E+04    0.1795911494E-02    0.6951581863E+00    0.6189955448E-02    0.1699362568E-01    0.2726918723E-02
    0.3100000000E+04    0.2353462750E-02    0.6952039550E+00    0.8125216317E-02    0.2234371642E-01    0.2279988585E-02
    0.3300000000E+04    0.3051694843E-02    0.6952441461E+00    0.1055643155E-01    0.2908693879E-01    0.1745251572E-02
    0.3500000000E+04    0.3819288873E-02    0.6952797169E+00    0.1324186513E-01    0.3657180248E-01    0.1196031065E-02
    0.3700000000E+04    0.4521278266E-02    0.6953114177E+00    0.1571634375E-01    0.4352199443E-01    0.7456424921E-03
    0.3900000000E+04    0.5064366974E-02    0.6953398445E+00    0.1765370147E-01    0.4902936285E-01    0.4553793225E-03
    0.4100000000E+04    0.5455215082E-02    0.6953654775E+00    0.1907207306E-01    0.5312992809E-01    0.3006029831E-03
    0.4300000000E+04    0.5746232245E-02    0.6953887070E+00    0.2014976469E-01    0.5630638467E-01    0.2271018205E-03
    0.4500000000E+04    0.5982119584E-02    0.6954098542E+00    0.2104028951E-01    0.5897848730E-01    0.1942646338E-03
    0.4700000000E+04    0.6188866245E-02    0.6954291855E+00    0.2183326811E-01    0.6139238014E-01    0.1800797108E-03
    0.4900000000E+04    0.6379481360E-02    0.6954469239E+00    0.2257364893E-01    0.6367180081E-01    0.1741284820E-03
    0.1000000000E+04    0.1825572059E-03    0.6938052603E+00    0.6203830739E-03    0.1686048461E-02    0.4130940929E-02
    0.3000000000E+04    0.2056001500E-02    0.6951818376E+00    0.7092101283E-02    0.1948583027E-01    0.2516316476E-02
    0.5000000000E+04    0.6470815493E-02    0.6954552555E+00    0.2293128597E-01    0.6478082886E-01    0.1726600108E-03
    0.7000000000E+04    0.8015590689E-02    0.6955714230E+00    0.2925648122E-01    0.8518315385E-01    0.1726560059E-03
    0.9000000000E+04    0.9180093913E-02    0.6956353726E+00    0.3447453696E-01    0.1033066356E+00    0.1750914303E-03
    0.1100000000E+05    0.1005990716E-01    0.6956756847E+00    0.3883214590E-01    0.1196107198E+00    0.1770599933E-03
    0.1300000000E+05    0.1072096938E-01    0.6957033235E+00    0.4249998155E-01    0.1344074491E+00    0.1787148314E-03
    0.1500000000E+05    0.1121206713E-01    0.6957233918E+00    0.4560739030E-01    0.1479381134E+00    0.1801441907E-03
    0.1700000000E+05    0.1156986845E-01    0.6957385836E+00    0.4825408082E-01    0.1603924732E+00    0.1814034319E-03
    0.1900000000E+05    0.1182231462E-01    0.6957504541E+00    0.5051807761E-01    0.1719220102E+00    0.1825296194E-03
    0.2100000000E+05    0.1199095624E-01    0.6957599632E+00    0.5246125808E-01    0.1826492729E+00    0.1835488110E-03
    0.2300000000E+05    0.1209259368E-01    0.6957677351E+00    0.5413328474E-01    0.1926745975E+00    0.1844800381E-03
    0.2500000000E+05    0.1214044891E-01    0.6957741929E+00    0.5557444793E-01    0.2020810280E+00    0.1853376327E-03
    0.2700000000E+05    0.1214501574E-01    0.6957796337E+00    0.5681775430E-01    0.2109379751E+00    0.1861326622E-03
    0.2900000000E+05    0.1211468541E-01    0.6957842718E+00    0.5789048359E-01    0.2193039755E+00    0.1868738547E-03
    0.3100000000E+05    0.1205621277E-01    0.6957882657E+00    0.5881536468E-01    0.2272288020E+00    0.1875682170E-03
    0.3300000000E+05    0.1197506768E-01    0.6957917350E+00    0.5961147479E-01    0.2347550952E+00    0.1882214612E-03
    0.3500000000E+05    0.1187570273E-01    0.6957947720E+00    0.6029493474E-01    0.2419196390E+00    0.1888383064E-03
    0.3700000000E+05    0.1176175928E-01    0.6957974486E+00    0.6087945208E-01    0.2487543693E+00    0.1894226968E-03
    0.3900000000E+05    0.1163622724E-01    0.6957998217E+00    0.6137674936E-01    0.2552871777E+00    0.1899779636E-03
    0.4100000000E+05    0.1150157026E-01    0.6958019371E+00    0.6179690487E-01    0.2615425580E+00    0.1905069460E-03
    0.4300000000E+05    0.1135982434E-01    0.6958038319E+00    0.6214862594E-01    0.2675421309E+00    0.1910120839E-03
    0.4500000000E+05    0.1121267623E-01    0.6958055365E+00    0.6243946981E-01    0.2733050721E+00    0.1914954898E-03
    0.4700000000E+05    0.1106152601E-01    0.6958070761E+00    0.6267602343E-01    0.2788484651E+00    0.1919590053E-03
    0.4900000000E+05    0.1090753752E-01    0.6958084716E+00    0.6286405074E-01    0.2841875932E+00    0.1924042452E-03
    0.1000000000E+05    0.9650989778E-02    0.6956575919E+00    0.3674909097E-01    0.1116646626E+00    0.1761224092E-03
    0.3000000000E+05    0.1208859839E-01    0.6957863410E+00    0.5837013625E-01    0.2233187197E+00    0.1872265062E-03
    0.5000000000E+05    0.1082978819E-01    0.6958091210E+00    0.6294147356E-01    0.2867849023E+00    0.1926204636E-03
    0.7000000000E+05    0.9288145127E-02    0.6958176385E+00    0.6289375226E-01    0.3307068353E+00    0.1962572041E-03
    0.9000000000E+05    0.7938382036E-02    0.6958216736E+00    0.6123669215E-01    0.3639358781E+00    0.1990179801E-03
    0.1100000000E+06    0.6825204675E-02    0.6958237937E+00    0.5899522000E-01    0.3903790929E+00    0.2012501555E-03
    0.1300000000E+06    0.5916613383E-02    0.6958249486E+00    0.5658159991E-01    0.4121243288E+00    0.2031274133E-03
    0.1500000000E+06    0.5172354254E-02    0.6958255642E+00    0.5417581402E-01    0.4304269070E+00    0.2047493780E-03
    0.1700000000E+06    0.4557820623E-02    0.6958258568E+00    0.5185808311E-01    0.4461038153E+00    0.2061786186E-03
    0.1900000000E+06    0.4045717919E-02    0.6958259462E+00    0.4966230136E-01    0.4597177152E+00    0.2074570592E-03
    0.2100000000E+06    0.3615028908E-02    0.6958259032E+00    0.4759984183E-01    0.4716728689E+00    0.2086141925E-03
    0.2300000000E+06    0.3249624434E-02    0.6958257719E+00    0.4567093166E-01    0.4822694352E+00    0.2096715689E-03
    0.2500000000E+06    0.2937068662E-02    0.6958255807E+00    0.4387036027E-01    0.4917362113E+00    0.2106454235E-03
    0.2700000000E+06    0.2667697002E-02    0.6958253487E+00    0.4219043731E-01    0.5002513937E+00    0.2115482976E-03
    0.2900000000E+06    0.2433929526E-02    0.6958250887E+00    0.4062255122E-01    0.5079562886E+00    0.2123900837E-03
    0.3100000000E+06    0.2229765032E-02    0.6958248099E+00    0.3915798996E-01    0.5149646750E+00    0.2131787258E-03
    0.3300000000E+06    0.2050408088E-02    0.6958245187E+00    0.3778836278E-01    0.5213693826E+00    0.2139207009E-03
    0.3500000000E+06    0.1891992635E-02    0.6958242196E+00    0.3650580309E-01    0.5272470241E+00    0.2146213608E-03
    0.3700000000E+06    0.1751375586E-02    0.6958239162E+00    0.3530305026E-01    0.5326614723E+00    0.2152851795E-03
    0.3900000000E+06    0.1625981345E-02    0.6958236107E+00    0.3417346538E-01    0.5376664597E+00    0.2159159359E-03
    0.4100000000E+06    0.1513683645E-02    0.6958233051E+00    0.3311101156E-01    0.5423075552E+00    0.2165168510E-03
    0.4300000000E+06    0.1412714923E-02    0.6958230007E+00    0.3211021669E-01    0.5466236863E+00    0.2170906935E-03
    0.4500000000E+06    0.1321596225E-02    0.6958226985E+00    0.3116612846E-01    0.5506483274E+00    0.2176398606E-03
    0.4700000000E+06    0.1239082515E-02    0.6958223991E+00    0.3027426746E-01    0.5544104378E+00    0.2181664420E-03
    0.4900000000E+06    0.1164119676E-02    0.6958221032E+00    0.2943058136E-01    0.5579352097E+00    0.2186722706E-03
    0.1000000000E+06    0.7353686998E-02    0.6958228950E+00    0.6015527977E-01    0.3778486516E+00    0.2001868727E-03
    0.3000000000E+06    0.2328471244E-02    0.6958249512E+00    0.3987789009E-01    0.5115413153E+00    0.2127906131E-03
    0.5000000000E+06    0.1129184092E-02    0.6958219566E+00    0.2902564364E-01    0.5596155866E+00    0.2189179154E-03
    0.7000000000E+06    0.6668410599E-03    0.6958192494E+00    0.2273110680E-01    0.5848886914E+00    0.2230498632E-03
    0.9000000000E+06    0.4406307818E-03    0.6958169493E+00    0.1865420665E-01    0.6005287877E+00    0.2261868258E-03
    0.1100000000E+07    0.3131137276E-03    0.6958149743E+00    0.1580570830E-01    0.6111725280E+00    0.2287232755E-03
    0.1300000000E+07    0.2341266883E-03    0.6958132498E+00    0.1370554702E-01    0.6188868561E+00    0.2308564886E-03
    0.1500000000E+07    0.1817892953E-03    0.6958117211E+00    0.1209412317E-01    0.6247354043E+00    0.2326996363E-03
    0.1700000000E+07    0.1453084002E-03    0.6958103487E+00    0.1081915340E-01    0.6293220711E+00    0.2343238010E-03
    0.1900000000E+07    0.1188558315E-03    0.6958091036E+00    0.9785530881E-02    0.6330153892E+00    0.2357766144E-03
    0.2100000000E+07    0.9905783675E-04    0.6958079639E+00    0.8930840011E-02    0.6360530775E+00    0.2370915851E-03
    0.2300000000E+07    0.8385061249E-04    0.6958069131E+00    0.8212442279E-02    0.6385953759E+00    0.2382931993E-03
    0.2500000000E+07    0.7191365117E-04    0.6958059382E+00    0.7600228068E-02    0.6407542414E+00    0.2393999040E-03
    0.2700000000E+07    0.6236990453E-04    0.6958050286E+00    0.7072335077E-02    0.6426102627E+00    0.2404259494E-03
    0.2900000000E+07    0.5461821138E-04    0.6958041761E+00    0.6612508564E-02    0.6442229282E+00    0.2413825765E-03
    0.3100000000E+07    0.4823525057E-04    0.6958033738E+00    0.6208413616E-02    0.6456371077E+00    0.2422788119E-03
    0.3300000000E+07    0.4291588978E-04    0.6958026160E+00    0.5850521890E-02    0.6468872825E+00    0.2431220156E-03
    0.3500000000E+07    0.3843565195E-04    0.6958018979E+00    0.5531357087E-02    0.6480003873E+00    0.2439182691E-03
    0.3700000000E+07    0.3462639574E-04    0.6958012154E+00    0.5244971251E-02    0.6489977675E+00    0.2446726564E-03
    0.3900000000E+07    0.3136014609E-04    0.6958005652E+00    0.4986573558E-02    0.6498965571E+00    0.2453894715E-03
    0.4100000000E+07    0.2853809507E-04    0.6957999442E+00    0.4752262217E-02    0.6507106685E+00    0.2460723749E-03
    0.4300000000E+07    0.2608296532E-04    0.6957993498E+00    0.4538827564E-02    0.6514515152E+00    0.2467245127E-03
    0.4500000000E+07    0.2393361003E-04    0.6957987799E+00    0.4343605233E-02    0.6521285491E+00    0.2473486089E-03
    0.4700000000E+07    0.2204113053E-04    0.6957982324E+00    0.4164365169E-02    0.6527496638E+00    0.2479470385E-03
    0.4900000000E+07    0.2036604275E-04    0.6957977056E+00    0.3999226669E-02    0.6533215037E+00    0.2485218842E-03
    0.1000000000E+07    0.3686797588E-03    0.6958159263E+00    0.1711364063E-01    0.6063122268E+00    0.2275150425E-03
    0.3000000000E+07    0.5127695955E-04    0.6958037691E+00    0.6404145731E-02    0.6449524687E+00    0.2418377493E-03
    0.5000000000E+07    0.1959972883E-04    0.6957974494E+00    0.3921436813E-02    0.6535907398E+00    0.2488010457E-03
    0.7000000000E+07    0.1031770049E-04    0.6957931151E+00    0.2820849057E-02    0.6573913200E+00    0.2534967857E-03
    0.9000000000E+07    0.6370849813E-05    0.6957897978E+00    0.2200476751E-02    0.6595272788E+00    0.2570617876E-03
    0.1100000000E+08    0.4329600248E-05    0.6957871024E+00    0.1802646774E-02    0.6608951036E+00    0.2599443396E-03
    0.1300000000E+08    0.3137017529E-05    0.6957848282E+00    0.1525974967E-02    0.6618456928E+00    0.2623686336E-03
    0.1500000000E+08    0.2379568211E-05    0.6957828585E+00    0.1322506202E-02    0.6625445318E+00    0.2644632823E-03
    0.1700000000E+08    0.1868276270E-05    0.6957811196E+00    0.1166626909E-02    0.6630798447E+00    0.2663090672E-03
    0.1900000000E+08    0.1506745313E-05    0.6957795618E+00    0.1043416379E-02    0.6635029613E+00    0.2679601191E-03
    0.2100000000E+08    0.1241585447E-05    0.6957781501E+00    0.9435964033E-03    0.6638457733E+00    0.2694545191E-03
    0.2300000000E+08    0.1041269915E-05    0.6957768588E+00    0.8610955491E-03    0.6641291374E+00    0.2708200944E-03
    0.2500000000E+08    0.8862011460E-06    0.6957756684E+00    0.7917745542E-03    0.6643672666E+00    0.2720778095E-03
    0.2700000000E+08    0.7636728239E-06    0.6957745639E+00    0.7327147199E-03    0.6645701801E+00    0.2732438588E-03
