  Pressure (Pa) 23mC5-500 (mol/kg) 24mC5-500 (mol/kg) 2mC6-500 (mol/kg) 3mC6-500 (mol/kg) C7-500 (mol/kg)
    0.1000000000E+01    0.3824914888E-05    0.3665859968E-01    0.2803322252E-04    0.1600592255E-05    0.4197650736E-02
    0.3000000000E+01    0.1008833450E-04    0.9947595484E-01    0.7235755930E-04    0.4093649731E-05    0.4266049314E-02
    0.5000000000E+01    0.1503054164E-04    0.1513446211E+00    0.1061295669E-03    0.6386913267E-05    0.4319881056E-02
    0.7000000000E+01    0.1900670131E-04    0.1948982957E+00    0.1324308542E-03    0.8583954827E-05    0.4364901768E-02
    0.9000000000E+01    0.2225556113E-04    0.2319885972E+00    0.1532728556E-03    0.1071973491E-04    0.4403281907E-02
    0.1100000000E+02    0.2494537981E-04    0.2639553094E+00    0.1700434343E-03    0.1281175290E-04    0.4436439109E-02
    0.1300000000E+02    0.2719814328E-04    0.2917918106E+00    0.1837288375E-03    0.1487042674E-04    0.4465393619E-02
    0.1500000000E+02    0.2910427820E-04    0.3162502362E+00    0.1950455875E-03    0.1690262234E-04    0.4490909341E-02
    0.1700000000E+02    0.3073207891E-04    0.3379105233E+00    0.2045237928E-03    0.1891318121E-04    0.4513572599E-02
    0.1900000000E+02    0.3213396071E-04    0.3572270259E+00    0.2125617575E-03    0.2090568681E-04    0.4533841959E-02
    0.2100000000E+02    0.3335072247E-04    0.3745607645E+00    0.2194627924E-03    0.2288289014E-04    0.4552081670E-02
    0.2300000000E+02    0.3441451925E-04    0.3902022228E+00    0.2254605997E-03    0.2484696432E-04    0.4568584940E-02
    0.2500000000E+02    0.3535097684E-04    0.4043877739E+00    0.2307371280E-03    0.2679966588E-04    0.4583590574E-02
    0.2700000000E+02    0.3618072242E-04    0.4173117205E+00    0.2354353448E-03    0.2874244171E-04    0.4597295102E-02
    0.2900000000E+02    0.3692050983E-04    0.4291352563E+00    0.2396685160E-03    0.3067650267E-04    0.4609861784E-02
    0.3100000000E+02    0.3758405861E-04    0.4399932310E+00    0.2435270380E-03    0.3260287582E-04    0.4621427400E-02
    0.3300000000E+02    0.3818268750E-04    0.4499993214E+00    0.2470835321E-03    0.3452244249E-04    0.4632107433E-02
    0.3500000000E+02    0.3872579840E-04    0.4592500304E+00    0.2503966842E-03    0.3643596664E-04    0.4642000077E-02
    0.3700000000E+02    0.3922124992E-04    0.4678278122E+00    0.2535141693E-03    0.3834411636E-04    0.4651189370E-02
    0.3900000000E+02    0.3967564862E-04    0.4758035398E+00    0.2564748999E-03    0.4024748056E-04    0.4659747669E-02
    0.4100000000E+02    0.4009457804E-04    0.4832384689E+00    0.2593107692E-03    0.4214658200E-04    0.4667737618E-02
    0.4300000000E+02    0.4048278032E-04    0.4901858168E+00    0.2620480133E-03    0.4404188764E-04    0.4675213734E-02
    0.4500000000E+02    0.4084430139E-04    0.4966920382E+00    0.2647082841E-03    0.4593381703E-04    0.4682223690E-02
    0.4700000000E+02    0.4118260780E-04    0.5027978672E+00    0.2673094992E-03    0.4782274903E-04    0.4688809362E-02
    0.4900000000E+02    0.4150068139E-04    0.5085391715E+00    0.2698665204E-03    0.4970902743E-04    0.4695007686E-02
    0.1000000000E+02    0.2366184725E-04    0.2485436499E+00    0.1620978693E-03    0.1177045334E-04    0.4420442389E-02
    0.3000000000E+02    0.3726105665E-04    0.4346773895E+00    0.2416397028E-03    0.3164059210E-04    0.4615762060E-02
    0.5000000000E+02    0.4165294946E-04    0.5112831811E+00    0.2711324031E-03    0.5065127052E-04    0.4697971962E-02
    0.7000000000E+02    0.4410427973E-04    0.5530681808E+00    0.2962068773E-03    0.6942039580E-04    0.4743176752E-02
    0.9000000000E+02    0.4606950225E-04    0.5793798157E+00    0.3230312252E-03    0.8816273573E-04    0.4771453371E-02
    0.1100000000E+03    0.4795983188E-04    0.5974710614E+00    0.3523995436E-03    0.1069899188E-03    0.4790468399E-02
    0.1300000000E+03    0.4991088781E-04    0.6106741205E+00    0.3841552461E-03    0.1259719977E-03    0.4803806771E-02
    0.1500000000E+03    0.5196921176E-04    0.6207344702E+00    0.4180087600E-03    0.1451584426E-03    0.4813378294E-02
    0.1700000000E+03    0.5414915436E-04    0.6286548937E+00    0.4537036254E-03    0.1645872309E-03    0.4820297921E-02
    0.1900000000E+03    0.5645287525E-04    0.6350525360E+00    0.4910415789E-03    0.1842894081E-03    0.4825262321E-02
    0.2100000000E+03    0.5887804527E-04    0.6403280329E+00    0.5298764908E-03    0.2042916212E-03    0.4828730212E-02
    0.2300000000E+03    0.6142097427E-04    0.6447528053E+00    0.5701033685E-03    0.2246176376E-03    0.4831016436E-02
    0.2500000000E+03    0.6407790228E-04    0.6485172677E+00    0.6116485593E-03    0.2452893124E-03    0.4832344462E-02
    0.2700000000E+03    0.6684551450E-04    0.6517589519E+00    0.6544621596E-03    0.2663272356E-03    0.4832877333E-02
    0.2900000000E+03    0.6972111931E-04    0.6545796742E+00    0.6985123919E-03    0.2877511832E-03    0.4832736743E-02
    0.3100000000E+03    0.7270268006E-04    0.6570564226E+00    0.7437814952E-03    0.3095804453E-03    0.4832015262E-02
    0.3300000000E+03    0.7578878602E-04    0.6592484903E+00    0.7902627290E-03    0.3318340715E-03    0.4830784420E-02
    0.3500000000E+03    0.7897860142E-04    0.6612022832E+00    0.8379581796E-03    0.3545310621E-03    0.4829100206E-02
    0.3700000000E+03    0.8227181016E-04    0.6629546408E+00    0.8868771487E-03    0.3776905205E-03    0.4827006905E-02
    0.3900000000E+03    0.8566856380E-04    0.6645351806E+00    0.9370349615E-03    0.4013317793E-03    0.4824539828E-02
    0.4100000000E+03    0.8916943567E-04    0.6659679852E+00    0.9884520853E-03    0.4254745082E-03    0.4821727292E-02
    0.4300000000E+03    0.9277538194E-04    0.6672728374E+00    0.1041153475E-02    0.4501388070E-03    0.4818592083E-02
    0.4500000000E+03    0.9648770935E-04    0.6684661391E+00    0.1095168089E-02    0.4753452908E-03    0.4815152551E-02
    0.4700000000E+03    0.1003080490E-03    0.6695616036E+00    0.1150528539E-02    0.5011151671E-03    0.4811423442E-02
    0.4900000000E+03    0.1042383356E-03    0.6705707853E+00    0.1207270831E-02    0.5274703095E-03    0.4807416537E-02
    0.1000000000E+03    0.4701232530E-04    0.5891917762E+00    0.3374000570E-03    0.9756070373E-04    0.4781838905E-02
    0.3000000000E+03    0.7119875748E-04    0.6558569898E+00    0.7209952352E-03    0.2986139561E-03    0.4832443725E-02
    0.5000000000E+03    0.1062453925E-03    0.6710461429E+00    0.1236172304E-02    0.5408743905E-03    0.4805311904E-02
    0.7000000000E+03    0.1528622847E-03    0.6777715836E+00    0.1898194982E-02    0.8457744773E-03    0.4749913574E-02
    0.9000000000E+03    0.2148748361E-03    0.6815649411E+00    0.2765540438E-02    0.1242786589E-02    0.4668201875E-02
    0.1100000000E+04    0.2993312944E-03    0.6839998738E+00    0.3938210708E-02    0.1778594032E-02    0.4553016926E-02
    0.1300000000E+04    0.4184378077E-03    0.6856948857E+00    0.5586393901E-02    0.2531647680E-02    0.4389394999E-02
    0.1500000000E+04    0.5936650593E-03    0.6869425163E+00    0.8008367597E-02    0.3639259070E-02    0.4150639591E-02
    0.1700000000E+04    0.8627463424E-03    0.6878990715E+00    0.1172896767E-01    0.5343560182E-02    0.3791440054E-02
    0.1900000000E+04    0.1284742232E-02    0.6886556536E+00    0.1757411550E-01    0.8027829736E-02    0.3247266405E-02
    0.2100000000E+04    0.1906345118E-02    0.6892689477E+00    0.2621452649E-01    0.1201176731E-01    0.2490106289E-02
    0.2300000000E+04    0.2625754976E-02    0.6897760707E+00    0.3628249255E-01    0.1668708135E-01    0.1699086074E-02
    0.2500000000E+04    0.3195463920E-02    0.6902023435E+00    0.4436363862E-01    0.2049136216E-01    0.1190265202E-02
    0.2700000000E+04    0.3554824760E-02    0.6905656317E+00    0.4958447379E-01    0.2300738377E-01    0.9827061565E-03
    0.2900000000E+04    0.3799537549E-02    0.6908789004E+00    0.5324441722E-01    0.2482001206E-01    0.9178308683E-03
    0.3100000000E+04    0.3997723518E-02    0.6911517871E+00    0.5627937560E-01    0.2635582822E-01    0.9008717674E-03
    0.3300000000E+04    0.4175936183E-02    0.6913916039E+00    0.5905545998E-01    0.2778236795E-01    0.8981814321E-03
    0.3500000000E+04    0.4343039018E-02    0.6916039995E+00    0.6169456248E-01    0.2915529994E-01    0.8995367063E-03
    0.3700000000E+04    0.4502014553E-02    0.6917934061E+00    0.6423702871E-01    0.3049276345E-01    0.9019595177E-03
    0.3900000000E+04    0.4654004883E-02    0.6919633505E+00    0.6669762561E-01    0.3180109325E-01    0.9045934361E-03
    0.4100000000E+04    0.4799575397E-02    0.6921166735E+00    0.6908312496E-01    0.3308293998E-01    0.9071972504E-03
    0.4300000000E+04    0.4939102300E-02    0.6922556895E+00    0.7139771575E-01    0.3433977963E-01    0.9097082179E-03
    0.4500000000E+04    0.5072891872E-02    0.6923823024E+00    0.7364467319E-01    0.3557268948E-01    0.9121151070E-03
    0.4700000000E+04    0.5201217883E-02    0.6924980933E+00    0.7582688123E-01    0.3678259057E-01    0.9144210801E-03
    0.4900000000E+04    0.5324333897E-02    0.6926043854E+00    0.7794700185E-01    0.3797032546E-01    0.9166328256E-03
    0.1000000000E+04    0.2536908059E-03    0.6829021621E+00    0.3305218990E-02    0.1489418831E-02    0.4615517833E-02
    0.3000000000E+04    0.3902145778E-02    0.6910198890E+00    0.5480830339E-01    0.2560801148E-01    0.9063357222E-03
    0.5000000000E+04    0.5384013039E-02    0.6926543253E+00    0.7898456606E-01    0.3855612928E-01    0.9177055894E-03
    0.7000000000E+04    0.6355159440E-02    0.6933517018E+00    0.9701663813E-01    0.4928033405E-01    0.9356290259E-03
    0.9000000000E+04    0.7007372598E-02    0.6937366211E+00    0.1109981075E+00    0.5848054883E-01    0.9491129667E-03
    0.1100000000E+05    0.7446508388E-02    0.6939797665E+00    0.1220995208E+00    0.6654444948E-01    0.9599580152E-03
    0.1300000000E+05    0.7738863979E-02    0.6941467723E+00    0.1310825306E+00    0.7373253917E-01    0.9690474774E-03
    0.1500000000E+05    0.7927642042E-02    0.6942682352E+00    0.1384636972E+00    0.8022714382E-01    0.9768819540E-03
    0.1700000000E+05    0.8041924384E-02    0.6943603283E+00    0.1446055044E+00    0.8616021851E-01    0.9837732440E-03
    0.1900000000E+05    0.8101821589E-02    0.6944323978E+00    0.1497696776E+00    0.9162997670E-01    0.9899290001E-03
    0.2100000000E+05    0.8121558318E-02    0.6944902179E+00    0.1541498258E+00    0.9671127769E-01    0.9954946221E-03
    0.2300000000E+05    0.8111390413E-02    0.6945375462E+00    0.1578921835E+00    0.1014623583E+00    0.1000575966E-02
    0.2500000000E+05    0.8078833884E-02    0.6945769319E+00    0.1611092205E+00    0.1059293356E+00    0.1005252542E-02
    0.2700000000E+05    0.8029474341E-02    0.6946101649E+00    0.1638888211E+00    0.1101493012E+00    0.1009585620E-02
    0.2900000000E+05    0.7967512815E-02    0.6946385380E+00    0.1663006285E+00    0.1141525010E+00    0.1013623431E-02
    0.3100000000E+05    0.7896141548E-02    0.6946630081E+00    0.1684005241E+00    0.1179639016E+00    0.1017404637E-02
    0.3300000000E+05    0.7817807513E-02    0.6946842982E+00    0.1702338508E+00    0.1216043382E+00    0.1020960714E-02
    0.3500000000E+05    0.7734400279E-02    0.6947029648E+00    0.1718377729E+00    0.1250913707E+00    0.1024317636E-02
    0.3700000000E+05    0.7647387915E-02    0.6947194427E+00    0.1732430301E+00    0.1284399304E+00    0.1027497091E-02
    0.3900000000E+05    0.7557916618E-02    0.6947340767E+00    0.1744752597E+00    0.1316628168E+00    0.1030517380E-02
    0.4100000000E+05    0.7466884633E-02    0.6947471436E+00    0.1755560061E+00    0.1347710832E+00    0.1033394088E-02
    0.4300000000E+05    0.7374997697E-02    0.6947588681E+00    0.1765034997E+00    0.1377743394E+00    0.1036140600E-02
    0.4500000000E+05    0.7282811029E-02    0.6947694343E+00    0.1773332661E+00    0.1406809924E+00    0.1038768496E-02
    0.4700000000E+05    0.7190761438E-02    0.6947789947E+00    0.1780586049E+00    0.1434984389E+00    0.1041287866E-02
    0.4900000000E+05    0.7099192057E-02    0.6947876766E+00    0.1786909711E+00    0.1462332213E+00    0.1043707554E-02
    0.1000000000E+05    0.7248746961E-02    0.6938705816E+00    0.1168540335E+00    0.6263598915E-01    0.9547975885E-03
    0.3000000000E+05    0.7932835499E-02    0.6946512111E+00    0.1673865155E+00    0.1160807884E+00    0.1015543996E-02
    0.5000000000E+05    0.7053673878E-02    0.6947917221E+00    0.1789754413E+00    0.1475714562E+00    0.1044882490E-02
    0.7000000000E+05    0.6208211067E-02    0.6948452926E+00    0.1816062388E+00    0.1711206310E+00    0.1064634597E-02
    0.9000000000E+05    0.5507290746E-02    0.6948713196E+00    0.1810346927E+00    0.1903917918E+00    0.1079618997E-02
    0.1100000000E+06    0.4933112395E-02    0.6948854785E+00    0.1790885005E+00    0.2069105249E+00    0.1091729613E-02
    0.1300000000E+06    0.4458163970E-02    0.6948935995E+00    0.1765055216E+00    0.2214716303E+00    0.1101912013E-02
    0.1500000000E+06    0.4059977317E-02    0.6948983109E+00    0.1736286017E+00    0.2345485089E+00    0.1110708079E-02
    0.1700000000E+06    0.3721742638E-02    0.6949009548E+00    0.1706318926E+00    0.2464494525E+00    0.1118457930E-02
    0.1900000000E+06    0.3431020570E-02    0.6949022797E+00    0.1676090391E+00    0.2573884325E+00    0.1125389355E-02
    0.2100000000E+06    0.3178523980E-02    0.6949027312E+00    0.1646120865E+00    0.2675212060E+00    0.1131662545E-02
    0.2300000000E+06    0.2957218068E-02    0.6949025882E+00    0.1616702870E+00    0.2769654200E+00    0.1137394521E-02
    0.2500000000E+06    0.2761690600E-02    0.6949020324E+00    0.1587998486E+00    0.2858125895E+00    0.1142673422E-02
    0.2700000000E+06    0.2587714555E-02    0.6949011860E+00    0.1560092706E+00    0.2941356271E+00    0.1147567320E-02
    0.2900000000E+06    0.2431942057E-02    0.6949001335E+00    0.1533023958E+00    0.3019937892E+00    0.1152129903E-02
    0.3100000000E+06    0.2291687345E-02    0.6948989343E+00    0.1506802165E+00    0.3094360435E+00    0.1156404278E-02
    0.3300000000E+06    0.2164770569E-02    0.6948976314E+00    0.1481419760E+00    0.3165034355E+00    0.1160425588E-02
    0.3500000000E+06    0.2049403674E-02    0.6948962559E+00    0.1456858530E+00    0.3232307934E+00    0.1164222869E-02
    0.3700000000E+06    0.1944105804E-02    0.6948948309E+00    0.1433093960E+00    0.3296479864E+00    0.1167820390E-02
    0.3900000000E+06    0.1847639737E-02    0.6948933737E+00    0.1410098015E+00    0.3357808703E+00    0.1171238649E-02
    0.4100000000E+06    0.1758963509E-02    0.6948918971E+00    0.1387840938E+00    0.3416520123E+00    0.1174495119E-02
    0.4300000000E+06    0.1677193153E-02    0.6948904109E+00    0.1366292411E+00    0.3472812535E+00    0.1177604814E-02
    0.4500000000E+06    0.1601573689E-02    0.6948889226E+00    0.1345422302E+00    0.3526861531E+00    0.1180580737E-02
    0.4700000000E+06    0.1531456307E-02    0.6948874379E+00    0.1325201144E+00    0.3578823423E+00    0.1183434221E-02
    0.4900000000E+06    0.1466280244E-02    0.6948859610E+00    0.1305600420E+00    0.3628838101E+00    0.1186175204E-02
    0.1000000000E+06    0.5206153791E-02    0.6948794047E+00    0.1801736705E+00    0.1989351621E+00    0.1085961260E-02
    0.3000000000E+06    0.2360021569E-02    0.6948995492E+00    0.1519807351E+00    0.3057641764E+00    0.1154300758E-02
    0.5000000000E+06    0.1435390411E-02    0.6948852265E+00    0.1296024115E+00    0.3653155044E+00    0.1187506289E-02
    0.7000000000E+06    0.9867633494E-03    0.6948714098E+00    0.1131087034E+00    0.4062139496E+00    0.1209894909E-02
    0.9000000000E+06    0.7274282436E-03    0.6948594399E+00    0.1004461965E+00    0.4366851926E+00    0.1226890829E-02
    0.1100000000E+07    0.5615641777E-03    0.6948490644E+00    0.9039201422E-01    0.4604858652E+00    0.1240632416E-02
    0.1300000000E+07    0.4481267726E-03    0.6948399546E+00    0.8219922517E-01    0.4796816396E+00    0.1252188923E-02
    0.1500000000E+07    0.3667119597E-03    0.6948318497E+00    0.7538565012E-01    0.4955341908E+00    0.1262173693E-02
    0.1700000000E+07    0.3061007823E-03    0.6948245545E+00    0.6962492789E-01    0.5088692304E+00    0.1270971940E-02
    0.1900000000E+07    0.2596547478E-03    0.6948179232E+00    0.6468753674E-01    0.5202546329E+00    0.1278841777E-02
    0.2100000000E+07    0.2232186872E-03    0.6948118449E+00    0.6040694361E-01    0.5300959789E+00    0.1285964782E-02
    0.2300000000E+07    0.1940732251E-03    0.6948062340E+00    0.5665915488E-01    0.5386917462E+00    0.1292473635E-02
    0.2500000000E+07    0.1703727697E-03    0.6948010230E+00    0.5334981934E-01    0.5462670391E+00    0.1298468291E-02
    0.2700000000E+07    0.1508262468E-03    0.6947961580E+00    0.5040579438E-01    0.5529951407E+00    0.1304025960E-02
    0.2900000000E+07    0.1345070202E-03    0.6947915951E+00    0.4776945888E-01    0.5590117918E+00    0.1309207551E-02
    0.3100000000E+07    0.1207351904E-03    0.6947872985E+00    0.4539477571E-01    0.5644249421E+00    0.1314061969E-02
    0.3300000000E+07    0.1090022360E-03    0.6947832383E+00    0.4324450270E-01    0.5693215815E+00    0.1318629092E-02
    0.3500000000E+07    0.9892135225E-04    0.6947793892E+00    0.4128817689E-01    0.5737726325E+00    0.1322941868E-02
    0.3700000000E+07    0.9019389120E-04    0.6947757300E+00    0.3950063192E-01    0.5778365231E+00    0.1327027842E-02
    0.3900000000E+07    0.8258617526E-04    0.6947722424E+00    0.3786088987E-01    0.5815618395E+00    0.1330910279E-02
    0.4100000000E+07    0.7591315871E-04    0.6947689107E+00    0.3635132147E-01    0.5849893264E+00    0.1334609009E-02
    0.4300000000E+07    0.7002671048E-04    0.6947657213E+00    0.3495700124E-01    0.5881534158E+00    0.1338141078E-02
    0.4500000000E+07    0.6480707685E-04    0.6947626622E+00    0.3366520675E-01    0.5910834093E+00    0.1341521243E-02
    0.4700000000E+07    0.6015657094E-04    0.6947597230E+00    0.3246502546E-01    0.5938044039E+00    0.1344762370E-02
    0.4900000000E+07    0.5599484688E-04    0.6947568943E+00    0.3134704315E-01    0.5963380220E+00    0.1347875743E-02
    0.1000000000E+07    0.6360804780E-03    0.6948540747E+00    0.9514774762E-01    0.4492649223E+00    0.1234086719E-02
    0.3000000000E+07    0.1273378012E-03    0.6947894155E+00    0.4655191782E-01    0.5617879414E+00    0.1311672980E-02
    0.5000000000E+07    0.5407601203E-04    0.6947555189E+00    0.3081628199E-01    0.5975405180E+00    0.1349387679E-02
    0.7000000000E+07    0.2995755057E-04    0.6947322306E+00    0.2300882662E-01    0.6152057666E+00    0.1374818981E-02
    0.9000000000E+07    0.1907514196E-04    0.6947143952E+00    0.1834468043E-01    0.6257401674E+00    0.1394125453E-02
    0.1100000000E+08    0.1323820514E-04    0.6946999002E+00    0.1524502533E-01    0.6327343954E+00    0.1409735487E-02
    0.1300000000E+08    0.9742353770E-05    0.6946876683E+00    0.1303657856E-01    0.6377148411E+00    0.1422863487E-02
    0.1500000000E+08    0.7481459284E-05    0.6946770743E+00    0.1138378444E-01    0.6414408511E+00    0.1434206100E-02
    0.1700000000E+08    0.5933996495E-05    0.6946677221E+00    0.1010067562E-01    0.6443327655E+00    0.1444200877E-02
    0.1900000000E+08    0.4827658329E-05    0.6946593447E+00    0.9075892554E-02    0.6466420848E+00    0.1453141011E-02
    0.2100000000E+08    0.4008865403E-05    0.6946517536E+00    0.8238690088E-02    0.6485284896E+00    0.1461232758E-02
    0.2300000000E+08    0.3385600713E-05    0.6946448103E+00    0.7541975190E-02    0.6500982279E+00    0.1468626835E-02
    0.2500000000E+08    0.2899977639E-05    0.6946384104E+00    0.6953188757E-02    0.6514247324E+00    0.1475436787E-02
    0.2700000000E+08    0.2514087345E-05    0.6946324729E+00    0.6449102767E-02    0.6525603769E+00    0.1481750323E-02
