  Pressure (Pa) 23mC5-500 (mol/kg) 24mC5-500 (mol/kg) 2mC6-500 (mol/kg) 3mC6-500 (mol/kg) C7-500 (mol/kg)
    0.1000000000E+01    0.3603743174E-05    0.6965108807E-01    0.9845591011E-05    0.4802504850E-05    0.4195681251E-02
    0.3000000000E+01    0.8625622685E-05    0.1740868276E+00    0.2282323731E-04    0.1228605811E-04    0.4253301977E-02
    0.5000000000E+01    0.1192602631E-04    0.2486544572E+00    0.3084776817E-04    0.1917354756E-04    0.4292330426E-02
    0.7000000000E+01    0.1421740177E-04    0.3045646670E+00    0.3614156319E-04    0.2577543714E-04    0.4321472864E-02
    0.9000000000E+01    0.1587658758E-04    0.3480415153E+00    0.3983122350E-04    0.3219647137E-04    0.4344164455E-02
    0.1100000000E+02    0.1712019246E-04    0.3828176094E+00    0.4253754804E-04    0.3848905712E-04    0.4362359104E-02
    0.1300000000E+02    0.1808037034E-04    0.4112673499E+00    0.4462278325E-04    0.4468438190E-04    0.4377280810E-02
    0.1500000000E+02    0.1884157077E-04    0.4349731991E+00    0.4630771480E-04    0.5080299310E-04    0.4389741231E-02
    0.1700000000E+02    0.1945980571E-04    0.4550304445E+00    0.4773159190E-04    0.5685937590E-04    0.4400301529E-02
    0.1900000000E+02    0.1997337983E-04    0.4722212801E+00    0.4898466556E-04    0.6286424950E-04    0.4409362743E-02
    0.2100000000E+02    0.2040916692E-04    0.4871192207E+00    0.5012671814E-04    0.6882584191E-04    0.4417219412E-02
    0.2300000000E+02    0.2078643382E-04    0.5001543430E+00    0.5119803914E-04    0.7475065235E-04    0.4424092899E-02
    0.2500000000E+02    0.2111925193E-04    0.5116554905E+00    0.5222614537E-04    0.8064393420E-04    0.4430152897E-02
    0.2700000000E+02    0.2141806381E-04    0.5218784046E+00    0.5323001360E-04    0.8651001515E-04    0.4435531739E-02
    0.2900000000E+02    0.2169072726E-04    0.5310249691E+00    0.5422281195E-04    0.9235251745E-04    0.4440334193E-02
    0.3100000000E+02    0.2194322713E-04    0.5392566784E+00    0.5521370021E-04    0.9817451427E-04    0.4444644319E-02
    0.3300000000E+02    0.2218017022E-04    0.5467042578E+00    0.5620903846E-04    0.1039786435E-03    0.4448530370E-02
    0.3500000000E+02    0.2240513568E-04    0.5534746579E+00    0.5721321166E-04    0.1097671926E-03    0.4452048357E-02
    0.3700000000E+02    0.2262092689E-04    0.5596562248E+00    0.5822920032E-04    0.1155421628E-03    0.4455244697E-02
    0.3900000000E+02    0.2282975525E-04    0.5653225767E+00    0.5925898024E-04    0.1213053193E-03    0.4458158186E-02
    0.4100000000E+02    0.2303337599E-04    0.5705355506E+00    0.6030380568E-04    0.1270582297E-03    0.4460821516E-02
    0.4300000000E+02    0.2323318965E-04    0.5753474680E+00    0.6136441181E-04    0.1328022955E-03    0.4463262438E-02
    0.4500000000E+02    0.2343031880E-04    0.5798028977E+00    0.6244116061E-04    0.1385387766E-03    0.4465504662E-02
    0.4700000000E+02    0.2362566658E-04    0.5839400404E+00    0.6353414674E-04    0.1442688120E-03    0.4467568578E-02
    0.4900000000E+02    0.2381996175E-04    0.5877918268E+00    0.6464327487E-04    0.1499934358E-03    0.4469471815E-02
    0.1000000000E+02    0.1654064715E-04    0.3663453072E+00    0.4128036271E-04    0.3535654242E-04    0.4353735096E-02
    0.3000000000E+02    0.2181918210E-04    0.5352463816E+00    0.5471804288E-04    0.9526590509E-04    0.4442546208E-02
    0.5000000000E+02    0.2391690344E-04    0.5896197812E+00    0.6520382467E-04    0.1528540164E-03    0.4470368049E-02
    0.7000000000E+02    0.2589505785E-04    0.6164597283E+00    0.7717427596E-04    0.2099734866E-03    0.4482700016E-02
    0.9000000000E+02    0.2803485019E-04    0.6324543821E+00    0.9030981478E-04    0.2672750503E-03    0.4488586219E-02
    0.1100000000E+03    0.3035537004E-04    0.6430722166E+00    0.1042999875E-03    0.3251035056E-03    0.4491086976E-02
    0.1300000000E+03    0.3284045621E-04    0.6506342440E+00    0.1189635441E-03    0.3836811876E-03    0.4491539201E-02
    0.1500000000E+03    0.3547261573E-04    0.6562936356E+00    0.1341988142E-03    0.4431704589E-03    0.4490624366E-02
    0.1700000000E+03    0.3823825488E-04    0.6606881667E+00    0.1499493368E-03    0.5037007629E-03    0.4488727785E-02
    0.1900000000E+03    0.4112771443E-04    0.6641992156E+00    0.1661849841E-03    0.5653822139E-03    0.4486084039E-02
    0.2100000000E+03    0.4413447075E-04    0.6670688420E+00    0.1828916510E-03    0.6283131736E-03    0.4482843951E-02
    0.2300000000E+03    0.4725437540E-04    0.6694580800E+00    0.2000654518E-03    0.6925848243E-03    0.4479108531E-02
    0.2500000000E+03    0.5048507232E-04    0.6714782225E+00    0.2177093396E-03    0.7582841138E-03    0.4474947508E-02
    0.2700000000E+03    0.5382557635E-04    0.6732086497E+00    0.2358310737E-03    0.8254957602E-03    0.4470410066E-02
    0.2900000000E+03    0.5727597351E-04    0.6747075027E+00    0.2544419657E-03    0.8943036864E-03    0.4465531367E-02
    0.3100000000E+03    0.6083720837E-04    0.6760183411E+00    0.2735560918E-03    0.9647920970E-03    0.4460336685E-02
    0.3300000000E+03    0.6451093299E-04    0.6771744448E+00    0.2931897924E-03    0.1037046323E-02    0.4454844104E-02
    0.3500000000E+03    0.6829939957E-04    0.6782016774E+00    0.3133613570E-03    0.1111153514E-02    0.4449066341E-02
    0.3700000000E+03    0.7220538438E-04    0.6791204429E+00    0.3340908277E-03    0.1187203229E-02    0.4443012002E-02
    0.3900000000E+03    0.7623213449E-04    0.6799470540E+00    0.3553998868E-03    0.1265287964E-02    0.4436686465E-02
    0.4100000000E+03    0.8038333123E-04    0.6806947087E+00    0.3773117996E-03    0.1345503627E-02    0.4430092514E-02
    0.4300000000E+03    0.8466306647E-04    0.6813742000E+00    0.3998513998E-03    0.1427950003E-02    0.4423230797E-02
    0.4500000000E+03    0.8907582861E-04    0.6819944393E+00    0.4230451048E-03    0.1512731190E-02    0.4416100160E-02
    0.4700000000E+03    0.9362649627E-04    0.6825628499E+00    0.4469209557E-03    0.1599956046E-02    0.4408697900E-02
    0.4900000000E+03    0.9832033827E-04    0.6830856646E+00    0.4715086768E-03    0.1689738630E-02    0.4401019941E-02
    0.1000000000E+03    0.2917335530E-04    0.6382504109E+00    0.9721181041E-04    0.2961076465E-03    0.4490154000E-02
    0.3000000000E+03    0.5904264812E-04    0.6753841417E+00    0.2639351519E-03    0.9293325330E-03    0.4462972250E-02
    0.5000000000E+03    0.1007227040E-03    0.6833316535E+00    0.4840792561E-03    0.1735626248E-02    0.4397075960E-02
    0.7000000000E+03    0.1579348779E-03    0.6867932087E+00    0.7818075495E-03    0.2821202721E-02    0.4301783096E-02
    0.9000000000E+03    0.2394257005E-03    0.6887302432E+00    0.1203726350E-02    0.4359296601E-02    0.4165504109E-02
    0.1100000000E+04    0.3618660767E-03    0.6899677670E+00    0.1836738524E-02    0.6669385968E-02    0.3963345930E-02
    0.1300000000E+04    0.5581198472E-03    0.6908265261E+00    0.2851765199E-02    0.1038013099E-01    0.3646963303E-02
    0.1500000000E+04    0.8924627973E-03    0.6914571940E+00    0.4584080265E-02    0.1672935625E-01    0.3127285371E-02
    0.1700000000E+04    0.1457178119E-02    0.6919398971E+00    0.7520402528E-02    0.2753475643E-01    0.2299163455E-02
    0.1900000000E+04    0.2202664089E-02    0.6923211741E+00    0.1142419108E-01    0.4200750723E-01    0.1317356455E-02
    0.2100000000E+04    0.2788110165E-02    0.6926299045E+00    0.1453839715E-01    0.5373858305E-01    0.7121619749E-03
    0.2300000000E+04    0.3125933854E-02    0.6928849579E+00    0.1639103933E-01    0.6092852706E-01    0.5173265965E-03
    0.2500000000E+04    0.3356087761E-02    0.6930991846E+00    0.1769673161E-01    0.6615846094E-01    0.4724054582E-03
    0.2700000000E+04    0.3550619339E-02    0.6932816382E+00    0.1882716840E-01    0.7078586263E-01    0.4640737480E-03
    0.2900000000E+04    0.3729782400E-02    0.6934388807E+00    0.1988696723E-01    0.7519359277E-01    0.4637168652E-03
    0.3100000000E+04    0.3898751619E-02    0.6935757850E+00    0.2090246715E-01    0.7947681995E-01    0.4649999930E-03
    0.3300000000E+04    0.4059053830E-02    0.6936960447E+00    0.2188099575E-01    0.8366052475E-01    0.4665596949E-03
    0.3500000000E+04    0.4211353381E-02    0.6938025108E+00    0.2282539499E-01    0.8775313641E-01    0.4681084849E-03
    0.3700000000E+04    0.4356098350E-02    0.6938974190E+00    0.2373740788E-01    0.9175910402E-01    0.4695910111E-03
    0.3900000000E+04    0.4493670160E-02    0.6939825468E+00    0.2461846465E-01    0.9568182438E-01    0.4710015736E-03
    0.4100000000E+04    0.4624419129E-02    0.6940593254E+00    0.2546986839E-01    0.9952433125E-01    0.4723444965E-03
    0.4300000000E+04    0.4748673722E-02    0.6941289200E+00    0.2629284187E-01    0.1032894640E+00    0.4736255590E-03
    0.4500000000E+04    0.4866743661E-02    0.6941922890E+00    0.2708854161E-01    0.1069799138E+00    0.4748502229E-03
    0.4700000000E+04    0.4978921527E-02    0.6942502275E+00    0.2785806421E-01    0.1105982409E+00    0.4760233435E-03
    0.4900000000E+04    0.5085483944E-02    0.6943034012E+00    0.2860245058E-01    0.1141468845E+00    0.4771491914E-03
    0.1000000000E+04    0.2939974490E-03    0.6894104358E+00    0.1485892076E-02    0.5388615934E-02    0.4074946512E-02
    0.3000000000E+04    0.3815410821E-02    0.6935096212E+00    0.2039961411E-01    0.7734853341E-01    0.4642835748E-03
    0.5000000000E+04    0.5136741700E-02    0.6943283801E+00    0.2896552861E-01    0.1158958060E+00    0.4776955815E-03
    0.7000000000E+04    0.5923646412E-02    0.6946769019E+00    0.3512312972E-01    0.1477273881E+00    0.4868564371E-03
    0.9000000000E+04    0.6373766794E-02    0.6948690024E+00    0.3963523427E-01    0.1746723329E+00    0.4937813692E-03
    0.1100000000E+05    0.6605964502E-02    0.6949902227E+00    0.4298233711E-01    0.1979262920E+00    0.4993667442E-03
    0.1300000000E+05    0.6694629902E-02    0.6950734116E+00    0.4548117108E-01    0.2183083696E+00    0.5040566088E-03
    0.1500000000E+05    0.6687776597E-02    0.6951338679E+00    0.4734810914E-01    0.2364004135E+00    0.5081042035E-03
    0.1700000000E+05    0.6617169144E-02    0.6951796730E+00    0.4873542194E-01    0.2526284899E+00    0.5116679490E-03
    0.1900000000E+05    0.6504241943E-02    0.6952154942E+00    0.4975298686E-01    0.2673127585E+00    0.5148536904E-03
    0.2100000000E+05    0.6363686531E-02    0.6952442138E+00    0.5048180160E-01    0.2806992036E+00    0.5177357239E-03
    0.2300000000E+05    0.6205694041E-02    0.6952677067E+00    0.5098268132E-01    0.2929805004E+00    0.5203682459E-03
    0.2500000000E+05    0.6037394707E-02    0.6952872444E+00    0.5130202011E-01    0.3043101382E+00    0.5227920287E-03
    0.2700000000E+05    0.5863803384E-02    0.6953037194E+00    0.5147570546E-01    0.3148122234E+00    0.5250385318E-03
    0.2900000000E+05    0.5688453125E-02    0.6953177759E+00    0.5153183764E-01    0.3245884380E+00    0.5271325477E-03
    0.3100000000E+05    0.5513827201E-02    0.6953298910E+00    0.5149265670E-01    0.3337230781E+00    0.5290939685E-03
    0.3300000000E+05    0.5341658232E-02    0.6953404247E+00    0.5137593228E-01    0.3422867681E+00    0.5309390020E-03
    0.3500000000E+05    0.5173138089E-02    0.6953496542E+00    0.5119598196E-01    0.3503392429E+00    0.5326810326E-03
    0.3700000000E+05    0.5009066944E-02    0.6953577961E+00    0.5096442832E-01    0.3579314628E+00    0.5343312430E-03
    0.3900000000E+05    0.4849960185E-02    0.6953650219E+00    0.5069076893E-01    0.3651072428E+00    0.5358990742E-03
    0.4100000000E+05    0.4696125810E-02    0.6953714694E+00    0.5038281071E-01    0.3719045227E+00    0.5373925705E-03
    0.4300000000E+05    0.4547720876E-02    0.6953772505E+00    0.5004700449E-01    0.3783563689E+00    0.5388186436E-03
    0.4500000000E+05    0.4404792943E-02    0.6953824566E+00    0.4968870520E-01    0.3844917721E+00    0.5401832758E-03
    0.4700000000E+05    0.4267310659E-02    0.6953871638E+00    0.4931237610E-01    0.3903362888E+00    0.5414916808E-03
    0.4900000000E+05    0.4135186432E-02    0.6953914351E+00    0.4892175047E-01    0.3959125623E+00    0.5427484301E-03
    0.1000000000E+05    0.6511678327E-02    0.6949358023E+00    0.4143169619E-01    0.1867026712E+00    0.4967075074E-03
    0.3000000000E+05    0.5600926553E-02    0.6953240514E+00    0.5152295937E-01    0.3292312568E+00    0.5281287446E-03
    0.5000000000E+05    0.4071095081E-02    0.6953934243E+00    0.4872207577E-01    0.3986064935E+00    0.5433587124E-03
    0.7000000000E+05    0.3030452349E-02    0.6954196640E+00    0.4451623604E-01    0.4423060533E+00    0.5536215662E-03
    0.9000000000E+05    0.2332281054E-02    0.6954322849E+00    0.4052534583E-01    0.4730328856E+00    0.5614104952E-03
    0.1100000000E+06    0.1847899459E-02    0.6954390580E+00    0.3701976867E-01    0.4960466100E+00    0.5677071740E-03
    0.1300000000E+06    0.1499700174E-02    0.6954428675E+00    0.3399389464E-01    0.5140214233E+00    0.5730021700E-03
    0.1500000000E+06    0.1241456510E-02    0.6954450105E+00    0.3138441009E-01    0.5284924190E+00    0.5775767766E-03
    0.1700000000E+06    0.1044772598E-02    0.6954461479E+00    0.2912359718E-01    0.5404151736E+00    0.5816076182E-03
    0.1900000000E+06    0.8915588444E-03    0.6954466473E+00    0.2715222570E-01    0.5504203213E+00    0.5852130220E-03
    0.2100000000E+06    0.7698888447E-03    0.6954467270E+00    0.2542143469E-01    0.5589429653E+00    0.5884762170E-03
    0.2300000000E+06    0.6716546018E-03    0.6954465231E+00    0.2389166170E-01    0.5662940347E+00    0.5914580134E-03
    0.2500000000E+06    0.5911929915E-03    0.6954461242E+00    0.2253098982E-01    0.5727021627E+00    0.5942042192E-03
    0.2700000000E+06    0.5244533838E-03    0.6954455895E+00    0.2131359927E-01    0.5783395128E+00    0.5967502171E-03
    0.2900000000E+06    0.4684771124E-03    0.6954449598E+00    0.2021848548E-01    0.5833383633E+00    0.5991239165E-03
    0.3100000000E+06    0.4210625660E-03    0.6954442637E+00    0.1922844452E-01    0.5878021217E+00    0.6013477271E-03
    0.3300000000E+06    0.3805441226E-03    0.6954435219E+00    0.1832928335E-01    0.5918128529E+00    0.6034399202E-03
    0.3500000000E+06    0.3456428328E-03    0.6954427491E+00    0.1750920815E-01    0.5954365520E+00    0.6054155926E-03
    0.3700000000E+06    0.3153634540E-03    0.6954419563E+00    0.1675834971E-01    0.5987269180E+00    0.6072873640E-03
    0.3900000000E+06    0.2889221045E-03    0.6954411516E+00    0.1606839371E-01    0.6017281056E+00    0.6090658934E-03
    0.4100000000E+06    0.2656945630E-03    0.6954403410E+00    0.1543229096E-01    0.6044767661E+00    0.6107602664E-03
    0.4300000000E+06    0.2451787453E-03    0.6954395290E+00    0.1484402882E-01    0.6070035831E+00    0.6123782917E-03
    0.4500000000E+06    0.2269670843E-03    0.6954387191E+00    0.1429844965E-01    0.6093344447E+00    0.6139267307E-03
    0.4700000000E+06    0.2107259354E-03    0.6954379138E+00    0.1379110554E-01    0.6114913488E+00    0.6154114774E-03
    0.4900000000E+06    0.1961800352E-03    0.6954371150E+00    0.1331814139E-01    0.6134931094E+00    0.6168377012E-03
    0.1000000000E+06    0.2069166197E-02    0.6954361659E+00    0.3870971226E-01    0.4852999140E+00    0.5647078797E-03
    0.3000000000E+06    0.4438142621E-03    0.6954446186E+00    0.1971128060E-01    0.5856315704E+00    0.6002533318E-03
    0.5000000000E+06    0.1894697704E-03    0.6954367185E+00    0.1309348546E-01    0.6144409595E+00    0.6175303130E-03
    0.7000000000E+06    0.1049529909E-03    0.6954293206E+00    0.9781892100E-02    0.6282042658E+00    0.6291803567E-03
    0.9000000000E+06    0.6673817455E-04    0.6954229666E+00    0.7799375360E-02    0.6362728047E+00    0.6380247468E-03
    0.1100000000E+07    0.4623352444E-04    0.6954174816E+00    0.6481031705E-02    0.6415750533E+00    0.6451758870E-03
    0.1300000000E+07    0.3395558280E-04    0.6954126770E+00    0.5541591183E-02    0.6453250230E+00    0.6511900634E-03
    0.1500000000E+07    0.2601866457E-04    0.6954084089E+00    0.4838527279E-02    0.6481170020E+00    0.6563863896E-03
    0.1700000000E+07    0.2058942050E-04    0.6954045713E+00    0.4292762082E-02    0.6502762817E+00    0.6609652950E-03
    0.1900000000E+07    0.1671036474E-04    0.6954010856E+00    0.3856917800E-02    0.6519958846E+00    0.6650610824E-03
    0.2100000000E+07    0.1384147993E-04    0.6953978924E+00    0.3500888839E-02    0.6533975856E+00    0.6687682324E-03
    0.2300000000E+07    0.1165925492E-04    0.6953949460E+00    0.3204633018E-02    0.6545620048E+00    0.6721557847E-03
    0.2500000000E+07    0.9960213255E-05    0.6953922105E+00    0.2954293523E-02    0.6555446368E+00    0.6752757513E-03
    0.2700000000E+07    0.8611134007E-05    0.6953896574E+00    0.2739985119E-02    0.6563849291E+00    0.6781683101E-03
    0.2900000000E+07    0.7521806039E-05    0.6953872634E+00    0.2554467263E-02    0.6571116905E+00    0.6808651551E-03
    0.3100000000E+07    0.6629364973E-05    0.6953850094E+00    0.2392315636E-02    0.6577464504E+00    0.6833917362E-03
    0.3300000000E+07    0.5888906622E-05    0.6953828798E+00    0.2249386623E-02    0.6583056207E+00    0.6857688045E-03
    0.3500000000E+07    0.5267657474E-05    0.6953808612E+00    0.2122460638E-02    0.6588019306E+00    0.6880135063E-03
    0.3700000000E+07    0.4741240450E-05    0.6953789423E+00    0.2008998313E-02    0.6592454045E+00    0.6901401751E-03
    0.3900000000E+07    0.4291217022E-05    0.6953771136E+00    0.1906969981E-02    0.6596440441E+00    0.6921609178E-03
    0.4100000000E+07    0.3903430159E-05    0.6953753668E+00    0.1814733985E-02    0.6600043138E+00    0.6940860545E-03
    0.4300000000E+07    0.3566863062E-05    0.6953736946E+00    0.1730948245E-02    0.6603314928E+00    0.6959244551E-03
    0.4500000000E+07    0.3272837935E-05    0.6953720908E+00    0.1654504952E-02    0.6606299350E+00    0.6976838000E-03
    0.4700000000E+07    0.3014443692E-05    0.6953705499E+00    0.1584481615E-02    0.6609032628E+00    0.6993707844E-03
    0.4900000000E+07    0.2786120736E-05    0.6953690671E+00    0.1520103897E-02    0.6611545147E+00    0.7009912807E-03
    0.1000000000E+07    0.5506957067E-04    0.6954201283E+00    0.7079876235E-02    0.6391725068E+00    0.6417694714E-03
    0.3000000000E+07    0.7054120892E-05    0.6953861200E+00    0.2470754808E-02    0.6574394446E+00    0.6821483361E-03
    0.5000000000E+07    0.2681791263E-05    0.6953683460E+00    0.1489823504E-02    0.6612726805E+00    0.7017782384E-03
    0.7000000000E+07    0.1424241727E-05    0.6953561381E+00    0.1064489850E-02    0.6629319522E+00    0.7150153866E-03
    0.9000000000E+07    0.8925733341E-06    0.6953467876E+00    0.8272476387E-03    0.6638573998E+00    0.7250648121E-03
    0.1100000000E+08    0.6178068722E-06    0.6953391867E+00    0.6760490083E-03    0.6644474334E+00    0.7331903425E-03
    0.1300000000E+08    0.4569751720E-06    0.6953327710E+00    0.5713270270E-03    0.6648563190E+00    0.7400240156E-03
    0.1500000000E+08    0.3544668657E-06    0.6953272128E+00    0.4945366039E-03    0.6651563231E+00    0.7459284091E-03
    0.1700000000E+08    0.2849506695E-06    0.6953223049E+00    0.4358346307E-03    0.6653857968E+00    0.7511312554E-03
    0.1900000000E+08    0.2355265652E-06    0.6953179074E+00    0.3895135764E-03    0.6655669786E+00    0.7557851539E-03
    0.2100000000E+08    0.1990542057E-06    0.6953139216E+00    0.3520368275E-03    0.6657136506E+00    0.7599974577E-03
    0.2300000000E+08    0.1713167130E-06    0.6953102751E+00    0.3210965811E-03    0.6658348081E+00    0.7638466132E-03
    0.2500000000E+08    0.1496910445E-06    0.6953069131E+00    0.2951230415E-03    0.6659365713E+00    0.7673917193E-03
    0.2700000000E+08    0.1324746466E-06    0.6953037934E+00    0.2730113898E-03    0.6660232486E+00    0.7706784287E-03
