  Pressure (Pa) 23mC5-500 (mol/kg) 24mC5-500 (mol/kg) 2mC6-500 (mol/kg) 3mC6-500 (mol/kg) C7-500 (mol/kg)
    0.1000000000E+01    0.3260924708E-05    0.1266347261E+00    0.2963438108E-05    0.7186616136E-05    0.4168771727E-02
    0.3000000000E+01    0.6722248609E-05    0.2785343575E+00    0.5849263058E-05    0.1809214307E-04    0.4196485305E-02
    0.5000000000E+01    0.8470802301E-05    0.3664458309E+00    0.7206545976E-05    0.2806709593E-04    0.4208829479E-02
    0.7000000000E+01    0.9498059672E-05    0.4237676609E+00    0.8002841573E-05    0.3760205447E-04    0.4216289807E-02
    0.9000000000E+01    0.1017359602E-04    0.4640998181E+00    0.8566739732E-05    0.4686081937E-04    0.4221257014E-02
    0.1100000000E+02    0.1066126190E-04    0.4940208446E+00    0.9029689211E-05    0.5592487808E-04    0.4224743171E-02
    0.1300000000E+02    0.1104240225E-04    0.5171011656E+00    0.9449787982E-05    0.6484252913E-04    0.4227269578E-02
    0.1500000000E+02    0.1136076434E-04    0.5354460786E+00    0.9854343132E-05    0.7364549486E-04    0.4229135871E-02
    0.1700000000E+02    0.1164130810E-04    0.5503773530E+00    0.1025660680E-04    0.8235608279E-04    0.4230527582E-02
    0.1900000000E+02    0.1189892725E-04    0.5627667104E+00    0.1066302352E-04    0.9099076692E-04    0.4231566099E-02
    0.2100000000E+02    0.1214281978E-04    0.5732123448E+00    0.1107660317E-04    0.9956217096E-04    0.4232334340E-02
    0.2300000000E+02    0.1237881732E-04    0.5821384033E+00    0.1149857933E-04    0.1080802519E-03    0.4232890945E-02
    0.2500000000E+02    0.1261069015E-04    0.5898539936E+00    0.1192925928E-04    0.1165530482E-03    0.4233278595E-02
    0.2700000000E+02    0.1284090917E-04    0.5965897098E+00    0.1236847343E-04    0.1249871753E-03    0.4233529115E-02
    0.2900000000E+02    0.1307110635E-04    0.6025210717E+00    0.1281581776E-04    0.1333881656E-03    0.4233666730E-02
    0.3100000000E+02    0.1330236133E-04    0.6077840411E+00    0.1327078620E-04    0.1417607097E-03    0.4233710216E-02
    0.3300000000E+02    0.1353538427E-04    0.6124855715E+00    0.1373284273E-04    0.1501088317E-03    0.4233674354E-02
    0.3500000000E+02    0.1377063499E-04    0.6167109528E+00    0.1420145987E-04    0.1584360198E-03    0.4233570941E-02
    0.3700000000E+02    0.1400840211E-04    0.6205290318E+00    0.1467613848E-04    0.1667453249E-03    0.4233409508E-02
    0.3900000000E+02    0.1424885644E-04    0.6239959929E+00    0.1515641675E-04    0.1750394376E-03    0.4233197842E-02
    0.4100000000E+02    0.1449208740E-04    0.6271581409E+00    0.1564187331E-04    0.1833207477E-03    0.4232942368E-02
    0.4300000000E+02    0.1473812826E-04    0.6300539815E+00    0.1613212694E-04    0.1915913914E-03    0.4232648432E-02
    0.4500000000E+02    0.1498697377E-04    0.6327157965E+00    0.1662683465E-04    0.1998532900E-03    0.4232320522E-02
    0.4700000000E+02    0.1523859251E-04    0.6351708531E+00    0.1712568886E-04    0.2081081807E-03    0.4231962432E-02
    0.4900000000E+02    0.1549293565E-04    0.6374423404E+00    0.1762841428E-04    0.2163576418E-03    0.4231577391E-02
    0.1000000000E+02    0.1043461289E-04    0.4800923875E+00    0.8806174070E-05    0.5141365561E-04    0.4223145522E-02
    0.3000000000E+02    0.1318655021E-04    0.6052288395E+00    0.1304238234E-04    0.1375777280E-03    0.4233699235E-02
    0.5000000000E+02    0.1562111042E-04    0.6385155615E+00    0.1788115072E-04    0.2204807914E-03    0.4231375643E-02
    0.7000000000E+02    0.1831115075E-04    0.6539292636E+00    0.2309194125E-04    0.3029523331E-03    0.4226425924E-02
    0.9000000000E+02    0.2120050346E-04    0.6628183058E+00    0.2852786507E-04    0.3859906379E-03    0.4220431042E-02
    0.1100000000E+03    0.2424731359E-04    0.6686018258E+00    0.3413940603E-04    0.4701333067E-03    0.4213864385E-02
    0.1300000000E+03    0.2742896981E-04    0.6726652244E+00    0.3991054006E-04    0.5557357174E-03    0.4206912259E-02
    0.1500000000E+03    0.3073384832E-04    0.6756765276E+00    0.4583834895E-04    0.6430654833E-03    0.4199659048E-02
    0.1700000000E+03    0.3415651027E-04    0.6779974977E+00    0.5192573918E-04    0.7323432842E-03    0.4192145450E-02
    0.1900000000E+03    0.3769518033E-04    0.6798410971E+00    0.5817852169E-04    0.8237634034E-03    0.4184390849E-02
    0.2100000000E+03    0.4135039236E-04    0.6813408605E+00    0.6460413698E-04    0.9175052413E-03    0.4176403157E-02
    0.2300000000E+03    0.4512423359E-04    0.6825847660E+00    0.7121106795E-04    0.1013740342E-02    0.4168183588E-02
    0.2500000000E+03    0.4901990793E-04    0.6836331361E+00    0.7800856485E-04    0.1112637006E-02    0.4159729151E-02
    0.2700000000E+03    0.5304147750E-04    0.6845287127E+00    0.8500652171E-04    0.1214363519E-02    0.4151034022E-02
    0.2900000000E+03    0.5719370809E-04    0.6853026267E+00    0.9221543065E-04    0.1319090558E-02    0.4142090331E-02
    0.3100000000E+03    0.6148197771E-04    0.6859780898E+00    0.9964637860E-04    0.1426993091E-02    0.4132888620E-02
    0.3300000000E+03    0.6591222517E-04    0.6865727624E+00    0.1073110686E-03    0.1538251963E-02    0.4123418122E-02
    0.3500000000E+03    0.7049092510E-04    0.6871003194E+00    0.1152218562E-03    0.1653055291E-02    0.4113666908E-02
    0.3700000000E+03    0.7522508115E-04    0.6875715142E+00    0.1233917967E-03    0.1771599739E-02    0.4103621980E-02
    0.3900000000E+03    0.8012223241E-04    0.6879949197E+00    0.1318347000E-03    0.1894091741E-02    0.4093269303E-02
    0.4100000000E+03    0.8519046983E-04    0.6883774540E+00    0.1405651923E-03    0.2020748707E-02    0.4082593808E-02
    0.4300000000E+03    0.9043846083E-04    0.6887247614E+00    0.1495987840E-03    0.2151800232E-02    0.4071579371E-02
    0.4500000000E+03    0.9587548079E-04    0.6890414928E+00    0.1589519440E-03    0.2287489351E-02    0.4060208773E-02
    0.4700000000E+03    0.1015114508E-03    0.6893315148E+00    0.1686421806E-03    0.2428073842E-02    0.4048463647E-02
    0.4900000000E+03    0.1073569814E-03    0.6895980686E+00    0.1786881292E-03    0.2573827608E-02    0.4036324408E-02
    0.1000000000E+03    0.2270597602E-04    0.6659868101E+00    0.3131313017E-04    0.4278989516E-03    0.4217204016E-02
    0.3000000000E+03    0.5932047959E-04    0.6856514520E+00    0.9590243312E-04    0.1372633739E-02    0.4137522373E-02
    0.5000000000E+03    0.1103618482E-03    0.6897234171E+00    0.1838506506E-03    0.2648733333E-02    0.4030100524E-02
    0.7000000000E+03    0.1847883164E-03    0.6914828304E+00    0.3115633809E-03    0.4503046750E-02    0.3878869512E-02
    0.9000000000E+03    0.3010547532E-03    0.6924638365E+00    0.5110199685E-03    0.7404024216E-02    0.3650826024E-02
    0.1100000000E+04    0.4983922978E-03    0.6930893453E+00    0.8500059534E-03    0.1234562534E-01    0.3278970666E-02
    0.1300000000E+04    0.8591620739E-03    0.6935228967E+00    0.1471382714E-02    0.2143257634E-01    0.2633811991E-02
    0.1500000000E+04    0.1484758769E-02    0.6938410626E+00    0.2554174541E-02    0.3735065911E-01    0.1604100860E-02
    0.1700000000E+04    0.2192103449E-02    0.6940844720E+00    0.3791396435E-02    0.5573804468E-01    0.6206378795E-03
    0.1900000000E+04    0.2631609417E-02    0.6942766853E+00    0.4579278887E-02    0.6773989087E-01    0.2250655973E-03
    0.2100000000E+04    0.2893759872E-02    0.6944323047E+00    0.5067086959E-02    0.7544047591E-01    0.1379303306E-03
    0.2300000000E+04    0.3101680605E-02    0.6945608626E+00    0.5465339148E-02    0.8189643807E-01    0.1224106678E-03
    0.2500000000E+04    0.3290171960E-02    0.6946688458E+00    0.5833788042E-02    0.8797979518E-01    0.1201040022E-03
    0.2700000000E+04    0.3466785308E-02    0.6947608215E+00    0.6185238639E-02    0.9387552290E-01    0.1201137183E-03
    0.2900000000E+04    0.3633397201E-02    0.6948400989E+00    0.6522669004E-02    0.9962396376E-01    0.1205071967E-03
    0.3100000000E+04    0.3790768217E-02    0.6949091340E+00    0.6847128534E-02    0.1052370764E+00    0.1209448976E-03
    0.3300000000E+04    0.3939423467E-02    0.6949697879E+00    0.7159272098E-02    0.1107211527E+00    0.1213689809E-03
    0.3500000000E+04    0.4079821157E-02    0.6950234970E+00    0.7459654494E-02    0.1160811942E+00    0.1217714397E-03
    0.3700000000E+04    0.4212386016E-02    0.6950713871E+00    0.7748788225E-02    0.1213217645E+00    0.1221528722E-03
    0.3900000000E+04    0.4337517034E-02    0.6951143533E+00    0.8027156060E-02    0.1264471653E+00    0.1225151316E-03
    0.4100000000E+04    0.4455590218E-02    0.6951531162E+00    0.8295214828E-02    0.1314614812E+00    0.1228600474E-03
    0.4300000000E+04    0.4566960288E-02    0.6951882624E+00    0.8553397434E-02    0.1363685990E+00    0.1231892369E-03
    0.4500000000E+04    0.4671962094E-02    0.6952202742E+00    0.8802114427E-02    0.1411722201E+00    0.1235041073E-03
    0.4700000000E+04    0.4770911898E-02    0.6952495519E+00    0.9041755397E-02    0.1458758721E+00    0.1238058847E-03
    0.4900000000E+04    0.4864108552E-02    0.6952764304E+00    0.9272690265E-02    0.1504829187E+00    0.1240956434E-03
    0.1000000000E+04    0.3857653771E-03    0.6928077539E+00    0.6564571381E-03    0.9522594979E-02    0.3489208725E-02
    0.3000000000E+04    0.3713202641E-02    0.6948757688E+00    0.6686475471E-02    0.1024469921E+00    0.1207263235E-03
    0.5000000000E+04    0.4908638350E-02    0.6952890600E+00    0.9385003427E-02    0.1527512237E+00    0.1242363158E-03
    0.7000000000E+04    0.5558142802E-02    0.6954655676E+00    0.1125086822E-01    0.1937525133E+00    0.1265989528E-03
    0.9000000000E+04    0.5873804461E-02    0.6955632325E+00    0.1255464242E-01    0.2279749587E+00    0.1283890755E-03
    0.1100000000E+05    0.5981718737E-02    0.6956251172E+00    0.1346673307E-01    0.2570814354E+00    0.1298348589E-03
    0.1300000000E+05    0.5959397209E-02    0.6956677704E+00    0.1409895848E-01    0.2822153215E+00    0.1310499014E-03
    0.1500000000E+05    0.5855732117E-02    0.6956989071E+00    0.1452719319E-01    0.3041911260E+00    0.1320991906E-03
    0.1700000000E+05    0.5702174812E-02    0.6957226070E+00    0.1480437194E-01    0.3236066124E+00    0.1330234680E-03
    0.1900000000E+05    0.5519247926E-02    0.6957412290E+00    0.1496829403E-01    0.3409117197E+00    0.1338499967E-03
    0.2100000000E+05    0.5320467260E-02    0.6957562317E+00    0.1504648599E-01    0.3564525537E+00    0.1345979366E-03
    0.2300000000E+05    0.5114770940E-02    0.6957685650E+00    0.1505933053E-01    0.3705003965E+00    0.1352812771E-03
    0.2500000000E+05    0.4908060354E-02    0.6957788740E+00    0.1502213700E-01    0.3832713906E+00    0.1359105506E-03
    0.2700000000E+05    0.4704197797E-02    0.6957876120E+00    0.1494654519E-01    0.3949402352E+00    0.1364938889E-03
    0.2900000000E+05    0.4505663730E-02    0.6957951069E+00    0.1484149783E-01    0.4056499315E+00    0.1370377039E-03
    0.3100000000E+05    0.4313996295E-02    0.6958016014E+00    0.1471392717E-01    0.4155188561E+00    0.1375471423E-03
    0.3300000000E+05    0.4130088946E-02    0.6958072795E+00    0.1456924801E-01    0.4246459878E+00    0.1380263992E-03
    0.3500000000E+05    0.3954394153E-02    0.6958122825E+00    0.1441171707E-01    0.4331148329E+00    0.1384789403E-03
    0.3700000000E+05    0.3787064025E-02    0.6958167213E+00    0.1424469853E-01    0.4409964162E+00    0.1389076616E-03
    0.3900000000E+05    0.3628048048E-02    0.6958206838E+00    0.1407086259E-01    0.4483515900E+00    0.1393150091E-03
    0.4100000000E+05    0.3477161349E-02    0.6958242406E+00    0.1389233565E-01    0.4552328393E+00    0.1397030673E-03
    0.4300000000E+05    0.3334132509E-02    0.6958274492E+00    0.1371081503E-01    0.4616857076E+00    0.1400736274E-03
    0.4500000000E+05    0.3198637090E-02    0.6958303567E+00    0.1352765731E-01    0.4677499355E+00    0.1404282402E-03
    0.4700000000E+05    0.3070321078E-02    0.6958330023E+00    0.1334394704E-01    0.4734603775E+00    0.1407682575E-03
    0.4900000000E+05    0.2948817216E-02    0.6958354184E+00    0.1316055048E-01    0.4788477471E+00    0.1410948647E-03
    0.1000000000E+05    0.5948038015E-02    0.6955973025E+00    0.1305161417E-01    0.2430867946E+00    0.1291463222E-03
    0.3000000000E+05    0.4408903490E-02    0.6957984665E+00    0.1478015867E-01    0.4106829007E+00    0.1372964386E-03
    0.5000000000E+05    0.2890504301E-02    0.6958365492E+00    0.1306919149E-01    0.4814288979E+00    0.1412534711E-03
    0.7000000000E+05    0.1998146826E-02    0.6958519619E+00    0.1136414687E-01    0.5212900083E+00    0.1439210827E-03
    0.9000000000E+05    0.1454941003E-02    0.6958600148E+00    0.9961443021E-02    0.5469957852E+00    0.1459460517E-03
    0.1100000000E+06    0.1104320773E-02    0.6958648113E+00    0.8832958116E-02    0.5649790012E+00    0.1475832555E-03
    0.1300000000E+06    0.8660681617E-03    0.6958679026E+00    0.7918631003E-02    0.5782738955E+00    0.1489601170E-03
    0.1500000000E+06    0.6971864455E-03    0.6958699997E+00    0.7167753261E-02    0.5885054260E+00    0.1501497207E-03
    0.1700000000E+06    0.5732662395E-03    0.6958714725E+00    0.6542297753E-02    0.5966241155E+00    0.1511979646E-03
    0.1900000000E+06    0.4797021728E-03    0.6958725312E+00    0.6014358329E-02    0.6032236217E+00    0.1521356015E-03
    0.2100000000E+06    0.4073490885E-03    0.6958733034E+00    0.5563372081E-02    0.6086940457E+00    0.1529842645E-03
    0.2300000000E+06    0.3502540978E-03    0.6958738708E+00    0.5174000623E-02    0.6133023701E+00    0.1537597609E-03
    0.2500000000E+06    0.3044112082E-03    0.6958742879E+00    0.4834634770E-02    0.6172375130E+00    0.1544739988E-03
    0.2700000000E+06    0.2670461225E-03    0.6958745923E+00    0.4536357330E-02    0.6206369325E+00    0.1551361768E-03
    0.2900000000E+06    0.2361890211E-03    0.6958748105E+00    0.4272221665E-02    0.6236030390E+00    0.1557535510E-03
    0.3100000000E+06    0.2104103970E-03    0.6958749620E+00    0.4036744661E-02    0.6262136998E+00    0.1563319478E-03
    0.3300000000E+06    0.1886526631E-03    0.6958750610E+00    0.3825545636E-02    0.6285291778E+00    0.1568761178E-03
    0.3500000000E+06    0.1701198793E-03    0.6958751185E+00    0.3635085544E-02    0.6305968414E+00    0.1573899863E-03
    0.3700000000E+06    0.1542037856E-03    0.6958751426E+00    0.3462475977E-02    0.6324544388E+00    0.1578768347E-03
    0.3900000000E+06    0.1404331104E-03    0.6958751398E+00    0.3305337397E-02    0.6341324223E+00    0.1583394345E-03
    0.4100000000E+06    0.1284381544E-03    0.6958751152E+00    0.3161692585E-02    0.6356556302E+00    0.1587801483E-03
    0.4300000000E+06    0.1179256083E-03    0.6958750728E+00    0.3029885578E-02    0.6370445231E+00    0.1592010067E-03
    0.4500000000E+06    0.1086603638E-03    0.6958750158E+00    0.2908519330E-02    0.6383161082E+00    0.1596037677E-03
    0.4700000000E+06    0.1004521820E-03    0.6958749468E+00    0.2796407262E-02    0.6394846379E+00    0.1599899641E-03
    0.4900000000E+06    0.9314579346E-04    0.6958748678E+00    0.2692535244E-02    0.6405621462E+00    0.1603609402E-03
    0.1000000000E+06    0.1261768644E-02    0.6958626935E+00    0.9366754642E-02    0.5567164482E+00    0.1468033882E-03
    0.3000000000E+06    0.2227382047E-03    0.6958748936E+00    0.4151197003E-02    0.6249486848E+00    0.1560473028E-03
    0.5000000000E+06    0.8978994141E-04    0.6958748252E+00    0.2643411953E-02    0.6410700254E+00    0.1605410967E-03
    0.7000000000E+06    0.4838994801E-04    0.6958737444E+00    0.1934966743E-02    0.6482787611E+00    0.1635714738E-03
    0.9000000000E+06    0.3027777360E-04    0.6958725549E+00    0.1524390651E-02    0.6523639065E+00    0.1658721245E-03
    0.1100000000E+07    0.2075294785E-04    0.6958714192E+00    0.1256745518E-02    0.6549936214E+00    0.1677323584E-03
    0.1300000000E+07    0.1512660903E-04    0.6958703680E+00    0.1068579478E-02    0.6568278603E+00    0.1692968589E-03
    0.1500000000E+07    0.1152508882E-04    0.6958694011E+00    0.9291256258E-03    0.6581800223E+00    0.1706486257E-03
    0.1700000000E+07    0.9079733044E-05    0.6958685105E+00    0.8216687159E-03    0.6592180140E+00    0.1718397907E-03
    0.1900000000E+07    0.7342756775E-05    0.6958676872E+00    0.7363495119E-03    0.6600398916E+00    0.1729052869E-03
    0.2100000000E+07    0.6064148915E-05    0.6958669228E+00    0.6669784619E-03    0.6607067583E+00    0.1738696896E-03
    0.2300000000E+07    0.5095336544E-05    0.6958662099E+00    0.6094746098E-03    0.6612586709E+00    0.1747509567E-03
    0.2500000000E+07    0.4343486751E-05    0.6958655422E+00    0.5610386372E-03    0.6617229820E+00    0.1755626174E-03
    0.2700000000E+07    0.3748152603E-05    0.6958649146E+00    0.5196866411E-03    0.6621190058E+00    0.1763151226E-03
    0.2900000000E+07    0.3268592170E-05    0.6958643225E+00    0.4839735507E-03    0.6624607689E+00    0.1770167166E-03
    0.3100000000E+07    0.2876527206E-05    0.6958637622E+00    0.4528219285E-03    0.6627587029E+00    0.1776740193E-03
    0.3300000000E+07    0.2551828334E-05    0.6958632303E+00    0.4254121193E-03    0.6630207276E+00    0.1782924286E-03
    0.3500000000E+07    0.2279848571E-05    0.6958627242E+00    0.4011095517E-03    0.6632529631E+00    0.1788764047E-03
    0.3700000000E+07    0.2049722613E-05    0.6958622415E+00    0.3794153193E-03    0.6634602140E+00    0.1794296761E-03
    0.3900000000E+07    0.1853251682E-05    0.6958617800E+00    0.3599317870E-03    0.6636463047E+00    0.1799553921E-03
    0.4100000000E+07    0.1684154252E-05    0.6958613380E+00    0.3423381517E-03    0.6638143169E+00    0.1804562372E-03
    0.4300000000E+07    0.1537551556E-05    0.6958609138E+00    0.3263727517E-03    0.6639667620E+00    0.1809345188E-03
    0.4500000000E+07    0.1409607368E-05    0.6958605060E+00    0.3118200470E-03    0.6641057067E+00    0.1813922347E-03
    0.4700000000E+07    0.1297271345E-05    0.6958601134E+00    0.2985008923E-03    0.6642328676E+00    0.1818311267E-03
    0.4900000000E+07    0.1198093228E-05    0.6958597349E+00    0.2862651713E-03    0.6643496822E+00    0.1822527222E-03
    0.1000000000E+07    0.2483899185E-04    0.6958719772E+00    0.1377796676E-02    0.6538073559E+00    0.1668462395E-03
    0.3000000000E+07    0.3063034629E-05    0.6958640386E+00    0.4678838346E-03    0.6626146704E+00    0.1773505421E-03
    0.5000000000E+07    0.1152802416E-05    0.6958595505E+00    0.2805132074E-03    0.6644045961E+00    0.1824574611E-03
    0.7000000000E+07    0.6084395557E-06    0.6958564086E+00    0.1999320799E-03    0.6651740931E+00    0.1859013523E-03
    0.9000000000E+07    0.3793870754E-06    0.6958539792E+00    0.1551585459E-03    0.6656020959E+00    0.1885159572E-03
    0.1100000000E+08    0.2613923037E-06    0.6958519928E+00    0.1266879819E-03    0.6658746126E+00    0.1906300506E-03
    0.1300000000E+08    0.1924980335E-06    0.6958503090E+00    0.1069982615E-03    0.6660633332E+00    0.1924080553E-03
    0.1500000000E+08    0.1486808564E-06    0.6958488456E+00    0.9257544413E-04    0.6662017512E+00    0.1939442961E-03
    0.1700000000E+08    0.1190231589E-06    0.6958475501E+00    0.8155869977E-04    0.6663076111E+00    0.1952980185E-03
    0.1900000000E+08    0.9797510860E-07    0.6958463867E+00    0.7287082680E-04    0.6663911903E+00    0.1965089223E-03
    0.2100000000E+08    0.8246934332E-07    0.6958453303E+00    0.6584520142E-04    0.6664588531E+00    0.1976049362E-03
    0.2300000000E+08    0.7069667402E-07    0.6958443623E+00    0.6004726103E-04    0.6665147509E+00    0.1986064691E-03
    0.2500000000E+08    0.6153299178E-07    0.6958434685E+00    0.5518165354E-04    0.6665617070E+00    0.1995288962E-03
    0.2700000000E+08    0.5424941128E-07    0.6958426379E+00    0.5104065209E-04    0.6666017084E+00    0.2003840947E-03
