  Pressure (Pa) 23mC5-500 (mol/kg) 24mC5-500 (mol/kg) 2mC6-500 (mol/kg) 3mC6-500 (mol/kg) C7-500 (mol/kg)
    0.1000000000E+01    0.2580990900E-05    0.2321336228E+00    0.6914108090E-05    0.8975791657E-06    0.4166752074E-02
    0.3000000000E+01    0.4257298888E-05    0.4177368908E+00    0.1096376059E-04    0.2256429549E-05    0.4186718870E-02
    0.5000000000E+01    0.4877358705E-05    0.4972543005E+00    0.1267886282E-04    0.3495849429E-05    0.4193168957E-02
    0.7000000000E+01    0.5241070462E-05    0.5414241251E+00    0.1404245324E-04    0.4677455359E-05    0.4196496397E-02
    0.9000000000E+01    0.5523703217E-05    0.5695299083E+00    0.1537703231E-04    0.5821878127E-05    0.4198515587E-02
    0.1100000000E+02    0.5778799561E-05    0.5889867657E+00    0.1674524822E-04    0.6939405282E-05    0.4199850698E-02
    0.1300000000E+02    0.6025699592E-05    0.6032546319E+00    0.1815454439E-04    0.8036147024E-05    0.4200779840E-02
    0.1500000000E+02    0.6271988379E-05    0.6141650788E+00    0.1959989082E-04    0.9116123825E-05    0.4201446998E-02
    0.1700000000E+02    0.6520678055E-05    0.6227784255E+00    0.2107428450E-04    0.1018216739E-04    0.4201934613E-02
    0.1900000000E+02    0.6772860761E-05    0.6297510305E+00    0.2257138316E-04    0.1123637170E-04    0.4202293472E-02
    0.2100000000E+02    0.7028790252E-05    0.6355109388E+00    0.2408601321E-04    0.1228034306E-04    0.4202556655E-02
    0.2300000000E+02    0.7288354073E-05    0.6403492131E+00    0.2561410136E-04    0.1331534952E-04    0.4202746679E-02
    0.2500000000E+02    0.7551289144E-05    0.6444706707E+00    0.2715247818E-04    0.1434241538E-04    0.4202879430E-02
    0.2700000000E+02    0.7817282491E-05    0.6480236251E+00    0.2869868281E-04    0.1536238387E-04    0.4202966451E-02
    0.2900000000E+02    0.8086018219E-05    0.6511181136E+00    0.3025080072E-04    0.1637596023E-04    0.4203016343E-02
    0.3100000000E+02    0.8357198557E-05    0.6538374967E+00    0.3180733684E-04    0.1738374224E-04    0.4203035653E-02
    0.3300000000E+02    0.8630552191E-05    0.6562460803E+00    0.3336711882E-04    0.1838624251E-04    0.4203029456E-02
    0.3500000000E+02    0.8905836381E-05    0.6583942661E+00    0.3492922358E-04    0.1938390504E-04    0.4203001749E-02
    0.3700000000E+02    0.9182836127E-05    0.6603221165E+00    0.3649292183E-04    0.2037711778E-04    0.4202955727E-02
    0.3900000000E+02    0.9461362024E-05    0.6620618766E+00    0.3805763576E-04    0.2136622238E-04    0.4202893975E-02
    0.4100000000E+02    0.9741247658E-05    0.6636397922E+00    0.3962290676E-04    0.2235152183E-04    0.4202818609E-02
    0.4300000000E+02    0.1002234695E-04    0.6650774432E+00    0.4118837059E-04    0.2333328646E-04    0.4202731376E-02
    0.4500000000E+02    0.1030453167E-04    0.6663927361E+00    0.4275373811E-04    0.2431175884E-04    0.4202633735E-02
    0.4700000000E+02    0.1058768915E-04    0.6676006540E+00    0.4431878033E-04    0.2528715778E-04    0.4202526912E-02
    0.4900000000E+02    0.1087172028E-04    0.6687138295E+00    0.4588331659E-04    0.2625968149E-04    0.4202411948E-02
    0.1000000000E+02    0.5653067940E-05    0.5800691378E+00    0.1605594666E-04    0.6383557171E-05    0.4199246751E-02
    0.3000000000E+02    0.8221320434E-05    0.6525202974E+00    0.3102859638E-04    0.1688054171E-04    0.4203029475E-02
    0.5000000000E+02    0.1101403576E-04    0.6692383051E+00    0.4666534943E-04    0.2674492215E-04    0.4202351694E-02
    0.7000000000E+02    0.1388982905E-04    0.6766682687E+00    0.6225893666E-04    0.3633524981E-04    0.4200878767E-02
    0.9000000000E+02    0.1679768263E-04    0.6808676907E+00    0.7775637211E-04    0.4577404379E-04    0.4199116708E-02
    0.1100000000E+03    0.1972143138E-04    0.6835672428E+00    0.9317791897E-04    0.5512309187E-04    0.4197216038E-02
    0.1300000000E+03    0.2265571022E-04    0.6854486952E+00    0.1085509170E-03    0.6441946324E-04    0.4195237374E-02
    0.1500000000E+03    0.2559905720E-04    0.6868349883E+00    0.1238996900E-03    0.7368781769E-04    0.4193209586E-02
    0.1700000000E+03    0.2855155868E-04    0.6878988560E+00    0.1392444769E-03    0.8294574776E-04    0.4191147955E-02
    0.1900000000E+03    0.3151393616E-04    0.6887410591E+00    0.1546019872E-03    0.9220646275E-04    0.4189061156E-02
    0.2100000000E+03    0.3448716102E-04    0.6894243349E+00    0.1699861333E-03    0.1014802800E-03    0.4186954351E-02
    0.2300000000E+03    0.3747228345E-04    0.6899897868E+00    0.1854086531E-03    0.1107755174E-03    0.4184830700E-02
    0.2500000000E+03    0.4047035531E-04    0.6904654692E+00    0.2008795927E-03    0.1200990580E-03    0.4182692167E-02
    0.2700000000E+03    0.4348239610E-04    0.6908711853E+00    0.2164076725E-03    0.1294567256E-03    0.4180539963E-02
    0.2900000000E+03    0.4650937960E-04    0.6912213124E+00    0.2320005629E-03    0.1388535413E-03    0.4178374819E-02
    0.3100000000E+03    0.4955223049E-04    0.6915265413E+00    0.2476650949E-03    0.1482939072E-03    0.4176197144E-02
    0.3300000000E+03    0.5261182560E-04    0.6917949866E+00    0.2634074213E-03    0.1577817389E-03    0.4174007128E-02
    0.3500000000E+03    0.5568899740E-04    0.6920329188E+00    0.2792331431E-03    0.1673205649E-03    0.4171804813E-02
    0.3700000000E+03    0.5878453825E-04    0.6922452596E+00    0.2951474074E-03    0.1769136017E-03    0.4169590135E-02
    0.3900000000E+03    0.6189920482E-04    0.6924359265E+00    0.3111549868E-03    0.1865638119E-03    0.4167362954E-02
    0.4100000000E+03    0.6503372237E-04    0.6926080760E+00    0.3272603421E-03    0.1962739499E-03    0.4165123079E-02
    0.4300000000E+03    0.6818878866E-04    0.6927642804E+00    0.3434676739E-03    0.2060465981E-03    0.4162870276E-02
    0.4500000000E+03    0.7136507754E-04    0.6929066563E+00    0.3597809643E-03    0.2158841963E-03    0.4160604288E-02
    0.4700000000E+03    0.7456324224E-04    0.6930369619E+00    0.3762040118E-03    0.2257890651E-03    0.4158324832E-02
    0.4900000000E+03    0.7778391814E-04    0.6931566693E+00    0.3927404603E-03    0.2357634256E-03    0.4156031612E-02
    0.1000000000E+03    0.1825804221E-04    0.6823498072E+00    0.8547489089E-04    0.5045708596E-04    0.4198178812E-02
    0.3000000000E+03    0.4802876573E-04    0.6913789815E+00    0.2398234749E-03    0.1435680257E-03    0.4177287532E-02
    0.5000000000E+03    0.7940289214E-04    0.6932129446E+00    0.4010523124E-03    0.2407773361E-03    0.4154879745E-02
    0.7000000000E+03    0.1131102333E-03    0.6940016258E+00    0.5740532915E-03    0.3451958388E-03    0.4131040795E-02
    0.9000000000E+03    0.1497357282E-03    0.6944403935E+00    0.7620249062E-03    0.4587649312E-03    0.4105440832E-02
    0.1100000000E+04    0.1898600515E-03    0.6947197907E+00    0.9680197681E-03    0.5833354827E-03    0.4077717122E-02
    0.1300000000E+04    0.2341250181E-03    0.6949132752E+00    0.1195375367E-02    0.7209354489E-03    0.4047468616E-02
    0.1500000000E+04    0.2832763028E-03    0.6950551756E+00    0.1447956551E-02    0.8739175111E-03    0.4014235601E-02
    0.1700000000E+04    0.3382038264E-03    0.6951636828E+00    0.1730371683E-02    0.1045090697E-02    0.3977476996E-02
    0.1900000000E+04    0.3999880941E-03    0.6952493352E+00    0.2048215814E-02    0.1237868935E-02    0.3936543985E-02
    0.2100000000E+04    0.4699580600E-03    0.6953186596E+00    0.2408372590E-02    0.1456455949E-02    0.3890647594E-02
    0.2300000000E+04    0.5497660978E-03    0.6953759141E+00    0.2819404887E-02    0.1706084925E-02    0.3838817464E-02
    0.2500000000E+04    0.6414867684E-03    0.6954239948E+00    0.3292069572E-02    0.1993334796E-02    0.3779848602E-02
    0.2700000000E+04    0.7477477861E-03    0.6954649404E+00    0.3840000717E-02    0.2326550656E-02    0.3712232292E-02
    0.2900000000E+04    0.8719034056E-03    0.6955002270E+00    0.4480615414E-02    0.2716402080E-02    0.3634067015E-02
    0.3100000000E+04    0.1018261282E-02    0.6955309503E+00    0.5236301325E-02    0.3176616702E-02    0.3542945928E-02
    0.3300000000E+04    0.1192370838E-02    0.6955579401E+00    0.6135930712E-02    0.3724918340E-02    0.3435821127E-02
    0.3500000000E+04    0.1401367361E-02    0.6955818366E+00    0.7216676058E-02    0.4384157706E-02    0.3308855981E-02
    0.3700000000E+04    0.1654325742E-02    0.6956031419E+00    0.8525896338E-02    0.5183499580E-02    0.3157304406E-02
    0.3900000000E+04    0.1962478603E-02    0.6956222546E+00    0.1012235262E-01    0.6159220501E-02    0.2975517980E-02
    0.4100000000E+04    0.2338940308E-02    0.6956394961E+00    0.1207490759E-01    0.7353996904E-02    0.2757305156E-02
    0.4300000000E+04    0.2797196135E-02    0.6956551274E+00    0.1445487305E-01    0.8812340325E-02    0.2497067801E-02
    0.4500000000E+04    0.3347161125E-02    0.6956693636E+00    0.1731576971E-01    0.1056834191E-01    0.2192327806E-02
    0.4700000000E+04    0.3987772648E-02    0.6956823829E+00    0.2065498526E-01    0.1262226264E-01    0.1847991589E-02
    0.4900000000E+04    0.4697571978E-02    0.6956943345E+00    0.2436458842E-01    0.1491022466E-01    0.1481054779E-02
    0.1000000000E+04    0.1693223959E-03    0.6945940475E+00    0.8625706773E-03    0.5195543557E-03    0.4091868386E-02
    0.3000000000E+04    0.9419931354E-03    0.6955161020E+00    0.4842441973E-02    0.2936712357E-02    0.3590299692E-02
    0.5000000000E+04    0.5064803430E-02    0.6956999499E+00    0.2628862094E-01    0.1609995386E-01    0.1298079204E-02
    0.7000000000E+04    0.9002130819E-02    0.6957784084E+00    0.4760463304E-01    0.2972390132E-01    0.6894188374E-04
    0.9000000000E+04    0.1063273690E-01    0.6958217997E+00    0.5731699934E-01    0.3650159472E-01    0.5975616065E-04
    0.1100000000E+05    0.1196839216E-01    0.6958492835E+00    0.6572224925E-01    0.4265182125E-01    0.6037707700E-04
    0.1300000000E+05    0.1308217801E-01    0.6958682198E+00    0.7313398590E-01    0.4832810142E-01    0.6094070046E-04
    0.1500000000E+05    0.1401472095E-01    0.6958820388E+00    0.7971342191E-01    0.5359909942E-01    0.6142785708E-04
    0.1700000000E+05    0.1479776431E-01    0.6958925540E+00    0.8558832986E-01    0.5851990876E-01    0.6185707514E-04
    0.1900000000E+05    0.1545648308E-01    0.6959008138E+00    0.9086164011E-01    0.6313553697E-01    0.6224096813E-04
    0.2100000000E+05    0.1601105882E-01    0.6959074663E+00    0.9561719365E-01    0.6748315404E-01    0.6258840773E-04
    0.2300000000E+05    0.1647782719E-01    0.6959129336E+00    0.9992396685E-01    0.7159375890E-01    0.6290587472E-04
    0.2500000000E+05    0.1687012716E-01    0.6959175022E+00    0.1038392231E+00    0.7549343462E-01    0.6319825027E-04
    0.2700000000E+05    0.1719893781E-01    0.6959213735E+00    0.1074108963E+00    0.7920430649E-01    0.6346930424E-04
    0.2900000000E+05    0.1747336181E-01    0.6959246930E+00    0.1106794154E+00    0.8274528244E-01    0.6372200991E-04
    0.3100000000E+05    0.1770099648E-01    0.6959275688E+00    0.1136791177E+00    0.8613263150E-01    0.6395875449E-04
    0.3300000000E+05    0.1788822173E-01    0.6959300822E+00    0.1164393539E+00    0.8938044047E-01    0.6418148417E-04
    0.3500000000E+05    0.1804042537E-01    0.6959322962E+00    0.1189853622E+00    0.9250097787E-01    0.6439180692E-04
    0.3700000000E+05    0.1816218119E-01    0.6959342600E+00    0.1213389637E+00    0.9550498649E-01    0.6459106679E-04
    0.3900000000E+05    0.1825739066E-01    0.6959360125E+00    0.1235191225E+00    0.9840192058E-01    0.6478039897E-04
    0.4100000000E+05    0.1832939670E-01    0.6959375852E+00    0.1255423982E+00    0.1012001394E+00    0.6496077101E-04
    0.4300000000E+05    0.1838107558E-01    0.6959390034E+00    0.1274233156E+00    0.1039070667E+00    0.6513301450E-04
    0.4500000000E+05    0.1841491160E-01    0.6959402882E+00    0.1291746684E+00    0.1065293221E+00    0.6529784943E-04
    0.4700000000E+05    0.1843305830E-01    0.6959414569E+00    0.1308077691E+00    0.1090728314E+00    0.6545590342E-04
    0.4900000000E+05    0.1843738876E-01    0.6959425239E+00    0.1323326583E+00    0.1115429184E+00    0.6560772691E-04
    0.1000000000E+05    0.1133128627E-01    0.6958369318E+00    0.6165560623E-01    0.3964096361E-01    0.6006115467E-04
    0.3000000000E+05    0.1759260344E-01    0.6959261808E+00    0.1122109286E+00    0.8445723342E-01    0.6384224673E-04
    0.5000000000E+05    0.1843489194E-01    0.6959430232E+00    0.1330573568E+00    0.1127519469E+00    0.6568145619E-04
    0.7000000000E+05    0.1796220660E-01    0.6959498182E+00    0.1435964609E+00    0.1340268994E+00    0.6692160162E-04
    0.9000000000E+05    0.1711902317E-01    0.6959533562E+00    0.1493866896E+00    0.1513955875E+00    0.6786307653E-04
    0.1100000000E+06    0.1619435007E-01    0.6959554554E+00    0.1526225096E+00    0.1662477715E+00    0.6862430694E-04
    0.1300000000E+06    0.1528823556E-01    0.6959568023E+00    0.1543445427E+00    0.1793239633E+00    0.6926451121E-04
    0.1500000000E+06    0.1443557063E-01    0.6959577113E+00    0.1551089742E+00    0.1910670525E+00    0.6981765877E-04
    0.1700000000E+06    0.1364638689E-01    0.6959583457E+00    0.1552392243E+00    0.2017643542E+00    0.7030508480E-04
    0.1900000000E+06    0.1292080100E-01    0.6959587984E+00    0.1549354870E+00    0.2116138147E+00    0.7074108528E-04
    0.2100000000E+06    0.1225504844E-01    0.6959591256E+00    0.1543277698E+00    0.2207582593E+00    0.7113571723E-04
    0.2300000000E+06    0.1164404679E-01    0.6959593633E+00    0.1535037529E+00    0.2293045730E+00    0.7149632952E-04
    0.2500000000E+06    0.1108250504E-01    0.6959595354E+00    0.1525243923E+00    0.2373351416E+00    0.7182845854E-04
    0.2700000000E+06    0.1056539232E-01    0.6959596584E+00    0.1514331256E+00    0.2449150294E+00    0.7213638101E-04
    0.2900000000E+06    0.1008811603E-01    0.6959597441E+00    0.1502615421E+00    0.2520966772E+00    0.7242347054E-04
    0.3100000000E+06    0.9646566973E-02    0.6959598009E+00    0.1490330037E+00    0.2589230868E+00    0.7269243614E-04
    0.3300000000E+06    0.9237105052E-02    0.6959598351E+00    0.1477650290E+00    0.2654300447E+00    0.7294548663E-04
    0.3500000000E+06    0.8856520592E-02    0.6959598513E+00    0.1464709053E+00    0.2716477175E+00    0.7318444713E-04
    0.3700000000E+06    0.8501987797E-02    0.6959598533E+00    0.1451608047E+00    0.2776018201E+00    0.7341084338E-04
    0.3900000000E+06    0.8171018183E-02    0.6959598439E+00    0.1438425710E+00    0.2833144896E+00    0.7362596407E-04
    0.4100000000E+06    0.7861417345E-02    0.6959598251E+00    0.1425222864E+00    0.2888049507E+00    0.7383090772E-04
    0.4300000000E+06    0.7571246327E-02    0.6959597988E+00    0.1412046845E+00    0.2940900294E+00    0.7402661850E-04
    0.4500000000E+06    0.7298787796E-02    0.6959597664E+00    0.1398934564E+00    0.2991845551E+00    0.7421391394E-04
    0.4700000000E+06    0.7042516753E-02    0.6959597289E+00    0.1385914803E+00    0.3041016809E+00    0.7439350671E-04
    0.4900000000E+06    0.6801075340E-02    0.6959596874E+00    0.1373009958E+00    0.3088531393E+00    0.7456602189E-04
    0.1000000000E+06    0.1665830341E-01    0.6959545297E+00    0.1512428719E+00    0.1590804447E+00    0.6826169780E-04
    0.3000000000E+06    0.9863113713E-02    0.6959597757E+00    0.1496531823E+00    0.2555519022E+00    0.7256007061E-04
    0.5000000000E+06    0.6685531729E-02    0.6959596653E+00    0.1366606216E+00    0.3111700733E+00    0.7464980024E-04
    0.7000000000E+06    0.4918515793E-02    0.6959591331E+00    0.1247047965E+00    0.3508824129E+00    0.7605902883E-04
    0.9000000000E+06    0.3807424928E-02    0.6959585663E+00    0.1144561934E+00    0.3815362619E+00    0.7712891972E-04
    0.1100000000E+07    0.3052323490E-02    0.6959580315E+00    0.1057077146E+00    0.4062393011E+00    0.7799400510E-04
    0.1300000000E+07    0.2510910096E-02    0.6959575395E+00    0.9818661830E-01    0.4267174479E+00    0.7872156536E-04
    0.1500000000E+07    0.2107113275E-02    0.6959570888E+00    0.9166165094E-01    0.4440433579E+00    0.7935019741E-04
    0.1700000000E+07    0.1796674313E-02    0.6959566749E+00    0.8595025510E-01    0.4589337096E+00    0.7990414400E-04
    0.1900000000E+07    0.1552163984E-02    0.6959562931E+00    0.8090996643E-01    0.4718922716E+00    0.8039964995E-04
    0.2100000000E+07    0.1355728350E-02    0.6959559391E+00    0.7642908043E-01    0.4832867877E+00    0.8084814352E-04
    0.2300000000E+07    0.1195280479E-02    0.6959556095E+00    0.7241915844E-01    0.4933937083E+00    0.8125797581E-04
    0.2500000000E+07    0.1062369575E-02    0.6959553011E+00    0.6880941173E-01    0.5024258181E+00    0.8163543828E-04
    0.2700000000E+07    0.9509255549E-03    0.6959550115E+00    0.6554256079E-01    0.5105501178E+00    0.8198539104E-04
    0.2900000000E+07    0.8564871778E-03    0.6959547386E+00    0.6257177837E-01    0.5178998411E+00    0.8231166792E-04
    0.3100000000E+07    0.7757101432E-03    0.6959544805E+00    0.5985841484E-01    0.5245827847E+00    0.8261734750E-04
    0.3300000000E+07    0.7060438397E-03    0.6959542358E+00    0.5737028809E-01    0.5306872333E+00    0.8290493998E-04
    0.3500000000E+07    0.6455132203E-03    0.6959540030E+00    0.5508038346E-01    0.5362862699E+00    0.8317651949E-04
    0.3700000000E+07    0.5925681611E-03    0.6959537811E+00    0.5296585469E-01    0.5414409699E+00    0.8343381996E-04
    0.3900000000E+07    0.5459772775E-03    0.6959535691E+00    0.5100724786E-01    0.5462028092E+00    0.8367830592E-04
    0.4100000000E+07    0.5047517022E-03    0.6959533661E+00    0.4918789273E-01    0.5506155065E+00    0.8391122582E-04
    0.4300000000E+07    0.4680894721E-03    0.6959531714E+00    0.4749342064E-01    0.5547164503E+00    0.8413365265E-04
    0.4500000000E+07    0.4353343522E-03    0.6959529844E+00    0.4591137948E-01    0.5585378186E+00    0.8434651551E-04
    0.4700000000E+07    0.4059449385E-03    0.6959528043E+00    0.4443092364E-01    0.5621074659E+00    0.8455062435E-04
    0.4900000000E+07    0.3794711925E-03    0.6959526309E+00    0.4304256234E-01    0.5654496333E+00    0.8474668954E-04
    0.1000000000E+07    0.3396455513E-02    0.6959582937E+00    0.1099121020E+00    0.3945031938E+00    0.7758192276E-04
    0.3000000000E+07    0.8145660504E-03    0.6959546078E+00    0.6118506528E-01    0.5213187422E+00    0.8246691393E-04
    0.5000000000E+07    0.3672075179E-03    0.6959525464E+00    0.4238027033E-01    0.5670421425E+00    0.8484190448E-04
    0.7000000000E+07    0.2094944177E-03    0.6959511093E+00    0.3239485888E-01    0.5909206214E+00    0.8644350965E-04
    0.9000000000E+07    0.1356521747E-03    0.6959500013E+00    0.2620253748E-01    0.6056161365E+00    0.8765945566E-04
    0.1100000000E+08    0.9511615039E-04    0.6959490973E+00    0.2198808045E-01    0.6155743663E+00    0.8864263808E-04
    0.1300000000E+08    0.7045088987E-04    0.6959483325E+00    0.1893522111E-01    0.6227677190E+00    0.8946952143E-04
    0.1500000000E+08    0.5431602540E-04    0.6959476688E+00    0.1662244841E-01    0.6282066715E+00    0.9018397146E-04
    0.1700000000E+08    0.4317809099E-04    0.6959470822E+00    0.1481010664E-01    0.6324627383E+00    0.9081354032E-04
    0.1900000000E+08    0.3516301729E-04    0.6959465561E+00    0.1335188005E-01    0.6358835465E+00    0.9137669047E-04
    0.2100000000E+08    0.2920082801E-04    0.6959460790E+00    0.1215339193E-01    0.6386927017E+00    0.9188641029E-04
    0.2300000000E+08    0.2464412339E-04    0.6959456423E+00    0.1115104288E-01    0.6410405660E+00    0.9235219092E-04
    0.2500000000E+08    0.2108234697E-04    0.6959452395E+00    0.1030041467E-01    0.6430319747E+00    0.9278118274E-04
    0.2700000000E+08    0.1824482915E-04    0.6959448656E+00    0.9569548840E-02    0.6447422510E+00    0.9317890929E-04
