  Pressure (Pa) 23mC5-500 (mol/kg) 24mC5-500 (mol/kg) 2mC6-500 (mol/kg) 3mC6-500 (mol/kg) C7-500 (mol/kg)
    0.1000000000E+01    0.3603626390E-05    0.6964983066E-01    0.1969031092E-04    0.2400839023E-05    0.4195841192E-02
    0.3000000000E+01    0.8624905393E-05    0.1740794644E+00    0.4564103523E-04    0.6140139514E-05    0.4253653148E-02
    0.5000000000E+01    0.1192449595E-04    0.2486403286E+00    0.6168353937E-04    0.9579564127E-05    0.4292844034E-02
    0.7000000000E+01    0.1421494094E-04    0.3045446664E+00    0.7226315221E-04    0.1287450346E-04    0.4322136472E-02
    0.9000000000E+01    0.1587309324E-04    0.3480167952E+00    0.7963315063E-04    0.1607741449E-04    0.4344970721E-02
    0.1100000000E+02    0.1711555585E-04    0.3827892231E+00    0.8503509625E-04    0.1921455556E-04    0.4363303042E-02
    0.1300000000E+02    0.1807447345E-04    0.4112361724E+00    0.8919343215E-04    0.2230155932E-04    0.4378358742E-02
    0.1500000000E+02    0.1883428722E-04    0.4349399310E+00    0.9254968917E-04    0.2534872846E-04    0.4390950295E-02
    0.1700000000E+02    0.1945100259E-04    0.4549956390E+00    0.9538233750E-04    0.2836332791E-04    0.4401639417E-02
    0.1900000000E+02    0.1996291940E-04    0.4721853713E+00    0.9787186095E-04    0.3135073480E-04    0.4410827544E-02
    0.2100000000E+02    0.2039690795E-04    0.4870825490E+00    0.1001378134E-03    0.3431507712E-04    0.4418809515E-02
    0.2300000000E+02    0.2077223258E-04    0.5001171755E+00    0.1022607680E-03    0.3725961568E-04    0.4425806929E-02
    0.2500000000E+02    0.2110296299E-04    0.5116180369E+00    0.1042957555E-03    0.4018698618E-04    0.4431989664E-02
    0.2700000000E+02    0.2139954049E-04    0.5218408298E+00    0.1062807290E-03    0.4309935968E-04    0.4437490209E-02
    0.2900000000E+02    0.2166982204E-04    0.5309874027E+00    0.1082420250E-03    0.4599855307E-04    0.4442413462E-02
    0.3100000000E+02    0.2191979189E-04    0.5392192225E+00    0.1101979642E-03    0.4888610742E-04    0.4446843592E-02
    0.3300000000E+02    0.2215405643E-04    0.5466669923E+00    0.1121612680E-03    0.5176334513E-04    0.4450848947E-02
    0.3500000000E+02    0.2237619449E-04    0.5534376454E+00    0.1141407075E-03    0.5463141245E-04    0.4454485622E-02
    0.3700000000E+02    0.2258900924E-04    0.5596195138E+00    0.1161422449E-03    0.5749131181E-04    0.4457800102E-02
    0.3900000000E+02    0.2279471188E-04    0.5652862049E+00    0.1181698324E-03    0.6034392677E-04    0.4460831251E-02
    0.4100000000E+02    0.2299505749E-04    0.5704995465E+00    0.1202259790E-03    0.6319004165E-04    0.4463611816E-02
    0.4300000000E+02    0.2319144646E-04    0.5753118531E+00    0.1223121551E-03    0.6603035701E-04    0.4466169599E-02
    0.4500000000E+02    0.2338500120E-04    0.5797676876E+00    0.1244290841E-03    0.6886550225E-04    0.4468528356E-02
    0.4700000000E+02    0.2357662468E-04    0.5839052461E+00    0.1265769548E-03    0.7169604575E-04    0.4470708519E-02
    0.4900000000E+02    0.2376704550E-04    0.5877574555E+00    0.1287555753E-03    0.7452250320E-04    0.4472727755E-02
    0.1000000000E+02    0.1653659585E-04    0.3663186331E+00    0.8252625321E-04    0.1765306461E-04    0.4354610724E-02
    0.3000000000E+02    0.2179703042E-04    0.5352088592E+00    0.1092197602E-03    0.4744369790E-04    0.4444685572E-02
    0.5000000000E+02    0.2386199367E-04    0.5895856231E+00    0.1298562813E-03    0.7593434814E-04    0.4473681906E-02
    0.7000000000E+02    0.2579233899E-04    0.6164297256E+00    0.1533082009E-03    0.1040520836E-03    0.4487166251E-02
    0.9000000000E+02    0.2786894438E-04    0.6324279115E+00    0.1789331277E-03    0.1321189487E-03    0.4494206706E-02
    0.1100000000E+03    0.3011038664E-04    0.6430486125E+00    0.2061047315E-03    0.1603021400E-03    0.4497876378E-02
    0.1300000000E+03    0.3249985000E-04    0.6506129696E+00    0.2344536345E-03    0.1887064012E-03    0.4499520448E-02
    0.1500000000E+03    0.3501907642E-04    0.6562742777E+00    0.2637685089E-03    0.2174055342E-03    0.4499826455E-02
    0.1700000000E+03    0.3765361276E-04    0.6606704076E+00    0.2939274974E-03    0.2464560463E-03    0.4499184592E-02
    0.1900000000E+03    0.4039285368E-04    0.6641828084E+00    0.3248605322E-03    0.2759039966E-03    0.4497833643E-02
    0.2100000000E+03    0.4322924563E-04    0.6670535918E+00    0.3565287372E-03    0.3057887994E-03    0.4495928242E-02
    0.2300000000E+03    0.4615752659E-04    0.6694438306E+00    0.3889128197E-03    0.3361455044E-03    0.4493572990E-02
    0.2500000000E+03    0.4917414146E-04    0.6714648474E+00    0.4220062875E-03    0.3670062476E-03    0.4490841097E-02
    0.2700000000E+03    0.5227681752E-04    0.6731960448E+00    0.4558113507E-03    0.3984012214E-03    0.4487785192E-02
    0.2900000000E+03    0.5546426061E-04    0.6746955813E+00    0.4903363699E-03    0.4303593508E-03    0.4484443906E-02
    0.3100000000E+03    0.5873593751E-04    0.6760070307E+00    0.5255942285E-03    0.4629087831E-03    0.4480846039E-02
    0.3300000000E+03    0.6209191919E-04    0.6771636838E+00    0.5616012724E-03    0.4960772547E-03    0.4477013304E-02
    0.3500000000E+03    0.6553276695E-04    0.6781914131E+00    0.5983766107E-03    0.5298923751E-03    0.4472962170E-02
    0.3700000000E+03    0.6905944913E-04    0.6791106297E+00    0.6359416497E-03    0.5643818531E-03    0.4468705146E-02
    0.3900000000E+03    0.7267327993E-04    0.6799376526E+00    0.6743197837E-03    0.5995736834E-03    0.4464251688E-02
    0.4100000000E+03    0.7637587414E-04    0.6806856848E+00    0.7135361911E-03    0.6354963040E-03    0.4459608855E-02
    0.4300000000E+03    0.8016911389E-04    0.6813655231E+00    0.7536177054E-03    0.6721787336E-03    0.4454781788E-02
    0.4500000000E+03    0.8405512424E-04    0.6819860829E+00    0.7945927388E-03    0.7096506941E-03    0.4449774070E-02
    0.4700000000E+03    0.8803625559E-04    0.6825547901E+00    0.8364912442E-03    0.7479427233E-03    0.4444587993E-02
    0.4900000000E+03    0.9211507131E-04    0.6830778804E+00    0.8793447062E-03    0.7870862800E-03    0.4439224770E-02
    0.1000000000E+03    0.2896993507E-04    0.6382254493E+00    0.1923534732E-03    0.1461884956E-03    0.4496356526E-02
    0.3000000000E+03    0.5708957805E-04    0.6753725343E+00    0.5078727442E-03    0.4465584146E-03    0.4482675547E-02
    0.5000000000E+03    0.9419196801E-04    0.6833239999E+00    0.9011398065E-03    0.8069874889E-03    0.4436476849E-02
    0.7000000000E+03    0.1416562849E-03    0.6867874576E+00    0.1396271573E-02    0.1258444443E-02    0.4371881663E-02
    0.9000000000E+03    0.2035253880E-03    0.6887256173E+00    0.2037802905E-02    0.1842976715E-02    0.4285855713E-02
    0.1100000000E+04    0.2866116146E-03    0.6899638873E+00    0.2897326601E-02    0.2626556276E-02    0.4170256951E-02
    0.1300000000E+04    0.4023977970E-03    0.6908231788E+00    0.4094417472E-02    0.3719047182E-02    0.4010725875E-02
    0.1500000000E+04    0.5708347368E-03    0.6914542465E+00    0.5836610645E-02    0.5311302450E-02    0.3782617286E-02
    0.1700000000E+04    0.8269437425E-03    0.6919372614E+00    0.8488887391E-02    0.7739828855E-02    0.3444300973E-02
    0.1900000000E+04    0.1227248867E-02    0.6923187885E+00    0.1264321618E-01    0.1155328631E-01    0.2933916180E-02
    0.2100000000E+04    0.1827303342E-02    0.6926277242E+00    0.1889216110E-01    0.1731115302E-01    0.2208941511E-02
    0.2300000000E+04    0.2560032625E-02    0.6928829494E+00    0.2656987272E-01    0.2443108849E-01    0.1401438133E-02
    0.2500000000E+04    0.3179081218E-02    0.6930973219E+00    0.3313433238E-01    0.3059322841E-01    0.8320855140E-03
    0.2700000000E+04    0.3576793488E-02    0.6932799009E+00    0.3744528822E-01    0.3472890636E-01    0.5817818958E-03
    0.2900000000E+04    0.3840367436E-02    0.6934372525E+00    0.4038595564E-01    0.3762860751E-01    0.4991803364E-03
    0.3100000000E+04    0.4048194821E-02    0.6935742526E+00    0.4276323364E-01    0.4002707554E-01    0.4754642781E-03
    0.3300000000E+04    0.4232813659E-02    0.6936945972E+00    0.4491354504E-01    0.4223216788E-01    0.4696481424E-03
    0.3500000000E+04    0.4405241037E-02    0.6938011390E+00    0.4695068433E-01    0.4434798100E-01    0.4690261229E-03
    0.3700000000E+04    0.4569137476E-02    0.6938961151E+00    0.4891198068E-01    0.4640826910E-01    0.4698658379E-03
    0.3900000000E+04    0.4725845657E-02    0.6939813042E+00    0.5081060068E-01    0.4842448351E-01    0.4710843530E-03
    0.4100000000E+04    0.4875985174E-02    0.6940581385E+00    0.5265217940E-01    0.5040112289E-01    0.4723693348E-03
    0.4300000000E+04    0.5019942914E-02    0.6941277839E+00    0.5443995477E-01    0.5234049247E-01    0.4736327453E-03
    0.4500000000E+04    0.5158023599E-02    0.6941911994E+00    0.5617634814E-01    0.5424417371E-01    0.4748519859E-03
    0.4700000000E+04    0.5290496595E-02    0.6942491807E+00    0.5786345548E-01    0.5611348127E-01    0.4760234337E-03
    0.4900000000E+04    0.5417610970E-02    0.6943023938E+00    0.5950320377E-01    0.5794960745E-01    0.4771487708E-03
    0.1000000000E+04    0.2418409904E-03    0.6894062171E+00    0.2434314536E-02    0.2204371092E-02    0.4232470584E-02
    0.3000000000E+04    0.3948447076E-02    0.6935080425E+00    0.4161605459E-01    0.3886400466E-01    0.4835619037E-03
    0.5000000000E+04    0.5479232328E-02    0.6943273913E+00    0.6030588807E-01    0.5885557909E-01    0.4776950636E-03
    0.7000000000E+04    0.6480908819E-02    0.6946761786E+00    0.7426706234E-01    0.7547725217E-01    0.4868559440E-03
    0.9000000000E+04    0.7148348720E-02    0.6948684315E+00    0.8507757866E-01    0.8977266854E-01    0.4937809744E-03
    0.1100000000E+05    0.7589769302E-02    0.6949897512E+00    0.9361803372E-01    0.1023098417E+00    0.4993664143E-03
    0.1300000000E+05    0.7874298609E-02    0.6950730105E+00    0.1004727033E+00    0.1134776339E+00    0.5040563253E-03
    0.1500000000E+05    0.8047672694E-02    0.6951335194E+00    0.1060439448E+00    0.1235522079E+00    0.5081039551E-03
    0.1700000000E+05    0.8141038298E-02    0.6951793653E+00    0.1106175405E+00    0.1327357689E+00    0.5116677280E-03
    0.1900000000E+05    0.8176123588E-02    0.6952152193E+00    0.1144018424E+00    0.1411802414E+00    0.5148534915E-03
    0.2100000000E+05    0.8168396339E-02    0.6952439659E+00    0.1175521820E+00    0.1490023230E+00    0.5177355434E-03
    0.2300000000E+05    0.8129058063E-02    0.6952674813E+00    0.1201866211E+00    0.1562933844E+00    0.5203680808E-03
    0.2500000000E+05    0.8066339698E-02    0.6952870382E+00    0.1223964202E+00    0.1631261728E+00    0.5227918768E-03
    0.2700000000E+05    0.7986364689E-02    0.6953035297E+00    0.1242531776E+00    0.1695594685E+00    0.5250383913E-03
    0.2900000000E+05    0.7893736591E-02    0.6953176007E+00    0.1258138101E+00    0.1756413917E+00    0.5271324173E-03
    0.3100000000E+05    0.7791946911E-02    0.6953297285E+00    0.1271240977E+00    0.1814117997E+00    0.5290938469E-03
    0.3300000000E+05    0.7683663062E-02    0.6953402736E+00    0.1282212531E+00    0.1869040538E+00    0.5309388885E-03
    0.3500000000E+05    0.7570934819E-02    0.6953495132E+00    0.1291358140E+00    0.1921463449E+00    0.5326809261E-03
    0.3700000000E+05    0.7455344387E-02    0.6953576642E+00    0.1298930571E+00    0.1971627002E+00    0.5343311430E-03
    0.3900000000E+05    0.7338116840E-02    0.6953648983E+00    0.1305140690E+00    0.2019737600E+00    0.5358989800E-03
    0.4100000000E+05    0.7220202306E-02    0.6953713534E+00    0.1310165676E+00    0.2065973822E+00    0.5373924817E-03
    0.4300000000E+05    0.7102337771E-02    0.6953771413E+00    0.1314155378E+00    0.2110491199E+00    0.5388185597E-03
    0.4500000000E+05    0.6985093955E-02    0.6953823539E+00    0.1317237298E+00    0.2153426009E+00    0.5401831965E-03
    0.4700000000E+05    0.6868911199E-02    0.6953870669E+00    0.1319520532E+00    0.2194898332E+00    0.5414916058E-03
    0.4900000000E+05    0.6754127127E-02    0.6953913437E+00    0.1321098901E+00    0.2235014524E+00    0.5427483590E-03
    0.1000000000E+05    0.7392303792E-02    0.6949352858E+00    0.8958976139E-01    0.9623349053E-01    0.4967071481E-03
    0.3000000000E+05    0.7843803666E-02    0.6953238827E+00    0.1264977453E+00    0.1785633151E+00    0.5281286188E-03
    0.5000000000E+05    0.6697342404E-02    0.6953933354E+00    0.1321649537E+00    0.2254594061E+00    0.5433586431E-03
    0.7000000000E+05    0.5669836982E-02    0.6954196131E+00    0.1310488645E+00    0.2593330821E+00    0.5536215246E-03
    0.9000000000E+05    0.4851910211E-02    0.6954322571E+00    0.1278096975E+00    0.2861681248E+00    0.5614104709E-03
    0.1100000000E+06    0.4204183067E-02    0.6954390463E+00    0.1238653810E+00    0.3084813827E+00    0.5677071619E-03
    0.1300000000E+06    0.3684576632E-02    0.6954428679E+00    0.1197490625E+00    0.3275941372E+00    0.5730021673E-03
    0.1500000000E+06    0.3261214070E-02    0.6954450205E+00    0.1156831586E+00    0.3442983188E+00    0.5775767814E-03
    0.1700000000E+06    0.2911144385E-02    0.6954461659E+00    0.1117633535E+00    0.3591121970E+00    0.5816076294E-03
    0.1900000000E+06    0.2617834631E-02    0.6954466721E+00    0.1080285508E+00    0.3723967370E+00    0.5852130386E-03
    0.2100000000E+06    0.2369209586E-02    0.6954467577E+00    0.1044907275E+00    0.3844152292E+00    0.5884762384E-03
    0.2300000000E+06    0.2156298287E-02    0.6954465590E+00    0.1011487569E+00    0.3953666578E+00    0.5914580391E-03
    0.2500000000E+06    0.1972321332E-02    0.6954461648E+00    0.9799519067E-01    0.4054056810E+00    0.5942042487E-03
    0.2700000000E+06    0.1812072762E-02    0.6954456344E+00    0.9501971976E-01    0.4146552590E+00    0.5967502502E-03
    0.2900000000E+06    0.1671495761E-02    0.6954450086E+00    0.9221098193E-01    0.4232149893E+00    0.5991239529E-03
    0.3100000000E+06    0.1547386577E-02    0.6954443162E+00    0.8955751054E-01    0.4311668147E+00    0.6013477665E-03
    0.3300000000E+06    0.1437184418E-02    0.6954435777E+00    0.8704822401E-01    0.4385790502E+00    0.6034399625E-03
    0.3500000000E+06    0.1338819918E-02    0.6954428081E+00    0.8467266428E-01    0.4455093006E+00    0.6054156376E-03
    0.3700000000E+06    0.1250604141E-02    0.6954420183E+00    0.8242109669E-01    0.4520066211E+00    0.6072874116E-03
    0.3900000000E+06    0.1171146134E-02    0.6954412165E+00    0.8028453360E-01    0.4581131490E+00    0.6090659434E-03
    0.4100000000E+06    0.1099290859E-02    0.6954404086E+00    0.7825471675E-01    0.4638653565E+00    0.6107603187E-03
    0.4300000000E+06    0.1034071897E-02    0.6954395992E+00    0.7632407838E-01    0.4692950280E+00    0.6123783462E-03
    0.4500000000E+06    0.9746750101E-03    0.6954387917E+00    0.7448569260E-01    0.4744300323E+00    0.6139267874E-03
    0.4700000000E+06    0.9204097626E-03    0.6954379888E+00    0.7273322354E-01    0.4792949394E+00    0.6154115361E-03
    0.4900000000E+06    0.8706872187E-03    0.6954371922E+00    0.7106087384E-01    0.4839115196E+00    0.6168377619E-03
    0.1000000000E+06    0.4509624864E-02    0.6954361468E+00    0.1258814865E+00    0.2977903503E+00    0.5647078620E-03
    0.3000000000E+06    0.1607555801E-02    0.6954446693E+00    0.9086554322E-01    0.4272623396E+00    0.6002533697E-03
    0.5000000000E+06    0.8473687418E-03    0.6954367968E+00    0.7025306722E-01    0.4861328266E+00    0.6175303747E-03
    0.7000000000E+06    0.5281010292E-03    0.6954294178E+00    0.5723028322E-01    0.5212716240E+00    0.6291804352E-03
    0.9000000000E+06    0.3621759677E-03    0.6954230788E+00    0.4827097914E-01    0.5448499395E+00    0.6380248389E-03
    0.1100000000E+07    0.2644447374E-03    0.6954176063E+00    0.4172991757E-01    0.5618254590E+00    0.6451759907E-03
    0.1300000000E+07    0.2018642978E-03    0.6954128129E+00    0.3674416567E-01    0.5746502497E+00    0.6511901776E-03
    0.1500000000E+07    0.1593085162E-03    0.6954085548E+00    0.3281792063E-01    0.5846880886E+00    0.6563865132E-03
    0.1700000000E+07    0.1290221533E-03    0.6954047264E+00    0.2964598655E-01    0.5927613997E+00    0.6609654274E-03
    0.1900000000E+07    0.1066836062E-03    0.6954012491E+00    0.2703016270E-01    0.5993968139E+00    0.6650612230E-03
    0.2100000000E+07    0.8972511578E-04    0.6953980639E+00    0.2483611025E-01    0.6049476459E+00    0.6687683807E-03
    0.2300000000E+07    0.7654105363E-04    0.6953951250E+00    0.2296953775E-01    0.6096599717E+00    0.6721559403E-03
    0.2500000000E+07    0.6608465126E-04    0.6953923967E+00    0.2136230840E-01    0.6137105373E+00    0.6752759138E-03
    0.2700000000E+07    0.5764934726E-04    0.6953898503E+00    0.1996395764E-01    0.6172296127E+00    0.6781684793E-03
    0.2900000000E+07    0.5074397195E-04    0.6953874628E+00    0.1873631192E-01    0.6203153490E+00    0.6808653307E-03
    0.3100000000E+07    0.4501835030E-04    0.6953852151E+00    0.1764996141E-01    0.6230431142E+00    0.6833919179E-03
    0.3300000000E+07    0.4021729177E-04    0.6953830914E+00    0.1668188168E-01    0.6254717478E+00    0.6857689922E-03
    0.3500000000E+07    0.3615121526E-04    0.6953810786E+00    0.1581379012E-01    0.6276478599E+00    0.6880136997E-03
    0.3700000000E+07    0.3267686602E-04    0.6953791653E+00    0.1503098525E-01    0.6296088536E+00    0.6901403742E-03
    0.3900000000E+07    0.2968434367E-04    0.6953773420E+00    0.1432151100E-01    0.6313850922E+00    0.6921611223E-03
    0.4100000000E+07    0.2708818383E-04    0.6953756004E+00    0.1367554462E-01    0.6330014822E+00    0.6940862643E-03
    0.4300000000E+07    0.2482110625E-04    0.6953739333E+00    0.1308494132E-01    0.6344786464E+00    0.6959246701E-03
    0.4500000000E+07    0.2282955475E-04    0.6953723345E+00    0.1254289080E-01    0.6358338071E+00    0.6976840200E-03
    0.4700000000E+07    0.2107046475E-04    0.6953707984E+00    0.1204365477E-01    0.6370814594E+00    0.6993710094E-03
    0.4900000000E+07    0.1950888638E-04    0.6953693203E+00    0.1158236411E-01    0.6382338908E+00    0.7009915104E-03
    0.1000000000E+07    0.3074793173E-03    0.6954202469E+00    0.4476382288E-01    0.5539743423E+00    0.6417695695E-03
    0.3000000000E+07    0.4775146189E-04    0.6953863225E+00    0.1817704135E-01    0.6217199711E+00    0.6821485148E-03
    0.5000000000E+07    0.1879301580E-04    0.6953686016E+00    0.1136462462E-01    0.6387777361E+00    0.7017784705E-03
    0.7000000000E+07    0.1003747495E-04    0.6953564353E+00    0.8252985026E-02    0.6465413006E+00    0.7150156617E-03
    0.9000000000E+07    0.6256276009E-05    0.6953471201E+00    0.6472946678E-02    0.6509763510E+00    0.7250651242E-03
    0.1100000000E+08    0.4281989426E-05    0.6953395503E+00    0.5321296096E-02    0.6538438709E+00    0.7331906876E-03
    0.1300000000E+08    0.3120897065E-05    0.6953331626E+00    0.4515625665E-02    0.6558492735E+00    0.7400243909E-03
    0.1500000000E+08    0.2379788786E-05    0.6953276301E+00    0.3920608409E-02    0.6573301038E+00    0.7459288122E-03
    0.1700000000E+08    0.1877553100E-05    0.6953227460E+00    0.3463307103E-02    0.6584681268E+00    0.7511316844E-03
    0.1900000000E+08    0.1521260274E-05    0.6953183708E+00    0.3100948428E-02    0.6593698744E+00    0.7557856074E-03
    0.2100000000E+08    0.1259203530E-05    0.6953144060E+00    0.2806797025E-02    0.6601019072E+00    0.7599979344E-03
    0.2300000000E+08    0.1060736445E-05    0.6953107794E+00    0.2563286093E-02    0.6607079472E+00    0.7638471121E-03
    0.2500000000E+08    0.9067498477E-06    0.6953074365E+00    0.2358399229E-02    0.6612178963E+00    0.7673922393E-03
    0.2700000000E+08    0.7848215848E-06    0.6953043349E+00    0.2183639827E-02    0.6616528945E+00    0.7706789691E-03
