  Pressure (Pa) 23mC5-500 (mol/kg) 24mC5-500 (mol/kg) 2mC6-500 (mol/kg) 3mC6-500 (mol/kg) C7-500 (mol/kg)
    0.1000000000E+01    0.2559951422E-05    0.2321333153E+00    0.2270239920E-05    0.1675709435E-05    0.4178218419E-02
    0.3000000000E+01    0.4211780707E-05    0.4177345183E+00    0.3580015336E-05    0.4254359570E-05    0.4200688234E-02
    0.5000000000E+01    0.4811189622E-05    0.4972496650E+00    0.4117875441E-05    0.6615837886E-05    0.4209084788E-02
    0.7000000000E+01    0.5155992088E-05    0.5414175658E+00    0.4541410965E-05    0.8871520706E-05    0.4213668151E-02
    0.9000000000E+01    0.5420795226E-05    0.5695217731E+00    0.4957038196E-05    0.1105892451E-04    0.4216571916E-02
    0.1100000000E+02    0.5658821498E-05    0.5889773356E+00    0.5385116581E-05    0.1319681744E-04    0.4218573926E-02
    0.1300000000E+02    0.5889225201E-05    0.6032441247E+00    0.5827823866E-05    0.1529637190E-04    0.4220031336E-02
    0.1500000000E+02    0.6119471437E-05    0.6141536633E+00    0.6283287582E-05    0.1736495213E-04    0.4221132612E-02
    0.1700000000E+02    0.6352489185E-05    0.6227662340E+00    0.6749037698E-05    0.1940775229E-04    0.4221987145E-02
    0.1900000000E+02    0.6589309942E-05    0.6297381680E+00    0.7222861161E-05    0.2142861798E-04    0.4222663043E-02
    0.2100000000E+02    0.6830141511E-05    0.6354974898E+00    0.7702958444E-05    0.2343050222E-04    0.4223205055E-02
    0.2300000000E+02    0.7074835556E-05    0.6403352468E+00    0.8187913215E-05    0.2541573831E-04    0.4223643868E-02
    0.2500000000E+02    0.7323100295E-05    0.6444562442E+00    0.8676622140E-05    0.2738621259E-04    0.4224001277E-02
    0.2700000000E+02    0.7574599340E-05    0.6480087862E+00    0.9168226698E-05    0.2934347909E-04    0.4224293216E-02
    0.2900000000E+02    0.7828997373E-05    0.6511029026E+00    0.9662056985E-05    0.3128883837E-04    0.4224531622E-02
    0.3100000000E+02    0.8085980283E-05    0.6538219480E+00    0.1015758796E-04    0.3322339353E-04    0.4224725629E-02
    0.3300000000E+02    0.8345262842E-05    0.6562302236E+00    0.1065440610E-04    0.3514809102E-04    0.4224882353E-02
    0.3500000000E+02    0.8606590340E-05    0.6583781269E+00    0.1115218415E-04    0.3706375103E-04    0.4225007428E-02
    0.3700000000E+02    0.8869737379E-05    0.6603057171E+00    0.1165066203E-04    0.3897109059E-04    0.4225105376E-02
    0.3900000000E+02    0.9134505449E-05    0.6620452367E+00    0.1214963225E-04    0.4087074145E-04    0.4225179873E-02
    0.4100000000E+02    0.9400720108E-05    0.6636229291E+00    0.1264892882E-04    0.4276326406E-04    0.4225233939E-02
    0.4300000000E+02    0.9668228153E-05    0.6650603722E+00    0.1314841866E-04    0.4464915870E-04    0.4225270084E-02
    0.4500000000E+02    0.9936894980E-05    0.6663754711E+00    0.1364799499E-04    0.4652887448E-04    0.4225290407E-02
    0.4700000000E+02    0.1020660221E-04    0.6675832071E+00    0.1414757214E-04    0.4840281658E-04    0.4225296685E-02
    0.4900000000E+02    0.1047724557E-04    0.6686962118E+00    0.1464708146E-04    0.5027135224E-04    0.4225290427E-02
    0.1000000000E+02    0.5541543632E-05    0.5800603243E+00    0.5169213642E-05    0.1213324393E-04    0.4217657685E-02
    0.3000000000E+02    0.7957184261E-05    0.6525049136E+00    0.9909638015E-05    0.3225740404E-04    0.4224633691E-02
    0.5000000000E+02    0.1061288913E-04    0.6692206059E+00    0.1489679308E-04    0.5120369830E-04    0.4225283008E-02
    0.7000000000E+02    0.1335758750E-04    0.6766493209E+00    0.1987909581E-04    0.6963439563E-04    0.4224711260E-02
    0.9000000000E+02    0.1613712917E-04    0.6808479329E+00    0.2483375977E-04    0.8777677184E-04    0.4223665169E-02
    0.1100000000E+03    0.1893381473E-04    0.6835469025E+00    0.2976502776E-04    0.1057456947E-03    0.4222377445E-02
    0.1300000000E+03    0.2174137461E-04    0.6854279076E+00    0.3468053133E-04    0.1236101629E-03    0.4220946349E-02
    0.1500000000E+03    0.2455775067E-04    0.6868138416E+00    0.3958740096E-04    0.1414161023E-03    0.4219421120E-02
    0.1700000000E+03    0.2738260493E-04    0.6878774113E+00    0.4449168642E-04    0.1591962773E-03    0.4217829324E-02
    0.1900000000E+03    0.3021633908E-04    0.6887193610E+00    0.4939843190E-04    0.1769752766E-03    0.4216187635E-02
    0.2100000000E+03    0.3305967235E-04    0.6894024171E+00    0.5431185974E-04    0.1947722876E-03    0.4214506730E-02
    0.2300000000E+03    0.3591344874E-04    0.6899676755E+00    0.5923554249E-04    0.2126027579E-03    0.4212793742E-02
    0.2500000000E+03    0.3877854624E-04    0.6904431855E+00    0.6417254162E-04    0.2304794480E-03    0.4211053599E-02
    0.2700000000E+03    0.4165583389E-04    0.6908487461E+00    0.6912551471E-04    0.2484131309E-03    0.4209289791E-02
    0.2900000000E+03    0.4454615235E-04    0.6911987318E+00    0.7409679770E-04    0.2664130723E-03    0.4207504841E-02
    0.3100000000E+03    0.4745030623E-04    0.6915038312E+00    0.7908846790E-04    0.2844873724E-03    0.4205700599E-02
    0.3300000000E+03    0.5036906229E-04    0.6917721572E+00    0.8410239286E-04    0.3026432144E-03    0.4203878435E-02
    0.3500000000E+03    0.5330315059E-04    0.6920099787E+00    0.8914026850E-04    0.3208870497E-03    0.4202039369E-02
    0.3700000000E+03    0.5625326707E-04    0.6922222164E+00    0.9420364928E-04    0.3392247390E-03    0.4200184162E-02
    0.3900000000E+03    0.5922007664E-04    0.6924127867E+00    0.9929397217E-04    0.3576616605E-03    0.4198313379E-02
    0.4100000000E+03    0.6220421634E-04    0.6925848456E+00    0.1044125761E-03    0.3762027956E-03    0.4196427434E-02
    0.4300000000E+03    0.6520629857E-04    0.6927409645E+00    0.1095607175E-03    0.3948527967E-03    0.4194526625E-02
    0.4500000000E+03    0.6822691390E-04    0.6928832596E+00    0.1147395835E-03    0.4136160419E-03    0.4192611156E-02
    0.4700000000E+03    0.7126663384E-04    0.6930134884E+00    0.1199503026E-03    0.4324966790E-03    0.4190681160E-02
    0.4900000000E+03    0.7432601325E-04    0.6931331229E+00    0.1251939531E-03    0.4514986628E-03    0.4188736710E-02
    0.1000000000E+03    0.1753386720E-04    0.6823297370E+00    0.2730184633E-04    0.9677789039E-04    0.4223043692E-02
    0.3000000000E+03    0.4599645106E-04    0.6913563349E+00    0.7658996326E-04    0.2754404595E-03    0.4206605036E-02
    0.5000000000E+03    0.7586324462E-04    0.6931893630E+00    0.1278284530E-03    0.4610463501E-03    0.4187759075E-02
    0.7000000000E+03    0.1077664952E-03    0.6939774745E+00    0.1824843941E-03    0.6592357158E-03    0.4167435600E-02
    0.9000000000E+03    0.1422085921E-03    0.6944158321E+00    0.2414836966E-03    0.8733856293E-03    0.4145538036E-02
    0.1100000000E+04    0.1796762705E-03    0.6946949084E+00    0.3056834689E-03    0.1106616295E-02    0.4121844857E-02
    0.1300000000E+04    0.2206965675E-03    0.6948881290E+00    0.3759997064E-03    0.1362269517E-02    0.4096078165E-02
    0.1500000000E+04    0.2658711643E-03    0.6950298052E+00    0.4534737909E-03    0.1644151956E-02    0.4067907566E-02
    0.1700000000E+04    0.3159067486E-03    0.6951381172E+00    0.5393272839E-03    0.1956735271E-02    0.4036940952E-02
    0.1900000000E+04    0.3716482773E-03    0.6952235967E+00    0.6350204077E-03    0.2305370447E-02    0.4002709557E-02
    0.2100000000E+04    0.4341193059E-03    0.6952927659E+00    0.7423223472E-03    0.2696546149E-02    0.3964647991E-02
    0.2300000000E+04    0.5045732070E-03    0.6953498794E+00    0.8634003152E-03    0.3138216676E-02    0.3922068282E-02
    0.2500000000E+04    0.5845597146E-03    0.6953978310E+00    0.1000935229E-02    0.3640228499E-02    0.3874126154E-02
    0.2700000000E+04    0.6760124250E-03    0.6954386574E+00    0.1158273890E-02    0.4214882110E-02    0.3819777122E-02
    0.2900000000E+04    0.7813645152E-03    0.6954738334E+00    0.1339630431E-02    0.4877676718E-02    0.3757719301E-02
    0.3100000000E+04    0.9037018055E-03    0.6955044533E+00    0.1550353117E-02    0.5648297979E-02    0.3686319303E-02
    0.3300000000E+04    0.1046963738E-02    0.6955313462E+00    0.1797275269E-02    0.6551919617E-02    0.3603517613E-02
    0.3500000000E+04    0.1216202150E-02    0.6955551515E+00    0.2089168220E-02    0.7620887710E-02    0.3506711518E-02
    0.3700000000E+04    0.1417900516E-02    0.6955763705E+00    0.2437302217E-02    0.8896814439E-02    0.3392619708E-02
    0.3900000000E+04    0.1660332462E-02    0.6955954015E+00    0.2856080708E-02    0.1043296237E-01    0.3257148683E-02
    0.4100000000E+04    0.1953876127E-02    0.6956125651E+00    0.3363606790E-02    0.1229641242E-01    0.3095318687E-02
    0.4300000000E+04    0.2311058960E-02    0.6956281223E+00    0.3981795943E-02    0.1456861357E-01    0.2901386276E-02
    0.4500000000E+04    0.2745826611E-02    0.6956422877E+00    0.4735162281E-02    0.1734112043E-01    0.2669446155E-02
    0.4700000000E+04    0.3271092467E-02    0.6956552392E+00    0.5646642361E-02    0.2070049407E-01    0.2394995502E-02
    0.4900000000E+04    0.3893305466E-02    0.6956671256E+00    0.6728246688E-02    0.2469414860E-01    0.2078015113E-02
    0.1000000000E+04    0.1605326844E-03    0.6945693170E+00    0.2728785484E-03    0.9874154757E-03    0.4133932092E-02
    0.3000000000E+04    0.8401865326E-03    0.6954896559E+00    0.1440933503E-02    0.5248082010E-02    0.3723304544E-02
    0.5000000000E+04    0.4238883075E-02    0.6956727095E+00    0.7329918427E-02    0.2691936000E-01    0.1905900283E-02
    0.7000000000E+04    0.9269306292E-02    0.6957506394E+00    0.1631260872E-01    0.6100992571E-01    0.1131377788E-03
    0.9000000000E+04    0.1104117924E-01    0.6957936321E+00    0.1981117469E-01    0.7558785371E-01    0.8967274713E-04
    0.1100000000E+05    0.1247451985E-01    0.6958207947E+00    0.2281095888E-01    0.8873134865E-01    0.9056230492E-04
    0.1300000000E+05    0.1367096305E-01    0.6958394616E+00    0.2546552452E-01    0.1009295487E+00    0.9140749561E-04
    0.1500000000E+05    0.1466997241E-01    0.6958530482E+00    0.2782500734E-01    0.1123034128E+00    0.9213817266E-04
    0.1700000000E+05    0.1550322418E-01    0.6958633589E+00    0.2993009856E-01    0.1229517621E+00    0.9278194892E-04
    0.1900000000E+05    0.1619654940E-01    0.6958714359E+00    0.3181447016E-01    0.1329574006E+00    0.9335774266E-04
    0.2100000000E+05    0.1677117547E-01    0.6958779232E+00    0.3350621629E-01    0.1423902802E+00    0.9387886042E-04
    0.2300000000E+05    0.1724466888E-01    0.6958832395E+00    0.3502895364E-01    0.1513099344E+00    0.9435502266E-04
    0.2500000000E+05    0.1763166003E-01    0.6958876692E+00    0.3640267274E-01    0.1597673778E+00    0.9479355060E-04
    0.2700000000E+05    0.1794440580E-01    0.6958914117E+00    0.3764440332E-01    0.1678066028E+00    0.9520009861E-04
    0.2900000000E+05    0.1819323044E-01    0.6958946113E+00    0.3876873904E-01    0.1754657703E+00    0.9557912627E-04
    0.3100000000E+05    0.1838687378E-01    0.6958973746E+00    0.3978825512E-01    0.1827781653E+00    0.9593421413E-04
    0.3300000000E+05    0.1853276868E-01    0.6958997824E+00    0.4071384327E-01    0.1897729686E+00    0.9626828128E-04
    0.3500000000E+05    0.1863726345E-01    0.6959018966E+00    0.4155498244E-01    0.1964758861E+00    0.9658373945E-04
    0.3700000000E+05    0.1870580162E-01    0.6959037658E+00    0.4231995916E-01    0.2029096652E+00    0.9688260461E-04
    0.3900000000E+05    0.1874306800E-01    0.6959054285E+00    0.4301604805E-01    0.2090945202E+00    0.9716657937E-04
    0.4100000000E+05    0.1875310816E-01    0.6959069157E+00    0.4364966065E-01    0.2150484866E+00    0.9743711500E-04
    0.4300000000E+05    0.1873942668E-01    0.6959082522E+00    0.4422646885E-01    0.2207877163E+00    0.9769545874E-04
    0.4500000000E+05    0.1870506837E-01    0.6959094589E+00    0.4475150781E-01    0.2263267258E+00    0.9794269051E-04
    0.4700000000E+05    0.1865268578E-01    0.6959105526E+00    0.4522926216E-01    0.2316786059E+00    0.9817975166E-04
    0.4900000000E+05    0.1858459555E-01    0.6959115477E+00    0.4566373869E-01    0.2368551993E+00    0.9840746781E-04
    0.1000000000E+05    0.1179034943E-01    0.6958085959E+00    0.2135789473E-01    0.8228673937E-01    0.9009103276E-04
    0.3000000000E+05    0.1829645743E-01    0.6958960419E+00    0.3929088279E-01    0.1791634024E+00    0.9575946679E-04
    0.5000000000E+05    0.1854530396E-01    0.6959120120E+00    0.4586588454E-01    0.2393811607E+00    0.9851805245E-04
    0.7000000000E+05    0.1731135356E-01    0.6959182194E+00    0.4833677417E-01    0.2828481951E+00    0.1003781129E-03
    0.9000000000E+05    0.1576214749E-01    0.6959213116E+00    0.4896457625E-01    0.3166712984E+00    0.1017902036E-03
    0.1100000000E+06    0.1424245831E-01    0.6959230504E+00    0.4866845694E-01    0.3441781294E+00    0.1029319496E-03
    0.1300000000E+06    0.1285501019E-01    0.6959240941E+00    0.4788444699E-01    0.3672044707E+00    0.1038921713E-03
    0.1500000000E+06    0.1162169604E-01    0.6959247412E+00    0.4684061915E-01    0.3868789606E+00    0.1047218189E-03
    0.1700000000E+06    0.1053640027E-01    0.6959251449E+00    0.4566417553E-01    0.4039499660E+00    0.1054528924E-03
    0.1900000000E+06    0.9584066622E-02    0.6959253912E+00    0.4442909193E-01    0.4189417246E+00    0.1061068342E-03
    0.2100000000E+06    0.8747891264E-02    0.6959255316E+00    0.4317948248E-01    0.4322369489E+00    0.1066987284E-03
    0.2300000000E+06    0.8011994412E-02    0.6959255985E+00    0.4194192879E-01    0.4441241074E+00    0.1072395975E-03
    0.2500000000E+06    0.7362291435E-02    0.6959256134E+00    0.4073236448E-01    0.4548262249E+00    0.1077377454E-03
    0.2700000000E+06    0.6786640480E-02    0.6959255907E+00    0.3956009399E-01    0.4645193249E+00    0.1081995866E-03
    0.2900000000E+06    0.6274711754E-02    0.6959255405E+00    0.3843022286E-01    0.4733447331E+00    0.1086301811E-03
    0.3100000000E+06    0.5817766054E-02    0.6959254699E+00    0.3734516939E-01    0.4814175673E+00    0.1090335921E-03
    0.3300000000E+06    0.5408420788E-02    0.6959253842E+00    0.3630562640E-01    0.4888327639E+00    0.1094131325E-03
    0.3500000000E+06    0.5040434175E-02    0.6959252874E+00    0.3531118397E-01    0.4956694610E+00    0.1097715397E-03
    0.3700000000E+06    0.4708517470E-02    0.6959251822E+00    0.3436073825E-01    0.5019942517E+00    0.1101111023E-03
    0.3900000000E+06    0.4408176235E-02    0.6959250708E+00    0.3345276238E-01    0.5078636422E+00    0.1104337529E-03
    0.4100000000E+06    0.4135578119E-02    0.6959249550E+00    0.3258548716E-01    0.5133259398E+00    0.1107411394E-03
    0.4300000000E+06    0.3887443546E-02    0.6959248360E+00    0.3175702160E-01    0.5184227202E+00    0.1110346778E-03
    0.4500000000E+06    0.3660955604E-02    0.6959247149E+00    0.3096543325E-01    0.5231899855E+00    0.1113155944E-03
    0.4700000000E+06    0.3453685816E-02    0.6959245924E+00    0.3020880110E-01    0.5276590845E+00    0.1115849579E-03
    0.4900000000E+06    0.3263532917E-02    0.6959244692E+00    0.2948524994E-01    0.5318574544E+00    0.1118437060E-03
    0.1000000000E+06    0.1498925980E-01    0.6959222963E+00    0.4889793075E-01    0.3310771589E+00    0.1023880834E-03
    0.3000000000E+06    0.6039856578E-02    0.6959255074E+00    0.3788201876E-01    0.4774688734E+00    0.1088350622E-03
    0.5000000000E+06    0.3174295490E-02    0.6959244074E+00    0.2913531172E-01    0.5338627706E+00    0.1119693616E-03
    0.7000000000E+06    0.1952424037E-02    0.6959232076E+00    0.2348116100E-01    0.5643182365E+00    0.1140830007E-03
    0.9000000000E+06    0.1322235481E-02    0.6959221339E+00    0.1961266607E-01    0.5834399378E+00    0.1156876798E-03
    0.1100000000E+07    0.9551949178E-03    0.6959211890E+00    0.1681757479E-01    0.5965712794E+00    0.1169851790E-03
    0.1300000000E+07    0.7227166786E-03    0.6959203521E+00    0.1470938208E-01    0.6061476876E+00    0.1180764100E-03
    0.1500000000E+07    0.5661590062E-03    0.6959196033E+00    0.1306493525E-01    0.6134407528E+00    0.1190192627E-03
    0.1700000000E+07    0.4556810541E-03    0.6959189266E+00    0.1174748717E-01    0.6191799033E+00    0.1198500978E-03
    0.1900000000E+07    0.3747935205E-03    0.6959183097E+00    0.1066890844E-01    0.6238137004E+00    0.1205932805E-03
    0.2100000000E+07    0.3137799282E-03    0.6959177429E+00    0.9769971493E-02    0.6276332069E+00    0.1212659514E-03
    0.2300000000E+07    0.2666116789E-03    0.6959172187E+00    0.9009454156E-02    0.6308355512E+00    0.1218806360E-03
    0.2500000000E+07    0.2293865851E-03    0.6959167312E+00    0.8357805861E-02    0.6335589966E+00    0.1224467707E-03
    0.2700000000E+07    0.1994878760E-03    0.6959162755E+00    0.7793302558E-02    0.6359033884E+00    0.1229716448E-03
    0.2900000000E+07    0.1751072894E-03    0.6959158476E+00    0.7299623414E-02    0.6379426296E+00    0.1234610086E-03
    0.3100000000E+07    0.1549626054E-03    0.6959154443E+00    0.6864273204E-02    0.6397325920E+00    0.1239194796E-03
    0.3300000000E+07    0.1381240051E-03    0.6959150630E+00    0.6477525803E-02    0.6413162983E+00    0.1243508225E-03
    0.3500000000E+07    0.1239038311E-03    0.6959147012E+00    0.6131698824E-02    0.6427274144E+00    0.1247581485E-03
    0.3700000000E+07    0.1117846023E-03    0.6959143570E+00    0.5820644542E-02    0.6439926612E+00    0.1251440580E-03
    0.3900000000E+07    0.1013708236E-03    0.6959140288E+00    0.5539385529E-02    0.6451335174E+00    0.1255107476E-03
    0.4100000000E+07    0.9235600683E-04    0.6959137152E+00    0.5283849255E-02    0.6461674444E+00    0.1258600900E-03
    0.4300000000E+07    0.8449964926E-04    0.6959134148E+00    0.5050671682E-02    0.6471087834E+00    0.1261936943E-03
    0.4500000000E+07    0.7761087554E-04    0.6959131265E+00    0.4837049828E-02    0.6479694224E+00    0.1265129541E-03
    0.4700000000E+07    0.7153662554E-04    0.6959128495E+00    0.4640629637E-02    0.6487592987E+00    0.1268190842E-03
    0.4900000000E+07    0.6615299881E-04    0.6959125828E+00    0.4459419671E-02    0.6494867838E+00    0.1271131501E-03
    0.1000000000E+07    0.1116305717E-02    0.6959216466E+00    0.1811025466E-01    0.5905632615E+00    0.1163671171E-03
    0.3000000000E+07    0.1645703076E-03    0.6959156431E+00    0.7075320198E-02    0.6388658279E+00    0.1236938531E-03
    0.5000000000E+07    0.6368780697E-04    0.6959124530E+00    0.4373978517E-02    0.6498293918E+00    0.1272559570E-03
    0.7000000000E+07    0.3369993909E-04    0.6959102539E+00    0.3159606854E-02    0.6546718987E+00    0.1296581009E-03
    0.9000000000E+07    0.2086405832E-04    0.6959085669E+00    0.2470549826E-02    0.6573985630E+00    0.1314818162E-03
    0.1100000000E+08    0.1420024408E-04    0.6959071943E+00    0.2026950242E-02    0.6591466495E+00    0.1329564230E-03
    0.1300000000E+08    0.1029741828E-04    0.6959060351E+00    0.1717653787E-02    0.6603624454E+00    0.1341966062E-03
    0.1500000000E+08    0.7814414438E-05    0.6959050305E+00    0.1489776519E-02    0.6612567602E+00    0.1352681576E-03
    0.1700000000E+08    0.6136304850E-05    0.6959041433E+00    0.1314959105E-02    0.6619421064E+00    0.1362124011E-03
    0.1900000000E+08    0.4948658162E-05    0.6959033482E+00    0.1176632933E-02    0.6624839997E+00    0.1370570274E-03
    0.2100000000E+08    0.4077005451E-05    0.6959026274E+00    0.1064471981E-02    0.6629231713E+00    0.1378215171E-03
    0.2300000000E+08    0.3418175223E-05    0.6959019679E+00    0.9717071836E-03    0.6632862725E+00    0.1385201053E-03
    0.2500000000E+08    0.2907960697E-05    0.6959013599E+00    0.8937170262E-03    0.6635914732E+00    0.1391635164E-03
    0.2700000000E+08    0.2504693606E-05    0.6959007957E+00    0.8272388856E-03    0.6638515859E+00    0.1397600348E-03
