  Pressure (Pa) 23mC5-500 (mol/kg) 24mC5-500 (mol/kg) 2mC6-500 (mol/kg) 3mC6-500 (mol/kg) C7-500 (mol/kg)
    0.1000000000E+01    0.2782577662E-05    0.1949964903E+00    0.7422167553E-05    0.7998798083E-06    0.4189343837E-02
    0.3000000000E+01    0.4913642210E-05    0.3748930218E+00    0.1247865051E-04    0.2043961395E-05    0.4220985244E-02
    0.5000000000E+01    0.5744987573E-05    0.4597177728E+00    0.1444173844E-04    0.3186390651E-05    0.4235013053E-02
    0.7000000000E+01    0.6193932052E-05    0.5090843820E+00    0.1573812672E-04    0.4279126554E-05    0.4243228706E-02
    0.9000000000E+01    0.6500846692E-05    0.5413825653E+00    0.1688727710E-04    0.5339739376E-05    0.4248675833E-02
    0.1100000000E+02    0.6749072066E-05    0.5641597106E+00    0.1802809443E-04    0.6377036974E-05    0.4252569547E-02
    0.1300000000E+02    0.6972435952E-05    0.5810850239E+00    0.1919891268E-04    0.7396269962E-05    0.4255497929E-02
    0.1500000000E+02    0.7186050514E-05    0.5941569476E+00    0.2040756633E-04    0.8400902969E-05    0.4257782259E-02
    0.1700000000E+02    0.7397055380E-05    0.6045569445E+00    0.2165228891E-04    0.9393381790E-05    0.4259613683E-02
    0.1900000000E+02    0.7608901140E-05    0.6130282725E+00    0.2292860064E-04    0.1037551851E-04    0.4261113419E-02
    0.2100000000E+02    0.7823230048E-05    0.6200619087E+00    0.2423166848E-04    0.1134870549E-04    0.4262362256E-02
    0.2300000000E+02    0.8040763281E-05    0.6259952155E+00    0.2555708290E-04    0.1231404346E-04    0.4263416237E-02
    0.2500000000E+02    0.8261742924E-05    0.6310676601E+00    0.2690105933E-04    0.1327242274E-04    0.4264315530E-02
    0.2700000000E+02    0.8486161347E-05    0.6354539219E+00    0.2826043269E-04    0.1422457708E-04    0.4265089729E-02
    0.2900000000E+02    0.8713883811E-05    0.6392844148E+00    0.2963258493E-04    0.1517112083E-04    0.4265761153E-02
    0.3100000000E+02    0.8944715299E-05    0.6426584734E+00    0.3101535864E-04    0.1611257521E-04    0.4266346972E-02
    0.3300000000E+02    0.9178437225E-05    0.6456530909E+00    0.3240697618E-04    0.1704938759E-04    0.4266860630E-02
    0.3500000000E+02    0.9414827513E-05    0.6483288656E+00    0.3380597012E-04    0.1798194576E-04    0.4267312814E-02
    0.3700000000E+02    0.9653671304E-05    0.6507341442E+00    0.3521112571E-04    0.1891058883E-04    0.4267712135E-02
    0.3900000000E+02    0.9894766343E-05    0.6529079693E+00    0.3662143401E-04    0.1983561565E-04    0.4268065617E-02
    0.4100000000E+02    0.1013792533E-04    0.6548822146E+00    0.3803605418E-04    0.2075729142E-04    0.4268379052E-02
    0.4300000000E+02    0.1038297654E-04    0.6566831583E+00    0.3945428307E-04    0.2167585292E-04    0.4268657259E-02
    0.4500000000E+02    0.1062976352E-04    0.6583326592E+00    0.4087553077E-04    0.2259151274E-04    0.4268904287E-02
    0.4700000000E+02    0.1087814427E-04    0.6598490482E+00    0.4229930088E-04    0.2350446273E-04    0.4269123564E-02
    0.4900000000E+02    0.1112799018E-04    0.6612478128E+00    0.4372517455E-04    0.2441487681E-04    0.4269318013E-02
    0.1000000000E+02    0.6629537969E-05    0.5536772062E+00    0.1745519098E-04    0.5860919274E-05    0.4250771353E-02
    0.3000000000E+02    0.8828924331E-05    0.6410232431E+00    0.3032276323E-04    0.1564245469E-04    0.4266063849E-02
    0.5000000000E+02    0.1125342576E-04    0.6619072813E+00    0.4443878729E-04    0.2486918292E-04    0.4269406726E-02
    0.7000000000E+02    0.1381621441E-04    0.6712797504E+00    0.5875981515E-04    0.3385420725E-04    0.4270334587E-02
    0.9000000000E+02    0.1644463044E-04    0.6766020457E+00    0.7310061272E-04    0.4270524666E-04    0.4270302397E-02
    0.1100000000E+03    0.1910989132E-04    0.6800329542E+00    0.8742849515E-04    0.5147682589E-04    0.4269771927E-02
    0.1300000000E+03    0.2179943932E-04    0.6824285232E+00    0.1017450439E-03    0.6020173820E-04    0.4268941293E-02
    0.1500000000E+03    0.2450742795E-04    0.6841959272E+00    0.1160602090E-03    0.6890183748E-04    0.4267911435E-02
    0.1700000000E+03    0.2723109545E-04    0.6855535797E+00    0.1303853749E-03    0.7759273407E-04    0.4266739892E-02
    0.1900000000E+03    0.2996921259E-04    0.6866291563E+00    0.1447313754E-03    0.8628615875E-04    0.4265462167E-02
    0.2100000000E+03    0.3272135484E-04    0.6875022812E+00    0.1591079892E-03    0.9499127851E-04    0.4264101492E-02
    0.2300000000E+03    0.3548753637E-04    0.6882251884E+00    0.1735239060E-03    0.1037154849E-03    0.4262673773E-02
    0.2500000000E+03    0.3826801573E-04    0.6888335664E+00    0.1879868344E-03    0.1124648942E-03    0.4261190300E-02
    0.2700000000E+03    0.4106318853E-04    0.6893526289E+00    0.2025036416E-03    0.1212446789E-03    0.4259659315E-02
    0.2900000000E+03    0.4387352613E-04    0.6898006946E+00    0.2170804866E-03    0.1300592964E-03    0.4258086985E-02
    0.3100000000E+03    0.4669954006E-04    0.6901913937E+00    0.2317229364E-03    0.1389126510E-03    0.4256478009E-02
    0.3300000000E+03    0.4954176097E-04    0.6905350771E+00    0.2464360638E-03    0.1478082121E-03    0.4254836030E-02
    0.3500000000E+03    0.5240072624E-04    0.6908397472E+00    0.2612245283E-03    0.1567491024E-03    0.4253163906E-02
    0.3700000000E+03    0.5527697277E-04    0.6911116879E+00    0.2760926424E-03    0.1657381646E-03    0.4251463906E-02
    0.3900000000E+03    0.5817103287E-04    0.6913559023E+00    0.2910444272E-03    0.1747780133E-03    0.4249737847E-02
    0.4100000000E+03    0.6108343212E-04    0.6915764234E+00    0.3060836576E-03    0.1838710755E-03    0.4247987194E-02
    0.4300000000E+03    0.6401468842E-04    0.6917765383E+00    0.3212139001E-03    0.1930196228E-03    0.4246213135E-02
    0.4500000000E+03    0.6696531181E-04    0.6919589529E+00    0.3364385444E-03    0.2022257975E-03    0.4244416634E-02
    0.4700000000E+03    0.6993580469E-04    0.6921259151E+00    0.3517608302E-03    0.2114916337E-03    0.4242598477E-02
    0.4900000000E+03    0.7292666233E-04    0.6922793075E+00    0.3671838694E-03    0.2208190749E-03    0.4240759305E-02
    0.1000000000E+03    0.1777366442E-04    0.6784847714E+00    0.8026641278E-04    0.4709858166E-04    0.4270083749E-02
    0.3000000000E+03    0.4528454066E-04    0.6900025039E+00    0.2243931833E-03    0.1344809057E-03    0.4257286829E-02
    0.5000000000E+03    0.7442988092E-04    0.6923514214E+00    0.3749341138E-03    0.2255064834E-03    0.4239832004E-02
    0.7000000000E+03    0.1056805055E-03    0.6933622431E+00    0.5359213903E-03    0.3229167176E-03    0.4220262778E-02
    0.9000000000E+03    0.1395101497E-03    0.6939246530E+00    0.7100821688E-03    0.4283902249E-03    0.4198776956E-02
    0.1100000000E+04    0.1764003302E-03    0.6942827431E+00    0.8999972038E-03    0.5435001607E-03    0.4175253197E-02
    0.1300000000E+04    0.2168824517E-03    0.6945306696E+00    0.1108455352E-02    0.6699464088E-03    0.4149452110E-02
    0.1500000000E+04    0.2615692847E-03    0.6947124471E+00    0.1338649524E-02    0.8096773688E-03    0.4121053607E-02
    0.1700000000E+04    0.3111853093E-03    0.6948514034E+00    0.1594345025E-02    0.9649932507E-03    0.4089658747E-02
    0.1900000000E+04    0.3666012751E-03    0.6949610538E+00    0.1880063562E-02    0.1138658872E-02    0.4054778471E-02
    0.2100000000E+04    0.4288768759E-03    0.6950497694E+00    0.2201307349E-02    0.1334041205E-02    0.4015814063E-02
    0.2300000000E+04    0.4993154823E-03    0.6951230113E+00    0.2564845307E-02    0.1555285270E-02    0.3972029662E-02
    0.2500000000E+04    0.5795357054E-03    0.6951844941E+00    0.2979086862E-02    0.1807544154E-02    0.3922515407E-02
    0.2700000000E+04    0.6715659244E-03    0.6952368320E+00    0.3454575823E-02    0.2097283275E-02    0.3866138732E-02
    0.2900000000E+04    0.7779696881E-03    0.6952819182E+00    0.4004646130E-02    0.2432684907E-02    0.3801480474E-02
    0.3100000000E+04    0.9020117933E-03    0.6953211576E+00    0.4646291461E-02    0.2824185472E-02    0.3726751920E-02
    0.3300000000E+04    0.1047875968E-02    0.6953556142E+00    0.5401307207E-02    0.3285182539E-02    0.3639689181E-02
    0.3500000000E+04    0.1220943059E-02    0.6953861090E+00    0.6297753868E-02    0.3832943401E-02    0.3537424077E-02
    0.3700000000E+04    0.1428127549E-02    0.6954132853E+00    0.7371735213E-02    0.4489714115E-02    0.3416339389E-02
    0.3900000000E+04    0.1678236645E-02    0.6954376546E+00    0.8669312732E-02    0.5283924310E-02    0.3271938873E-02
    0.4100000000E+04    0.1982231851E-02    0.6954596282E+00    0.1024794326E-01    0.6251118806E-02    0.3098813886E-02
    0.4300000000E+04    0.2353087388E-02    0.6954795411E+00    0.1217586466E-01    0.7433658850E-02    0.2890893759E-02
    0.4500000000E+04    0.2804593015E-02    0.6954976688E+00    0.1452604622E-01    0.8877123188E-02    0.2642348162E-02
    0.4700000000E+04    0.3347982114E-02    0.6955142395E+00    0.1735886205E-01    0.1061981098E-01    0.2349715629E-02
    0.4900000000E+04    0.3985190452E-02    0.6955294444E+00    0.2068716305E-01    0.1267139443E-01    0.2015736436E-02
    0.1000000000E+04    0.1575410209E-03    0.6941215919E+00    0.8029035672E-03    0.4846389883E-03    0.4187282728E-02
    0.3000000000E+04    0.8375489530E-03    0.6953021956E+00    0.4312787744E-02    0.2620664484E-02    0.3765503937E-02
    0.5000000000E+04    0.4334689587E-02    0.6955365861E+00    0.2251588149E-01    0.1380066913E-01    0.1837002695E-02
    0.7000000000E+04    0.8981347883E-02    0.6956361547E+00    0.4749461829E-01    0.2965544473E-01    0.1693115081E-03
    0.9000000000E+04    0.1063269576E-01    0.6956909596E+00    0.5731634003E-01    0.3650117018E-01    0.1514781030E-03
    0.1100000000E+05    0.1196846704E-01    0.6957255031E+00    0.6572225328E-01    0.4265181877E-01    0.1530797637E-03
    0.1300000000E+05    0.1308224785E-01    0.6957491843E+00    0.7313399351E-01    0.4832810212E-01    0.1545094010E-03
    0.1500000000E+05    0.1401478607E-01    0.6957663772E+00    0.7971342862E-01    0.5359910020E-01    0.1557448477E-03
    0.1700000000E+05    0.1479782556E-01    0.6957793909E+00    0.8558833585E-01    0.5851990958E-01    0.1568333023E-03
    0.1900000000E+05    0.1545654110E-01    0.6957895584E+00    0.9086164552E-01    0.6313553783E-01    0.1578067780E-03
    0.2100000000E+05    0.1601111407E-01    0.6957977024E+00    0.9561719859E-01    0.6748315494E-01    0.1586877872E-03
    0.2300000000E+05    0.1647788003E-01    0.6958043579E+00    0.9992397139E-01    0.7159375984E-01    0.1594927737E-03
    0.2500000000E+05    0.1687017789E-01    0.6958098875E+00    0.1038392273E+00    0.7549343559E-01    0.1602341212E-03
    0.2700000000E+05    0.1719898667E-01    0.6958145457E+00    0.1074109002E+00    0.7920430749E-01    0.1609213934E-03
    0.2900000000E+05    0.1747340898E-01    0.6958185162E+00    0.1106794191E+00    0.8274528347E-01    0.1615621328E-03
    0.3100000000E+05    0.1770104214E-01    0.6958219348E+00    0.1136791211E+00    0.8613263257E-01    0.1621623946E-03
    0.3300000000E+05    0.1788826602E-01    0.6958249041E+00    0.1164393572E+00    0.8938044157E-01    0.1627271155E-03
    0.3500000000E+05    0.1804046840E-01    0.6958275031E+00    0.1189853653E+00    0.9250097899E-01    0.1632603737E-03
    0.3700000000E+05    0.1816222306E-01    0.6958297933E+00    0.1213389666E+00    0.9550498765E-01    0.1637655784E-03
    0.3900000000E+05    0.1825743147E-01    0.6958318236E+00    0.1235191253E+00    0.9840192176E-01    0.1642456084E-03
    0.4100000000E+05    0.1832943653E-01    0.6958336332E+00    0.1255424009E+00    0.1012001406E+00    0.1647029179E-03
    0.4300000000E+05    0.1838111449E-01    0.6958352539E+00    0.1274233182E+00    0.1039070679E+00    0.1651396156E-03
    0.4500000000E+05    0.1841494965E-01    0.6958367116E+00    0.1291746708E+00    0.1065293233E+00    0.1655575276E-03
    0.4700000000E+05    0.1843309555E-01    0.6958380281E+00    0.1308077715E+00    0.1090728327E+00    0.1659582454E-03
    0.4900000000E+05    0.1843742526E-01    0.6958392212E+00    0.1323326606E+00    0.1115429197E+00    0.1663431651E-03
    0.1000000000E+05    0.1133135538E-01    0.6957099998E+00    0.6165556019E-01    0.3964092854E-01    0.1522765579E-03
    0.3000000000E+05    0.1759264984E-01    0.6958202874E+00    0.1122109322E+00    0.8445723447E-01    0.1618669921E-03
    0.5000000000E+05    0.1843492809E-01    0.6958397763E+00    0.1330573590E+00    0.1127519482E+00    0.1665300910E-03
    0.7000000000E+05    0.1796223726E-01    0.6958470522E+00    0.1435964625E+00    0.1340269009E+00    0.1696741787E-03
    0.9000000000E+05    0.1711905028E-01    0.6958504922E+00    0.1493866909E+00    0.1513955892E+00    0.1720610034E-03
    0.1100000000E+06    0.1619437464E-01    0.6958522944E+00    0.1526225107E+00    0.1662477733E+00    0.1739908452E-03
    0.1300000000E+06    0.1528825820E-01    0.6958532718E+00    0.1543445436E+00    0.1793239653E+00    0.1756138506E-03
    0.1500000000E+06    0.1443559175E-01    0.6958537887E+00    0.1551089750E+00    0.1910670546E+00    0.1770161454E-03
    0.1700000000E+06    0.1364640675E-01    0.6958540300E+00    0.1552392251E+00    0.2017643564E+00    0.1782518216E-03
    0.1900000000E+06    0.1292081980E-01    0.6958540983E+00    0.1549354876E+00    0.2116138171E+00    0.1793571237E-03
    0.2100000000E+06    0.1225506635E-01    0.6958540539E+00    0.1543277704E+00    0.2207582617E+00    0.1803575490E-03
    0.2300000000E+06    0.1164406392E-01    0.6958539345E+00    0.1535037535E+00    0.2293045756E+00    0.1812717288E-03
    0.2500000000E+06    0.1108252148E-01    0.6958537643E+00    0.1525243928E+00    0.2373351443E+00    0.1821136991E-03
    0.2700000000E+06    0.1056540815E-01    0.6958535596E+00    0.1514331260E+00    0.2449150322E+00    0.1828943023E-03
    0.2900000000E+06    0.1008813132E-01    0.6958533314E+00    0.1502615426E+00    0.2520966801E+00    0.1836220911E-03
    0.3100000000E+06    0.9646581775E-02    0.6958530874E+00    0.1490330042E+00    0.2589230897E+00    0.1843039334E-03
    0.3300000000E+06    0.9237119407E-02    0.6958528330E+00    0.1477650294E+00    0.2654300477E+00    0.1849454290E-03
    0.3500000000E+06    0.8856534539E-02    0.6958525723E+00    0.1464709057E+00    0.2716477206E+00    0.1855512047E-03
    0.3700000000E+06    0.8502001371E-02    0.6958523080E+00    0.1451608050E+00    0.2776018232E+00    0.1861251288E-03
    0.3900000000E+06    0.8171031412E-02    0.6958520422E+00    0.1438425713E+00    0.2833144928E+00    0.1866704681E-03
    0.4100000000E+06    0.7861430254E-02    0.6958517765E+00    0.1425222868E+00    0.2888049540E+00    0.1871900075E-03
    0.4300000000E+06    0.7571258938E-02    0.6958515120E+00    0.1412046849E+00    0.2940900327E+00    0.1876861408E-03
    0.4500000000E+06    0.7298800129E-02    0.6958512495E+00    0.1398934567E+00    0.2991845586E+00    0.1881609404E-03
    0.4700000000E+06    0.7042528827E-02    0.6958509896E+00    0.1385914806E+00    0.3041016844E+00    0.1886162130E-03
    0.4900000000E+06    0.6801087170E-02    0.6958507328E+00    0.1373009961E+00    0.3088531429E+00    0.1890535433E-03
    0.1000000000E+06    0.1665832916E-01    0.6958515313E+00    0.1512428731E+00    0.1590804465E+00    0.1730715753E-03
    0.3000000000E+06    0.9863128753E-02    0.6958532110E+00    0.1496531827E+00    0.2555519051E+00    0.1839683798E-03
    0.5000000000E+06    0.6685543443E-02    0.6958506057E+00    0.1366606218E+00    0.3111700769E+00    0.1892659234E-03
    0.7000000000E+06    0.4918525729E-02    0.6958482601E+00    0.1247047967E+00    0.3508824171E+00    0.1928383373E-03
    0.9000000000E+06    0.3807433713E-02    0.6958462699E+00    0.1144561936E+00    0.3815362666E+00    0.1955505093E-03
    0.1100000000E+07    0.3052331454E-02    0.6958445623E+00    0.1057077147E+00    0.4062393063E+00    0.1977434900E-03
    0.1300000000E+07    0.2510917435E-02    0.6958430720E+00    0.9818661841E-01    0.4267174535E+00    0.1995878398E-03
    0.1500000000E+07    0.2107120118E-02    0.6958417513E+00    0.9166165104E-01    0.4440433637E+00    0.2011814040E-03
    0.1700000000E+07    0.1796680749E-02    0.6958405660E+00    0.8595025519E-01    0.4589337158E+00    0.2025856393E-03
    0.1900000000E+07    0.1552170079E-02    0.6958394908E+00    0.8090996651E-01    0.4718922781E+00    0.2038417268E-03
    0.2100000000E+07    0.1355734153E-02    0.6958385069E+00    0.7642908050E-01    0.4832867945E+00    0.2049786377E-03
    0.2300000000E+07    0.1195286029E-02    0.6958375998E+00    0.7241915850E-01    0.4933937154E+00    0.2060175421E-03
    0.2500000000E+07    0.1062374904E-02    0.6958367583E+00    0.6880941179E-01    0.5024258254E+00    0.2069743892E-03
    0.2700000000E+07    0.9509306867E-03    0.6958359734E+00    0.6554256085E-01    0.5105501254E+00    0.2078614993E-03
    0.2900000000E+07    0.8564921333E-03    0.6958352377E+00    0.6257177842E-01    0.5178998490E+00    0.2086885912E-03
    0.3100000000E+07    0.7757149395E-03    0.6958345455E+00    0.5985841490E-01    0.5245827928E+00    0.2094634693E-03
    0.3300000000E+07    0.7060484915E-03    0.6958338917E+00    0.5737028814E-01    0.5306872417E+00    0.2101924969E-03
    0.3500000000E+07    0.6455177400E-03    0.6958332722E+00    0.5508038351E-01    0.5362862785E+00    0.2108809319E-03
    0.3700000000E+07    0.5925725595E-03    0.6958326835E+00    0.5296585473E-01    0.5414409786E+00    0.2115331699E-03
    0.3900000000E+07    0.5459815641E-03    0.6958321227E+00    0.5100724791E-01    0.5462028182E+00    0.2121529234E-03
    0.4100000000E+07    0.5047558851E-03    0.6958315871E+00    0.4918789277E-01    0.5506155156E+00    0.2127433572E-03
    0.4300000000E+07    0.4680935587E-03    0.6958310745E+00    0.4749342067E-01    0.5547164596E+00    0.2133071914E-03
    0.4500000000E+07    0.4353383488E-03    0.6958305830E+00    0.4591137951E-01    0.5585378281E+00    0.2138467813E-03
    0.4700000000E+07    0.4059488510E-03    0.6958301109E+00    0.4443092368E-01    0.5621074757E+00    0.2143641800E-03
    0.4900000000E+07    0.3794750260E-03    0.6958296567E+00    0.4304256237E-01    0.5654496432E+00    0.2148611883E-03
    0.1000000000E+07    0.3396463858E-02    0.6958453853E+00    0.1099121021E+00    0.3945031988E+00    0.1966988674E-03
    0.3000000000E+07    0.8145709243E-03    0.6958348865E+00    0.6118506533E-01    0.5213187502E+00    0.2090821300E-03
    0.5000000000E+07    0.3672113137E-03    0.6958294358E+00    0.4238027036E-01    0.5670421525E+00    0.2151025498E-03
    0.7000000000E+07    0.2094976372E-03    0.6958256997E+00    0.3239485891E-01    0.5909206330E+00    0.2191624647E-03
    0.9000000000E+07    0.1356550216E-03    0.6958228416E+00    0.2620253750E-01    0.6056161495E+00    0.2222447537E-03
    0.1100000000E+08    0.9511873097E-04    0.6958205201E+00    0.2198808047E-01    0.6155743804E+00    0.2247370018E-03
    0.1300000000E+08    0.7045326786E-04    0.6958185620E+00    0.1893522112E-01    0.6227677342E+00    0.2268330434E-03
    0.1500000000E+08    0.5431824255E-04    0.6958168665E+00    0.1662244843E-01    0.6282066878E+00    0.2286440756E-03
    0.1700000000E+08    0.4318017640E-04    0.6958153700E+00    0.1481010665E-01    0.6324627555E+00    0.2302399416E-03
    0.1900000000E+08    0.3516499221E-04    0.6958140298E+00    0.1335188006E-01    0.6358835646E+00    0.2316674424E-03
    0.2100000000E+08    0.2920270853E-04    0.6958128155E+00    0.1215339194E-01    0.6386927205E+00    0.2329595026E-03
    0.2300000000E+08    0.2464592202E-04    0.6958117050E+00    0.1115104289E-01    0.6410405856E+00    0.2341401816E-03
    0.2500000000E+08    0.2108407367E-04    0.6958106814E+00    0.1030041467E-01    0.6430319950E+00    0.2352276050E-03
    0.2700000000E+08    0.1824649203E-04    0.6958097319E+00    0.9569548847E-02    0.6447422721E+00    0.2362357744E-03
