  Pressure (Pa) 23mC5-500 (mol/kg) 24mC5-500 (mol/kg) 2mC6-500 (mol/kg) 3mC6-500 (mol/kg) C7-500 (mol/kg)
    0.1000000000E+01    0.3859504769E-05    0.3665932597E-01    0.3204689287E-04    0.2694823623E-05    0.4171328347E-02
    0.3000000000E+01    0.1016439056E-04    0.9948137349E-01    0.8252047090E-04    0.6783420062E-05    0.4211575920E-02
    0.5000000000E+01    0.1514245301E-04    0.1513573181E+00    0.1210382852E-03    0.1052224249E-04    0.4239068505E-02
    0.7000000000E+01    0.1915205852E-04    0.1949195941E+00    0.1511151791E-03    0.1409529160E-04    0.4261422322E-02
    0.9000000000E+01    0.2243292338E-04    0.2320190980E+00    0.1750287923E-03    0.1756401673E-04    0.4280232273E-02
    0.1100000000E+02    0.2515376525E-04    0.2639951931E+00    0.1943475364E-03    0.2095899424E-04    0.4296340289E-02
    0.1300000000E+02    0.2743683696E-04    0.2918410115E+00    0.2101850569E-03    0.2429835046E-04    0.4310305028E-02
    0.1500000000E+02    0.2937274034E-04    0.3163085456E+00    0.2233501366E-03    0.2759399246E-04    0.4322529682E-02
    0.1700000000E+02    0.3102989416E-04    0.3379776522E+00    0.2344410502E-03    0.3085429423E-04    0.4333317828E-02
    0.1900000000E+02    0.3246080706E-04    0.3573026432E+00    0.2439073061E-03    0.3408544028E-04    0.4342904257E-02
    0.2100000000E+02    0.3370635066E-04    0.3746445209E+00    0.2520912235E-03    0.3729216969E-04    0.4351474150E-02
    0.2300000000E+02    0.3479873840E-04    0.3902937652E+00    0.2592565885E-03    0.4047822027E-04    0.4359175861E-02
    0.2500000000E+02    0.3576364401E-04    0.4044867549E+00    0.2656088020E-03    0.4364660942E-04    0.4366129806E-02
    0.2700000000E+02    0.3662173466E-04    0.4174178032E+00    0.2713092899E-03    0.4679981997E-04    0.4372434828E-02
    0.2900000000E+02    0.3738979812E-04    0.4292481176E+00    0.2764859701E-03    0.4993992798E-04    0.4378172878E-02
    0.3100000000E+02    0.3808158298E-04    0.4401125633E+00    0.2812409596E-03    0.5306869318E-04    0.4383412503E-02
    0.3300000000E+02    0.3870843318E-04    0.4501248331E+00    0.2856563196E-03    0.5618762489E-04    0.4388211501E-02
    0.3500000000E+02    0.3927977264E-04    0.4593814457E+00    0.2897983865E-03    0.5929803095E-04    0.4392618964E-02
    0.3700000000E+02    0.3980347937E-04    0.4679648712E+00    0.2937210709E-03    0.6240105496E-04    0.4396676862E-02
    0.3900000000E+02    0.4028617714E-04    0.4759459974E+00    0.2974683933E-03    0.6549770493E-04    0.4400421304E-02
    0.4100000000E+02    0.4073346487E-04    0.4833860947E+00    0.3010764505E-03    0.6858887579E-04    0.4403883526E-02
    0.4300000000E+02    0.4115009851E-04    0.4903383934E+00    0.3045749522E-03    0.7167536718E-04    0.4407090692E-02
    0.4500000000E+02    0.4154013646E-04    0.4968493614E+00    0.3079884318E-03    0.7475789784E-04    0.4410066540E-02
    0.4700000000E+02    0.4190705661E-04    0.5029597446E+00    0.3113372051E-03    0.7783711722E-04    0.4412831910E-02
    0.4900000000E+02    0.4225385112E-04    0.5087054217E+00    0.3146381356E-03    0.8091361505E-04    0.4415405169E-02
    0.1000000000E+02    0.2385482426E-04    0.2485788380E+00    0.1851843672E-03    0.1926939868E-04    0.4288584525E-02
    0.3000000000E+02    0.3774446632E-04    0.4347935237E+00    0.2789106339E-03    0.5150562887E-04    0.4380851156E-02
    0.5000000000E+02    0.4242052284E-04    0.5114515530E+00    0.3162751395E-03    0.8245101332E-04    0.4416624913E-02
    0.7000000000E+02    0.4516749832E-04    0.5532716421E+00    0.3488671524E-03    0.1131655318E-03    0.4434039883E-02
    0.9000000000E+02    0.4744653726E-04    0.5796084838E+00    0.3837190294E-03    0.1440204162E-03    0.4443058647E-02
    0.1100000000E+03    0.4967271322E-04    0.5977187971E+00    0.4217784351E-03    0.1752131301E-03    0.4447464498E-02
    0.1300000000E+03    0.5198446954E-04    0.6109368526E+00    0.4629098208E-03    0.2068720785E-03    0.4449016169E-02
    0.1500000000E+03    0.5443074259E-04    0.6210093570E+00    0.5068225670E-03    0.2390921293E-03    0.4448644055E-02
    0.1700000000E+03    0.5702810235E-04    0.6289398688E+00    0.5532612448E-03    0.2719499543E-03    0.4446886601E-02
    0.1900000000E+03    0.5978087732E-04    0.6353460471E+00    0.6020354946E-03    0.3055117278E-03    0.4444076511E-02
    0.2100000000E+03    0.6268892604E-04    0.6406288823E+00    0.6530141314E-03    0.3398374217E-03    0.4440429697E-02
    0.2300000000E+03    0.6575080830E-04    0.6450600474E+00    0.7061133601E-03    0.3749834067E-03    0.4436091560E-02
    0.2500000000E+03    0.6896510626E-04    0.6488301422E+00    0.7612861675E-03    0.4110041372E-03    0.4431162743E-02
    0.2700000000E+03    0.7233096250E-04    0.6520768372E+00    0.8185141084E-03    0.4479533100E-03    0.4425714268E-02
    0.2900000000E+03    0.7584827742E-04    0.6549020551E+00    0.8778012581E-03    0.4858847063E-03    0.4419796826E-02
    0.3100000000E+03    0.7951775840E-04    0.6573828666E+00    0.9391698469E-03    0.5248528357E-03    0.4413446712E-02
    0.3300000000E+03    0.8334090743E-04    0.6595786306E+00    0.1002657137E-02    0.5649134547E-03    0.4406689729E-02
    0.3500000000E+03    0.8731998665E-04    0.6615358054E+00    0.1068313207E-02    0.6061240032E-03    0.4399543820E-02
    0.3700000000E+03    0.9145798002E-04    0.6632912734E+00    0.1136199392E-02    0.6485439904E-03    0.4392020895E-02
    0.3900000000E+03    0.9575855880E-04    0.6648746873E+00    0.1206387217E-02    0.6922353474E-03    0.4384128116E-02
    0.4100000000E+03    0.1002260544E-03    0.6663101587E+00    0.1278957689E-02    0.7372627622E-03    0.4375868812E-02
    0.4300000000E+03    0.1048654390E-03    0.6676174948E+00    0.1354000866E-02    0.7836940068E-03    0.4367243144E-02
    0.4500000000E+03    0.1096823148E-03    0.6688131181E+00    0.1431615643E-02    0.8316002636E-03    0.4358248591E-02
    0.4700000000E+03    0.1146829106E-03    0.6699107594E+00    0.1511909704E-02    0.8810564576E-03    0.4348880297E-02
    0.4900000000E+03    0.1198740852E-03    0.6709219881E+00    0.1594999625E-02    0.9321416000E-03    0.4339131337E-02
    0.1000000000E+03    0.4855433869E-04    0.5894305899E+00    0.4023480675E-03    0.1595654673E-03    0.4445700733E-02
    0.3000000000E+03    0.7766392155E-04    0.6561814518E+00    0.9082233663E-03    0.5052357292E-03    0.4416674030E-02
    0.5000000000E+03    0.1225434579E-03    0.6713983246E+00    0.1637631944E-02    0.9583209230E-03    0.4334111421E-02
    0.7000000000E+03    0.1881974164E-03    0.6781388913E+00    0.2674019553E-02    0.1591203883E-02    0.4210564692E-02
    0.9000000000E+03    0.2871682007E-03    0.6819423005E+00    0.4218102384E-02    0.2530212165E-02    0.4027014803E-02
    0.1100000000E+04    0.4451516427E-03    0.6843846439E+00    0.6671806601E-02    0.4022005725E-02    0.3741801090E-02
    0.1300000000E+04    0.7141392732E-03    0.6860854783E+00    0.1084660550E-01    0.6564251422E-02    0.3274430406E-02
    0.1500000000E+04    0.1181390935E-02    0.6873378833E+00    0.1811367666E-01    0.1100420431E-01    0.2507787077E-02
    0.1700000000E+04    0.1860751018E-02    0.6882984746E+00    0.2873968824E-01    0.1753753033E-01    0.1498946320E-02
    0.1900000000E+04    0.2465079584E-02    0.6890585472E+00    0.3831680173E-01    0.2350562342E-01    0.7740958137E-03
    0.2100000000E+04    0.2824181619E-02    0.6896749134E+00    0.4416418879E-01    0.2724793597E-01    0.5171613767E-03
    0.2300000000E+04    0.3059045552E-02    0.6901847783E+00    0.4811916239E-01    0.2986023430E-01    0.4562311018E-03
    0.2500000000E+04    0.3252373784E-02    0.6906135261E+00    0.5145639393E-01    0.3211491903E-01    0.4445580219E-03
    0.2700000000E+04    0.3428680245E-02    0.6909790692E+00    0.5455459174E-01    0.3424214139E-01    0.4436001639E-03
    0.2900000000E+04    0.3594258273E-02    0.6912944088E+00    0.5750982092E-01    0.3629964069E-01    0.4448440787E-03
    0.3100000000E+04    0.3750955871E-02    0.6915692098E+00    0.6034891307E-01    0.3830273448E-01    0.4464710124E-03
    0.3300000000E+04    0.3899568363E-02    0.6918108064E+00    0.6308234379E-01    0.4025673095E-01    0.4480988501E-03
    0.3500000000E+04    0.4040623653E-02    0.6920248651E+00    0.6571653000E-01    0.4216450536E-01    0.4496535230E-03
    0.3700000000E+04    0.4174564164E-02    0.6922158324E+00    0.6825668490E-01    0.4402826339E-01    0.4511267196E-03
    0.3900000000E+04    0.4301790680E-02    0.6923872471E+00    0.7070750017E-01    0.4584995984E-01    0.4525234401E-03
    0.4100000000E+04    0.4422674279E-02    0.6925419600E+00    0.7307332441E-01    0.4763140426E-01    0.4538506488E-03
    0.4300000000E+04    0.4537560711E-02    0.6926822939E+00    0.7535822240E-01    0.4937429249E-01    0.4551149211E-03
    0.4500000000E+04    0.4646772873E-02    0.6928101599E+00    0.7756600465E-01    0.5108022005E-01    0.4563220593E-03
    0.4700000000E+04    0.4750612693E-02    0.6929271451E+00    0.7970024853E-01    0.5275069068E-01    0.4574771229E-03
    0.4900000000E+04    0.4849362762E-02    0.6930345783E+00    0.8176431614E-01    0.5438712326E-01    0.4585845307E-03
    0.1000000000E+04    0.3563609931E-03    0.6832834737E+00    0.5293473834E-02    0.3183872061E-02    0.3900989616E-02
    0.3000000000E+04    0.3673657013E-02    0.6914363726E+00    0.5894306934E-01    0.3730755938E-01    0.4456464317E-03
    0.5000000000E+04    0.4896912528E-02    0.6930850702E+00    0.8277102957E-01    0.5519299698E-01    0.4591215941E-03
    0.7000000000E+04    0.5636783939E-02    0.6937915487E+00    0.9989744161E-01    0.6981257733E-01    0.4680940646E-03
    0.9000000000E+04    0.6085501252E-02    0.6941831924E+00    0.1126660242E+00    0.8217807393E-01    0.4748441939E-03
    0.1100000000E+05    0.6350553899E-02    0.6944316866E+00    0.1224498179E+00    0.9290621891E-01    0.4802733564E-03
    0.1300000000E+05    0.6495728340E-02    0.6946031422E+00    0.1301052916E+00    0.1023970264E+00    0.4848237047E-03
    0.1500000000E+05    0.6560667514E-02    0.6947284200E+00    0.1361935488E+00    0.1109227823E+00    0.4887458244E-03
    0.1700000000E+05    0.6570934206E-02    0.6948238551E+00    0.1410970566E+00    0.1186762059E+00    0.4921957939E-03
    0.1900000000E+05    0.6543510888E-02    0.6948989007E+00    0.1450851864E+00    0.1257981657E+00    0.4952775595E-03
    0.2100000000E+05    0.6489958022E-02    0.6949594047E+00    0.1483529354E+00    0.1323944504E+00    0.4980639053E-03
    0.2300000000E+05    0.6418304126E-02    0.6950091782E+00    0.1510447963E+00    0.1385463528E+00    0.5006078213E-03
    0.2500000000E+05    0.6334217011E-02    0.6950508106E+00    0.1532700125E+00    0.1443175916E+00    0.5029491092E-03
    0.2700000000E+05    0.6241751543E-02    0.6950861221E+00    0.1551126341E+00    0.1497589773E+00    0.5051184397E-03
    0.2900000000E+05    0.6143839523E-02    0.6951164297E+00    0.1566383273E+00    0.1549116447E+00    0.5071399572E-03
    0.3100000000E+05    0.6042617907E-02    0.6951427093E+00    0.1578990964E+00    0.1598093426E+00    0.5090330154E-03
    0.3300000000E+05    0.5939653090E-02    0.6951656997E+00    0.1589366259E+00    0.1644800911E+00    0.5108133711E-03
    0.3500000000E+05    0.5836096861E-02    0.6951859699E+00    0.1597846922E+00    0.1689474029E+00    0.5124940268E-03
    0.3700000000E+05    0.5732796534E-02    0.6952039655E+00    0.1604709309E+00    0.1732311985E+00    0.5140858397E-03
    0.3900000000E+05    0.5630373787E-02    0.6952200403E+00    0.1610181536E+00    0.1773485017E+00    0.5155979709E-03
    0.4100000000E+05    0.5529281803E-02    0.6952344786E+00    0.1614453411E+00    0.1813139756E+00    0.5170382225E-03
    0.4300000000E+05    0.5429847136E-02    0.6952475117E+00    0.1617684022E+00    0.1851403412E+00    0.5184132950E-03
    0.4500000000E+05    0.5332300694E-02    0.6952593294E+00    0.1620007604E+00    0.1888387076E+00    0.5197289859E-03
    0.4700000000E+05    0.5236800859E-02    0.6952700891E+00    0.1621538118E+00    0.1924188346E+00    0.5209903459E-03
    0.4900000000E+05    0.5143450882E-02    0.6952799223E+00    0.1622372861E+00    0.1958893447E+00    0.5222018021E-03
    0.1000000000E+05    0.6236268297E-02    0.6943199624E+00    0.1178686790E+00    0.8771805074E-01    0.4776899757E-03
    0.3000000000E+05    0.6093533238E-02    0.6951300222E+00    0.1572990122E+00    0.1573904954E+00    0.5081014859E-03
    0.5000000000E+05    0.5097602593E-02    0.6952845268E+00    0.1622555885E+00    0.1975859198E+00    0.5227900541E-03
    0.7000000000E+05    0.4295415478E-02    0.6953474790E+00    0.1604793902E+00    0.2272416232E+00    0.5326794229E-03
    0.9000000000E+05    0.3680535378E-02    0.6953806089E+00    0.1567081353E+00    0.2511821020E+00    0.5401818896E-03
    0.1100000000E+06    0.3201795926E-02    0.6954005015E+00    0.1523132556E+00    0.2714204986E+00    0.5462455998E-03
    0.1300000000E+06    0.2820681901E-02    0.6954134396E+00    0.1477936685E+00    0.2890137728E+00    0.5513439365E-03
    0.1500000000E+06    0.2511009103E-02    0.6954223097E+00    0.1433518257E+00    0.3045971009E+00    0.5557481882E-03
    0.1700000000E+06    0.2254918528E-02    0.6954286162E+00    0.1390722096E+00    0.3185876989E+00    0.5596286330E-03
    0.1900000000E+06    0.2039951655E-02    0.6954332159E+00    0.1349875209E+00    0.3312773875E+00    0.5630993151E-03
    0.2100000000E+06    0.1857194804E-02    0.6954366303E+00    0.1311063651E+00    0.3428800140E+00    0.5662404341E-03
    0.2300000000E+06    0.1700116365E-02    0.6954391940E+00    0.1274258558E+00    0.3535579994E+00    0.5691105778E-03
    0.2500000000E+06    0.1563826172E-02    0.6954411304E+00    0.1239377041E+00    0.3634382458E+00    0.5717538739E-03
    0.2700000000E+06    0.1444592480E-02    0.6954425942E+00    0.1206312800E+00    0.3726221979E+00    0.5742044038E-03
    0.2900000000E+06    0.1339519084E-02    0.6954436951E+00    0.1174951872E+00    0.3811924911E+00    0.5764890479E-03
    0.3100000000E+06    0.1246324391E-02    0.6954445131E+00    0.1145180754E+00    0.3892175082E+00    0.5786293882E-03
    0.3300000000E+06    0.1163186941E-02    0.6954451076E+00    0.1116890488E+00    0.3967545977E+00    0.5806430200E-03
    0.3500000000E+06    0.1088635235E-02    0.6954455238E+00    0.1089978579E+00    0.4038524087E+00    0.5825444806E-03
    0.3700000000E+06    0.1021467764E-02    0.6954457960E+00    0.1064349722E+00    0.4105526222E+00    0.5843459215E-03
    0.3900000000E+06    0.9606939893E-03    0.6954459513E+00    0.1039915900E+00    0.4168912599E+00    0.5860576058E-03
    0.4100000000E+06    0.9054901600E-03    0.6954460108E+00    0.1016596128E+00    0.4228996924E+00    0.5876882813E-03
    0.4300000000E+06    0.8551657778E-03    0.6954459914E+00    0.9943160413E-01    0.4286054258E+00    0.5892454661E-03
    0.4500000000E+06    0.8091378370E-03    0.6954459067E+00    0.9730074076E-01    0.4340327244E+00    0.5907356699E-03
    0.4700000000E+06    0.7669108121E-03    0.6954457677E+00    0.9526076210E-01    0.4392031107E+00    0.5921645670E-03
    0.4900000000E+06    0.7280609502E-03    0.6954455835E+00    0.9330592093E-01    0.4441357694E+00    0.5935371339E-03
    0.1000000000E+06    0.3426893858E-02    0.6953916974E+00    0.1545469946E+00    0.2616844111E+00    0.5433574093E-03
    0.3000000000E+06    0.1291560059E-02    0.6954441353E+00    0.1159874533E+00    0.3852693471E+00    0.5775760753E-03
    0.5000000000E+06    0.7097865412E-03    0.6954454767E+00    0.9235875975E-01    0.4465183896E+00    0.5942036856E-03
    0.7000000000E+06    0.4553089030E-03    0.6954422159E+00    0.7680938053E-01    0.4850528620E+00    0.6054151450E-03
    0.9000000000E+06    0.3188849685E-03    0.6954382569E+00    0.6577399212E-01    0.5118762938E+00    0.6139263373E-03
    0.1100000000E+07    0.2365858664E-03    0.6954343572E+00    0.5752199935E-01    0.5317209923E+00    0.6208079641E-03
    0.1300000000E+07    0.1828836279E-03    0.6954306926E+00    0.5111225149E-01    0.5470320000E+00    0.6265954218E-03
    0.1500000000E+07    0.1458047614E-03    0.6954272917E+00    0.4598714244E-01    0.5592181422E+00    0.6315958276E-03
    0.1700000000E+07    0.1190831679E-03    0.6954241412E+00    0.4179445102E-01    0.5691540538E+00    0.6360020713E-03
    0.1900000000E+07    0.9916574864E-04    0.6954212169E+00    0.3830038646E-01    0.5774135250E+00    0.6399434010E-03
    0.2100000000E+07    0.8390967122E-04    0.6954184936E+00    0.3534350759E-01    0.5843894636E+00    0.6435107401E-03
    0.2300000000E+07    0.7195765571E-04    0.6954159482E+00    0.3280866789E-01    0.5903603483E+00    0.6467705281E-03
    0.2500000000E+07    0.6241485933E-04    0.6954135603E+00    0.3061149273E-01    0.5955292434E+00    0.6497728176E-03
    0.2700000000E+07    0.5467128772E-04    0.6954113124E+00    0.2868872380E-01    0.6000478027E+00    0.6525562731E-03
    0.2900000000E+07    0.4829918589E-04    0.6954091895E+00    0.2699199148E-01    0.6040316204E+00    0.6551513940E-03
    0.3100000000E+07    0.4299121081E-04    0.6954071787E+00    0.2548367206E-01    0.6075703757E+00    0.6575826712E-03
    0.3300000000E+07    0.3852182035E-04    0.6954052688E+00    0.2413405732E-01    0.6107347253E+00    0.6598700736E-03
    0.3500000000E+07    0.3472240392E-04    0.6954034503E+00    0.2291937497E-01    0.6135811026E+00    0.6620301012E-03
    0.3700000000E+07    0.3146482626E-04    0.6954017148E+00    0.2182037559E-01    0.6161551309E+00    0.6640765471E-03
    0.3900000000E+07    0.2865027600E-04    0.6954000550E+00    0.2082130515E-01    0.6184940971E+00    0.6660210619E-03
    0.4100000000E+07    0.2620154783E-04    0.6953984645E+00    0.1990914573E-01    0.6206287744E+00    0.6678735764E-03
    0.4300000000E+07    0.2405759891E-04    0.6953969378E+00    0.1907304601E-01    0.6225847871E+00    0.6696426262E-03
    0.4500000000E+07    0.2216964359E-04    0.6953954699E+00    0.1830388846E-01    0.6243836444E+00    0.6713356022E-03
    0.4700000000E+07    0.2049830816E-04    0.6953940563E+00    0.1759395624E-01    0.6260435357E+00    0.6729589469E-03
    0.4900000000E+07    0.1901152863E-04    0.6953926931E+00    0.1693667423E-01    0.6275799477E+00    0.6745183114E-03
    0.1000000000E+07    0.2730364400E-03    0.6954362829E+00    0.6137098522E-01    0.5224848973E+00    0.6175299401E-03
    0.3000000000E+07    0.4552785367E-04    0.6954081709E+00    0.2621629592E-01    0.6058518333E+00    0.6563861731E-03
    0.5000000000E+07    0.1832893060E-04    0.6953920293E+00    0.1662598347E-01    0.6283060706E+00    0.6752755817E-03
    0.7000000000E+07    0.9920591732E-05    0.6953807094E+00    0.1215479134E-01    0.6387476688E+00    0.6880133616E-03
    0.9000000000E+07    0.6246270301E-05    0.6953719577E+00    0.9570241449E-02    0.6447773466E+00    0.6976836714E-03
    0.1100000000E+08    0.4312869533E-05    0.6953648058E+00    0.7887459470E-02    0.6487013870E+00    0.7055026664E-03
    0.1300000000E+08    0.3169243714E-05    0.6953587483E+00    0.6705183287E-02    0.6514576673E+00    0.7120785416E-03
    0.1500000000E+08    0.2435866496E-05    0.6953534882E+00    0.5829339574E-02    0.6534993233E+00    0.7177601961E-03
    0.1700000000E+08    0.1936872826E-05    0.6953488353E+00    0.5154644496E-02    0.6550720192E+00    0.7227667707E-03
    0.1900000000E+08    0.1581606122E-05    0.6953446608E+00    0.4619055414E-02    0.6563204604E+00    0.7272451079E-03
    0.2100000000E+08    0.1319435781E-05    0.6953408733E+00    0.4183646971E-02    0.6573354080E+00    0.7312985105E-03
    0.2300000000E+08    0.1120259454E-05    0.6953374053E+00    0.3822766112E-02    0.6581766640E+00    0.7350024654E-03
    0.2500000000E+08    0.9652567611E-06    0.6953342058E+00    0.3518822147E-02    0.6588852297E+00    0.7384138417E-03
    0.2700000000E+08    0.8421643057E-06    0.6953312351E+00    0.3259351638E-02    0.6594901528E+00    0.7415765697E-03
