  Pressure (Pa) 23mC5-500 (mol/kg) 24mC5-500 (mol/kg) 2mC6-500 (mol/kg) 3mC6-500 (mol/kg) C7-500 (mol/kg)
    0.1000000000E+01    0.2930455161E-05    0.1741105990E+00    0.5252232358E-05    0.3352600012E-05    0.4180289084E-02
    0.3000000000E+01    0.5413787576E-05    0.3481329204E+00    0.9247255139E-05    0.8516793170E-05    0.4208738246E-02
    0.5000000000E+01    0.6455843223E-05    0.4351119161E+00    0.1086088617E-04    0.1325160448E-04    0.4221196705E-02
    0.7000000000E+01    0.7025138876E-05    0.4872894146E+00    0.1186134633E-04    0.1777932092E-04    0.4228474741E-02
    0.9000000000E+01    0.7403171307E-05    0.5220704321E+00    0.1268631930E-04    0.2217472433E-04    0.4233248694E-02
    0.1100000000E+02    0.7694865815E-05    0.5469121238E+00    0.1347026389E-04    0.2647518390E-04    0.4236601378E-02
    0.1300000000E+02    0.7945534710E-05    0.5655423828E+00    0.1425831380E-04    0.3070292229E-04    0.4239064058E-02
    0.1500000000E+02    0.8176701388E-05    0.5800319969E+00    0.1506522551E-04    0.3487257366E-04    0.4240930072E-02
    0.1700000000E+02    0.8399254511E-05    0.5916233228E+00    0.1589460432E-04    0.3899445086E-04    0.4242375322E-02
    0.1900000000E+02    0.8618925322E-05    0.6011068950E+00    0.1674589220E-04    0.4307618313E-04    0.4243512005E-02
    0.2100000000E+02    0.8838789362E-05    0.6090097072E+00    0.1761708368E-04    0.4712362473E-04    0.4244415213E-02
    0.2300000000E+02    0.9060492664E-05    0.6156965847E+00    0.1850581460E-04    0.5114139828E-04    0.4245137187E-02
    0.2500000000E+02    0.9284886806E-05    0.6214281075E+00    0.1940979290E-04    0.5513323874E-04    0.4245715447E-02
    0.2700000000E+02    0.9512372441E-05    0.6263953619E+00    0.2032695401E-04    0.5910222153E-04    0.4246177670E-02
    0.2900000000E+02    0.9743091643E-05    0.6307416586E+00    0.2125549975E-04    0.6305091932E-04    0.4246544740E-02
    0.3100000000E+02    0.9977038519E-05    0.6345765861E+00    0.2219388941E-04    0.6698151338E-04    0.4246832726E-02
    0.3300000000E+02    0.1021412413E-04    0.6379853780E+00    0.2314081319E-04    0.7089587466E-04    0.4247054206E-02
    0.3500000000E+02    0.1045421512E-04    0.6410353229E+00    0.2409516123E-04    0.7479562417E-04    0.4247219173E-02
    0.3700000000E+02    0.1069715683E-04    0.6437802510E+00    0.2505599368E-04    0.7868217884E-04    0.4247335670E-02
    0.3900000000E+02    0.1094278717E-04    0.6462637384E+00    0.2602251396E-04    0.8255678695E-04    0.4247410251E-02
    0.4100000000E+02    0.1119094480E-04    0.6485214381E+00    0.2699404581E-04    0.8642055593E-04    0.4247448310E-02
    0.4300000000E+02    0.1144147389E-04    0.6505828021E+00    0.2797001385E-04    0.9027447442E-04    0.4247454332E-02
    0.4500000000E+02    0.1169422666E-04    0.6524723735E+00    0.2894992738E-04    0.9411943002E-04    0.4247432076E-02
    0.4700000000E+02    0.1194906466E-04    0.6542107684E+00    0.2993336688E-04    0.9795622373E-04    0.4247384719E-02
    0.4900000000E+02    0.1220585916E-04    0.6558154310E+00    0.3091997280E-04    0.1017855818E-03    0.4247314965E-02
    0.1000000000E+02    0.7556175304E-05    0.5354469207E+00    0.1307950915E-04    0.2433519871E-04    0.4235061717E-02
    0.3000000000E+02    0.9859665782E-05    0.6327172321E+00    0.2172355100E-04    0.6501835590E-04    0.4246697763E-02
    0.5000000000E+02    0.1233495255E-04    0.6565723439E+00    0.3141436490E-04    0.1036976815E-03    0.4247272426E-02
    0.7000000000E+02    0.1499540663E-04    0.6673554901E+00    0.4141309908E-04    0.1416832324E-03    0.4245665735E-02
    0.9000000000E+02    0.1776365136E-04    0.6735004202E+00    0.5155124426E-04    0.1794262097E-03    0.4243210560E-02
    0.1100000000E+03    0.2060579408E-04    0.6774699699E+00    0.6178972453E-04    0.2171576349E-03    0.4240317404E-02
    0.1300000000E+03    0.2350628612E-04    0.6802455430E+00    0.7212270877E-04    0.2550194062E-03    0.4237156378E-02
    0.1500000000E+03    0.2645767322E-04    0.6822953820E+00    0.8255438472E-04    0.2931090090E-03    0.4233810840E-02
    0.1700000000E+03    0.2945641956E-04    0.6838711965E+00    0.9309207153E-04    0.3314988837E-03    0.4230326238E-02
    0.1900000000E+03    0.3250104139E-04    0.6851203587E+00    0.1037439203E-03    0.3702461391E-03    0.4226729197E-02
    0.2100000000E+03    0.3559120073E-04    0.6861348881E+00    0.1145181126E-03    0.4093979441E-03    0.4223036085E-02
    0.2300000000E+03    0.3872723468E-04    0.6869752088E+00    0.1254225970E-03    0.4489947513E-03    0.4219257279E-02
    0.2500000000E+03    0.4190989757E-04    0.6876826381E+00    0.1364650294E-03    0.4890723403E-03    0.4215399453E-02
    0.2700000000E+03    0.4514021358E-04    0.6882863849E+00    0.1476527897E-03    0.5296631753E-03    0.4211466886E-02
    0.2900000000E+03    0.4841938979E-04    0.6888076830E+00    0.1589930257E-03    0.5707973421E-03    0.4207462247E-02
    0.3100000000E+03    0.5174876358E-04    0.6892623387E+00    0.1704927035E-03    0.6125032174E-03    0.4203387083E-02
    0.3300000000E+03    0.5512977034E-04    0.6896623608E+00    0.1821586563E-03    0.6548079606E-03    0.4199242140E-02
    0.3500000000E+03    0.5856392355E-04    0.6900170365E+00    0.1939976287E-03    0.6977378853E-03    0.4195027572E-02
    0.3700000000E+03    0.6205280257E-04    0.6903336610E+00    0.2060163172E-03    0.7413187463E-03    0.4190743084E-02
    0.3900000000E+03    0.6559804541E-04    0.6906180444E+00    0.2182214046E-03    0.7855759671E-03    0.4186388033E-02
    0.4100000000E+03    0.6920134466E-04    0.6908748711E+00    0.2306195914E-03    0.8305348233E-03    0.4181961499E-02
    0.4300000000E+03    0.7286444567E-04    0.6911079603E+00    0.2432176231E-03    0.8762205945E-03    0.4177462335E-02
    0.4500000000E+03    0.7658914613E-04    0.6913204565E+00    0.2560223154E-03    0.9226586919E-03    0.4172889202E-02
    0.4700000000E+03    0.8037729669E-04    0.6915149722E+00    0.2690405764E-03    0.9698747684E-03    0.4168240601E-02
    0.4900000000E+03    0.8423080234E-04    0.6916936962E+00    0.2822794272E-03    0.1017894815E-02    0.4163514886E-02
    0.1000000000E+03    0.1917672250E-04    0.6756779140E+00    0.5665868170E-04    0.1982831214E-03    0.4241805116E-02
    0.3000000000E+03    0.5007771429E-04    0.6890425163E+00    0.1647225048E-03    0.5915770951E-03    0.4205433418E-02
    0.5000000000E+03    0.8618267394E-04    0.6917777250E+00    0.2889838035E-03    0.1042214563E-02    0.4161122561E-02
    0.7000000000E+03    0.1291696664E-03    0.6929559794E+00    0.4365115858E-03    0.1577659348E-02    0.4108726536E-02
    0.9000000000E+03    0.1814391429E-03    0.6936119345E+00    0.6158107275E-03    0.2229149226E-02    0.4045836812E-02
    0.1100000000E+04    0.2463887143E-03    0.6940297681E+00    0.8386740757E-03    0.3039867528E-02    0.3968845865E-02
    0.1300000000E+04    0.3290249583E-03    0.6943191635E+00    0.1122413938E-02    0.4073245471E-02    0.3872454593E-02
    0.1500000000E+04    0.4369818802E-03    0.6945314143E+00    0.1493422611E-02    0.5426093160E-02    0.3748703089E-02
    0.1700000000E+04    0.5822463064E-03    0.6946937138E+00    0.1993180619E-02    0.7250787903E-02    0.3585355791E-02
    0.1900000000E+04    0.7840030081E-03    0.6948218206E+00    0.2688190199E-02    0.9792097070E-02    0.3363395436E-02
    0.2100000000E+04    0.1072652544E-02    0.6949254971E+00    0.3684120785E-02    0.1344007407E-01    0.3054005859E-02
    0.2300000000E+04    0.1491957686E-02    0.6950111132E+00    0.5133876745E-02    0.1876215274E-01    0.2619127168E-02
    0.2500000000E+04    0.2083652782E-02    0.6950830022E+00    0.7185697213E-02    0.2631766400E-01    0.2032510796E-02
    0.2700000000E+04    0.2821590193E-02    0.6951442141E+00    0.9756341021E-02    0.3582859111E-01    0.1349278675E-02
    0.2900000000E+04    0.3544544732E-02    0.6951969582E+00    0.1229445653E-01    0.4529451019E-01    0.7534050326E-03
    0.3100000000E+04    0.4090066131E-02    0.6952428740E+00    0.1423599644E-01    0.5263612698E-01    0.3908898930E-03
    0.3300000000E+04    0.4458325642E-02    0.6952832033E+00    0.1557458465E-01    0.5780371454E-01    0.2256000042E-03
    0.3500000000E+04    0.4724823604E-02    0.6953189045E+00    0.1656710855E-01    0.6172463731E-01    0.1613417930E-03
    0.3700000000E+04    0.4943622609E-02    0.6953507285E+00    0.1739921211E-01    0.6507568134E-01    0.1380932122E-03
    0.3900000000E+04    0.5139906112E-02    0.6953792725E+00    0.1815769019E-01    0.6817456507E-01    0.1300116640E-03
    0.4100000000E+04    0.5323856246E-02    0.6954050168E+00    0.1887764156E-01    0.7114987191E-01    0.1273566311E-03
    0.4300000000E+04    0.5499459826E-02    0.6954283527E+00    0.1957272269E-01    0.7405137458E-01    0.1266207254E-03
    0.4500000000E+04    0.5668329259E-02    0.6954496016E+00    0.2024834544E-01    0.7689843499E-01    0.1265582642E-03
    0.4700000000E+04    0.5831186911E-02    0.6954690304E+00    0.2090682578E-01    0.7969896932E-01    0.1267279764E-03
    0.4900000000E+04    0.5988421055E-02    0.6954868622E+00    0.2154931938E-01    0.8245660602E-01    0.1269734932E-03
    0.1000000000E+04    0.2120630897E-03    0.6938417105E+00    0.7208771762E-03    0.2611236504E-02    0.4009386690E-02
    0.3000000000E+04    0.3843128186E-02    0.6952206843E+00    0.1335284827E-01    0.4928046739E-01    0.5417154101E-03
    0.5000000000E+04    0.6065013073E-02    0.6954952393E+00    0.2186480290E-01    0.8381999629E-01    0.1271056043E-03
    0.7000000000E+04    0.7349411848E-02    0.6956121689E+00    0.2745915834E-01    0.1091518268E+00    0.1294984219E-03
    0.9000000000E+04    0.8256616372E-02    0.6956766955E+00    0.3192733460E-01    0.1313542150E+00    0.1313259154E-03
    0.1100000000E+05    0.8890033738E-02    0.6957174733E+00    0.3553370566E-01    0.1510600643E+00    0.1328025036E-03
    0.1300000000E+05    0.9321751621E-02    0.6957455034E+00    0.3846816625E-01    0.1687354360E+00    0.1340437728E-03
    0.1500000000E+05    0.9603116668E-02    0.6957659096E+00    0.4087039558E-01    0.1847318505E+00    0.1351159149E-03
    0.1700000000E+05    0.9771371665E-02    0.6957813989E+00    0.4284524113E-01    0.1993198890E+00    0.1360604546E-03
    0.1900000000E+05    0.9853953322E-02    0.6957935354E+00    0.4447281003E-01    0.2127115827E+00    0.1369051932E-03
    0.2100000000E+05    0.9871347019E-02    0.6958032852E+00    0.4581526725E-01    0.2250757270E+00    0.1376696761E-03
    0.2300000000E+05    0.9839025966E-02    0.6958112769E+00    0.4692152372E-01    0.2365486004E+00    0.1383681784E-03
    0.2500000000E+05    0.9768794740E-02    0.6958179373E+00    0.4783053735E-01    0.2472416230E+00    0.1390114501E-03
    0.2700000000E+05    0.9669736697E-02    0.6958235657E+00    0.4857368113E-01    0.2572469300E+00    0.1396077929E-03
    0.2900000000E+05    0.9548892648E-02    0.6958283788E+00    0.4917647053E-01    0.2666414949E+00    0.1401637534E-03
    0.3100000000E+05    0.9411753975E-02    0.6958325365E+00    0.4965984297E-01    0.2754902273E+00    0.1406845873E-03
    0.3300000000E+05    0.9262625514E-02    0.6958361600E+00    0.5004111845E-01    0.2838483300E+00    0.1411745792E-03
    0.3500000000E+05    0.9104895723E-02    0.6958393426E+00    0.5033473008E-01    0.2917631174E+00    0.1416372687E-03
    0.3700000000E+05    0.8941239938E-02    0.6958421570E+00    0.5055278591E-01    0.2992754328E+00    0.1420756144E-03
    0.3900000000E+05    0.8773774763E-02    0.6958446612E+00    0.5070550577E-01    0.3064207657E+00    0.1424921149E-03
    0.4100000000E+05    0.8604176379E-02    0.6958469014E+00    0.5080156411E-01    0.3132301411E+00    0.1428888998E-03
    0.4300000000E+05    0.8433771921E-02    0.6958489153E+00    0.5084836157E-01    0.3197308331E+00    0.1432677993E-03
    0.4500000000E+05    0.8263610580E-02    0.6958507340E+00    0.5085224193E-01    0.3259469431E+00    0.1436303980E-03
    0.4700000000E+05    0.8094519297E-02    0.6958523829E+00    0.5081866668E-01    0.3318998721E+00    0.1439780771E-03
    0.4900000000E+05    0.7927146658E-02    0.6958538834E+00    0.5075235663E-01    0.3376087085E+00    0.1443120479E-03
    0.1000000000E+05    0.8602457475E-02    0.6956991587E+00    0.3382497152E-01    0.1414868976E+00    0.1320992363E-03
    0.3000000000E+05    0.9482066823E-02    0.6958305312E+00    0.4943192610E-01    0.2711304361E+00    0.1404282736E-03
    0.5000000000E+05    0.7844267458E-02    0.6958545838E+00    0.5070822765E-01    0.3403770049E+00    0.1444742316E-03
    0.7000000000E+05    0.6349264712E-02    0.6958639590E+00    0.4885869859E-01    0.3862752320E+00    0.1472021253E-03
    0.9000000000E+05    0.5187658523E-02    0.6958686450E+00    0.4622595386E-01    0.4197756263E+00    0.1492729684E-03
    0.1100000000E+06    0.4300606259E-02    0.6958712913E+00    0.4349713605E-01    0.4456211002E+00    0.1509473136E-03
    0.1300000000E+06    0.3616890997E-02    0.6958728887E+00    0.4089801402E-01    0.4663056012E+00    0.1523554386E-03
    0.1500000000E+06    0.3081807564E-02    0.6958738866E+00    0.3849841159E-01    0.4833029627E+00    0.1535720703E-03
    0.1700000000E+06    0.2656354780E-02    0.6958745159E+00    0.3631026562E-01    0.4975548154E+00    0.1546441412E-03
    0.1900000000E+06    0.2312990461E-02    0.6958749065E+00    0.3432363587E-01    0.5096973732E+00    0.1556030982E-03
    0.2100000000E+06    0.2032091862E-02    0.6958751362E+00    0.3252102059E-01    0.5201790424E+00    0.1564710633E-03
    0.2300000000E+06    0.1799473851E-02    0.6958752540E+00    0.3088326116E-01    0.5293265210E+00    0.1572642014E-03
    0.2500000000E+06    0.1604717586E-02    0.6958752922E+00    0.2939195363E-01    0.5373843078E+00    0.1579946903E-03
    0.2700000000E+06    0.1440049580E-02    0.6958752729E+00    0.2803034884E-01    0.5445394986E+00    0.1586719370E-03
    0.2900000000E+06    0.1299583371E-02    0.6958752112E+00    0.2678358849E-01    0.5509379766E+00    0.1593033620E-03
    0.3100000000E+06    0.1178799554E-02    0.6958751181E+00    0.2563865549E-01    0.5566953366E+00    0.1598949238E-03
    0.3300000000E+06    0.1074183893E-02    0.6958750016E+00    0.2458421129E-01    0.5619044634E+00    0.1604514809E-03
    0.3500000000E+06    0.9829716172E-03    0.6958748675E+00    0.2361039926E-01    0.5666409161E+00    0.1609770477E-03
    0.3700000000E+06    0.9029640685E-03    0.6958747204E+00    0.2270864959E-01    0.5709668322E+00    0.1614749799E-03
    0.3900000000E+06    0.8323954056E-03    0.6958745635E+00    0.2187150052E-01    0.5749338114E+00    0.1619481122E-03
    0.4100000000E+06    0.7698344108E-03    0.6958743993E+00    0.2109244066E-01    0.5785850788E+00    0.1623988607E-03
    0.4300000000E+06    0.7141112708E-03    0.6958742300E+00    0.2036577282E-01    0.5819571324E+00    0.1628293021E-03
    0.4500000000E+06    0.6642623520E-03    0.6958740571E+00    0.1968649762E-01    0.5850810127E+00    0.1632412345E-03
    0.4700000000E+06    0.6194881019E-03    0.6958738817E+00    0.1905021474E-01    0.5879832933E+00    0.1636362254E-03
    0.4900000000E+06    0.5791206367E-03    0.6958737048E+00    0.1845303922E-01    0.5906868617E+00    0.1640156498E-03
    0.1000000000E+06    0.4714588253E-02    0.6958701420E+00    0.4485386100E-01    0.4334666940E+00    0.1501497494E-03
    0.3000000000E+06    0.1236970944E-02    0.6958751680E+00    0.2619913931E-01    0.5538905305E+00    0.1596037998E-03
    0.5000000000E+06    0.5604104213E-03    0.6958736161E+00    0.1816802592E-01    0.5919704290E+00    0.1641999090E-03
    0.7000000000E+06    0.3193825928E-03    0.6958718813E+00    0.1386465675E-01    0.6108629204E+00    0.1672993065E-03
    0.9000000000E+06    0.2064642413E-03    0.6958703193E+00    0.1119595155E-01    0.6221692828E+00    0.1696523653E-03
    0.1100000000E+07    0.1445501440E-03    0.6958689409E+00    0.9382371443E-02    0.6296970109E+00    0.1715549784E-03
    0.1300000000E+07    0.1069313758E-03    0.6958677180E+00    0.8070826745E-02    0.6350692437E+00    0.1731551225E-03
    0.1500000000E+07    0.8235661061E-04    0.6958666227E+00    0.7078733617E-02    0.6390956206E+00    0.1745376875E-03
    0.1700000000E+07    0.6541315181E-04    0.6958656320E+00    0.6302330990E-02    0.6422253666E+00    0.1757559923E-03
    0.1900000000E+07    0.5323314832E-04    0.6958647282E+00    0.5678339635E-02    0.6447278022E+00    0.1768457655E-03
    0.2100000000E+07    0.4418104254E-04    0.6958638976E+00    0.5165994998E-02    0.6467742176E+00    0.1778321421E-03
    0.2300000000E+07    0.3726828757E-04    0.6958631291E+00    0.4737861228E-02    0.6484787560E+00    0.1787334892E-03
    0.2500000000E+07    0.3186861387E-04    0.6958624140E+00    0.4374800045E-02    0.6499204111E+00    0.1795636440E-03
    0.2700000000E+07    0.2756951822E-04    0.6958617455E+00    0.4063057018E-02    0.6511555881E+00    0.1803332956E-03
    0.2900000000E+07    0.2409025383E-04    0.6958611176E+00    0.3792494291E-02    0.6522256389E+00    0.1810508760E-03
    0.3100000000E+07    0.2123433153E-04    0.6958605257E+00    0.3555476163E-02    0.6531615684E+00    0.1817231560E-03
    0.3300000000E+07    0.1886087314E-04    0.6958599658E+00    0.3346142577E-02    0.6539870797E+00    0.1823556566E-03
    0.3500000000E+07    0.1686672271E-04    0.6958594346E+00    0.3159921725E-02    0.6547206042E+00    0.1829529393E-03
    0.3700000000E+07    0.1517493261E-04    0.6958589292E+00    0.2993194747E-02    0.6553766888E+00    0.1835188177E-03
    0.3900000000E+07    0.1372715313E-04    0.6958584471E+00    0.2843059918E-02    0.6559669685E+00    0.1840565129E-03
    0.4100000000E+07    0.1247848261E-04    0.6958579864E+00    0.2707163525E-02    0.6565008598E+00    0.1845687706E-03
    0.4300000000E+07    0.1139390881E-04    0.6958575450E+00    0.2583576421E-02    0.6569860651E+00    0.1850579506E-03
    0.4500000000E+07    0.1044580306E-04    0.6958571215E+00    0.2470702498E-02    0.6574289461E+00    0.1855260965E-03
    0.4700000000E+07    0.9612125633E-05    0.6958567143E+00    0.2367209840E-02    0.6578348028E+00    0.1859749894E-03
    0.4900000000E+07    0.8875120540E-05    0.6958563223E+00    0.2271978276E-02    0.6582080863E+00    0.1864061917E-03
    0.1000000000E+07    0.1713601737E-03    0.6958696088E+00    0.1021005523E-01    0.6262762565E+00    0.1706486719E-03
    0.3000000000E+07    0.2259423442E-04    0.6958608174E+00    0.3670193403E-02    0.6527087438E+00    0.1813923081E-03
    0.5000000000E+07    0.8538250453E-05    0.6958561316E+00    0.2227158103E-02    0.6583837129E+00    0.1866155960E-03
    0.7000000000E+07    0.4474041255E-05    0.6958528980E+00    0.1595725777E-02    0.6608544669E+00    0.1901379638E-03
    0.9000000000E+07    0.2756448174E-05    0.6958504156E+00    0.1242006493E-02    0.6622362528E+00    0.1928121493E-03
    0.1100000000E+08    0.1871239901E-05    0.6958483950E+00    0.1016004187E-02    0.6631186154E+00    0.1949744186E-03
    0.1300000000E+08    0.1355213017E-05    0.6958466878E+00    0.8592108550E-03    0.6637307025E+00    0.1967929409E-03
    0.1500000000E+08    0.1027958362E-05    0.6958452077E+00    0.7441012606E-03    0.6641801141E+00    0.1983641904E-03
    0.1700000000E+08    0.8072869606E-06    0.6958439001E+00    0.6560284511E-03    0.6645240449E+00    0.1997487624E-03
    0.1900000000E+08    0.6513678508E-06    0.6958427279E+00    0.5864834230E-03    0.6647957002E+00    0.2009872614E-03
    0.2100000000E+08    0.5370716386E-06    0.6958416651E+00    0.5301860711E-03    0.6650156769E+00    0.2021082526E-03
    0.2300000000E+08    0.4507583039E-06    0.6958406925E+00    0.4836869606E-03    0.6651974279E+00    0.2031326097E-03
    0.2500000000E+08    0.3839578215E-06    0.6958397955E+00    0.4446375744E-03    0.6653501115E+00    0.2040760585E-03
    0.2700000000E+08    0.3311831884E-06    0.6958389629E+00    0.4113837653E-03    0.6654801781E+00    0.2049507468E-03
