  Pressure (Pa) 23mC5-500 (mol/kg) 24mC5-500 (mol/kg) 2mC6-500 (mol/kg) 3mC6-500 (mol/kg) C7-500 (mol/kg)
    0.1000000000E+01    0.2624292361E-05    0.2321357823E+00    0.7126810993E-05    0.2040816258E-05    0.4145698965E-02
    0.3000000000E+01    0.4348958999E-05    0.4177439733E+00    0.1141415486E-04    0.5033223658E-05    0.4169114626E-02
    0.5000000000E+01    0.5009560799E-05    0.4972644338E+00    0.1332863060E-04    0.7742638936E-05    0.4174670024E-02
    0.7000000000E+01    0.5410385921E-05    0.5414362346E+00    0.1487481427E-04    0.1031711482E-04    0.4177099510E-02
    0.9000000000E+01    0.5728070201E-05    0.5695433988E+00    0.1638190631E-04    0.1280562915E-04    0.4178365828E-02
    0.1100000000E+02    0.6016809457E-05    0.5890012794E+00    0.1791575600E-04    0.1523244623E-04    0.4179065775E-02
    0.1300000000E+02    0.6296319754E-05    0.6032699377E+00    0.1948564920E-04    0.1761191136E-04    0.4179446364E-02
    0.1500000000E+02    0.6574427391E-05    0.6141810187E+00    0.2108773820E-04    0.1995342977E-04    0.4179629117E-02
    0.1700000000E+02    0.6854310849E-05    0.6227948868E+00    0.2271583544E-04    0.2226360617E-04    0.4179680974E-02
    0.1900000000E+02    0.7137183065E-05    0.6297679296E+00    0.2436419088E-04    0.2454731234E-04    0.4179641894E-02
    0.2100000000E+02    0.7423388980E-05    0.6355282119E+00    0.2602807809E-04    0.2680827729E-04    0.4179537215E-02
    0.2300000000E+02    0.7712887106E-05    0.6403668105E+00    0.2770377181E-04    0.2904943905E-04    0.4179383780E-02
    0.2500000000E+02    0.8005470952E-05    0.6444885527E+00    0.2938838019E-04    0.3127316685E-04    0.4179193218E-02
    0.2700000000E+02    0.8300873588E-05    0.6480417596E+00    0.3107966824E-04    0.3348140806E-04    0.4178973811E-02
    0.2900000000E+02    0.8598817218E-05    0.6511364739E+00    0.3277590833E-04    0.3567578905E-04    0.4178731611E-02
    0.3100000000E+02    0.8899036048E-05    0.6538560607E+00    0.3447576230E-04    0.3785768664E-04    0.4178471144E-02
    0.3300000000E+02    0.9201285934E-05    0.6562648295E+00    0.3617819111E-04    0.4002828006E-04    0.4178195853E-02
    0.3500000000E+02    0.9505347477E-05    0.6584131844E+00    0.3788238624E-04    0.4218858960E-04    0.4177908406E-02
    0.3700000000E+02    0.9811025910E-05    0.6603411902E+00    0.3958771769E-04    0.4433950593E-04    0.4177610898E-02
    0.3900000000E+02    0.1011814952E-04    0.6620810937E+00    0.4129369449E-04    0.4648181266E-04    0.4177304993E-02
    0.4100000000E+02    0.1042656748E-04    0.6636591425E+00    0.4299993454E-04    0.4861620413E-04    0.4176992033E-02
    0.4300000000E+02    0.1073614753E-04    0.6650969174E+00    0.4470614143E-04    0.5074329940E-04    0.4176673106E-02
    0.4500000000E+02    0.1104677377E-04    0.6664123262E+00    0.4641208658E-04    0.5286365359E-04    0.4176349104E-02
    0.4700000000E+02    0.1135834459E-04    0.6676203526E+00    0.4811759530E-04    0.5497776705E-04    0.4176020764E-02
    0.4900000000E+02    0.1167077086E-04    0.6687336302E+00    0.4982253594E-04    0.5708609285E-04    0.4175688701E-02
    0.1000000000E+02    0.5874404752E-05    0.5800831750E+00    0.1714436169E-04    0.1402570033E-04    0.4178766840E-02
    0.3000000000E+02    0.8748658057E-05    0.6525387621E+00    0.3362545463E-04    0.3676822044E-04    0.4178603425E-02
    0.5000000000E+02    0.1182727995E-04    0.6692581547E+00    0.5067476171E-04    0.5813821561E-04    0.4175521437E-02
    0.7000000000E+02    0.1498780380E-04    0.6766888745E+00    0.6767785642E-04    0.7896004686E-04    0.4172070153E-02
    0.9000000000E+02    0.1818529411E-04    0.6808888021E+00    0.8461164277E-04    0.9951331780E-04    0.4168528977E-02
    0.1100000000E+03    0.2140662152E-04    0.6835887296E+00    0.1015113341E-03    0.1199389293E-03    0.4164962948E-02
    0.1300000000E+03    0.2464828603E-04    0.6854704788E+00    0.1184134827E-03    0.1403217302E-03    0.4161390506E-02
    0.1500000000E+03    0.2791013303E-04    0.6868570166E+00    0.1353488942E-03    0.1607186065E-03    0.4157816255E-02
    0.1700000000E+03    0.3119325514E-04    0.6879210924E+00    0.1523428169E-03    0.1811706168E-03    0.4154240023E-02
    0.1900000000E+03    0.3449920413E-04    0.6887634763E+00    0.1694161110E-03    0.2017090681E-03    0.4150659911E-02
    0.2100000000E+03    0.3782967325E-04    0.6894469118E+00    0.1865863119E-03    0.2223588807E-03    0.4147073435E-02
    0.2300000000E+03    0.4118636580E-04    0.6900125068E+00    0.2038684472E-03    0.2431405957E-03    0.4143477987E-02
    0.2500000000E+03    0.4457094246E-04    0.6904883188E+00    0.2212756396E-03    0.2640716446E-03    0.4139871014E-02
    0.2700000000E+03    0.4798500339E-04    0.6908941533E+00    0.2388195516E-03    0.2851671893E-03    0.4136250092E-02
    0.2900000000E+03    0.5143008575E-04    0.6912443893E+00    0.2565107147E-03    0.3064406986E-03    0.4132612942E-02
    0.3100000000E+03    0.5490766798E-04    0.6915497193E+00    0.2743587775E-03    0.3279043575E-03    0.4128957431E-02
    0.3300000000E+03    0.5841917672E-04    0.6918182587E+00    0.2923726953E-03    0.3495693654E-03    0.4125281556E-02
    0.3500000000E+03    0.6196599447E-04    0.6920562790E+00    0.3105608759E-03    0.3714461580E-03    0.4121583432E-02
    0.3700000000E+03    0.6554946715E-04    0.6922687027E+00    0.3289312951E-03    0.3935445764E-03    0.4117861275E-02
    0.3900000000E+03    0.6917091107E-04    0.6924594478E+00    0.3474915877E-03    0.4158739987E-03    0.4114113391E-02
    0.4100000000E+03    0.7283161934E-04    0.6926316714E+00    0.3662491211E-03    0.4384434424E-03    0.4110338161E-02
    0.4300000000E+03    0.7653286759E-04    0.6927879460E+00    0.3852110558E-03    0.4612616485E-03    0.4106534028E-02
    0.4500000000E+03    0.8027591904E-04    0.6929303889E+00    0.4043843944E-03    0.4843371475E-03    0.4102699492E-02
    0.4700000000E+03    0.8406202912E-04    0.6930607584E+00    0.4237760237E-03    0.5076783156E-03    0.4098833096E-02
    0.4900000000E+03    0.8789244950E-04    0.6931805268E+00    0.4433927490E-03    0.5312934208E-03    0.4094933420E-02
    0.1000000000E+03    0.1979331613E-04    0.6823711185E+00    0.9306334771E-04    0.1097359122E-03    0.4166747406E-02
    0.3000000000E+03    0.5316472410E-04    0.6914021099E+00    0.2654145596E-03    0.3171480392E-03    0.4130787610E-02
    0.5000000000E+03    0.8982466709E-04    0.6932368317E+00    0.4532876347E-03    0.5432062636E-03    0.4092970667E-02
    0.7000000000E+03    0.1311066867E-03    0.6940260028E+00    0.6646625424E-03    0.7978575811E-03    0.4051637861E-02
    0.9000000000E+03    0.1783501515E-03    0.6944651347E+00    0.9066155721E-03    0.1089686174E-02    0.4005433346E-02
    0.1100000000E+04    0.2331540491E-03    0.6947448227E+00    0.1187441843E-02    0.1428760120E-02    0.3952902713E-02
    0.1300000000E+04    0.2975632764E-03    0.6949385499E+00    0.1517709985E-02    0.1827926375E-02    0.3892281837E-02
    0.1500000000E+04    0.3742840891E-03    0.6950806588E+00    0.1911399151E-02    0.2304199083E-02    0.3821307561E-02
    0.1700000000E+04    0.4669809936E-03    0.6951893489E+00    0.2387445930E-02    0.2880651858E-02    0.3736984416E-02
    0.1900000000E+04    0.5807065024E-03    0.6952751644E+00    0.2971980305E-02    0.3589158897E-02    0.3635266125E-02
    0.2100000000E+04    0.7225261971E-03    0.6953446360E+00    0.3701582517E-02    0.4474397697E-02    0.3510615100E-02
    0.2300000000E+04    0.9024003191E-03    0.6954020248E+00    0.4627891429E-02    0.5599533310E-02    0.3355422089E-02
    0.2500000000E+04    0.1134309151E-02    0.6954502290E+00    0.5823525576E-02    0.7053570893E-02    0.3159359181E-02
    0.2700000000E+04    0.1437280361E-02    0.6954912888E+00    0.7387600408E-02    0.8958347577E-02    0.2909053869E-02
    0.2900000000E+04    0.1834932089E-02    0.6955266819E+00    0.9443752400E-02    0.1146661608E-01    0.2589349733E-02
    0.3100000000E+04    0.2349705921E-02    0.6955575047E+00    0.1211092909E-01    0.1472719297E-01    0.2189216763E-02
    0.3300000000E+04    0.2985384649E-02    0.6955845881E+00    0.1541352381E-01    0.1877601985E-01    0.1716508959E-02
    0.3500000000E+04    0.3699299993E-02    0.6956085730E+00    0.1913692761E-01    0.2335902569E-01    0.1217488807E-02
    0.3700000000E+04    0.4397153259E-02    0.6956299618E+00    0.2279748809E-01    0.2789133605E-01    0.7725966569E-03
    0.3900000000E+04    0.4987503157E-02    0.6956491540E+00    0.2592099653E-01    0.3179282517E-01    0.4464134601E-03
    0.4100000000E+04    0.5442046175E-02    0.6956664710E+00    0.2835589363E-01    0.3487207510E-01    0.2455156434E-03
    0.4300000000E+04    0.5786992620E-02    0.6956821746E+00    0.3023284997E-01    0.3728237008E-01    0.1361044385E-03
    0.4500000000E+04    0.6061298076E-02    0.6956964798E+00    0.3175056797E-01    0.3926267593E-01    0.8068610019E-04
    0.4700000000E+04    0.6294385120E-02    0.6957095652E+00    0.3306005767E-01    0.4099581009E-01    0.5365834812E-04
    0.4900000000E+04    0.6503804659E-02    0.6957215803E+00    0.3425168337E-01    0.4259154898E-01    0.4071793162E-04
    0.1000000000E+04    0.2046919324E-03    0.6946189414E+00    0.1041574262E-02    0.1252594273E-02    0.3980059678E-02
    0.3000000000E+04    0.2076695204E-02    0.6955426075E+00    0.1069562205E-01    0.1299602509E-01    0.2399531887E-02
    0.5000000000E+04    0.6602801878E-02    0.6957272266E+00    0.3481960407E-01    0.4335773852E-01    0.3708057083E-04
    0.7000000000E+04    0.8258428681E-02    0.6958062030E+00    0.4470777267E-01    0.5719192742E-01    0.2944502506E-04
    0.9000000000E+04    0.9538153849E-02    0.6958499869E+00    0.5295288396E-01    0.6949599841E-01    0.2985415906E-04
    0.1100000000E+05    0.1053950986E-01    0.6958777878E+00    0.5994766386E-01    0.8061864899E-01    0.3018954401E-04
    0.1300000000E+05    0.1132452486E-01    0.6958969906E+00    0.6593550916E-01    0.9076252937E-01    0.3047153473E-04
    0.1500000000E+05    0.1193930218E-01    0.6959110398E+00    0.7110113081E-01    0.1000842837E+00    0.3071513330E-04
    0.1700000000E+05    0.1241868553E-01    0.6959217577E+00    0.7558718350E-01    0.1087071186E+00    0.3092975921E-04
    0.1900000000E+05    0.1278939335E-01    0.6959301988E+00    0.7950553469E-01    0.1167294076E+00    0.3112172090E-04
    0.2100000000E+05    0.1307217754E-01    0.6959370153E+00    0.8294510627E-01    0.1242307529E+00    0.3129545453E-04
    0.2300000000E+05    0.1328334038E-01    0.6959426325E+00    0.8597744328E-01    0.1312763426E+00    0.3145420072E-04
    0.2500000000E+05    0.1343581939E-01    0.6959473391E+00    0.8866074100E-01    0.1379201396E+00    0.3160040026E-04
    0.2700000000E+05    0.1353997579E-01    0.6959513383E+00    0.9104280514E-01    0.1442072518E+00    0.3173593819E-04
    0.2900000000E+05    0.1360417586E-01    0.6959547772E+00    0.9316326008E-01    0.1501757219E+00    0.3186230128E-04
    0.3100000000E+05    0.1363522518E-01    0.6959577646E+00    0.9505521855E-01    0.1558578945E+00    0.3198068320E-04
    0.3300000000E+05    0.1363869697E-01    0.6959603832E+00    0.9674655960E-01    0.1612814751E+00    0.3209205715E-04
    0.3500000000E+05    0.1361918301E-01    0.6959626964E+00    0.9826091776E-01    0.1664703578E+00    0.3219722714E-04
    0.3700000000E+05    0.1358048727E-01    0.6959647542E+00    0.9961845671E-01    0.1714452805E+00    0.3229686528E-04
    0.3900000000E+05    0.1352577690E-01    0.6959665961E+00    0.1008364800E+00    0.1762243470E+00    0.3239153918E-04
    0.4100000000E+05    0.1345770075E-01    0.6959682538E+00    0.1019299179E+00    0.1808234473E+00    0.3248173267E-04
    0.4300000000E+05    0.1337848331E-01    0.6959697533E+00    0.1029117176E+00    0.1852565994E+00    0.3256786156E-04
    0.4500000000E+05    0.1328999962E-01    0.6959711159E+00    0.1037931602E+00    0.1895362276E+00    0.3265028588E-04
    0.4700000000E+05    0.1319383544E-01    0.6959723591E+00    0.1045841178E+00    0.1936733926E+00    0.3272931946E-04
    0.4900000000E+05    0.1309133593E-01    0.6959734978E+00    0.1052932653E+00    0.1976779814E+00    0.3280523755E-04
    0.1000000000E+05    0.1006930933E-01    0.6958652852E+00    0.5658973345E-01    0.7519107328E-01    0.3002979580E-04
    0.3000000000E+05    0.1362347041E-01    0.6959563216E+00    0.9413594906E-01    0.1530507657E+00    0.3192242458E-04
    0.5000000000E+05    0.1303807488E-01    0.6959740318E+00    0.1056195874E+00    0.1996333682E+00    0.3284210528E-04
    0.7000000000E+05    0.1184163908E-01    0.6959814117E+00    0.1093026045E+00    0.2335225691E+00    0.3346223044E-04
    0.9000000000E+05    0.1064397470E-01    0.6959853937E+00    0.1098140610E+00    0.2604185713E+00    0.3393300837E-04
    0.1100000000E+06    0.9570755988E-02    0.6959878518E+00    0.1088361002E+00    0.2828128663E+00    0.3431365671E-04
    0.1300000000E+06    0.8636827900E-02    0.6959895004E+00    0.1071099324E+00    0.3020275381E+00    0.3463378700E-04
    0.1500000000E+06    0.7829492695E-02    0.6959906701E+00    0.1050032183E+00    0.3188557607E+00    0.3491038531E-04
    0.1700000000E+06    0.7130703515E-02    0.6959915343E+00    0.1027129855E+00    0.3338152345E+00    0.3515412011E-04
    0.1900000000E+06    0.6523291324E-02    0.6959921924E+00    0.1003503384E+00    0.3472651433E+00    0.3537213996E-04
    0.2100000000E+06    0.5992498412E-02    0.6959927056E+00    0.9797993721E-01    0.3594664376E+00    0.3556947378E-04
    0.2300000000E+06    0.5526077782E-02    0.6959931132E+00    0.9563997465E-01    0.3706156117E+00    0.3574979633E-04
    0.2500000000E+06    0.5113985728E-02    0.6959934418E+00    0.9335294664E-01    0.3808649080E+00    0.3591587602E-04
    0.2700000000E+06    0.4748002015E-02    0.6959937099E+00    0.9113175846E-01    0.3903350511E+00    0.3606985138E-04
    0.2900000000E+06    0.4421381879E-02    0.6959939308E+00    0.8898332818E-01    0.3991236283E+00    0.3621340938E-04
    0.3100000000E+06    0.4128565412E-02    0.6959941142E+00    0.8691078364E-01    0.4073108051E+00    0.3634790463E-04
    0.3300000000E+06    0.3864943631E-02    0.6959942676E+00    0.8491483754E-01    0.4149633438E+00    0.3647444162E-04
    0.3500000000E+06    0.3626672956E-02    0.6959943964E+00    0.8299466656E-01    0.4221375036E+00    0.3659393300E-04
    0.3700000000E+06    0.3410528782E-02    0.6959945050E+00    0.8114848284E-01    0.4288811803E+00    0.3670714171E-04
    0.3900000000E+06    0.3213789836E-02    0.6959945968E+00    0.7937391017E-01    0.4352355165E+00    0.3681471214E-04
    0.4100000000E+06    0.3034146568E-02    0.6959946746E+00    0.7766823379E-01    0.4412361353E+00    0.3691719360E-04
    0.4300000000E+06    0.2869628228E-02    0.6959947404E+00    0.7602856685E-01    0.4469140982E+00    0.3701505821E-04
    0.4500000000E+06    0.2718544511E-02    0.6959947962E+00    0.7445196151E-01    0.4522966608E+00    0.3710871478E-04
    0.4700000000E+06    0.2579438587E-02    0.6959948433E+00    0.7293548243E-01    0.4574078752E+00    0.3719851967E-04
    0.4900000000E+06    0.2451049070E-02    0.6959948829E+00    0.7147625485E-01    0.4622690762E+00    0.3728478545E-04
    0.1000000000E+06    0.1008976274E-01    0.6959867551E+00    0.1094523695E+00    0.2720788456E+00    0.3413233631E-04
    0.3000000000E+06    0.4271056149E-02    0.6959940267E+00    0.8793748120E-01    0.4032879434E+00    0.3628171573E-04
    0.5000000000E+06    0.2390524483E-02    0.6959949003E+00    0.7076723636E-01    0.4646119447E+00    0.3732667861E-04
    0.7000000000E+06    0.1539774514E-02    0.6959950313E+00    0.5898124238E-01    0.5020334212E+00    0.3803136059E-04
    0.9000000000E+06    0.1078731591E-02    0.6959949679E+00    0.5050503148E-01    0.5275638114E+00    0.3856635826E-04
    0.1100000000E+07    0.7995615276E-03    0.6959948399E+00    0.4413641940E-01    0.5461800915E+00    0.3899894370E-04
    0.1300000000E+07    0.6172154170E-03    0.6959946900E+00    0.3918197203E-01    0.5603858904E+00    0.3936276015E-04
    0.1500000000E+07    0.4913384113E-03    0.6959945348E+00    0.3521990071E-01    0.5715945753E+00    0.3967710783E-04
    0.1700000000E+07    0.4006885453E-03    0.6959943812E+00    0.3198020975E-01    0.5806694506E+00    0.3995410922E-04
    0.1900000000E+07    0.3331857548E-03    0.6959942321E+00    0.2928240687E-01    0.5881694099E+00    0.4020188748E-04
    0.2100000000E+07    0.2815349107E-03    0.6959940888E+00    0.2700137366E-01    0.5944729583E+00    0.4042615729E-04
    0.2300000000E+07    0.2411131662E-03    0.6959939517E+00    0.2504768964E-01    0.5998458724E+00    0.4063109459E-04
    0.2500000000E+07    0.2088729360E-03    0.6959938206E+00    0.2335576926E-01    0.6044804089E+00    0.4081984540E-04
    0.2700000000E+07    0.1827375376E-03    0.6959936953E+00    0.2187642677E-01    0.6085191571E+00    0.4099484000E-04
    0.2900000000E+07    0.1612515253E-03    0.6959935755E+00    0.2057205730E-01    0.6120701440E+00    0.4115799550E-04
    0.3100000000E+07    0.1433698516E-03    0.6959934609E+00    0.1941342109E-01    0.6152167299E+00    0.4131085134E-04
    0.3300000000E+07    0.1283261640E-03    0.6959933510E+00    0.1837744198E-01    0.6180242807E+00    0.4145466272E-04
    0.3500000000E+07    0.1155479787E-03    0.6959932457E+00    0.1744566597E-01    0.6205447819E+00    0.4159046683E-04
    0.3700000000E+07    0.1046005624E-03    0.6959931445E+00    0.1660315992E-01    0.6228201000E+00    0.4171913070E-04
    0.3900000000E+07    0.9514891818E-04    0.6959930472E+00    0.1583771079E-01    0.6248843326E+00    0.4184138668E-04
    0.4100000000E+07    0.8693148886E-04    0.6959929534E+00    0.1513923364E-01    0.6267655323E+00    0.4195785905E-04
    0.4300000000E+07    0.7974161778E-04    0.6959928630E+00    0.1449932780E-01    0.6284869906E+00    0.4206908435E-04
    0.4500000000E+07    0.7341425648E-04    0.6959927758E+00    0.1391093962E-01    0.6300682073E+00    0.4217552719E-04
    0.4700000000E+07    0.6781628563E-04    0.6959926914E+00    0.1336810304E-01    0.6315256322E+00    0.4227759257E-04
    0.4900000000E+07    0.6283936790E-04    0.6959926099E+00    0.1286573791E-01    0.6328732395E+00    0.4237563572E-04
    0.1000000000E+07    0.9232708532E-03    0.6959949083E+00    0.4710898847E-01    0.5375444159E+00    0.3879288211E-04
    0.3000000000E+07    0.1519134070E-03    0.6959935176E+00    0.1997608861E-01    0.6136895420E+00    0.4123562665E-04
    0.5000000000E+07    0.6055538098E-04    0.6959925700E+00    0.1262834712E-01    0.6335096640E+00    0.4242324833E-04
    0.7000000000E+07    0.3248388866E-04    0.6959918832E+00    0.9217355166E-02    0.6426284065E+00    0.4322413813E-04
    0.9000000000E+07    0.2027013520E-04    0.6959913442E+00    0.7250405215E-02    0.6478663800E+00    0.4383217840E-04
    0.1100000000E+08    0.1386670024E-04    0.6959909000E+00    0.5971703517E-02    0.6512644702E+00    0.4432382467E-04
    0.1300000000E+08    0.1009164194E-04    0.6959905216E+00    0.5074275037E-02    0.6536463683E+00    0.4473731311E-04
    0.1500000000E+08    0.7678582315E-05    0.6959901916E+00    0.4409964897E-02    0.6554081302E+00    0.4509457886E-04
    0.1700000000E+08    0.6041952460E-05    0.6959898987E+00    0.3898524349E-02    0.6567637586E+00    0.4540939945E-04
    0.1900000000E+08    0.4880455724E-05    0.6959896353E+00    0.3492719437E-02    0.6578389994E+00    0.4569100707E-04
    0.2100000000E+08    0.4026103762E-05    0.6959893959E+00    0.3162943221E-02    0.6587125741E+00    0.4594589660E-04
    0.2300000000E+08    0.3379175846E-05    0.6959891762E+00    0.2889698395E-02    0.6594362750E+00    0.4617881412E-04
    0.2500000000E+08    0.2877418501E-05    0.6959889732E+00    0.2659623615E-02    0.6600455692E+00    0.4639333520E-04
    0.2700000000E+08    0.2480326038E-05    0.6959887845E+00    0.2463256936E-02    0.6605655588E+00    0.4659222192E-04
