  Pressure (Pa) 23mC5-500 (mol/kg) 24mC5-500 (mol/kg) 2mC6-500 (mol/kg) 3mC6-500 (mol/kg) C7-500 (mol/kg)
    0.1000000000E+01    0.3260850983E-05    0.1266333852E+00    0.8890025019E-05    0.5389304732E-05    0.4168904632E-02
    0.3000000000E+01    0.6721850571E-05    0.2785286187E+00    0.1754613456E-04    0.1356458872E-04    0.4196770835E-02
    0.5000000000E+01    0.8469967499E-05    0.3664369328E+00    0.2161597033E-04    0.2103912380E-04    0.4209243923E-02
    0.7000000000E+01    0.9496682412E-05    0.4237568847E+00    0.2400222545E-04    0.2818109677E-04    0.4216822709E-02
    0.9000000000E+01    0.1017156293E-04    0.4640880053E+00    0.2569065817E-04    0.3511349055E-04    0.4221902023E-02
    0.1100000000E+02    0.1065845505E-04    0.4940085160E+00    0.2707561228E-04    0.4189750532E-04    0.4225495897E-02
    0.1300000000E+02    0.1103870187E-04    0.5170886419E+00    0.2833138536E-04    0.4856942397E-04    0.4228126755E-02
    0.1500000000E+02    0.1135605029E-04    0.5354335579E+00    0.2953990465E-04    0.5515308149E-04    0.4230094965E-02
    0.1700000000E+02    0.1163546053E-04    0.5503649576E+00    0.3074093290E-04    0.6166524119E-04    0.4231586561E-02
    0.1900000000E+02    0.1189182689E-04    0.5627545151E+00    0.3195380959E-04    0.6811828366E-04    0.4232723302E-02
    0.2100000000E+02    0.1213434803E-04    0.5732003941E+00    0.3318756949E-04    0.7452169609E-04    0.4233588386E-02
    0.2300000000E+02    0.1236885622E-04    0.5821267223E+00    0.3444591760E-04    0.8088296128E-04    0.4234240670E-02
    0.2500000000E+02    0.1259912231E-04    0.5898425945E+00    0.3572977931E-04    0.8720811972E-04    0.4234723011E-02
    0.2700000000E+02    0.1282761767E-04    0.5965785966E+00    0.3703864857E-04    0.9350214172E-04    0.4235067377E-02
    0.2900000000E+02    0.1305597468E-04    0.6025102430E+00    0.3837131554E-04    0.9976918304E-04    0.4235298113E-02
    0.3100000000E+02    0.1328527329E-04    0.6077734919E+00    0.3972626362E-04    0.1060127661E-03    0.4235434096E-02
    0.3300000000E+02    0.1351622388E-04    0.6124752948E+00    0.4110188579E-04    0.1122359117E-03    0.4235490192E-02
    0.3500000000E+02    0.1374928642E-04    0.6167009401E+00    0.4249660040E-04    0.1184412374E-03    0.4235478270E-02
    0.3700000000E+02    0.1398474963E-04    0.6205192739E+00    0.4390891029E-04    0.1246310316E-03    0.4235407929E-02
    0.3900000000E+02    0.1422278432E-04    0.6239864802E+00    0.4533743005E-04    0.1308073111E-03    0.4235287010E-02
    0.4100000000E+02    0.1446347988E-04    0.6271488638E+00    0.4678089520E-04    0.1369718663E-03    0.4235121987E-02
    0.4300000000E+02    0.1470686949E-04    0.6300449305E+00    0.4823816156E-04    0.1431262966E-03    0.4234918253E-02
    0.4500000000E+02    0.1495294778E-04    0.6327069624E+00    0.4970819932E-04    0.1492720392E-03    0.4234680335E-02
    0.4700000000E+02    0.1520168314E-04    0.6351622268E+00    0.5119008471E-04    0.1554103926E-03    0.4234412063E-02
    0.4900000000E+02    0.1545302653E-04    0.6374339134E+00    0.5268299064E-04    0.1615425356E-03    0.4234116697E-02
    0.1000000000E+02    0.1043220783E-04    0.4800802664E+00    0.2640709296E-04    0.3852139264E-04    0.4223844855E-02
    0.3000000000E+02    0.1317045486E-04    0.6052181514E+00    0.3904610447E-04    0.1028937076E-03    0.4235376939E-02
    0.5000000000E+02    0.1557965770E-04    0.6385072309E+00    0.5343334195E-04    0.1646066178E-03    0.4233959743E-02
    0.7000000000E+02    0.1823263721E-04    0.6539224982E+00    0.6887698409E-04    0.2257807473E-03    0.4229904452E-02
    0.9000000000E+02    0.2107282561E-04    0.6628126135E+00    0.8493422595E-04    0.2871566951E-03    0.4224812358E-02
    0.1100000000E+03    0.2405777960E-04    0.6685969089E+00    0.1014534465E-03    0.3491263181E-03    0.4219167651E-02
    0.1300000000E+03    0.2716417205E-04    0.6726608928E+00    0.1183828627E-03    0.4119425458E-03    0.4213163808E-02
    0.1500000000E+03    0.3037955861E-04    0.6756726536E+00    0.1357094789E-03    0.4757905854E-03    0.4206890700E-02
    0.1700000000E+03    0.3369758360E-04    0.6779939910E+00    0.1534372838E-03    0.5408186752E-03    0.4200393657E-02
    0.1900000000E+03    0.3711546059E-04    0.6798378921E+00    0.1715784967E-03    0.6071535093E-03    0.4193696249E-02
    0.2100000000E+03    0.4063261633E-04    0.6813379077E+00    0.1901497336E-03    0.6749088318E-03    0.4186810364E-02
    0.2300000000E+03    0.4424993099E-04    0.6825820273E+00    0.2091702239E-03    0.7441906274E-03    0.4179741118E-02
    0.2500000000E+03    0.4796929581E-04    0.6836305816E+00    0.2286609560E-03    0.8151004695E-03    0.4172489446E-02
    0.2700000000E+03    0.5179334763E-04    0.6845263182E+00    0.2486442697E-03    0.8877378079E-03    0.4165053540E-02
    0.2900000000E+03    0.5572530604E-04    0.6853003726E+00    0.2691436762E-03    0.9622016150E-03    0.4157429690E-02
    0.3100000000E+03    0.5976887253E-04    0.6859759600E+00    0.2901837995E-03    0.1038591631E-02    0.4149612788E-02
    0.3300000000E+03    0.6392816842E-04    0.6865707434E+00    0.3117903848E-03    0.1117009352E-02    0.4141596643E-02
    0.3500000000E+03    0.6820769801E-04    0.6870983998E+00    0.3339903467E-03    0.1197558846E-02    0.4133374168E-02
    0.3700000000E+03    0.7261232857E-04    0.6875696843E+00    0.3568118420E-03    0.1280347467E-02    0.4124937506E-02
    0.3900000000E+03    0.7714728207E-04    0.6879931712E+00    0.3802843585E-03    0.1365486486E-02    0.4116278100E-02
    0.4100000000E+03    0.8181813553E-04    0.6883757797E+00    0.4044388164E-03    0.1453091693E-02    0.4107386732E-02
    0.4300000000E+03    0.8663082762E-04    0.6887231550E+00    0.4293076798E-03    0.1543283965E-02    0.4098253540E-02
    0.4500000000E+03    0.9159167047E-04    0.6890399488E+00    0.4549250768E-03    0.1636189827E-02    0.4088868021E-02
    0.4700000000E+03    0.9670736562E-04    0.6893300283E+00    0.4813269293E-03    0.1731942022E-02    0.4079219018E-02
    0.4900000000E+03    0.1019850236E-03    0.6895966353E+00    0.5085510913E-03    0.1830680083E-02    0.4069294701E-02
    0.1000000000E+03    0.2254899869E-04    0.6659815345E+00    0.9314064789E-04    0.3180493689E-03    0.4222043409E-02
    0.3000000000E+03    0.5773289000E-04    0.6856492620E+00    0.2795945659E-03    0.1000149555E-02    0.4153545735E-02
    0.5000000000E+03    0.1046869281E-03    0.6897220090E+00    0.5224839325E-03    0.1881214423E-02    0.4064225413E-02
    0.7000000000E+03    0.1693836729E-03    0.6914817842E+00    0.8556269251E-03    0.3090177481E-02    0.3944826884E-02
    0.9000000000E+03    0.2632013006E-03    0.6924630006E+00    0.1338388879E-02    0.4844604201E-02    0.3776826909E-02
    0.1100000000E+04    0.4079157012E-03    0.6930886475E+00    0.2083629007E-02    0.7557852324E-02    0.3525947463E-02
    0.1300000000E+04    0.6468640316E-03    0.6935222966E+00    0.3316256111E-02    0.1205584342E-01    0.3127265402E-02
    0.1500000000E+04    0.1059621974E-02    0.6938405356E+00    0.5451491332E-02    0.1987235204E-01    0.2472949958E-02
    0.1700000000E+04    0.1712709933E-02    0.6940840018E+00    0.8846596104E-02    0.3236575866E-01    0.1518238264E-02
    0.1900000000E+04    0.2412323776E-02    0.6942762605E+00    0.1251997107E-01    0.4602293209E-01    0.6456765019E-03
    0.2100000000E+04    0.2868251081E-02    0.6944319172E+00    0.1496609058E-01    0.5531677875E-01    0.2549696707E-03
    0.2300000000E+04    0.3145572854E-02    0.6945605062E+00    0.1650421434E-01    0.6135061170E-01    0.1495417494E-03
    0.2500000000E+04    0.3359184129E-02    0.6946685157E+00    0.1772314248E-01    0.6625952906E-01    0.1261366624E-03
    0.2700000000E+04    0.3549826288E-02    0.6947605141E+00    0.1883281235E-01    0.7080951885E-01    0.1214498288E-03
    0.2900000000E+04    0.3728138403E-02    0.6948398112E+00    0.1988780669E-01    0.7519912149E-01    0.1208048126E-03
    0.3100000000E+04    0.3896956033E-02    0.6949088636E+00    0.2090221737E-01    0.7947811250E-01    0.1210117610E-03
    0.3300000000E+04    0.4057264048E-02    0.6949695328E+00    0.2188051560E-01    0.8366082211E-01    0.1213841351E-03
    0.3500000000E+04    0.4209602462E-02    0.6950232555E+00    0.2282488204E-01    0.8775319801E-01    0.1217748899E-03
    0.3700000000E+04    0.4354391053E-02    0.6950711579E+00    0.2373690636E-01    0.9175910910E-01    0.1221536447E-03
    0.3900000000E+04    0.4492005025E-02    0.6951141352E+00    0.2461798317E-01    0.9568181561E-01    0.1225152852E-03
    0.4100000000E+04    0.4622793542E-02    0.6951529081E+00    0.2546940745E-01    0.9952431891E-01    0.1228600571E-03
    0.4300000000E+04    0.4747085055E-02    0.6951880634E+00    0.2629240021E-01    0.1032894505E+00    0.1231892136E-03
    0.4500000000E+04    0.4865189498E-02    0.6952200836E+00    0.2708811774E-01    0.1069798999E+00    0.1235040770E-03
    0.4700000000E+04    0.4977399690E-02    0.6952493690E+00    0.2785765673E-01    0.1105982267E+00    0.1238058537E-03
    0.4900000000E+04    0.5083992473E-02    0.6952762547E+00    0.2860205822E-01    0.1141468701E+00    0.1240956130E-03
    0.1000000000E+04    0.3271794119E-03    0.6928069934E+00    0.1667745378E-02    0.6043049508E-02    0.3664854410E-02
    0.3000000000E+04    0.3813654629E-02    0.6948754900E+00    0.2039971304E-01    0.7735120758E-01    0.1208672285E-03
    0.5000000000E+04    0.5135264735E-02    0.6952888876E+00    0.2896514338E-01    0.1158957914E+00    0.1242362859E-03
    0.7000000000E+04    0.5922391709E-02    0.6954654430E+00    0.3512284598E-01    0.1477273712E+00    0.1265989307E-03
    0.9000000000E+04    0.6372656322E-02    0.6955631356E+00    0.3963500854E-01    0.1746723142E+00    0.1283890580E-03
    0.1100000000E+05    0.6604957340E-02    0.6956250383E+00    0.4298214910E-01    0.1979262716E+00    0.1298348445E-03
    0.1300000000E+05    0.6693701446E-02    0.6956677044E+00    0.4548100962E-01    0.2183083478E+00    0.1310498893E-03
    0.1500000000E+05    0.6686910694E-02    0.6956988508E+00    0.4734796743E-01    0.2364003903E+00    0.1320991801E-03
    0.1700000000E+05    0.6616354513E-02    0.6957225582E+00    0.4873529552E-01    0.2526284653E+00    0.1330234588E-03
    0.1900000000E+05    0.6503470339E-02    0.6957411864E+00    0.4975287264E-01    0.2673127327E+00    0.1338499886E-03
    0.2100000000E+05    0.6362951709E-02    0.6957561941E+00    0.5048169735E-01    0.2806991767E+00    0.1345979294E-03
    0.2300000000E+05    0.6204991136E-02    0.6957685317E+00    0.5098258537E-01    0.2929804725E+00    0.1352812706E-03
    0.2500000000E+05    0.6036719844E-02    0.6957788443E+00    0.5130193119E-01    0.3043101092E+00    0.1359105448E-03
    0.2700000000E+05    0.5863153414E-02    0.6957875855E+00    0.5147562257E-01    0.3148121934E+00    0.1364938837E-03
    0.2900000000E+05    0.5687825449E-02    0.6957950831E+00    0.5153175999E-01    0.3245884071E+00    0.1370376992E-03
    0.3100000000E+05    0.5513219645E-02    0.6958015802E+00    0.5149258364E-01    0.3337230463E+00    0.1375471380E-03
    0.3300000000E+05    0.5341068952E-02    0.6958072605E+00    0.5137586327E-01    0.3422867354E+00    0.1380263954E-03
    0.3500000000E+05    0.5172565510E-02    0.6958122655E+00    0.5119591656E-01    0.3503392094E+00    0.1384789368E-03
    0.3700000000E+05    0.5008509704E-02    0.6958167061E+00    0.5096436616E-01    0.3579314285E+00    0.1389076585E-03
    0.3900000000E+05    0.4849417097E-02    0.6958206702E+00    0.5069070968E-01    0.3651072077E+00    0.1393150063E-03
    0.4100000000E+05    0.4695595835E-02    0.6958242286E+00    0.5038275411E-01    0.3719044868E+00    0.1397030647E-03
    0.4300000000E+05    0.4547203096E-02    0.6958274386E+00    0.5004695030E-01    0.3783563323E+00    0.1400736251E-03
    0.4500000000E+05    0.4404286542E-02    0.6958303474E+00    0.4968865321E-01    0.3844917347E+00    0.1404282382E-03
    0.4700000000E+05    0.4266814909E-02    0.6958329942E+00    0.4931232614E-01    0.3903362507E+00    0.1407682557E-03
    0.4900000000E+05    0.4134700679E-02    0.6958354115E+00    0.4892170238E-01    0.3959125235E+00    0.1410948631E-03
    0.1000000000E+05    0.6510623338E-02    0.6955972154E+00    0.4143149112E-01    0.1867026517E+00    0.1291463064E-03
    0.3000000000E+05    0.5600309186E-02    0.6957984441E+00    0.5152288408E-01    0.3292312254E+00    0.1372964341E-03
    0.5000000000E+05    0.4070614102E-02    0.6958365428E+00    0.4872202856E-01    0.3986064544E+00    0.1412534696E-03
    0.7000000000E+05    0.3030044334E-02    0.6958519637E+00    0.4451620132E-01    0.4423060080E+00    0.1439210828E-03
    0.9000000000E+05    0.2331920230E-02    0.6958600219E+00    0.4052531824E-01    0.4730328351E+00    0.1459460529E-03
    0.1100000000E+06    0.1847572370E-02    0.6958648224E+00    0.3701974570E-01    0.4960465548E+00    0.1475832574E-03
    0.1300000000E+06    0.1499398753E-02    0.6958679168E+00    0.3399387492E-01    0.5140213640E+00    0.1489601196E-03
    0.1500000000E+06    0.1241175469E-02    0.6958700166E+00    0.3138439278E-01    0.5284923558E+00    0.1501497239E-03
    0.1700000000E+06    0.1044508252E-02    0.6958714917E+00    0.2912358175E-01    0.5404151068E+00    0.1511979682E-03
    0.1900000000E+06    0.8913084996E-03    0.6958725524E+00    0.2715221176E-01    0.5504202512E+00    0.1521356056E-03
    0.2100000000E+06    0.7696504643E-03    0.6958733263E+00    0.2542142197E-01    0.5589428920E+00    0.1529842690E-03
    0.2300000000E+06    0.6714265999E-03    0.6958738954E+00    0.2389164999E-01    0.5662939584E+00    0.1537597657E-03
    0.2500000000E+06    0.5909741051E-03    0.6958743140E+00    0.2253097897E-01    0.5727020836E+00    0.1544740039E-03
    0.2700000000E+06    0.5242425873E-03    0.6958746198E+00    0.2131358915E-01    0.5783394310E+00    0.1551361823E-03
    0.2900000000E+06    0.4682735597E-03    0.6958748394E+00    0.2021847601E-01    0.5833382789E+00    0.1557535568E-03
    0.3100000000E+06    0.4208655490E-03    0.6958749921E+00    0.1922843561E-01    0.5878020348E+00    0.1563319538E-03
    0.3300000000E+06    0.3803530421E-03    0.6958750923E+00    0.1832927493E-01    0.5918127636E+00    0.1568761241E-03
    0.3500000000E+06    0.3454571759E-03    0.6958751509E+00    0.1750920018E-01    0.5954364603E+00    0.1573899929E-03
    0.3700000000E+06    0.3151827779E-03    0.6958751761E+00    0.1675834213E-01    0.5987268240E+00    0.1578768415E-03
    0.3900000000E+06    0.2887460236E-03    0.6958751744E+00    0.1606838648E-01    0.6017280095E+00    0.1583394416E-03
    0.4100000000E+06    0.2655227392E-03    0.6958751507E+00    0.1543228405E-01    0.6044766678E+00    0.1587801556E-03
    0.4300000000E+06    0.2450108800E-03    0.6958751093E+00    0.1484402221E-01    0.6070034827E+00    0.1592010141E-03
    0.4500000000E+06    0.2268029126E-03    0.6958750532E+00    0.1429844331E-01    0.6093343424E+00    0.1596037754E-03
    0.4700000000E+06    0.2105652205E-03    0.6958749851E+00    0.1379109945E-01    0.6114912444E+00    0.1599899720E-03
    0.4900000000E+06    0.1960225648E-03    0.6958749070E+00    0.1331813552E-01    0.6134930031E+00    0.1603609483E-03
    0.1000000000E+06    0.2068823497E-02    0.6958627027E+00    0.3870968720E-01    0.4852998611E+00    0.1468033898E-03
    0.3000000000E+06    0.4436140584E-03    0.6958749231E+00    0.1971127142E-01    0.5856314847E+00    0.1560473087E-03
    0.5000000000E+06    0.1893138492E-03    0.6958748648E+00    0.1309347971E-01    0.6144408523E+00    0.1605411049E-03
    0.7000000000E+06    0.1048207427E-03    0.6958737914E+00    0.9781887866E-02    0.6282041414E+00    0.1635714837E-03
    0.9000000000E+06    0.6662123200E-04    0.6958726081E+00    0.7799371995E-02    0.6362726658E+00    0.1658721359E-03
    0.1100000000E+07    0.4612752122E-04    0.6958714777E+00    0.6481028904E-02    0.6415749016E+00    0.1677323711E-03
    0.1300000000E+07    0.3385790171E-04    0.6958704312E+00    0.5541588779E-02    0.6453248596E+00    0.1692968727E-03
    0.1500000000E+07    0.2592759084E-04    0.6958694686E+00    0.4838525169E-02    0.6481168280E+00    0.1706486406E-03
    0.1700000000E+07    0.2050375846E-04    0.6958685821E+00    0.4292760201E-02    0.6502760979E+00    0.1718398066E-03
    0.1900000000E+07    0.1662924136E-04    0.6958677625E+00    0.3856916101E-02    0.6519956915E+00    0.1729053038E-03
    0.2100000000E+07    0.1376423463E-04    0.6958670016E+00    0.3500887288E-02    0.6533973838E+00    0.1738697073E-03
    0.2300000000E+07    0.1158537358E-04    0.6958662920E+00    0.3204631591E-02    0.6545617948E+00    0.1747509753E-03
    0.2500000000E+07    0.9889286389E-05    0.6958656275E+00    0.2954292200E-02    0.6555444189E+00    0.1755626368E-03
    0.2700000000E+07    0.8542829157E-05    0.6958650029E+00    0.2739983887E-02    0.6563847036E+00    0.1763151428E-03
    0.2900000000E+07    0.7455848896E-05    0.6958644136E+00    0.2554466108E-02    0.6571114579E+00    0.1770167375E-03
    0.3100000000E+07    0.6565526056E-05    0.6958638561E+00    0.2392314550E-02    0.6577462108E+00    0.1776740409E-03
    0.3300000000E+07    0.5826991635E-05    0.6958633269E+00    0.2249385597E-02    0.6583053744E+00    0.1782924509E-03
    0.3500000000E+07    0.5207500187E-05    0.6958628234E+00    0.2122459666E-02    0.6588016778E+00    0.1788764277E-03
    0.3700000000E+07    0.4682697324E-05    0.6958623432E+00    0.2008997389E-02    0.6592451454E+00    0.1794296997E-03
    0.3900000000E+07    0.4234163092E-05    0.6958618841E+00    0.1906969101E-02    0.6596437789E+00    0.1799554163E-03
    0.4100000000E+07    0.3847755835E-05    0.6958614444E+00    0.1814733144E-02    0.6600040427E+00    0.1804562620E-03
    0.4300000000E+07    0.3512471598E-05    0.6958610225E+00    0.1730947440E-02    0.6603312160E+00    0.1809345442E-03
    0.4500000000E+07    0.3219643417E-05    0.6958606170E+00    0.1654504179E-02    0.6606296526E+00    0.1813922608E-03
    0.4700000000E+07    0.2962369408E-05    0.6958602265E+00    0.1584480872E-02    0.6609029749E+00    0.1818311533E-03
    0.4900000000E+07    0.2735097854E-05    0.6958598501E+00    0.1520103182E-02    0.6611542215E+00    0.1822527494E-03
    0.1000000000E+07    0.5495850552E-04    0.6958720331E+00    0.7079873179E-02    0.6391723613E+00    0.1668462515E-03
    0.3000000000E+07    0.6989249156E-05    0.6958641311E+00    0.2470753688E-02    0.6574392084E+00    0.1773505634E-03
    0.5000000000E+07    0.2631270429E-05    0.6958596668E+00    0.1489822803E-02    0.6612723846E+00    0.1824574886E-03
    0.7000000000E+07    0.1381392143E-05    0.6958565436E+00    0.1064489334E-02    0.6629316090E+00    0.1859013848E-03
    0.9000000000E+07    0.8546833569E-06    0.6958541302E+00    0.8272472286E-03    0.6638570164E+00    0.1885159940E-03
    0.1100000000E+08    0.5834615743E-06    0.6958521578E+00    0.6760486670E-03    0.6644470144E+00    0.1906300913E-03
    0.1300000000E+08    0.4253264580E-06    0.6958504867E+00    0.5713267340E-03    0.6648558679E+00    0.1924080996E-03
    0.1500000000E+08    0.3249590832E-06    0.6958490349E+00    0.4945363468E-03    0.6651558426E+00    0.1939443437E-03
    0.1700000000E+08    0.2571963810E-06    0.6958477501E+00    0.4358344014E-03    0.6653852889E+00    0.1952980691E-03
    0.1900000000E+08    0.2092428757E-06    0.6958465969E+00    0.3895133693E-03    0.6655664452E+00    0.1965089757E-03
    0.2100000000E+08    0.1740270750E-06    0.6958455500E+00    0.3520366385E-03    0.6657130931E+00    0.1976049924E-03
    0.2300000000E+08    0.1473795497E-06    0.6958445910E+00    0.3210964071E-03    0.6658342278E+00    0.1986065279E-03
    0.2500000000E+08    0.1267111644E-06    0.6958437058E+00    0.2951228804E-03    0.6659359692E+00    0.1995289574E-03
    0.2700000000E+08    0.1103443278E-06    0.6958428835E+00    0.2730112396E-03    0.6660226257E+00    0.2003841583E-03
