  Pressure (Pa) 23mC5-500 (mol/kg) 24mC5-500 (mol/kg) 2mC6-500 (mol/kg) 3mC6-500 (mol/kg) C7-500 (mol/kg)
    0.1000000000E+01    0.3617184501E-05    0.6965153835E-01    0.1321547539E-04    0.5031082015E-05    0.4184207705E-02
    0.3000000000E+01    0.8655361275E-05    0.1740898246E+00    0.3062550239E-04    0.1279014498E-04    0.4229682230E-02
    0.5000000000E+01    0.1196981747E-04    0.2486609068E+00    0.4141654199E-04    0.1991430222E-04    0.4259095226E-02
    0.7000000000E+01    0.1427425487E-04    0.3045747937E+00    0.4856008890E-04    0.2673611060E-04    0.4280814594E-02
    0.9000000000E+01    0.1594590691E-04    0.3480552689E+00    0.5356091215E-04    0.3336729549E-04    0.4297612682E-02
    0.1100000000E+02    0.1720157530E-04    0.3828348275E+00    0.5724802972E-04    0.3986362572E-04    0.4311005576E-02
    0.1300000000E+02    0.1817352797E-04    0.4112878285E+00    0.6010519326E-04    0.4625823438E-04    0.4321929501E-02
    0.1500000000E+02    0.1894628941E-04    0.4349967249E+00    0.6242727826E-04    0.5257292267E-04    0.4331001039E-02
    0.1700000000E+02    0.1957592441E-04    0.4550568096E+00    0.6440029685E-04    0.5882304379E-04    0.4338644821E-02
    0.1900000000E+02    0.2010077671E-04    0.4722502884E+00    0.6614483845E-04    0.6501994960E-04    0.4345163554E-02
    0.2100000000E+02    0.2054775006E-04    0.4871506906E+00    0.6774080715E-04    0.7117234758E-04    0.4350779167E-02
    0.2300000000E+02    0.2093613489E-04    0.5001881078E+00    0.6924207459E-04    0.7728711160E-04    0.4355658234E-02
    0.2500000000E+02    0.2128002166E-04    0.5116913977E+00    0.7068545214E-04    0.8336979517E-04    0.4359928313E-02
    0.2700000000E+02    0.2158986854E-04    0.5219163154E+00    0.7209634218E-04    0.8942497140E-04    0.4363688794E-02
    0.2900000000E+02    0.2187354640E-04    0.5310647566E+00    0.7349238537E-04    0.9545646677E-04    0.4367018307E-02
    0.3100000000E+02    0.2213705108E-04    0.5392982273E+00    0.7488586488E-04    0.1014675269E-03    0.4369979895E-02
    0.3300000000E+02    0.2238499884E-04    0.5467474626E+00    0.7628532071E-04    0.1074609372E-03    0.4372624718E-02
    0.3500000000E+02    0.2262097698E-04    0.5535194222E+00    0.7769665116E-04    0.1134391129E-03    0.4374994737E-02
    0.3700000000E+02    0.2284779600E-04    0.5597024602E+00    0.7912387528E-04    0.1194041670E-03    0.4377124706E-02
    0.3900000000E+02    0.2306767359E-04    0.5653702024E+00    0.8056966712E-04    0.1253579630E-03    0.4379043659E-02
    0.4100000000E+02    0.2328237052E-04    0.5705844921E+00    0.8203573415E-04    0.1313021563E-03    0.4380776052E-02
    0.4300000000E+02    0.2349329230E-04    0.5753976567E+00    0.8352308799E-04    0.1372382270E-03    0.4382342631E-02
    0.4500000000E+02    0.2370156597E-04    0.5798542705E+00    0.8503223952E-04    0.1431675058E-03    0.4383761117E-02
    0.4700000000E+02    0.2390809872E-04    0.5839925389E+00    0.8656334054E-04    0.1490911960E-03    0.4385046740E-02
    0.4900000000E+02    0.2411362299E-04    0.5878453969E+00    0.8811628717E-04    0.1550103908E-03    0.4386212665E-02
    0.1000000000E+02    0.1661604024E-04    0.3663608171E+00    0.5553270872E-04    0.3662989639E-04    0.4304666668E-02
    0.3000000000E+02    0.2200750422E-04    0.5352870636E+00    0.7418883901E-04    0.9846436754E-04    0.4368541651E-02
    0.5000000000E+02    0.2421619683E-04    0.5896738679E+00    0.8890086933E-04    0.1579686176E-03    0.4386754374E-02
    0.7000000000E+02    0.2631000315E-04    0.6165220862E+00    0.1056264702E-03    0.2171003252E-03    0.4393424297E-02
    0.9000000000E+02    0.2857252541E-04    0.6325224063E+00    0.1239548210E-03    0.2765494649E-03    0.4395292095E-02
    0.1100000000E+03    0.3102427543E-04    0.6431444039E+00    0.1434812224E-03    0.3366851184E-03    0.4394626856E-02
    0.1300000000E+03    0.3365017434E-04    0.6507096445E+00    0.1639711593E-03    0.3977486817E-03    0.4392413916E-02
    0.1500000000E+03    0.3643367679E-04    0.6563716082E+00    0.1852954098E-03    0.4599195473E-03    0.4389151828E-02
    0.1700000000E+03    0.3936208775E-04    0.6607682569E+00    0.2073847527E-03    0.5233435206E-03    0.4385119810E-02
    0.1900000000E+03    0.4242664067E-04    0.6642810883E+00    0.2302050685E-03    0.5881471024E-03    0.4380485730E-02
    0.2100000000E+03    0.4562172314E-04    0.6671522421E+00    0.2537437485E-03    0.6544454736E-03    0.4375355710E-02
    0.2300000000E+03    0.4894413266E-04    0.6695428086E+00    0.2780020602E-03    0.7223473413E-03    0.4369799201E-02
    0.2500000000E+03    0.5239250558E-04    0.6715641208E+00    0.3029907173E-03    0.7919580877E-03    0.4363862624E-02
    0.2700000000E+03    0.5596690520E-04    0.6732955889E+00    0.3287272325E-03    0.8633819444E-03    0.4357577252E-02
    0.2900000000E+03    0.5966853050E-04    0.6747953765E+00    0.3552343027E-03    0.9367235801E-03    0.4350963976E-02
    0.3100000000E+03    0.6349951149E-04    0.6761070609E+00    0.3825388122E-03    0.1012089323E-02    0.4344036310E-02
    0.3300000000E+03    0.6746276607E-04    0.6772639355E+00    0.4106712194E-03    0.1089588151E-02    0.4336802349E-02
    0.3500000000E+03    0.7156190071E-04    0.6782918747E+00    0.4396651912E-03    0.1169332534E-02    0.4329266068E-02
    0.3700000000E+03    0.7580114281E-04    0.6792112915E+00    0.4695573995E-03    0.1251439185E-02    0.4321428217E-02
    0.3900000000E+03    0.8018529628E-04    0.6800385059E+00    0.5003874314E-03    0.1336029749E-02    0.4313286938E-02
    0.4100000000E+03    0.8471971466E-04    0.6807867217E+00    0.5321977796E-03    0.1423231464E-02    0.4304838200E-02
    0.4300000000E+03    0.8941028759E-04    0.6814667368E+00    0.5650338929E-03    0.1513177816E-02    0.4296076101E-02
    0.4500000000E+03    0.9426343799E-04    0.6820874671E+00    0.5989442741E-03    0.1606009192E-02    0.4286993084E-02
    0.4700000000E+03    0.9928612783E-04    0.6826563391E+00    0.6339806165E-03    0.1701873545E-02    0.4277580085E-02
    0.4900000000E+03    0.1044858713E-03    0.6831795890E+00    0.6701979741E-03    0.1800927098E-02    0.4267826631E-02
    0.1000000000E+03    0.2977551077E-04    0.6383206620E+00    0.1335861081E-03    0.3065144450E-03    0.4395198001E-02
    0.3000000000E+03    0.6156768628E-04    0.6754724487E+00    0.3687850524E-03    0.9741466995E-03    0.4347538826E-02
    0.5000000000E+03    0.1071546421E-03    0.6834257864E+00    0.6887677057E-03    0.1851701082E-02    0.4262818590E-02
    0.7000000000E+03    0.1722016713E-03    0.6868906026E+00    0.1139095751E-02    0.3081855168E-02    0.4141084431E-02
    0.9000000000E+03    0.2696768252E-03    0.6888298549E+00    0.1810971226E-02    0.4917481173E-02    0.3961534171E-02
    0.1100000000E+04    0.4259712458E-03    0.6900690450E+00    0.2887381065E-02    0.7862568545E-02    0.3681101941E-02
    0.1300000000E+04    0.6960257493E-03    0.6909291337E+00    0.4749391466E-02    0.1296896716E-01    0.3214265279E-02
    0.1500000000E+04    0.1177345839E-02    0.6915609059E+00    0.8078078777E-02    0.2213112234E-01    0.2427767255E-02
    0.1700000000E+04    0.1890767739E-02    0.6920445525E+00    0.1304294635E-01    0.3588865057E-01    0.1373215469E-02
    0.1900000000E+04    0.2508939795E-02    0.6924266528E+00    0.1740674790E-01    0.4815837822E-01    0.6427318138E-03
    0.2100000000E+04    0.2861752157E-02    0.6927361134E+00    0.1997324422E-01    0.5559096828E-01    0.4065237577E-03
    0.2300000000E+04    0.3094040770E-02    0.6929918228E+00    0.2172418857E-01    0.6083355078E-01    0.3557910465E-03
    0.2500000000E+04    0.3288685158E-02    0.6932066451E+00    0.2322865307E-01    0.6544189846E-01    0.3469760790E-03
    0.2700000000E+04    0.3467558893E-02    0.6933896440E+00    0.2463701238E-01    0.6982798043E-01    0.3464476608E-03
    0.2900000000E+04    0.3635827887E-02    0.6935473896E+00    0.2598414714E-01    0.7408583993E-01    0.3474652079E-03
    0.3100000000E+04    0.3794971391E-02    0.6936847608E+00    0.2727935652E-01    0.7823878640E-01    0.3487167651E-03
    0.3300000000E+04    0.3945669480E-02    0.6938054561E+00    0.2852641996E-01    0.8229490799E-01    0.3499523069E-03
    0.3500000000E+04    0.4088411926E-02    0.6939123307E+00    0.2972784838E-01    0.8625889776E-01    0.3511292008E-03
    0.3700000000E+04    0.4223627032E-02    0.6940076232E+00    0.3088578481E-01    0.9013456482E-01    0.3522448869E-03
    0.3900000000E+04    0.4351710191E-02    0.6940931140E+00    0.3200220141E-01    0.9392537813E-01    0.3533039388E-03
    0.4100000000E+04    0.4473031341E-02    0.6941702366E+00    0.3307894776E-01    0.9763459285E-01    0.3543116305E-03
    0.4300000000E+04    0.4587937853E-02    0.6942401582E+00    0.3411776715E-01    0.1012652869E+00    0.3552727683E-03
    0.4500000000E+04    0.4696756346E-02    0.6943038387E+00    0.3512030552E-01    0.1048203774E+00    0.3561915602E-03
    0.4700000000E+04    0.4799794181E-02    0.6943620747E+00    0.3608811837E-01    0.1083026322E+00    0.3570716748E-03
    0.4900000000E+04    0.4897340788E-02    0.6944155330E+00    0.3702267688E-01    0.1117146796E+00    0.3579163224E-03
    0.1000000000E+04    0.3379591574E-03    0.6895109326E+00    0.2281206330E-02    0.6203391481E-02    0.3837961698E-02
    0.3000000000E+04    0.3716490345E-02    0.6936183678E+00    0.2663795545E-01    0.7617478335E-01    0.3480862486E-03
    0.5000000000E+04    0.4944140728E-02    0.6944406497E+00    0.3747792382E-01    0.1133951609E+00    0.3583262419E-03
    0.7000000000E+04    0.5650302610E-02    0.6947914595E+00    0.4513846853E-01    0.1438644557E+00    0.3651990263E-03
    0.9000000000E+04    0.6037303405E-02    0.6949852652E+00    0.5067591457E-01    0.1695144745E+00    0.3703943666E-03
    0.1100000000E+05    0.6222988363E-02    0.6951078491E+00    0.5473757812E-01    0.1915782220E+00    0.3745847358E-03
    0.1300000000E+05    0.6279112583E-02    0.6951921765E+00    0.5774039217E-01    0.2108831565E+00    0.3781032678E-03
    0.1500000000E+05    0.6250914895E-02    0.6952536114E+00    0.5996386940E-01    0.2280074850E+00    0.3811399499E-03
    0.1700000000E+05    0.6167714023E-02    0.6953002754E+00    0.6160167428E-01    0.2433690140E+00    0.3838136331E-03
    0.1900000000E+05    0.6048929649E-02    0.6953368627E+00    0.6279173781E-01    0.2572782892E+00    0.3862037252E-03
    0.2100000000E+05    0.5907644676E-02    0.6953662740E+00    0.6363461401E-01    0.2699717568E+00    0.3883659655E-03
    0.2300000000E+05    0.5752785680E-02    0.6953903976E+00    0.6420508465E-01    0.2816332227E+00    0.3903410135E-03
    0.2500000000E+05    0.5590496794E-02    0.6954105153E+00    0.6455972956E-01    0.2924081774E+00    0.3921594577E-03
    0.2700000000E+05    0.5425027190E-02    0.6954275272E+00    0.6474200158E-01    0.3024136243E+00    0.3938449002E-03
    0.2900000000E+05    0.5259316828E-02    0.6954420838E+00    0.6478571102E-01    0.3117449849E+00    0.3954159410E-03
    0.3100000000E+05    0.5095390354E-02    0.6954546669E+00    0.6471746917E-01    0.3204810545E+00    0.3968875038E-03
    0.3300000000E+05    0.4934626326E-02    0.6954656405E+00    0.6455843436E-01    0.3286876280E+00    0.3982717484E-03
    0.3500000000E+05    0.4777943869E-02    0.6954752851E+00    0.6432558079E-01    0.3364201958E+00    0.3995787159E-03
    0.3700000000E+05    0.4625933683E-02    0.6954838200E+00    0.6403263468E-01    0.3437259826E+00    0.4008167961E-03
    0.3900000000E+05    0.4478950996E-02    0.6954914189E+00    0.6369077433E-01    0.3506455076E+00    0.4019930720E-03
    0.4100000000E+05    0.4337182118E-02    0.6954982218E+00    0.6330916036E-01    0.3572137960E+00    0.4031135788E-03
    0.4300000000E+05    0.4200692470E-02    0.6955043419E+00    0.6289534172E-01    0.3634613298E+00    0.4041835017E-03
    0.4500000000E+05    0.4069461470E-02    0.6955098725E+00    0.6245556991E-01    0.3694148021E+00    0.4052073290E-03
    0.4700000000E+05    0.3943408001E-02    0.6955148906E+00    0.6199504445E-01    0.3750977217E+00    0.4061889721E-03
    0.4900000000E+05    0.3822409078E-02    0.6955194604E+00    0.6151810625E-01    0.3805309018E+00    0.4071318609E-03
    0.1000000000E+05    0.6150034258E-02    0.6950527806E+00    0.5286112310E-01    0.1809356830E+00    0.3725896696E-03
    0.3000000000E+05    0.5177031815E-02    0.6954485970E+00    0.6476415059E-01    0.3161830496E+00    0.3961633410E-03
    0.5000000000E+05    0.3763758642E-02    0.6955215946E+00    0.6127464263E-01    0.3831597060E+00    0.4075897315E-03
    0.7000000000E+05    0.2813768099E-02    0.6955502691E+00    0.5616716193E-01    0.4262092342E+00    0.4152895709E-03
    0.9000000000E+05    0.2176426436E-02    0.6955647350E+00    0.5132093818E-01    0.4570101871E+00    0.4211333492E-03
    0.1100000000E+06    0.1732795514E-02    0.6955729983E+00    0.4704805296E-01    0.4804183473E+00    0.4258575621E-03
    0.1300000000E+06    0.1412531757E-02    0.6955780602E+00    0.4334273902E-01    0.4989269116E+00    0.4298302564E-03
    0.1500000000E+06    0.1173957604E-02    0.6955812847E+00    0.4013230259E-01    0.5139836295E+00    0.4332624725E-03
    0.1700000000E+06    0.9914800402E-03    0.6955833748E+00    0.3733841357E-01    0.5265002880E+00    0.4362867232E-03
    0.1900000000E+06    0.8487653708E-03    0.6955847261E+00    0.3489211933E-01    0.5370854041E+00    0.4389917839E-03
    0.2100000000E+06    0.7350147401E-03    0.6955855767E+00    0.3273619249E-01    0.5461632493E+00    0.4414400977E-03
    0.2300000000E+06    0.6428630720E-03    0.6955860771E+00    0.3082402909E-01    0.5540399693E+00    0.4436772879E-03
    0.2500000000E+06    0.5671488730E-03    0.6955863267E+00    0.2911782735E-01    0.5609426988E+00    0.4457377223E-03
    0.2700000000E+06    0.5041679522E-03    0.6955863932E+00    0.2758685127E-01    0.5670438804E+00    0.4476479471E-03
    0.2900000000E+06    0.4512058735E-03    0.6955863240E+00    0.2620597818E-01    0.5724770070E+00    0.4494289016E-03
    0.3100000000E+06    0.4062364418E-03    0.6955861530E+00    0.2495454005E-01    0.5773471596E+00    0.4510973991E-03
    0.3300000000E+06    0.3677221762E-03    0.6955859051E+00    0.2381541568E-01    0.5817382630E+00    0.4526671478E-03
    0.3500000000E+06    0.3344791842E-03    0.6955855987E+00    0.2277432330E-01    0.5857182050E+00    0.4541494742E-03
    0.3700000000E+06    0.3055837313E-03    0.6955852477E+00    0.2181926887E-01    0.5893425248E+00    0.4555538465E-03
    0.3900000000E+06    0.2803064223E-03    0.6955848628E+00    0.2094011415E-01    0.5926571199E+00    0.4568882617E-03
    0.4100000000E+06    0.2580650413E-03    0.6955844521E+00    0.2012823660E-01    0.5957002658E+00    0.4581595365E-03
    0.4300000000E+06    0.2383902385E-03    0.6955840220E+00    0.1937625999E-01    0.5985041451E+00    0.4593735296E-03
    0.4500000000E+06    0.2209002113E-03    0.6955835776E+00    0.1867783954E-01    0.6010960203E+00    0.4605353137E-03
    0.4700000000E+06    0.2052817801E-03    0.6955831226E+00    0.1802748945E-01    0.6034991448E+00    0.4616493110E-03
    0.4900000000E+06    0.1912760764E-03    0.6955826604E+00    0.1742044345E-01    0.6057334765E+00    0.4627193998E-03
    0.1000000000E+06    0.1935667562E-02    0.6955693965E+00    0.4911026707E-01    0.4694488181E+00    0.4236072775E-03
    0.3000000000E+06    0.4278277927E-03    0.6955862495E+00    0.2556522380E-01    0.5749767823E+00    0.4502762876E-03
    0.5000000000E+06    0.1848092048E-03    0.6955824273E+00    0.1713183844E-01    0.6067928228E+00    0.4632390635E-03
    0.7000000000E+06    0.1029989163E-03    0.6955777783E+00    0.1285769115E-01    0.6222763466E+00    0.4719800753E-03
    0.9000000000E+06    0.6574010786E-04    0.6955735109E+00    0.1028059258E-01    0.6314435720E+00    0.4786160525E-03
    0.1100000000E+07    0.4565637084E-04    0.6955697128E+00    0.8559005239E-02    0.6375051079E+00    0.4839816057E-03
    0.1300000000E+07    0.3359209714E-04    0.6955663268E+00    0.7328308765E-02    0.6418101758E+00    0.4884941056E-03
    0.1500000000E+07    0.2577503090E-04    0.6955632843E+00    0.6405115323E-02    0.6450252518E+00    0.4923929777E-03
    0.1700000000E+07    0.2041817965E-04    0.6955605267E+00    0.5687184176E-02    0.6475175079E+00    0.4958286016E-03
    0.1900000000E+07    0.1658542063E-04    0.6955580069E+00    0.5113035310E-02    0.6495058803E+00    0.4989017431E-03
    0.2100000000E+07    0.1374751972E-04    0.6955556880E+00    0.4643489422E-02    0.6511290182E+00    0.5016832900E-03
    0.2300000000E+07    0.1158681251E-04    0.6955535405E+00    0.4252402992E-02    0.6524789934E+00    0.5042250423E-03
    0.2500000000E+07    0.9903181179E-05    0.6955515408E+00    0.3921666154E-02    0.6536193411E+00    0.5065660242E-03
    0.2700000000E+07    0.8565428433E-05    0.6955496698E+00    0.3638338813E-02    0.6545953188E+00    0.5087363811E-03
    0.2900000000E+07    0.7484612218E-05    0.6955479118E+00    0.3392929870E-02    0.6554400370E+00    0.5107598927E-03
    0.3100000000E+07    0.6598691673E-05    0.6955462537E+00    0.3178320591E-02    0.6561782768E+00    0.5126556542E-03
    0.3300000000E+07    0.5863312957E-05    0.6955446846E+00    0.2989067411E-02    0.6568289539E+00    0.5144392350E-03
    0.3500000000E+07    0.5246079912E-05    0.6955431953E+00    0.2820936864E-02    0.6574067564E+00    0.5161235000E-03
    0.3700000000E+07    0.4722880101E-05    0.6955417779E+00    0.2670587241E-02    0.6579232630E+00    0.5177192037E-03
    0.3900000000E+07    0.4275464340E-05    0.6955404257E+00    0.2535345675E-02    0.6583877243E+00    0.5192354298E-03
    0.4100000000E+07    0.3889813515E-05    0.6955391329E+00    0.2413048883E-02    0.6588076196E+00    0.5206799216E-03
    0.4300000000E+07    0.3555012906E-05    0.6955378942E+00    0.2301927332E-02    0.6591890615E+00    0.5220593341E-03
    0.4500000000E+07    0.3262461373E-05    0.6955367053E+00    0.2200519605E-02    0.6595370944E+00    0.5233794301E-03
    0.4700000000E+07    0.3005306159E-05    0.6955355622E+00    0.2107608179E-02    0.6598559176E+00    0.5246452330E-03
    0.4900000000E+07    0.2778032584E-05    0.6955344614E+00    0.2022170620E-02    0.6601490557E+00    0.5258611487E-03
    0.1000000000E+07    0.5432009409E-04    0.6955715559E+00    0.9341807239E-02    0.6347548162E+00    0.4814257439E-03
    0.3000000000E+07    0.7020396862E-05    0.6955470710E+00    0.3282148430E-02    0.6558211693E+00    0.5117226975E-03
    0.5000000000E+07    0.2674167928E-05    0.6955339260E+00    0.1981978954E-02    0.6602869422E+00    0.5264516314E-03
    0.7000000000E+07    0.1421410094E-05    0.6955248393E+00    0.1417042372E-02    0.6622245398E+00    0.5363839849E-03
    0.9000000000E+07    0.8912310250E-06    0.6955178583E+00    0.1101619956E-02    0.6633063026E+00    0.5439245206E-03
    0.1100000000E+08    0.6170717201E-06    0.6955121733E+00    0.9004784722E-03    0.6639963599E+00    0.5500215067E-03
    0.1300000000E+08    0.4565325596E-06    0.6955073687E+00    0.7611118553E-03    0.6644747066E+00    0.5551491732E-03
    0.1500000000E+08    0.3541821704E-06    0.6955032027E+00    0.6588893231E-03    0.6648257406E+00    0.5595795699E-03
    0.1700000000E+08    0.2847585418E-06    0.6954995214E+00    0.5807299746E-03    0.6650942784E+00    0.5634835704E-03
    0.1900000000E+08    0.2353921965E-06    0.6954962211E+00    0.5190455626E-03    0.6653063187E+00    0.5669756742E-03
    0.2100000000E+08    0.1989576850E-06    0.6954932284E+00    0.4691325484E-03    0.6654779788E+00    0.5701364315E-03
    0.2300000000E+08    0.1712459885E-06    0.6954904894E+00    0.4279208518E-03    0.6656197807E+00    0.5730247032E-03
    0.2500000000E+08    0.1496384791E-06    0.6954879632E+00    0.3933217223E-03    0.6657388845E+00    0.5756848331E-03
    0.2700000000E+08    0.1324352126E-06    0.6954856184E+00    0.3638648418E-03    0.6658403315E+00    0.5781510761E-03
