  Pressure (Pa) 23mC5-500 (mol/kg) 24mC5-500 (mol/kg) 2mC6-500 (mol/kg) 3mC6-500 (mol/kg) C7-500 (mol/kg)
    0.1000000000E+01    0.3603821040E-05    0.6965192637E-01    0.3281960474E-05    0.6404074935E-05    0.4195574600E-02
    0.3000000000E+01    0.8626101062E-05    0.1740917369E+00    0.7608350435E-05    0.1638655157E-04    0.4253067711E-02
    0.5000000000E+01    0.1192704724E-04    0.2486638774E+00    0.1028392350E-04    0.2557756247E-04    0.4291987655E-02
    0.7000000000E+01    0.1421904400E-04    0.3045780026E+00    0.1204940983E-04    0.3439078119E-04    0.4321029807E-02
    0.9000000000E+01    0.1587892040E-04    0.3480579979E+00    0.1328033506E-04    0.4296571986E-04    0.4343625939E-02
    0.1100000000E+02    0.1712328910E-04    0.3828365366E+00    0.1418363641E-04    0.5137215991E-04    0.4361728387E-02
    0.1300000000E+02    0.1808431035E-04    0.4112881383E+00    0.1488006846E-04    0.5965161865E-04    0.4376560282E-02
    0.1500000000E+02    0.1884643938E-04    0.4349953815E+00    0.1544323114E-04    0.6783144407E-04    0.4388932737E-02
    0.1700000000E+02    0.1946569263E-04    0.4550536522E+00    0.1591954419E-04    0.7593091304E-04    0.4399406548E-02
    0.1900000000E+02    0.1998037812E-04    0.4722452235E+00    0.1633909352E-04    0.8396428959E-04    0.4408382489E-02
    0.2100000000E+02    0.2041737208E-04    0.4871436727E+00    0.1672180798E-04    0.9194252247E-04    0.4416154900E-02
    0.2300000000E+02    0.2079594312E-04    0.5001791255E+00    0.1708111827E-04    0.9987426030E-04    0.4422944991E-02
    0.2500000000E+02    0.2113016392E-04    0.5116804637E+00    0.1742619715E-04    0.1077664945E-03    0.4428922326E-02
    0.2700000000E+02    0.2143047797E-04    0.5219034586E+00    0.1776337050E-04    0.1156249852E-03    0.4434219138E-02
    0.2900000000E+02    0.2170474376E-04    0.5310500174E+00    0.1809702783E-04    0.1234545550E-03    0.4438940107E-02
    0.3100000000E+02    0.2195894664E-04    0.5392816530E+00    0.1843022249E-04    0.1312592962E-03    0.4443169222E-02
    0.3300000000E+02    0.2219769382E-04    0.5467291054E+00    0.1876507457E-04    0.1390427227E-03    0.4446974672E-02
    0.3500000000E+02    0.2242456476E-04    0.5534993368E+00    0.1910304578E-04    0.1468078829E-03    0.4450412414E-02
    0.3700000000E+02    0.2264236311E-04    0.5596807025E+00    0.1944512971E-04    0.1545574450E-03    0.4453528815E-02
    0.3900000000E+02    0.2285330053E-04    0.5653468282E+00    0.1979198509E-04    0.1622937635E-03    0.4456362630E-02
    0.4100000000E+02    0.2305913245E-04    0.5705595568E+00    0.2014403015E-04    0.1700189307E-03    0.4458946513E-02
    0.4300000000E+02    0.2326125964E-04    0.5753712146E+00    0.2050151015E-04    0.1777348185E-03    0.4461308180E-02
    0.4500000000E+02    0.2346080490E-04    0.5798263743E+00    0.2086454601E-04    0.1854431109E-03    0.4463471312E-02
    0.4700000000E+02    0.2365867159E-04    0.5839632398E+00    0.2123316955E-04    0.1931453310E-03    0.4465456269E-02
    0.4900000000E+02    0.2385558870E-04    0.5878147441E+00    0.2160734934E-04    0.2008428637E-03    0.4467280656E-02
    0.1000000000E+02    0.1654335234E-04    0.3663630928E+00    0.1376395833E-04    0.4718696966E-04    0.4353150137E-02
    0.3000000000E+02    0.2183403749E-04    0.5352714006E+00    0.1826353234E-04    0.1273597975E-03    0.4441111562E-02
    0.5000000000E+02    0.2395388007E-04    0.5896425563E+00    0.2179650045E-04    0.2046902716E-03    0.4468137498E-02
    0.7000000000E+02    0.2596450881E-04    0.6164797325E+00    0.2584200682E-04    0.2816501519E-03    0.4479682562E-02
    0.9000000000E+02    0.2814747400E-04    0.6324720308E+00    0.3029410096E-04    0.3591161625E-03    0.4484774614E-02
    0.1100000000E+03    0.3052234582E-04    0.6430879541E+00    0.3505013851E-04    0.4375607384E-03    0.4486465073E-02
    0.1300000000E+03    0.3307355190E-04    0.6506484281E+00    0.4005072821E-04    0.5172955464E-03    0.4486084888E-02
    0.1500000000E+03    0.3578427741E-04    0.6563065418E+00    0.4526315549E-04    0.5985543837E-03    0.4484310970E-02
    0.1700000000E+03    0.3864168748E-04    0.6607000068E+00    0.5066991165E-04    0.6815290889E-03    0.4481524797E-02
    0.1900000000E+03    0.4163695947E-04    0.6642101544E+00    0.5626239759E-04    0.7663876232E-03    0.4477957498E-02
    0.2100000000E+03    0.4476448440E-04    0.6670790095E+00    0.6203748814E-04    0.8532842036E-03    0.4473756645E-02
    0.2300000000E+03    0.4802110906E-04    0.6694675801E+00    0.6799560230E-04    0.9423654759E-03    0.4469020069E-02
    0.2500000000E+03    0.5140555702E-04    0.6714871397E+00    0.7413958343E-04    0.1033774548E-02    0.4463814325E-02
    0.2700000000E+03    0.5491801231E-04    0.6732170534E+00    0.8047403058E-04    0.1127653796E-02    0.4458185360E-02
    0.2900000000E+03    0.5855982562E-04    0.6747154505E+00    0.8700489118E-04    0.1224146934E-02    0.4452165005E-02
    0.3100000000E+03    0.6233330877E-04    0.6760258816E+00    0.9373921051E-04    0.1323400631E-02    0.4445775059E-02
    0.3300000000E+03    0.6624159145E-04    0.6771816191E+00    0.1006849787E-03    0.1425565836E-02    0.4439029971E-02
    0.3500000000E+03    0.7028852274E-04    0.6782085206E+00    0.1078510409E-03    0.1530798925E-02    0.4431938625E-02
    0.3700000000E+03    0.7447860480E-04    0.6791269852E+00    0.1152470488E-03    0.1639262744E-02    0.4424505572E-02
    0.3900000000E+03    0.7881695043E-04    0.6799533217E+00    0.1228834417E-03    0.1751127577E-02    0.4416731886E-02
    0.4100000000E+03    0.8330925854E-04    0.6807007249E+00    0.1307714485E-03    0.1866572099E-02    0.4408615768E-02
    0.4300000000E+03    0.8796180358E-04    0.6813799847E+00    0.1389231053E-03    0.1985784315E-02    0.4400152978E-02
    0.4500000000E+03    0.9278143608E-04    0.6820000104E+00    0.1473512859E-03    0.2108962522E-02    0.4391337142E-02
    0.4700000000E+03    0.9777559236E-04    0.6825682232E+00    0.1560697428E-03    0.2236316307E-02    0.4382159964E-02
    0.4900000000E+03    0.1029523121E-03    0.6830908543E+00    0.1650931573E-03    0.2368067584E-02    0.4372611377E-02
    0.1000000000E+03    0.2931172315E-04    0.6382670535E+00    0.3263864602E-04    0.3981942041E-03    0.4485939682E-02
    0.3000000000E+03    0.6042993069E-04    0.6753918804E+00    0.9034613996E-04    0.1273419393E-02    0.4449015180E-02
    0.5000000000E+03    0.1056118166E-03    0.6833367561E+00    0.1697240799E-03    0.2435665271E-02    0.4367694199E-02
    0.7000000000E+03    0.1709498192E-03    0.6867970429E+00    0.2829114556E-03    0.4086307025E-02    0.4246001103E-02
    0.9000000000E+03    0.2706245898E-03    0.6887333272E+00    0.4548208636E-03    0.6593763347E-02    0.4061439466E-02
    0.1100000000E+04    0.4344487601E-03    0.6899703536E+00    0.7371567793E-03    0.1071816365E-01    0.3764716350E-02
    0.1300000000E+04    0.7267040882E-03    0.6908287576E+00    0.1241502488E-02    0.1810416739E-01    0.3254353992E-02
    0.1500000000E+04    0.1259419648E-02    0.6914591589E+00    0.2163987934E-02    0.3166904605E-01    0.2378260291E-02
    0.1700000000E+04    0.2008356197E-02    0.6919416542E+00    0.3470675933E-02    0.5103667792E-01    0.1280995761E-02
    0.1900000000E+04    0.2573395873E-02    0.6923227645E+00    0.4474513898E-02    0.6619117100E-01    0.6568625216E-03
    0.2100000000E+04    0.2883050160E-02    0.6926313581E+00    0.5044758851E-02    0.7510505862E-01    0.4934092631E-03
    0.2300000000E+04    0.3101317615E-02    0.6928862970E+00    0.5461190948E-02    0.8183064041E-01    0.4638955874E-03
    0.2500000000E+04    0.3291755698E-02    0.6931004265E+00    0.5833182961E-02    0.8796710277E-01    0.4603809783E-03
    0.2700000000E+04    0.3468681416E-02    0.6932827964E+00    0.6185300466E-02    0.9387308002E-01    0.4614040921E-03
    0.2900000000E+04    0.3635300151E-02    0.6934399662E+00    0.6522847885E-02    0.9962350064E-01    0.4631223338E-03
    0.3100000000E+04    0.3792624793E-02    0.6935768066E+00    0.6847320422E-02    0.1052369983E+00    0.4648668447E-03
    0.3300000000E+04    0.3941227704E-02    0.6936970097E+00    0.7159458027E-02    0.1107211504E+00    0.4665299307E-03
    0.3500000000E+04    0.4081575530E-02    0.6938034254E+00    0.7459831688E-02    0.1160812073E+00    0.4681021020E-03
    0.3700000000E+04    0.4214094147E-02    0.6938982883E+00    0.7748956905E-02    0.1213217809E+00    0.4695899595E-03
    0.3900000000E+04    0.4339182375E-02    0.6939833751E+00    0.8027316920E-02    0.1264471827E+00    0.4710017379E-03
    0.4100000000E+04    0.4457215858E-02    0.6940601166E+00    0.8295368568E-02    0.1314614991E+00    0.4723449288E-03
    0.4300000000E+04    0.4568548971E-02    0.6941296774E+00    0.8553544677E-02    0.1363686173E+00    0.4736260394E-03
    0.4500000000E+04    0.4673516263E-02    0.6941930154E+00    0.8802255722E-02    0.1411722387E+00    0.4748507005E-03
    0.4700000000E+04    0.4772433739E-02    0.6942509254E+00    0.9041891226E-02    0.1458758911E+00    0.4760238073E-03
    0.4900000000E+04    0.4865600027E-02    0.6943040728E+00    0.9272821052E-02    0.1504829380E+00    0.4771496397E-03
    0.1000000000E+04    0.3416247981E-03    0.6894132483E+00    0.5771713746E-03    0.8380090201E-02    0.3931816017E-02
    0.3000000000E+04    0.3715084427E-02    0.6935106738E+00    0.6686665577E-02    0.1024467960E+00    0.4640023756E-03
    0.5000000000E+04    0.4910115316E-02    0.6943290392E+00    0.9385131837E-02    0.1527512432E+00    0.4776960222E-03
    0.7000000000E+04    0.5559397507E-02    0.6946773842E+00    0.1125096280E-01    0.1937525357E+00    0.4868567658E-03
    0.9000000000E+04    0.5874914934E-02    0.6948693831E+00    0.1255471766E-01    0.2279749836E+00    0.4937816324E-03
    0.1100000000E+05    0.5982725900E-02    0.6949905370E+00    0.1346679574E-01    0.2570814625E+00    0.4993669641E-03
    0.1300000000E+05    0.5960325665E-02    0.6950736790E+00    0.1409901230E-01    0.2822153507E+00    0.5040567977E-03
    0.1500000000E+05    0.5856598020E-02    0.6951341003E+00    0.1452724043E-01    0.3041911571E+00    0.5081043691E-03
    0.1700000000E+05    0.5702989443E-02    0.6951798781E+00    0.1480441408E-01    0.3236066451E+00    0.5116680963E-03
    0.1900000000E+05    0.5520019531E-02    0.6952156774E+00    0.1496833211E-01    0.3409117541E+00    0.5148538229E-03
    0.2100000000E+05    0.5321202083E-02    0.6952443791E+00    0.1504652074E-01    0.3564525896E+00    0.5177358443E-03
    0.2300000000E+05    0.5115473845E-02    0.6952678570E+00    0.1505936251E-01    0.3705004338E+00    0.5203683560E-03
    0.2500000000E+05    0.4908735217E-02    0.6952873819E+00    0.1502216664E-01    0.3832714292E+00    0.5227921299E-03
    0.2700000000E+05    0.4704847767E-02    0.6953038458E+00    0.1494657282E-01    0.3949402751E+00    0.5250386254E-03
    0.2900000000E+05    0.4506291406E-02    0.6953178928E+00    0.1484152371E-01    0.4056499727E+00    0.5271326346E-03
    0.3100000000E+05    0.4314603852E-02    0.6953299993E+00    0.1471395152E-01    0.4155188985E+00    0.5290940495E-03
    0.3300000000E+05    0.4130678226E-02    0.6953405255E+00    0.1456927101E-01    0.4246460314E+00    0.5309390778E-03
    0.3500000000E+05    0.3954966732E-02    0.6953497483E+00    0.1441173887E-01    0.4331148776E+00    0.5326811036E-03
    0.3700000000E+05    0.3787621266E-02    0.6953578840E+00    0.1424471925E-01    0.4409964620E+00    0.5343313097E-03
    0.3900000000E+05    0.3628591136E-02    0.6953651043E+00    0.1407088234E-01    0.4483516368E+00    0.5358991369E-03
    0.4100000000E+05    0.3477691323E-02    0.6953715468E+00    0.1389235452E-01    0.4552328871E+00    0.5373926297E-03
    0.4300000000E+05    0.3334650289E-02    0.6953773232E+00    0.1371083310E-01    0.4616857565E+00    0.5388186995E-03
    0.4500000000E+05    0.3199143491E-02    0.6953825252E+00    0.1352767464E-01    0.4677499853E+00    0.5401833287E-03
    0.4700000000E+05    0.3070816828E-02    0.6953872283E+00    0.1334396369E-01    0.4734604283E+00    0.5414917308E-03
    0.4900000000E+05    0.2949302969E-02    0.6953914960E+00    0.1316056651E-01    0.4788477988E+00    0.5427484775E-03
    0.1000000000E+05    0.5949093004E-02    0.6949361467E+00    0.1305168253E-01    0.2430868207E+00    0.4967077470E-03
    0.3000000000E+05    0.4409520857E-02    0.6953241638E+00    0.1478018376E-01    0.4106829426E+00    0.5281288285E-03
    0.5000000000E+05    0.2890985280E-02    0.6953934835E+00    0.1306920722E-01    0.4814289501E+00    0.5433587586E-03
    0.7000000000E+05    0.1998554841E-02    0.6954196980E+00    0.1136415844E-01    0.5212900688E+00    0.5536215939E-03
    0.9000000000E+05    0.1455301827E-02    0.6954323034E+00    0.9961452221E-02    0.5469958527E+00    0.5614105113E-03
    0.1100000000E+06    0.1104647862E-02    0.6954390659E+00    0.8832965774E-02    0.5649790747E+00    0.5677071820E-03
    0.1300000000E+06    0.8663695828E-03    0.6954428673E+00    0.7918637577E-02    0.5782739747E+00    0.5730021718E-03
    0.1500000000E+06    0.6974674858E-03    0.6954450039E+00    0.7167759029E-02    0.5885055103E+00    0.5775767734E-03
    0.1700000000E+06    0.5735305858E-03    0.6954461360E+00    0.6542302898E-02    0.5966242046E+00    0.5816076108E-03
    0.1900000000E+06    0.4799525175E-03    0.6954466308E+00    0.6014362976E-02    0.6032237152E+00    0.5852130109E-03
    0.2100000000E+06    0.4075874689E-03    0.6954467066E+00    0.5563376322E-02    0.6086941434E+00    0.5884762027E-03
    0.2300000000E+06    0.3504820997E-03    0.6954464992E+00    0.5174004525E-02    0.6133024718E+00    0.5914579963E-03
    0.2500000000E+06    0.3046300946E-03    0.6954460971E+00    0.4834638387E-02    0.6172376184E+00    0.5942041995E-03
    0.2700000000E+06    0.2672569189E-03    0.6954455595E+00    0.4536360701E-02    0.6206370416E+00    0.5967501950E-03
    0.2900000000E+06    0.2363925738E-03    0.6954449272E+00    0.4272224823E-02    0.6236031515E+00    0.5991238922E-03
    0.3100000000E+06    0.2106074138E-03    0.6954442288E+00    0.4036747632E-02    0.6262138157E+00    0.6013477008E-03
    0.3300000000E+06    0.1888437435E-03    0.6954434846E+00    0.3825548442E-02    0.6285292969E+00    0.6034398920E-03
    0.3500000000E+06    0.1703055362E-03    0.6954427097E+00    0.3635088204E-02    0.6305969637E+00    0.6054155626E-03
    0.3700000000E+06    0.1543844617E-03    0.6954419150E+00    0.3462478504E-02    0.6324545641E+00    0.6072873323E-03
    0.3900000000E+06    0.1406091913E-03    0.6954411083E+00    0.3305339806E-02    0.6341325505E+00    0.6090658601E-03
    0.4100000000E+06    0.1286099782E-03    0.6954402960E+00    0.3161694886E-02    0.6356557612E+00    0.6107602315E-03
    0.4300000000E+06    0.1180934735E-03    0.6954394823E+00    0.3029887781E-02    0.6370446569E+00    0.6123782553E-03
    0.4500000000E+06    0.1088245355E-03    0.6954386707E+00    0.2908521444E-02    0.6383162447E+00    0.6139266929E-03
    0.4700000000E+06    0.1006128969E-03    0.6954378638E+00    0.2796409293E-02    0.6394847770E+00    0.6154114382E-03
    0.4900000000E+06    0.9330326386E-04    0.6954370635E+00    0.2692537199E-02    0.6405622879E+00    0.6168376607E-03
    0.1000000000E+06    0.1262111344E-02    0.6954361787E+00    0.9366762997E-02    0.5567165188E+00    0.5647078915E-03
    0.3000000000E+06    0.2229384084E-03    0.6954445848E+00    0.4151200064E-02    0.6249487990E+00    0.6002533065E-03
    0.5000000000E+06    0.8994586256E-04    0.6954366662E+00    0.2643413873E-02    0.6410701684E+00    0.6175302719E-03
    0.7000000000E+06    0.4852219616E-04    0.6954292558E+00    0.1934968154E-02    0.6482789269E+00    0.6291803044E-03
    0.9000000000E+06    0.3039471613E-04    0.6954228919E+00    0.1524391772E-02    0.6523640917E+00    0.6380246854E-03
    0.1100000000E+07    0.2085895105E-04    0.6954173984E+00    0.1256746452E-02    0.6549938237E+00    0.6451758178E-03
    0.1300000000E+07    0.1522429009E-04    0.6954125865E+00    0.1068580279E-02    0.6568280781E+00    0.6511899873E-03
    0.1500000000E+07    0.1161616252E-04    0.6954083117E+00    0.9291263289E-03    0.6581802542E+00    0.6563863072E-03
    0.1700000000E+07    0.9165395048E-05    0.6954044679E+00    0.8216693430E-03    0.6592182591E+00    0.6609652068E-03
    0.1900000000E+07    0.7423880128E-05    0.6954009765E+00    0.7363500784E-03    0.6600401491E+00    0.6650609887E-03
    0.2100000000E+07    0.6141394179E-05    0.6953977780E+00    0.6669789789E-03    0.6607070273E+00    0.6687681336E-03
    0.2300000000E+07    0.5169217850E-05    0.6953948266E+00    0.6094750855E-03    0.6612589509E+00    0.6721556810E-03
    0.2500000000E+07    0.4414413588E-05    0.6953920864E+00    0.5610390780E-03    0.6617232725E+00    0.6752756429E-03
    0.2700000000E+07    0.3816457425E-05    0.6953895288E+00    0.5196870520E-03    0.6621193064E+00    0.6781681973E-03
    0.2900000000E+07    0.3334549285E-05    0.6953871304E+00    0.4839739356E-03    0.6624610791E+00    0.6808650380E-03
    0.3100000000E+07    0.2940366096E-05    0.6953848724E+00    0.4528222906E-03    0.6627590224E+00    0.6833916150E-03
    0.3300000000E+07    0.2613743293E-05    0.6953827387E+00    0.4254124613E-03    0.6630210560E+00    0.6857686794E-03
    0.3500000000E+07    0.2340005830E-05    0.6953807163E+00    0.4011098758E-03    0.6632533001E+00    0.6880133773E-03
    0.3700000000E+07    0.2108265711E-05    0.6953787937E+00    0.3794156273E-03    0.6634605594E+00    0.6901400424E-03
    0.3900000000E+07    0.1910305584E-05    0.6953769614E+00    0.3599320806E-03    0.6636466582E+00    0.6921607815E-03
    0.4100000000E+07    0.1739828549E-05    0.6953752110E+00    0.3423384321E-03    0.6638146783E+00    0.6940859146E-03
    0.4300000000E+07    0.1591942992E-05    0.6953735354E+00    0.3263730202E-03    0.6639671310E+00    0.6959243118E-03
    0.4500000000E+07    0.1462801859E-05    0.6953719284E+00    0.3118203046E-03    0.6641060832E+00    0.6976836533E-03
    0.4700000000E+07    0.1349345602E-05    0.6953703843E+00    0.2985011398E-03    0.6642332515E+00    0.6993706345E-03
    0.4900000000E+07    0.1249116082E-05    0.6953688982E+00    0.2862654096E-03    0.6643500732E+00    0.7009911275E-03
    0.1000000000E+07    0.2495005696E-04    0.6954200492E+00    0.1377797695E-02    0.6538075499E+00    0.6417694060E-03
    0.3000000000E+07    0.3127906337E-05    0.6953859849E+00    0.4678842077E-03    0.6626149853E+00    0.6821482170E-03
    0.5000000000E+07    0.1203323224E-05    0.6953681757E+00    0.2805134413E-03    0.6644049906E+00    0.7017780836E-03
    0.7000000000E+07    0.6512891127E-06    0.6953559399E+00    0.1999322519E-03    0.6651745507E+00    0.7150152032E-03
    0.9000000000E+07    0.4172770259E-06    0.6953465659E+00    0.1551586826E-03    0.6656026072E+00    0.7250646040E-03
    0.1100000000E+08    0.2957375752E-06    0.6953389443E+00    0.1266880957E-03    0.6658751713E+00    0.7331901124E-03
    0.1300000000E+08    0.2241467213E-06    0.6953325099E+00    0.1069983592E-03    0.6660639346E+00    0.7400237655E-03
    0.1500000000E+08    0.1781886128E-06    0.6953269346E+00    0.9257552982E-04    0.6662023919E+00    0.7459281404E-03
    0.1700000000E+08    0.1467774214E-06    0.6953220108E+00    0.8155877620E-04    0.6663082882E+00    0.7511309694E-03
    0.1900000000E+08    0.1242587723E-06    0.6953175984E+00    0.7287089584E-04    0.6663919015E+00    0.7557848515E-03
    0.2100000000E+08    0.1074964484E-06    0.6953135986E+00    0.6584526443E-04    0.6664595964E+00    0.7599971399E-03
    0.2300000000E+08    0.9463381174E-07    0.6953099388E+00    0.6004731901E-04    0.6665155246E+00    0.7638462806E-03
    0.2500000000E+08    0.8451284645E-07    0.6953065643E+00    0.5518170726E-04    0.6665625098E+00    0.7673913726E-03
    0.2700000000E+08    0.7637970472E-07    0.6953034325E+00    0.5104070216E-04    0.6666025390E+00    0.7706780685E-03
