  Pressure (Pa) 23mC5-500 (mol/kg) 24mC5-500 (mol/kg) 2mC6-500 (mol/kg) 3mC6-500 (mol/kg) C7-500 (mol/kg)
    0.1000000000E+01    0.3260740412E-05    0.1266313738E+00    0.1777918229E-04    0.2694159478E-05    0.4169103942E-02
    0.3000000000E+01    0.6721253823E-05    0.2785200109E+00    0.3508730835E-04    0.6778908081E-05    0.4197198843E-02
    0.5000000000E+01    0.8468716488E-05    0.3664235867E+00    0.4322094979E-04    0.1051117381E-04    0.4209864907E-02
    0.7000000000E+01    0.9494619450E-05    0.4237407219E+00    0.4798558258E-04    0.1407524154E-04    0.4217620856E-02
    0.9000000000E+01    0.1016851907E-04    0.4640702876E+00    0.5135269153E-04    0.1753270430E-04    0.4222867684E-02
    0.1100000000E+02    0.1065425474E-04    0.4939900247E+00    0.5411095917E-04    0.2091422773E-04    0.4226622364E-02
    0.1300000000E+02    0.1103316701E-04    0.5170698578E+00    0.5660899391E-04    0.2423799962E-04    0.4229409022E-02
    0.1500000000E+02    0.1134900244E-04    0.5354147782E+00    0.5901067043E-04    0.2751597191E-04    0.4231529119E-02
    0.1700000000E+02    0.1162672192E-04    0.5503463659E+00    0.6139553547E-04    0.3075655272E-04    0.4233169449E-02
    0.1900000000E+02    0.1188122084E-04    0.5627362235E+00    0.6380228780E-04    0.3396595313E-04    0.4234452326E-02
    0.2100000000E+02    0.1212169907E-04    0.5731824695E+00    0.6624901442E-04    0.3714893325E-04    0.4235461367E-02
    0.2300000000E+02    0.1235399003E-04    0.5821092020E+00    0.6874314034E-04    0.4030924770E-04    0.4236255762E-02
    0.2500000000E+02    0.1258186565E-04    0.5898254971E+00    0.7128652900E-04    0.4344992735E-04    0.4236878629E-02
    0.2700000000E+02    0.1280779822E-04    0.5965619279E+00    0.7387817878E-04    0.4657346584E-04    0.4237362153E-02
    0.2900000000E+02    0.1303342093E-04    0.6024940009E+00    0.7651567861E-04    0.4968194779E-04    0.4237730858E-02
    0.3100000000E+02    0.1325981440E-04    0.6077576692E+00    0.7919600224E-04    0.5277713970E-04    0.4238003771E-02
    0.3300000000E+02    0.1348768955E-04    0.6124598806E+00    0.8191594112E-04    0.5586055601E-04    0.4238195888E-02
    0.3500000000E+02    0.1371750679E-04    0.6166859218E+00    0.8467233612E-04    0.5893350842E-04    0.4238319189E-02
    0.3700000000E+02    0.1394955518E-04    0.6205046377E+00    0.8746219606E-04    0.6199714315E-04    0.4238383368E-02
    0.3900000000E+02    0.1418400576E-04    0.6239722119E+00    0.9028275219E-04    0.6505246983E-04    0.4238396353E-02
    0.4100000000E+02    0.1442094808E-04    0.6271349489E+00    0.9313147677E-04    0.6810038407E-04    0.4238364692E-02
    0.4300000000E+02    0.1466041542E-04    0.6300313548E+00    0.9600608187E-04    0.7114168540E-04    0.4238293843E-02
    0.4500000000E+02    0.1490240239E-04    0.6326937119E+00    0.9890450762E-04    0.7417709171E-04    0.4238188394E-02
    0.4700000000E+02    0.1514687735E-04    0.6351492880E+00    0.1018249056E-03    0.7720725094E-04    0.4238052228E-02
    0.4900000000E+02    0.1539379115E-04    0.6374212733E+00    0.1047656201E-03    0.8023275072E-04    0.4237888654E-02
    0.1000000000E+02    0.1042860791E-04    0.4800620865E+00    0.5277997575E-04    0.1923162886E-04    0.4224891633E-02
    0.3000000000E+02    0.1314646986E-04    0.6052021201E+00    0.7785068714E-04    0.5123110509E-04    0.4237878271E-02
    0.5000000000E+02    0.1551814403E-04    0.6384947356E+00    0.1062431267E-03    0.8174392244E-04    0.4237797493E-02
    0.7000000000E+02    0.1811661023E-04    0.6539123505E+00    0.1365752139E-03    0.1118312507E-03    0.4235050442E-02
    0.9000000000E+02    0.2088492865E-04    0.6628040752E+00    0.1679572607E-03    0.1418594213E-03    0.4231268420E-02
    0.1100000000E+03    0.2378002278E-04    0.6685895337E+00    0.2000793631E-03    0.1720181720E-03    0.4226951123E-02
    0.1300000000E+03    0.2677776660E-04    0.6726543957E+00    0.2328296418E-03    0.2024263232E-03    0.4222301940E-02
    0.1500000000E+03    0.2986478934E-04    0.6756668426E+00    0.2661725086E-03    0.2331676888E-03    0.4217417998E-02
    0.1700000000E+03    0.3303369816E-04    0.6779887311E+00    0.3001052188E-03    0.2643065873E-03    0.4212350480E-02
    0.1900000000E+03    0.3628056574E-04    0.6798330847E+00    0.3346404326E-03    0.2958956102E-03    0.4207128022E-02
    0.2100000000E+03    0.3960357632E-04    0.6813334786E+00    0.3697985619E-03    0.3279799315E-03    0.4201767125E-02
    0.2300000000E+03    0.4300226480E-04    0.6825779194E+00    0.4056041924E-03    0.3605998884E-03    0.4196277280E-02
    0.2500000000E+03    0.4647707140E-04    0.6836267499E+00    0.4420843406E-03    0.3937926246E-03    0.4190663682E-02
    0.2700000000E+03    0.5002907157E-04    0.6845227266E+00    0.4792675903E-03    0.4275931883E-03    0.4184928765E-02
    0.2900000000E+03    0.5365980738E-04    0.6852969916E+00    0.5171836726E-03    0.4620353002E-03    0.4179073105E-02
    0.3100000000E+03    0.5737117985E-04    0.6859727654E+00    0.5558632772E-03    0.4971519098E-03    0.4173095976E-02
    0.3300000000E+03    0.6116537909E-04    0.6865677150E+00    0.5953379884E-03    0.5329756153E-03    0.4166995708E-02
    0.3500000000E+03    0.6504483866E-04    0.6870955205E+00    0.6356402907E-03    0.5695389889E-03    0.4160769910E-02
    0.3700000000E+03    0.6901220586E-04    0.6875669396E+00    0.6768036129E-03    0.6068748388E-03    0.4154415629E-02
    0.3900000000E+03    0.7307032277E-04    0.6879905485E+00    0.7188623958E-03    0.6450164271E-03    0.4147929445E-02
    0.4100000000E+03    0.7722221483E-04    0.6883732682E+00    0.7618521724E-03    0.6839976553E-03    0.4141307548E-02
    0.4300000000E+03    0.8147108459E-04    0.6887207454E+00    0.8058096578E-03    0.7238532277E-03    0.4134545775E-02
    0.4500000000E+03    0.8582030951E-04    0.6890376328E+00    0.8507728446E-03    0.7646187997E-03    0.4127639649E-02
    0.4700000000E+03    0.9027344254E-04    0.6893277986E+00    0.8967811030E-03    0.8063311151E-03    0.4120584393E-02
    0.4900000000E+03    0.9483421504E-04    0.6895944854E+00    0.9438752854E-03    0.8490281359E-03    0.4113374945E-02
    0.1000000000E+03    0.2231846718E-04    0.6659736213E+00    0.1839354095E-03    0.1569139585E-03    0.4229160305E-02
    0.3000000000E+03    0.5550528329E-04    0.6856459769E+00    0.5364260813E-03    0.4795072513E-03    0.4176099809E-02
    0.5000000000E+03    0.9715618205E-04    0.6897198968E+00    0.9678427963E-03    0.8707581383E-03    0.4109710738E-02
    0.7000000000E+03    0.1503280322E-03    0.6914802151E+00    0.1515747684E-02    0.1367692637E-02    0.4026846580E-02
    0.9000000000E+03    0.2203666648E-03    0.6924617468E+00    0.2236558878E-02    0.2022149776E-02    0.3920199505E-02
    0.1100000000E+04    0.3160558309E-03    0.6930876006E+00    0.3221500184E-02    0.2917625615E-02    0.3777936022E-02
    0.1300000000E+04    0.4523979264E-03    0.6935213965E+00    0.4626081739E-02    0.4196585511E-02    0.3580386539E-02
    0.1500000000E+04    0.6557712350E-03    0.6938397451E+00    0.6724097457E-02    0.6110400698E-02    0.3294250751E-02
    0.1700000000E+04    0.9714961640E-03    0.6940832965E+00    0.9987571508E-02    0.9094083478E-02    0.2865812292E-02
    0.1900000000E+04    0.1461996247E-02    0.6942756233E+00    0.1507238988E-01    0.1375758624E-01    0.2232100278E-02
    0.2100000000E+04    0.2139064525E-02    0.6944313359E+00    0.2212470227E-01    0.2025784690E-01    0.1421462588E-02
    0.2300000000E+04    0.2825232850E-02    0.6945599715E+00    0.2933455612E-01    0.2696345965E-01    0.7057613731E-03
    0.2500000000E+04    0.3312593805E-02    0.6946680206E+00    0.3454206311E-01    0.3188939187E-01    0.3226252309E-03
    0.2700000000E+04    0.3624494337E-02    0.6947600530E+00    0.3796274000E-01    0.3520834172E-01    0.1819924735E-03
    0.2900000000E+04    0.3854470500E-02    0.6948393796E+00    0.4055274702E-01    0.3778463035E-01    0.1386869587E-03
    0.3100000000E+04    0.4051311148E-02    0.6949084579E+00    0.4281446875E-01    0.4007596651E-01    0.1262572683E-03
    0.3300000000E+04    0.4232543638E-02    0.6949691501E+00    0.4492866292E-01    0.4224737928E-01    0.1229298885E-03
    0.3500000000E+04    0.4403961374E-02    0.6950228933E+00    0.4695466603E-01    0.4435272451E-01    0.1222341958E-03
    0.3700000000E+04    0.4567577160E-02    0.6950708140E+00    0.4891254626E-01    0.4640975457E-01    0.1222914370E-03
    0.3900000000E+04    0.4724226702E-02    0.6951138079E+00    0.5081013269E-01    0.4842494913E-01    0.1225570294E-03
    0.4100000000E+04    0.4874374217E-02    0.6951525959E+00    0.5265141495E-01    0.5040126688E-01    0.1228728152E-03
    0.4300000000E+04    0.5018358923E-02    0.6951877650E+00    0.5443912196E-01    0.5234053414E-01    0.1231931320E-03
    0.4500000000E+04    0.5156470946E-02    0.6952197977E+00    0.5617551676E-01    0.5424418249E-01    0.1235052713E-03
    0.4700000000E+04    0.5288975252E-02    0.6952490947E+00    0.5786264586E-01    0.5611347933E-01    0.1238062001E-03
    0.4900000000E+04    0.5416119663E-02    0.6952759910E+00    0.5950242081E-01    0.5794960193E-01    0.1240956934E-03
    0.1000000000E+04    0.2642590151E-03    0.6928058528E+00    0.2688281897E-02    0.2432682534E-02    0.3854511293E-02
    0.3000000000E+04    0.3955505068E-02    0.6948750718E+00    0.4170888006E-01    0.3895152048E-01    0.1305509033E-03
    0.5000000000E+04    0.5477755460E-02    0.6952886289E+00    0.6030511863E-01    0.5885557278E-01    0.1242363126E-03
    0.7000000000E+04    0.6479654118E-02    0.6954652562E+00    0.7426649486E-01    0.7547724377E-01    0.1265988976E-03
    0.9000000000E+04    0.7147238249E-02    0.6955629901E+00    0.8507712721E-01    0.8977265919E-01    0.1283890318E-03
    0.1100000000E+05    0.7588762141E-02    0.6956249200E+00    0.9361765769E-01    0.1023098315E+00    0.1298348229E-03
    0.1300000000E+05    0.7873370154E-02    0.6956676054E+00    0.1004723804E+00    0.1134776230E+00    0.1310498710E-03
    0.1500000000E+05    0.8046806792E-02    0.6956987663E+00    0.1060436614E+00    0.1235521962E+00    0.1320991644E-03
    0.1700000000E+05    0.8140223668E-02    0.6957224851E+00    0.1106172877E+00    0.1327357566E+00    0.1330234451E-03
    0.1900000000E+05    0.8175351985E-02    0.6957411224E+00    0.1144016139E+00    0.1411802285E+00    0.1338499765E-03
    0.2100000000E+05    0.8167661517E-02    0.6957561377E+00    0.1175519735E+00    0.1490023096E+00    0.1345979186E-03
    0.2300000000E+05    0.8128355159E-02    0.6957684817E+00    0.1201864292E+00    0.1562933704E+00    0.1352812610E-03
    0.2500000000E+05    0.8065664835E-02    0.6957787998E+00    0.1223962423E+00    0.1631261583E+00    0.1359105361E-03
    0.2700000000E+05    0.7985714719E-02    0.6957875458E+00    0.1242530119E+00    0.1695594535E+00    0.1364938759E-03
    0.2900000000E+05    0.7893108916E-02    0.6957950476E+00    0.1258136548E+00    0.1756413763E+00    0.1370376921E-03
    0.3100000000E+05    0.7791339355E-02    0.6958015484E+00    0.1271239516E+00    0.1814117838E+00    0.1375471317E-03
    0.3300000000E+05    0.7683073782E-02    0.6958072319E+00    0.1282211151E+00    0.1869040375E+00    0.1380263896E-03
    0.3500000000E+05    0.7570362240E-02    0.6958122400E+00    0.1291356832E+00    0.1921463281E+00    0.1384789316E-03
    0.3700000000E+05    0.7454787147E-02    0.6958166833E+00    0.1298929327E+00    0.1971626830E+00    0.1389076538E-03
    0.3900000000E+05    0.7337573752E-02    0.6958206499E+00    0.1305139505E+00    0.2019737424E+00    0.1393150020E-03
    0.4100000000E+05    0.7219672332E-02    0.6958242106E+00    0.1310164544E+00    0.2065973642E+00    0.1397030609E-03
    0.4300000000E+05    0.7101819991E-02    0.6958274227E+00    0.1314154294E+00    0.2110491015E+00    0.1400736217E-03
    0.4500000000E+05    0.6984587554E-02    0.6958303335E+00    0.1317236259E+00    0.2153425822E+00    0.1404282351E-03
    0.4700000000E+05    0.6868415449E-02    0.6958329821E+00    0.1319519532E+00    0.2194898141E+00    0.1407682530E-03
    0.4900000000E+05    0.6753641373E-02    0.6958354010E+00    0.1321097939E+00    0.2235014330E+00    0.1410948607E-03
    0.1000000000E+05    0.7391248805E-02    0.6955970848E+00    0.8958935124E-01    0.9623348075E-01    0.1291462828E-03
    0.3000000000E+05    0.7843186300E-02    0.6957984105E+00    0.1264975948E+00    0.1785632994E+00    0.1372964274E-03
    0.5000000000E+05    0.6696861425E-02    0.6958365332E+00    0.1321648593E+00    0.2254593865E+00    0.1412534674E-03
    0.7000000000E+05    0.5669428967E-02    0.6958519664E+00    0.1310487951E+00    0.2593330595E+00    0.1439210829E-03
    0.9000000000E+05    0.4851549387E-02    0.6958600326E+00    0.1278096423E+00    0.2861680995E+00    0.1459460546E-03
    0.1100000000E+06    0.4203855978E-02    0.6958648391E+00    0.1238653351E+00    0.3084813552E+00    0.1475832604E-03
    0.1300000000E+06    0.3684275211E-02    0.6958679382E+00    0.1197490230E+00    0.3275941075E+00    0.1489601236E-03
    0.1500000000E+06    0.3260933029E-02    0.6958700420E+00    0.1156831240E+00    0.3442982872E+00    0.1501497286E-03
    0.1700000000E+06    0.2910880038E-02    0.6958715204E+00    0.1117633226E+00    0.3591121637E+00    0.1511979737E-03
    0.1900000000E+06    0.2617584287E-02    0.6958725841E+00    0.1080285229E+00    0.3723967019E+00    0.1521356117E-03
    0.2100000000E+06    0.2368971206E-02    0.6958733608E+00    0.1044907020E+00    0.3844151926E+00    0.1529842757E-03
    0.2300000000E+06    0.2156070285E-02    0.6958739323E+00    0.1011487335E+00    0.3953666196E+00    0.1537597729E-03
    0.2500000000E+06    0.1972102445E-02    0.6958743532E+00    0.9799516897E-01    0.4054056415E+00    0.1544740116E-03
    0.2700000000E+06    0.1811861966E-02    0.6958746611E+00    0.9501969953E-01    0.4146552181E+00    0.1551361905E-03
    0.2900000000E+06    0.1671292209E-02    0.6958748827E+00    0.9221096298E-01    0.4232149471E+00    0.1557535654E-03
    0.3100000000E+06    0.1547189560E-02    0.6958750373E+00    0.8955749271E-01    0.4311667712E+00    0.1563319629E-03
    0.3300000000E+06    0.1436993338E-02    0.6958751393E+00    0.8704820717E-01    0.4385790055E+00    0.1568761336E-03
    0.3500000000E+06    0.1338634261E-02    0.6958751995E+00    0.8467264833E-01    0.4455092547E+00    0.1573900027E-03
    0.3700000000E+06    0.1250423465E-02    0.6958752263E+00    0.8242108153E-01    0.4520065742E+00    0.1578768517E-03
    0.3900000000E+06    0.1170970053E-02    0.6958752262E+00    0.8028451915E-01    0.4581131009E+00    0.1583394521E-03
    0.4100000000E+06    0.1099119035E-02    0.6958752040E+00    0.7825470295E-01    0.4638653073E+00    0.1587801665E-03
    0.4300000000E+06    0.1033904032E-02    0.6958751640E+00    0.7632406516E-01    0.4692949778E+00    0.1592010253E-03
    0.4500000000E+06    0.9745108383E-03    0.6958751093E+00    0.7448567992E-01    0.4744299811E+00    0.1596037869E-03
    0.4700000000E+06    0.9202490476E-03    0.6958750425E+00    0.7273321135E-01    0.4792948872E+00    0.1599899838E-03
    0.4900000000E+06    0.8705297483E-03    0.6958749657E+00    0.7106086211E-01    0.4839114665E+00    0.1603609605E-03
    0.1000000000E+06    0.4509282164E-02    0.6958627166E+00    0.1258814364E+00    0.2977903238E+00    0.1468033922E-03
    0.3000000000E+06    0.1607355597E-02    0.6958749674E+00    0.9086552486E-01    0.4272622968E+00    0.1560473175E-03
    0.5000000000E+06    0.8472128206E-03    0.6958749242E+00    0.7025305570E-01    0.4861327730E+00    0.1605411172E-03
    0.7000000000E+06    0.5279687809E-03    0.6958738620E+00    0.5723027475E-01    0.5212715618E+00    0.1635714986E-03
    0.9000000000E+06    0.3620590251E-03    0.6958726878E+00    0.4827097241E-01    0.5448498700E+00    0.1658721530E-03
    0.1100000000E+07    0.2643387341E-03    0.6958715654E+00    0.4172991197E-01    0.5618253831E+00    0.1677323901E-03
    0.1300000000E+07    0.2017666167E-03    0.6958705261E+00    0.3674416086E-01    0.5746501680E+00    0.1692968935E-03
    0.1500000000E+07    0.1592174424E-03    0.6958695700E+00    0.3281791641E-01    0.5846880016E+00    0.1706486629E-03
    0.1700000000E+07    0.1289364912E-03    0.6958686894E+00    0.2964598279E-01    0.5927613078E+00    0.1718398305E-03
    0.1900000000E+07    0.1066024828E-03    0.6958678755E+00    0.2703015930E-01    0.5993967174E+00    0.1729053290E-03
    0.2100000000E+07    0.8964787045E-04    0.6958671198E+00    0.2483610714E-01    0.6049475450E+00    0.1738697339E-03
    0.2300000000E+07    0.7646717225E-04    0.6958664152E+00    0.2296953490E-01    0.6096598667E+00    0.1747510031E-03
    0.2500000000E+07    0.6601372435E-04    0.6958657554E+00    0.2136230575E-01    0.6137104283E+00    0.1755626658E-03
    0.2700000000E+07    0.5758104236E-04    0.6958651353E+00    0.1996395517E-01    0.6172295000E+00    0.1763151730E-03
    0.2900000000E+07    0.5067801476E-04    0.6958645504E+00    0.1873630961E-01    0.6203152327E+00    0.1770167688E-03
    0.3100000000E+07    0.4495451134E-04    0.6958639970E+00    0.1764995924E-01    0.6230429944E+00    0.1776740733E-03
    0.3300000000E+07    0.4015537674E-04    0.6958634718E+00    0.1668187963E-01    0.6254716247E+00    0.1782924843E-03
    0.3500000000E+07    0.3609105793E-04    0.6958629722E+00    0.1581378818E-01    0.6276477336E+00    0.1788764621E-03
    0.3700000000E+07    0.3261832285E-04    0.6958624957E+00    0.1503098340E-01    0.6296087241E+00    0.1794297351E-03
    0.3900000000E+07    0.2962728970E-04    0.6958620403E+00    0.1432150924E-01    0.6313849597E+00    0.1799554527E-03
    0.4100000000E+07    0.2703250947E-04    0.6958616041E+00    0.1367554294E-01    0.6330013467E+00    0.1804562993E-03
    0.4300000000E+07    0.2476671474E-04    0.6958611856E+00    0.1308493971E-01    0.6344785080E+00    0.1809345824E-03
    0.4500000000E+07    0.2277636019E-04    0.6958607834E+00    0.1254288926E-01    0.6358336658E+00    0.1813922998E-03
    0.4700000000E+07    0.2101839043E-04    0.6958603962E+00    0.1204365329E-01    0.6370813155E+00    0.1818311932E-03
    0.4900000000E+07    0.1945786346E-04    0.6958600230E+00    0.1158236268E-01    0.6382337441E+00    0.1822527902E-03
    0.1000000000E+07    0.3073682521E-03    0.6958721170E+00    0.4476381677E-01    0.5539742695E+00    0.1668462696E-03
    0.3000000000E+07    0.4768659011E-04    0.6958642700E+00    0.1817703911E-01    0.6217198530E+00    0.1773505952E-03
    0.5000000000E+07    0.1874249492E-04    0.6958598413E+00    0.1136462322E-01    0.6387775882E+00    0.1824575298E-03
    0.7000000000E+07    0.9994625327E-05    0.6958567462E+00    0.8252983994E-02    0.6465411290E+00    0.1859014335E-03
    0.9000000000E+07    0.6218385991E-05    0.6958543567E+00    0.6472945857E-02    0.6509761592E+00    0.1885160493E-03
    0.1100000000E+08    0.4247644088E-05    0.6958524053E+00    0.5321295414E-02    0.6538436614E+00    0.1906301524E-03
    0.1300000000E+08    0.3089248312E-05    0.6958507532E+00    0.4515625079E-02    0.6558490480E+00    0.1924081659E-03
    0.1500000000E+08    0.2350280964E-05    0.6958493189E+00    0.3920607894E-02    0.6573298635E+00    0.1939444149E-03
    0.1700000000E+08    0.1849798773E-05    0.6958480503E+00    0.3463306645E-02    0.6584678729E+00    0.1952981450E-03
    0.1900000000E+08    0.1494976545E-05    0.6958469122E+00    0.3100948014E-02    0.6593696077E+00    0.1965090559E-03
    0.2100000000E+08    0.1234176361E-05    0.6958458796E+00    0.2806796647E-02    0.6601016284E+00    0.1976050767E-03
    0.2300000000E+08    0.1036799243E-05    0.6958449341E+00    0.2563285745E-02    0.6607076571E+00    0.1986066160E-03
    0.2500000000E+08    0.8837699293E-06    0.6958440617E+00    0.2358398906E-02    0.6612175953E+00    0.1995290493E-03
    0.2700000000E+08    0.7626912279E-06    0.6958432517E+00    0.2183639526E-02    0.6616525830E+00    0.2003842538E-03
