  Pressure (Pa) 23mC5-500 (mol/kg) 24mC5-500 (mol/kg) 2mC6-500 (mol/kg) 3mC6-500 (mol/kg) C7-500 (mol/kg)
    0.1000000000E+01    0.3387993588E-05    0.9949540092E-01    0.1222282520E-04    0.1503502908E-05    0.4213941638E-02
    0.3000000000E+01    0.7475487532E-05    0.2320887929E+00    0.2590808109E-04    0.3875523054E-05    0.4285569891E-02
    0.5000000000E+01    0.9783407281E-05    0.3164277138E+00    0.3302522974E-04    0.6062896012E-05    0.4330436036E-02
    0.7000000000E+01    0.1121932356E-04    0.3747993408E+00    0.3722102695E-04    0.8160081369E-05    0.4361765246E-02
    0.9000000000E+01    0.1217950193E-04    0.4175968317E+00    0.3998700221E-04    0.1019916611E-04    0.4384999102E-02
    0.1100000000E+02    0.1286067083E-04    0.4503197608E+00    0.4201342241E-04    0.1219627065E-04    0.4402973522E-02
    0.1300000000E+02    0.1336955277E-04    0.4761509788E+00    0.4364706161E-04    0.1416101804E-04    0.4417327006E-02
    0.1500000000E+02    0.1376796608E-04    0.4970603073E+00    0.4507248391E-04    0.1609976408E-04    0.4429075789E-02
    0.1700000000E+02    0.1409356939E-04    0.5143321539E+00    0.4639199726E-04    0.1801699867E-04    0.4438884940E-02
    0.1900000000E+02    0.1437023449E-04    0.5288397772E+00    0.4766387284E-04    0.1991605013E-04    0.4447208630E-02
    0.2100000000E+02    0.1461358510E-04    0.5411976142E+00    0.4892179613E-04    0.2179947693E-04    0.4454367951E-02
    0.2300000000E+02    0.1483411592E-04    0.5518505554E+00    0.5018527382E-04    0.2366930238E-04    0.4460596557E-02
    0.2500000000E+02    0.1503902778E-04    0.5611286525E+00    0.5146543204E-04    0.2552716350E-04    0.4466068685E-02
    0.2700000000E+02    0.1523334805E-04    0.5692819264E+00    0.5276835577E-04    0.2737440983E-04    0.4470917009E-02
    0.2900000000E+02    0.1542063634E-04    0.5765032386E+00    0.5409706477E-04    0.2921217152E-04    0.4475244411E-02
    0.3100000000E+02    0.1560344133E-04    0.5829437429E+00    0.5545270876E-04    0.3104140768E-04    0.4479131953E-02
    0.3300000000E+02    0.1578360343E-04    0.5887235818E+00    0.5683530309E-04    0.3286294169E-04    0.4482644404E-02
    0.3500000000E+02    0.1596245944E-04    0.5939394516E+00    0.5824418740E-04    0.3467748746E-04    0.4485834173E-02
    0.3700000000E+02    0.1614098355E-04    0.5986700558E+00    0.5967831422E-04    0.3648566943E-04    0.4488744141E-02
    0.3900000000E+02    0.1631988598E-04    0.6029801043E+00    0.6113643136E-04    0.3828803806E-04    0.4491409753E-02
    0.4100000000E+02    0.1649968295E-04    0.6069232911E+00    0.6261719691E-04    0.4008508194E-04    0.4493860574E-02
    0.4300000000E+02    0.1668074709E-04    0.6105445429E+00    0.6411925129E-04    0.4187723742E-04    0.4496121472E-02
    0.4500000000E+02    0.1686334393E-04    0.6138817380E+00    0.6564126147E-04    0.4366489644E-04    0.4498213524E-02
    0.4700000000E+02    0.1704765885E-04    0.6169670370E+00    0.6718194734E-04    0.4544841278E-04    0.4500154719E-02
    0.4900000000E+02    0.1723381692E-04    0.6198279218E+00    0.6874009624E-04    0.4722810728E-04    0.4501960508E-02
    0.1000000000E+02    0.1254688429E-04    0.4349813683E+00    0.4106578390E-04    0.1120226365E-04    0.4394522167E-02
    0.3000000000E+02    0.1551247040E-04    0.5798129569E+00    0.5477149875E-04    0.3012780099E-04    0.4477238787E-02
    0.5000000000E+02    0.1732761347E-04    0.6211817234E+00    0.6952536068E-04    0.4811661369E-04    0.4502816869E-02
    0.7000000000E+02    0.1930584763E-04    0.6407753959E+00    0.8591221307E-04    0.6574527853E-04    0.4515288723E-02
    0.9000000000E+02    0.2145545105E-04    0.6522040961E+00    0.1031767716E-03    0.8321305071E-04    0.4522456233E-02
    0.1100000000E+03    0.2373509550E-04    0.6596912713E+00    0.1209728447E-03    0.1006215654E-03    0.4526873839E-02
    0.1300000000E+03    0.2611415332E-04    0.6649759112E+00    0.1391384896E-03    0.1180326753E-03    0.4529646257E-02
    0.1500000000E+03    0.2857256441E-04    0.6689051909E+00    0.1575933643E-03    0.1354882754E-03    0.4531336827E-02
    0.1700000000E+03    0.3109723484E-04    0.6719411952E+00    0.1762961915E-03    0.1530189216E-03    0.4532266249E-02
    0.1900000000E+03    0.3367948374E-04    0.6743573970E+00    0.1952258006E-03    0.1706481650E-03    0.4532632098E-02
    0.2100000000E+03    0.3631346582E-04    0.6763259794E+00    0.2143720030E-03    0.1883949620E-03    0.4532563549E-02
    0.2300000000E+03    0.3899520556E-04    0.6779607558E+00    0.2337309041E-03    0.2062751179E-03    0.4532149053E-02
    0.2500000000E+03    0.4172199478E-04    0.6793399715E+00    0.2533023600E-03    0.2243022015E-03    0.4531451459E-02
    0.2700000000E+03    0.4449200710E-04    0.6805191907E+00    0.2730885380E-03    0.2424881521E-03    0.4530516785E-02
    0.2900000000E+03    0.4730404493E-04    0.6815389594E+00    0.2930930705E-03    0.2608436985E-03    0.4529379573E-02
    0.3100000000E+03    0.5015736935E-04    0.6824295581E+00    0.3133205445E-03    0.2793786556E-03    0.4528066295E-02
    0.3300000000E+03    0.5305158313E-04    0.6832140571E+00    0.3337761864E-03    0.2981021420E-03    0.4526597591E-02
    0.3500000000E+03    0.5598654885E-04    0.6839103420E+00    0.3544656637E-03    0.3170227424E-03    0.4524989795E-02
    0.3700000000E+03    0.5896233045E-04    0.6845324927E+00    0.3753949593E-03    0.3361486315E-03    0.4523255996E-02
    0.3900000000E+03    0.6197915096E-04    0.6850917441E+00    0.3965702923E-03    0.3554876708E-03    0.4521406787E-02
    0.4100000000E+03    0.6503736143E-04    0.6855971706E+00    0.4179980666E-03    0.3750474849E-03    0.4519450820E-02
    0.4300000000E+03    0.6813741791E-04    0.6860561813E+00    0.4396848401E-03    0.3948355230E-03    0.4517395212E-02
    0.4500000000E+03    0.7127986418E-04    0.6864748853E+00    0.4616373057E-03    0.4148591091E-03    0.4515245846E-02
    0.4700000000E+03    0.7446531876E-04    0.6868583648E+00    0.4838622814E-03    0.4351254838E-03    0.4513007608E-02
    0.4900000000E+03    0.7769446489E-04    0.6872108822E+00    0.5063667058E-03    0.4556418390E-03    0.4510684568E-02
    0.1000000000E+03    0.2258122545E-04    0.6563009259E+00    0.1120211711E-03    0.9192023268E-04    0.4524921302E-02
    0.3000000000E+03    0.4872557806E-04    0.6819988217E+00    0.3031786254E-03    0.2700881666E-03    0.4528743536E-02
    0.5000000000E+03    0.7932565164E-04    0.6873766779E+00    0.5177259124E-03    0.4659960010E-03    0.4509492330E-02
    0.7000000000E+03    0.1144520596E-03    0.6897051190E+00    0.7613893569E-03    0.6879850100E-03    0.4481759260E-02
    0.9000000000E+03    0.1550889879E-03    0.6910041289E+00    0.1042137847E-02    0.9437514301E-03    0.4447077077E-02
    0.1100000000E+04    0.2026257982E-03    0.6918324061E+00    0.1369995748E-02    0.1242592841E-02    0.4405054497E-02
    0.1300000000E+04    0.2589355981E-03    0.6924063446E+00    0.1758109406E-02    0.1596611246E-02    0.4354438768E-02
    0.1500000000E+04    0.3265701166E-03    0.6928273548E+00    0.2224238668E-02    0.2022133063E-02    0.4293229057E-02
    0.1700000000E+04    0.4090692200E-03    0.6931492743E+00    0.2792957094E-02    0.2541752543E-02    0.4218519757E-02
    0.1900000000E+04    0.5114400902E-03    0.6934033331E+00    0.3499007860E-02    0.3187437625E-02    0.4126160164E-02
    0.2100000000E+04    0.6408985887E-03    0.6936088911E+00    0.4392483376E-02    0.4005327356E-02    0.4010202290E-02
    0.2300000000E+04    0.8079990700E-03    0.6937785877E+00    0.5546730287E-02    0.5063071776E-02    0.3862076405E-02
    0.2500000000E+04    0.1028254073E-02    0.6939210241E+00    0.7069730515E-02    0.6460448941E-02    0.3669488214E-02
    0.2700000000E+04    0.1324025445E-02    0.6940422567E+00    0.9117541409E-02    0.8342048064E-02    0.3415377972E-02
    0.2900000000E+04    0.1725078331E-02    0.6941466729E+00    0.1189882074E-01    0.1090209054E-01    0.3078560671E-02
    0.3100000000E+04    0.2262024111E-02    0.6942375289E+00    0.1563057427E-01    0.1434486840E-01    0.2641074356E-02
    0.3300000000E+04    0.2940572094E-02    0.6943172922E+00    0.2036082210E-01    0.1872269425E-01    0.2111214408E-02
    0.3500000000E+04    0.3696921120E-02    0.6943878662E+00    0.2565760225E-01    0.2364807102E-01    0.1557055618E-02
    0.3700000000E+04    0.4398392195E-02    0.6944507434E+00    0.3060593191E-01    0.2828378786E-01    0.1093166061E-02
    0.3900000000E+04    0.4944637751E-02    0.6945071097E+00    0.3450434718E-01    0.3197894766E-01    0.7891905349E-03
    0.4100000000E+04    0.5335955543E-02    0.6945579199E+00    0.3734493892E-01    0.3471682237E-01    0.6256934067E-03
    0.4300000000E+04    0.5623899512E-02    0.6946039509E+00    0.3947850384E-01    0.3681395365E-01    0.5480269579E-03
    0.4500000000E+04    0.5854467373E-02    0.6946458416E+00    0.4122125247E-01    0.3855880739E-01    0.5136439252E-03
    0.4700000000E+04    0.6054777475E-02    0.6946841220E+00    0.4276041236E-01    0.4012297377E-01    0.4991690415E-03
    0.4900000000E+04    0.6238466712E-02    0.6947192355E+00    0.4419032826E-01    0.4159312360E-01    0.4934842342E-03
    0.1000000000E+04    0.1778909835E-03    0.6914595498E+00    0.1199444517E-02    0.1087111611E-02    0.4427044592E-02
    0.3000000000E+04    0.1975132957E-02    0.6941936263E+00    0.1363552637E-01    0.1250318246E-01    0.2872908899E-02
    0.5000000000E+04    0.6326258013E-02    0.6947357239E+00    0.4487939663E-01    0.4230679678E-01    0.4922485543E-03
    0.7000000000E+04    0.7803483052E-02    0.6949652151E+00    0.5699936814E-01    0.5535880074E-01    0.4980690910E-03
    0.9000000000E+04    0.8915005871E-02    0.6950910366E+00    0.6695574573E-01    0.6688206174E-01    0.5051218902E-03
    0.1100000000E+05    0.9758832528E-02    0.6951700085E+00    0.7526899296E-01    0.7721285778E-01    0.5108164286E-03
    0.1300000000E+05    0.1040031681E-01    0.6952239081E+00    0.8228791807E-01    0.8657363290E-01    0.5156007402E-03
    0.1500000000E+05    0.1088653600E-01    0.6952628596E+00    0.8827002447E-01    0.9513212353E-01    0.5197315330E-03
    0.1700000000E+05    0.1125208857E-01    0.6952922017E+00    0.9340944265E-01    0.1030174556E+00    0.5233696267E-03
    0.1900000000E+05    0.1152284648E-01    0.6953150124E+00    0.9785522003E-01    0.1103308330E+00    0.5266225817E-03
    0.2100000000E+05    0.1171845116E-01    0.6953331895E+00    0.1017236385E+00    0.1171528376E+00    0.5295659585E-03
    0.2300000000E+05    0.1185401351E-01    0.6953479652E+00    0.1051067132E+00    0.1235485348E+00    0.5322549101E-03
    0.2500000000E+05    0.1194129630E-01    0.6953601738E+00    0.1080781829E+00    0.1295711210E+00    0.5347309496E-03
    0.2700000000E+05    0.1198955208E-01    0.6953704000E+00    0.1106978138E+00    0.1352645781E+00    0.5370261218E-03
    0.2900000000E+05    0.1200612678E-01    0.6953790650E+00    0.1130145451E+00    0.1406656393E+00    0.5391656888E-03
    0.3100000000E+05    0.1199690133E-01    0.6953864803E+00    0.1150688227E+00    0.1458052657E+00    0.5411699258E-03
    0.3300000000E+05    0.1196661894E-01    0.6953928804E+00    0.1168943567E+00    0.1507097722E+00    0.5430553570E-03
    0.3500000000E+05    0.1191913088E-01    0.6953984458E+00    0.1185194601E+00    0.1554016961E+00    0.5448356309E-03
    0.3700000000E+05    0.1185758296E-01    0.6954033169E+00    0.1199680813E+00    0.1599004748E+00    0.5465221532E-03
    0.3900000000E+05    0.1178455860E-01    0.6954076052E+00    0.1212606094E+00    0.1642229811E+00    0.5481245548E-03
    0.4100000000E+05    0.1170218958E-01    0.6954113996E+00    0.1224145073E+00    0.1683839484E+00    0.5496510433E-03
    0.4300000000E+05    0.1161224257E-01    0.6954147725E+00    0.1234448150E+00    0.1723963138E+00    0.5511086712E-03
    0.4500000000E+05    0.1151618719E-01    0.6954177828E+00    0.1243645530E+00    0.1762714950E+00    0.5525035438E-03
    0.4700000000E+05    0.1141525011E-01    0.6954204795E+00    0.1251850471E+00    0.1800196172E+00    0.5538409824E-03
    0.4900000000E+05    0.1131045815E-01    0.6954229030E+00    0.1259161936E+00    0.1836496996E+00    0.5551256535E-03
    0.1000000000E+05    0.9365781348E-02    0.6951346077E+00    0.7129340375E-01    0.7218109455E-01    0.5081047230E-03
    0.3000000000E+05    0.1200441917E-01    0.6953829127E+00    0.1140722433E+00    0.1432663895E+00    0.5401836146E-03
    0.5000000000E+05    0.1125689150E-01    0.6954240232E+00    0.1262510173E+00    0.1854230303E+00    0.5557495063E-03
    0.7000000000E+05    0.1013101760E-01    0.6954380544E+00    0.1298890082E+00    0.2162677019E+00    0.5662415489E-03
    0.9000000000E+05    0.9069728598E-02    0.6954438420E+00    0.1301740641E+00    0.2409447536E+00    0.5742053932E-03
    0.1100000000E+06    0.8144259853E-02    0.6954462351E+00    0.1289210953E+00    0.2616619060E+00    0.5806439231E-03
    0.1300000000E+06    0.7350952637E-02    0.6954469908E+00    0.1269103442E+00    0.2795804773E+00    0.5860584453E-03
    0.1500000000E+06    0.6671306673E-02    0.6954468786E+00    0.1245219358E+00    0.2953939342E+00    0.5907364604E-03
    0.1700000000E+06    0.6086228070E-02    0.6954462796E+00    0.1219567290E+00    0.3095537342E+00    0.5948585115E-03
    0.1900000000E+06    0.5579277736E-02    0.6954453988E+00    0.1193266747E+00    0.3223727037E+00    0.5985455610E-03
    0.2100000000E+06    0.5137021955E-02    0.6954443537E+00    0.1166962596E+00    0.3340780337E+00    0.6018826968E-03
    0.2300000000E+06    0.4748651403E-02    0.6954432144E+00    0.1141032014E+00    0.3448408582E+00    0.6049320906E-03
    0.2500000000E+06    0.4405483612E-02    0.6954420245E+00    0.1115694825E+00    0.3547938915E+00    0.6077405775E-03
    0.2700000000E+06    0.4100516673E-02    0.6954408116E+00    0.1091075457E+00    0.3640425188E+00    0.6103443352E-03
    0.2900000000E+06    0.3828067622E-02    0.6954395934E+00    0.1067239190E+00    0.3726720784E+00    0.6127719005E-03
    0.3100000000E+06    0.3583489966E-02    0.6954383815E+00    0.1044214098E+00    0.3807528208E+00    0.6150461875E-03
    0.3300000000E+06    0.3362955774E-02    0.6954371835E+00    0.1022004691E+00    0.3883433901E+00    0.6171858794E-03
    0.3500000000E+06    0.3163287911E-02    0.6954360041E+00    0.1000600587E+00    0.3954933326E+00    0.6192064132E-03
    0.3700000000E+06    0.2981830486E-02    0.6954348463E+00    0.9799821214E-01    0.4022449467E+00    0.6211206934E-03
    0.3900000000E+06    0.2816348240E-02    0.6954337121E+00    0.9601240156E-01    0.4086346741E+00    0.6229396196E-03
    0.4100000000E+06    0.2664947890E-02    0.6954326022E+00    0.9409978095E-01    0.4146941643E+00    0.6246724826E-03
    0.4300000000E+06    0.2526016181E-02    0.6954315171E+00    0.9225734724E-01    0.4204511014E+00    0.6263272676E-03
    0.4500000000E+06    0.2398170737E-02    0.6954304569E+00    0.9048204731E-01    0.4259298564E+00    0.6279108889E-03
    0.4700000000E+06    0.2280220787E-02    0.6954294211E+00    0.8877084864E-01    0.4311520069E+00    0.6294293738E-03
    0.4900000000E+06    0.2171135544E-02    0.6954284094E+00    0.8712078514E-01    0.4361367568E+00    0.6308880086E-03
    0.1000000000E+06    0.8589578011E-02    0.6954453178E+00    0.1296775071E+00    0.2517106884E+00    0.5775770179E-03
    0.3000000000E+06    0.3702551121E-02    0.6954389861E+00    0.1055624533E+00    0.3767771477E+00    0.6139269500E-03
    0.5000000000E+06    0.2119632409E-02    0.6954279124E+00    0.8631777774E-01    0.4385455440E+00    0.6315963609E-03
    0.7000000000E+06    0.1389018608E-02    0.6954190681E+00    0.7283596612E-01    0.4776129587E+00    0.6435112406E-03
    0.9000000000E+06    0.9859814288E-03    0.6954118638E+00    0.6296456458E-01    0.5049588511E+00    0.6525567583E-03
    0.1100000000E+07    0.7383488627E-03    0.6954058082E+00    0.5543782993E-01    0.5252888020E+00    0.6598705520E-03
    0.1300000000E+07    0.5746589080E-03    0.6954005884E+00    0.4951159340E-01    0.5410391736E+00    0.6660215381E-03
    0.1500000000E+07    0.4605385421E-03    0.6953960011E+00    0.4472502845E-01    0.5536189984E+00    0.6713360791E-03
    0.1700000000E+07    0.3776718229E-03    0.6953919082E+00    0.4077843567E-01    0.5639065773E+00    0.6760191591E-03
    0.1900000000E+07    0.3155296879E-03    0.6953882121E+00    0.3746867155E-01    0.5724803693E+00    0.6802081337E-03
    0.2100000000E+07    0.2676930523E-03    0.6953848416E+00    0.3465320309E-01    0.5797379285E+00    0.6839996314E-03
    0.2300000000E+07    0.2300600724E-03    0.6953817430E+00    0.3222907957E-01    0.5859619703E+00    0.6874642617E-03
    0.2500000000E+07    0.1999065623E-03    0.6953788748E+00    0.3012008441E-01    0.5913592759E+00    0.6906552191E-03
    0.2700000000E+07    0.1753639653E-03    0.6953762045E+00    0.2826858527E-01    0.5960847015E+00    0.6936135956E-03
    0.2900000000E+07    0.1551149831E-03    0.6953737059E+00    0.2663019425E-01    0.6002565780E+00    0.6963718057E-03
    0.3100000000E+07    0.1382087563E-03    0.6953713579E+00    0.2517016941E-01    0.6039669170E+00    0.6989558784E-03
    0.3300000000E+07    0.1239446734E-03    0.6953691428E+00    0.2386092926E-01    0.6072883634E+00    0.7013870368E-03
    0.3500000000E+07    0.1117970950E-03    0.6953670462E+00    0.2268029827E-01    0.6102790489E+00    0.7036828170E-03
    0.3700000000E+07    0.1013652886E-03    0.6953650557E+00    0.2161024427E-01    0.6129860514E+00    0.7058578788E-03
    0.3900000000E+07    0.9233934626E-04    0.6953631609E+00    0.2063595394E-01    0.6154479083E+00    0.7079246043E-03
    0.4100000000E+07    0.8447650041E-04    0.6953613526E+00    0.1974514534E-01    0.6176964720E+00    0.7098935486E-03
    0.4300000000E+07    0.7758435760E-04    0.6953596232E+00    0.1892754938E-01    0.6197583010E+00    0.7117737832E-03
    0.4500000000E+07    0.7150882982E-04    0.6953579660E+00    0.1817451380E-01    0.6216557177E+00    0.7135731634E-03
    0.4700000000E+07    0.6612531511E-04    0.6953563749E+00    0.1747869708E-01    0.6234076210E+00    0.7152985366E-03
    0.4900000000E+07    0.6133216337E-04    0.6953548448E+00    0.1683382932E-01    0.6250301191E+00    0.7169559088E-03
    0.1000000000E+07    0.8484807534E-03    0.6954087152E+00    0.5896329597E-01    0.5158155758E+00    0.6563866541E-03
    0.3000000000E+07    0.1462926441E-03    0.6953725142E+00    0.2587975430E-01    0.6021645105E+00    0.6976841851E-03
    0.5000000000E+07    0.5913025163E-04    0.6953541011E+00    0.1652878775E-01    0.6257972365E+00    0.7177607745E-03
    0.7000000000E+07    0.3193572542E-04    0.6953415418E+00    0.1212334501E-01    0.6368507241E+00    0.7312991511E-03
    0.9000000000E+07    0.2001090956E-04    0.6953319553E+00    0.9563545207E-02    0.6432533859E+00    0.7415772680E-03
    0.1100000000E+08    0.1372891143E-04    0.6953241793E+00    0.7891654313E-02    0.6474281930E+00    0.7498877104E-03
    0.1300000000E+08    0.1001328835E-04    0.6953176256E+00    0.6714562511E-02    0.6503645176E+00    0.7568768982E-03
    0.1500000000E+08    0.7632508914E-05    0.6953119545E+00    0.5841244385E-02    0.6525416681E+00    0.7629156596E-03
    0.1700000000E+08    0.6014780397E-05    0.6953069514E+00    0.5167730527E-02    0.6542200005E+00    0.7682369092E-03
    0.1900000000E+08    0.4864993674E-05    0.6953024721E+00    0.4632604861E-02    0.6555530980E+00    0.7729967192E-03
    0.2100000000E+08    0.4018218385E-05    0.6952984148E+00    0.4197263422E-02    0.6566374003E+00    0.7773048854E-03
    0.2300000000E+08    0.3376361917E-05    0.6952947049E+00    0.3836227316E-02    0.6575365099E+00    0.7812416394E-03
    0.2500000000E+08    0.2878090902E-05    0.6952912864E+00    0.3532004212E-02    0.6582940670E+00    0.7848674250E-03
    0.2700000000E+08    0.2483445651E-05    0.6952881155E+00    0.3272187943E-02    0.6589410086E+00    0.7882289337E-03
