  Pressure (Pa) 23mC5-500 (mol/kg) 24mC5-500 (mol/kg) 2mC6-500 (mol/kg) 3mC6-500 (mol/kg) C7-500 (mol/kg)
    0.1000000000E+01    0.4127627539E-05    0.9949946280E-01    0.1570150421E-04    0.3592476547E-05    0.4169780188E-02
    0.3000000000E+01    0.9107678656E-05    0.2321113372E+00    0.3331849752E-04    0.9040337991E-05    0.4200923125E-02
    0.5000000000E+01    0.1194167087E-04    0.3164703238E+00    0.4265309182E-04    0.1401930209E-04    0.4216638767E-02
    0.7000000000E+01    0.1372453287E-04    0.3748599774E+00    0.4830411405E-04    0.1877497476E-04    0.4226964293E-02
    0.9000000000E+01    0.1493367898E-04    0.4176730383E+00    0.5214899564E-04    0.2338942676E-04    0.4234321180E-02
    0.1100000000E+02    0.1580612206E-04    0.4504093382E+00    0.5505695743E-04    0.2790351224E-04    0.4239814255E-02
    0.1300000000E+02    0.1647048281E-04    0.4762520875E+00    0.5746520370E-04    0.3234145819E-04    0.4244048243E-02
    0.1500000000E+02    0.1700130397E-04    0.4971714345E+00    0.5960685861E-04    0.3671918315E-04    0.4247387724E-02
    0.1700000000E+02    0.1744402694E-04    0.5144520561E+00    0.6161148223E-04    0.4104788453E-04    0.4250067186E-02
    0.1900000000E+02    0.1782748099E-04    0.5289674265E+00    0.6355313145E-04    0.4533583314E-04    0.4252244867E-02
    0.2100000000E+02    0.1817055315E-04    0.5413321541E+00    0.6547483232E-04    0.4958936727E-04    0.4254031655E-02
    0.2300000000E+02    0.1848594495E-04    0.5519912662E+00    0.6740168276E-04    0.5381348616E-04    0.4255507688E-02
    0.2500000000E+02    0.1878238343E-04    0.5612749243E+00    0.6934815964E-04    0.5801222532E-04    0.4256732379E-02
    0.2700000000E+02    0.1906597133E-04    0.5694332381E+00    0.7132233173E-04    0.6218890505E-04    0.4257750748E-02
    0.2900000000E+02    0.1934103804E-04    0.5766591417E+00    0.7332835621E-04    0.6634630113E-04    0.4258597553E-02
    0.3100000000E+02    0.1961069047E-04    0.5831038485E+00    0.7536799121E-04    0.7048676586E-04    0.4259300068E-02
    0.3300000000E+02    0.1987717832E-04    0.5888875508E+00    0.7744152870E-04    0.7461231616E-04    0.4259880010E-02
    0.3500000000E+02    0.2014214115E-04    0.5941069860E+00    0.7954837782E-04    0.7872469911E-04    0.4260354887E-02
    0.3700000000E+02    0.2040677871E-04    0.5988408928E+00    0.8168743294E-04    0.8282544164E-04    0.4260738977E-02
    0.3900000000E+02    0.2067197013E-04    0.6031540106E+00    0.8385730735E-04    0.8691588896E-04    0.4261044044E-02
    0.4100000000E+02    0.2093835864E-04    0.6071000587E+00    0.8605648140E-04    0.9099723463E-04    0.4261279872E-02
    0.4300000000E+02    0.2120641246E-04    0.6107239855E+00    0.8828339601E-04    0.9507054441E-04    0.4261454662E-02
    0.4500000000E+02    0.2147646912E-04    0.6140636881E+00    0.9053651076E-04    0.9913677551E-04    0.4261575347E-02
    0.4700000000E+02    0.2174876807E-04    0.6171513434E+00    0.9281433895E-04    0.1031967921E-03    0.4261647825E-02
    0.4900000000E+02    0.2202347479E-04    0.6200144474E+00    0.9511546769E-04    0.1072513783E-03    0.4261677146E-02
    0.1000000000E+02    0.1540225390E-04    0.4350645126E+00    0.5368622614E-04    0.2565724419E-04    0.4237255347E-02
    0.3000000000E+02    0.1947638369E-04    0.5799710066E+00    0.7434392792E-04    0.6841851685E-04    0.4258965377E-02
    0.5000000000E+02    0.2216176709E-04    0.6213693112E+00    0.9627435110E-04    0.1092768607E-03    0.4261677007E-02
    0.7000000000E+02    0.2506351880E-04    0.6409793764E+00    0.1204003918E-03    0.1496463823E-03    0.4260203733E-02
    0.9000000000E+02    0.2820133537E-04    0.6524187934E+00    0.1458436960E-03    0.1900171411E-03    0.4257066749E-02
    0.1100000000E+03    0.3153106754E-04    0.6599136750E+00    0.1722087399E-03    0.2306448349E-03    0.4253063879E-02
    0.1300000000E+03    0.3501984339E-04    0.6652042116E+00    0.1993199467E-03    0.2716913061E-03    0.4248527466E-02
    0.1500000000E+03    0.3864678928E-04    0.6691382042E+00    0.2270992191E-03    0.3132722599E-03    0.4243619745E-02
    0.1700000000E+03    0.4239907253E-04    0.6721780983E+00    0.2555151992E-03    0.3554778720E-03    0.4238428324E-02
    0.1900000000E+03    0.4626901492E-04    0.6745975903E+00    0.2845607596E-03    0.3983831107E-03    0.4233003740E-02
    0.2100000000E+03    0.5025229698E-04    0.6765690104E+00    0.3142422528E-03    0.4420534704E-03    0.4227376342E-02
    0.2300000000E+03    0.5434685771E-04    0.6782062728E+00    0.3445740478E-03    0.4865484136E-03    0.4221564688E-02
    0.2500000000E+03    0.5855221031E-04    0.6795876946E+00    0.3755756151E-03    0.5319235688E-03    0.4215580032E-02
    0.2700000000E+03    0.6286900705E-04    0.6807688928E+00    0.4072699146E-03    0.5782322104E-03    0.4209428885E-02
    0.2900000000E+03    0.6729875675E-04    0.6817904528E+00    0.4396824844E-03    0.6255263013E-03    0.4203114538E-02
    0.3100000000E+03    0.7184363798E-04    0.6826826857E+00    0.4728409230E-03    0.6738572592E-03    0.4196638008E-02
    0.3300000000E+03    0.7650637385E-04    0.6834686856E+00    0.5067746009E-03    0.7232765419E-03    0.4189998649E-02
    0.3500000000E+03    0.8129014760E-04    0.6841663572E+00    0.5415145105E-03    0.7738361129E-03    0.4183194545E-02
    0.3700000000E+03    0.8619854568E-04    0.6847897956E+00    0.5770932026E-03    0.8255888243E-03    0.4176222784E-02
    0.3900000000E+03    0.9123552007E-04    0.6853502483E+00    0.6135447795E-03    0.8785887440E-03    0.4169079638E-02
    0.4100000000E+03    0.9640536414E-04    0.6858568002E+00    0.6509049248E-03    0.9328914444E-03    0.4161760686E-02
    0.4300000000E+03    0.1017126984E-03    0.6863168689E+00    0.6892109600E-03    0.9885542645E-03    0.4154260904E-02
    0.4500000000E+03    0.1071624639E-03    0.6867365708E+00    0.7285019212E-03    0.1045636556E-02    0.4146574722E-02
    0.4700000000E+03    0.1127599207E-03    0.6871209945E+00    0.7688186500E-03    0.1104199919E-02    0.4138696057E-02
    0.4900000000E+03    0.1185106518E-03    0.6874744076E+00    0.8102038983E-03    0.1164308430E-02    0.4130618347E-02
    0.1000000000E+03    0.2984459578E-04    0.6565197583E+00    0.1589251765E-03    0.2102873174E-03    0.4255146944E-02
    0.3000000000E+03    0.6955664734E-04    0.6822511502E+00    0.4561666737E-03    0.6495589627E-03    0.4199896553E-02
    0.5000000000E+03    0.1214453298E-03    0.6876406343E+00    0.8313111277E-03    0.1194962875E-02    0.4126502669E-02
    0.7000000000E+03    0.1898540900E-03    0.6899759946E+00    0.1321963286E-02    0.1907546781E-02    0.4031726750E-02
    0.9000000000E+03    0.2832825449E-03    0.6912799145E+00    0.1990523498E-02    0.2879285554E-02    0.3905312408E-02
    0.1100000000E+04    0.4166341547E-03    0.6921119963E+00    0.2944529590E-02    0.4267778043E-02    0.3729452325E-02
    0.1300000000E+04    0.6169927313E-03    0.6926890421E+00    0.4379066580E-02    0.6359196106E-02    0.3472791835E-02
    0.1500000000E+04    0.9342013880E-03    0.6931126799E+00    0.6653919926E-02    0.9682860295E-02    0.3080512084E-02
    0.1700000000E+04    0.1449657726E-02    0.6934368771E+00    0.1036019692E-01    0.1511400024E-01    0.2472414001E-02
    0.1900000000E+04    0.2220764813E-02    0.6936929470E+00    0.1592911541E-01    0.2331292768E-01    0.1626170853E-02
    0.2100000000E+04    0.3068844652E-02    0.6939003064E+00    0.2210504854E-01    0.3248412733E-01    0.8103832546E-03
    0.2300000000E+04    0.3680087848E-02    0.6940716349E+00    0.2663192879E-01    0.3932204358E-01    0.3667281521E-03
    0.2500000000E+04    0.4058252858E-02    0.6942155634E+00    0.2951168649E-01    0.4379168677E-01    0.2147222608E-03
    0.2700000000E+04    0.4332784448E-02    0.6943381707E+00    0.3166261143E-01    0.4722025451E-01    0.1726729204E-03
    0.2900000000E+04    0.4568201901E-02    0.6944438618E+00    0.3354603113E-01    0.5028019630E-01    0.1620434721E-03
    0.3100000000E+04    0.4785509792E-02    0.6945359066E+00    0.3531229077E-01    0.5319103965E-01    0.1596977714E-03
    0.3300000000E+04    0.4991026051E-02    0.6946167838E+00    0.3700614572E-01    0.5601754565E-01    0.1594872749E-03
    0.3500000000E+04    0.5186824249E-02    0.6946884059E+00    0.3864172300E-01    0.5877939439E-01    0.1598133556E-03
    0.3700000000E+04    0.5373784630E-02    0.6947522728E+00    0.4022454020E-01    0.6148358398E-01    0.1602611988E-03
    0.3900000000E+04    0.5552441768E-02    0.6948095769E+00    0.4175765030E-01    0.6413351535E-01    0.1607236634E-03
    0.4100000000E+04    0.5723218473E-02    0.6948612780E+00    0.4324334257E-01    0.6673151596E-01    0.1611739884E-03
    0.4300000000E+04    0.5886491179E-02    0.6949081579E+00    0.4468361756E-01    0.6927954464E-01    0.1616064626E-03
    0.4500000000E+04    0.6042609039E-02    0.6949508592E+00    0.4608032387E-01    0.7177939258E-01    0.1620208146E-03
    0.4700000000E+04    0.6191900177E-02    0.6949899152E+00    0.4743520096E-01    0.7423274355E-01    0.1624180830E-03
    0.4900000000E+04    0.6334674307E-02    0.6950257725E+00    0.4874989530E-01    0.7664119470E-01    0.1627995293E-03
    0.1000000000E+04    0.3436581643E-03    0.6917373440E+00    0.2422413770E-02    0.3507613773E-02    0.3825105719E-02
    0.3000000000E+04    0.4678560014E-02    0.6944914196E+00    0.3443982133E-01    0.5174846150E-01    0.1603997753E-03
    0.5000000000E+04    0.6403709634E-02    0.6950426216E+00    0.4939266521E-01    0.7782906061E-01    0.1629847012E-03
    0.7000000000E+04    0.7505567870E-02    0.6952781406E+00    0.6047877298E-01    0.9956267949E-01    0.1660930243E-03
    0.9000000000E+04    0.8207453801E-02    0.6954084977E+00    0.6891473660E-01    0.1181604730E+00    0.1684463576E-03
    0.1100000000E+05    0.8643195252E-02    0.6954911173E+00    0.7545611093E-01    0.1343950923E+00    0.1703461828E-03
    0.1300000000E+05    0.8897391178E-02    0.6955480737E+00    0.8060107653E-01    0.1487932030E+00    0.1719423499E-03
    0.1500000000E+05    0.9025423209E-02    0.6955896596E+00    0.8469075365E-01    0.1617274858E+00    0.1733204969E-03
    0.1700000000E+05    0.9064596792E-02    0.6956213185E+00    0.8796615941E-01    0.1734700058E+00    0.1745342738E-03
    0.1900000000E+05    0.9040640832E-02    0.6956461986E+00    0.9060214667E-01    0.1842246800E+00    0.1756195631E-03
    0.2100000000E+05    0.8971651266E-02    0.6956662463E+00    0.9272846483E-01    0.1941478383E+00    0.1766015725E-03
    0.2300000000E+05    0.8870564897E-02    0.6956827296E+00    0.9444328969E-01    0.2033616947E+00    0.1774987013E-03
    0.2500000000E+05    0.8746756397E-02    0.6956965097E+00    0.9582217919E-01    0.2119634403E+00    0.1783247988E-03
    0.2700000000E+05    0.8607095209E-02    0.6957081917E+00    0.9692415800E-01    0.2200315397E+00    0.1790905554E-03
    0.2900000000E+05    0.8456660415E-02    0.6957182133E+00    0.9779594751E-01    0.2276301918E+00    0.1798043989E-03
    0.3100000000E+05    0.8299233602E-02    0.6957268987E+00    0.9847496702E-01    0.2348125544E+00    0.1804730933E-03
    0.3300000000E+05    0.8137644488E-02    0.6957344933E+00    0.9899150201E-01    0.2416231174E+00    0.1811021514E-03
    0.3500000000E+05    0.7974016995E-02    0.6957411861E+00    0.9937029665E-01    0.2480994785E+00    0.1816961265E-03
    0.3700000000E+05    0.7809946814E-02    0.6957471251E+00    0.9963174063E-01    0.2542736906E+00    0.1822588237E-03
    0.3900000000E+05    0.7646631106E-02    0.6957524276E+00    0.9979276567E-01    0.2601732988E+00    0.1827934560E-03
    0.4100000000E+05    0.7484964268E-02    0.6957571880E+00    0.9986753097E-01    0.2658221471E+00    0.1833027617E-03
    0.4300000000E+05    0.7325609343E-02    0.6957614830E+00    0.9986795326E-01    0.2712410148E+00    0.1837890937E-03
    0.4500000000E+05    0.7169051741E-02    0.6957653756E+00    0.9980412081E-01    0.2764481215E+00    0.1842544887E-03
    0.4700000000E+05    0.7015639967E-02    0.6957689181E+00    0.9968461987E-01    0.2814595336E+00    0.1847007220E-03
    0.4900000000E+05    0.6865616728E-02    0.6957721539E+00    0.9951679444E-01    0.2862894929E+00    0.1851293505E-03
    0.1000000000E+05    0.8452443999E-02    0.6954539808E+00    0.7238653719E-01    0.1265358258E+00    0.1694414951E-03
    0.3000000000E+05    0.8378625125E-02    0.6957227061E+00    0.9815751446E-01    0.2312704488E+00    0.1801440198E-03
    0.5000000000E+05    0.6791928724E-02    0.6957736685E+00    0.9941676746E-01    0.2886404466E+00    0.1853374984E-03
    0.7000000000E+05    0.5508816419E-02    0.6957943287E+00    0.9601983852E-01    0.3285961844E+00    0.1888381909E-03
    0.9000000000E+05    0.4544786416E-02    0.6958051434E+00    0.9152011723E-01    0.3591846540E+00    0.1914953861E-03
    0.1100000000E+06    0.3814408372E-02    0.6958115984E+00    0.8690328348E-01    0.3838210622E+00    0.1936436751E-03
    0.1300000000E+06    0.3249927187E-02    0.6958157685E+00    0.8248757181E-01    0.4043084318E+00    0.1954503104E-03
    0.1500000000E+06    0.2804784323E-02    0.6958186055E+00    0.7837246147E-01    0.4217288245E+00    0.1970112125E-03
    0.1700000000E+06    0.2447322007E-02    0.6958206045E+00    0.7457682018E-01    0.4367884477E+00    0.1983866177E-03
    0.1900000000E+06    0.2155670903E-02    0.6958220470E+00    0.7108863973E-01    0.4499761756E+00    0.1996168840E-03
    0.2100000000E+06    0.1914394960E-02    0.6958231044E+00    0.6788473591E-01    0.4616454912E+00    0.2007304004E-03
    0.2300000000E+06    0.1712360526E-02    0.6958238860E+00    0.6493896509E-01    0.4720606779E+00    0.2017479102E-03
    0.2500000000E+06    0.1541373615E-02    0.6958244651E+00    0.6222568244E-01    0.4814246378E+00    0.2026850398E-03
    0.2700000000E+06    0.1395292396E-02    0.6958248920E+00    0.5972112236E-01    0.4898965424E+00    0.2035538598E-03
    0.2900000000E+06    0.1269436836E-02    0.6958252025E+00    0.5740384639E-01    0.4976035110E+00    0.2043638915E-03
    0.3100000000E+06    0.1160187662E-02    0.6958254227E+00    0.5525477319E-01    0.5046486108E+00    0.2051227802E-03
    0.3300000000E+06    0.1064708439E-02    0.6958255718E+00    0.5325702931E-01    0.5111164971E+00    0.2058367596E-03
    0.3500000000E+06    0.9807493880E-03    0.6958256645E+00    0.5139573365E-01    0.5170774881E+00    0.2065109803E-03
    0.3700000000E+06    0.9065065221E-03    0.6958257119E+00    0.4965776819E-01    0.5225905725E+00    0.2071497480E-03
    0.3900000000E+06    0.8405189268E-03    0.6958257226E+00    0.4803155933E-01    0.5277056693E+00    0.2077566993E-03
    0.4100000000E+06    0.7815927775E-03    0.6958257035E+00    0.4650687922E-01    0.5324653528E+00    0.2083349342E-03
    0.4300000000E+06    0.7287443982E-03    0.6958256600E+00    0.4507467017E-01    0.5369061899E+00    0.2088871171E-03
    0.4500000000E+06    0.6811570736E-03    0.6958255964E+00    0.4372689157E-01    0.5410597878E+00    0.2094155549E-03
    0.4700000000E+06    0.6381479302E-03    0.6958255163E+00    0.4245638763E-01    0.5449536251E+00    0.2099222587E-03
    0.4900000000E+06    0.5991422780E-03    0.6958254226E+00    0.4125677345E-01    0.5486117188E+00    0.2104089923E-03
    0.1000000000E+06    0.4155189931E-02    0.6958087465E+00    0.8919857654E-01    0.3721110418E+00    0.1926203642E-03
    0.3000000000E+06    0.1212929454E-02    0.6958253226E+00    0.5630938841E-01    0.5012031260E+00    0.2047493104E-03
    0.5000000000E+06    0.5809857221E-03    0.6958253713E+00    0.4068174115E-01    0.5503590551E+00    0.2106453637E-03
    0.7000000000E+06    0.3419048464E-03    0.6958240237E+00    0.3179341439E-01    0.5769113167E+00    0.2146213040E-03
    0.9000000000E+06    0.2256547209E-03    0.6958225091E+00    0.2607315639E-01    0.5936080993E+00    0.2176398051E-03
    0.1100000000E+07    0.1602912906E-03    0.6958210529E+00    0.2208691665E-01    0.6050918207E+00    0.2200804614E-03
    0.1300000000E+07    0.1198510520E-03    0.6958197006E+00    0.1915143766E-01    0.6134777139E+00    0.2221331052E-03
    0.1500000000E+07    0.9306972668E-04    0.6958184544E+00    0.1690037275E-01    0.6198711428E+00    0.2239066364E-03
    0.1700000000E+07    0.7440673617E-04    0.6958173052E+00    0.1511978529E-01    0.6249069266E+00    0.2254694541E-03
    0.1900000000E+07    0.6087511416E-04    0.6958162420E+00    0.1367640778E-01    0.6289759136E+00    0.2268673915E-03
    0.2100000000E+07    0.5074747323E-04    0.6958152543E+00    0.1248291694E-01    0.6323320025E+00    0.2281326921E-03
    0.2300000000E+07    0.4296775123E-04    0.6958143329E+00    0.1147971656E-01    0.6351473278E+00    0.2292889175E-03
    0.2500000000E+07    0.3686047603E-04    0.6958134697E+00    0.1062474796E-01    0.6375427333E+00    0.2303538180E-03
    0.2700000000E+07    0.3197710996E-04    0.6958126581E+00    0.9887484594E-02    0.6396055568E+00    0.2313411057E-03
    0.2900000000E+07    0.2801024417E-04    0.6958118924E+00    0.9245235352E-02    0.6414004915E+00    0.2322615970E-03
    0.3100000000E+07    0.2474342114E-04    0.6958111677E+00    0.8680783597E-02    0.6429764787E+00    0.2331239778E-03
    0.3300000000E+07    0.2202061861E-04    0.6958104799E+00    0.8180831085E-02    0.6443712270E+00    0.2339353300E-03
    0.3500000000E+07    0.1972705340E-04    0.6958098253E+00    0.7734943881E-02    0.6456142593E+00    0.2347015054E-03
    0.3700000000E+07    0.1777674552E-04    0.6958092010E+00    0.7334821053E-02    0.6467290201E+00    0.2354273960E-03
    0.3900000000E+07    0.1610425087E-04    0.6958086041E+00    0.6973776440E-02    0.6477343623E+00    0.2361171336E-03
    0.4100000000E+07    0.1465903784E-04    0.6958080324E+00    0.6646364460E-02    0.6486456190E+00    0.2367742404E-03
    0.4300000000E+07    0.1340158321E-04    0.6958074838E+00    0.6348105313E-02    0.6494753879E+00    0.2374017438E-03
    0.4500000000E+07    0.1230061147E-04    0.6958069565E+00    0.6075280107E-02    0.6502341152E+00    0.2380022648E-03
    0.4700000000E+07    0.1133111002E-04    0.6958064488E+00    0.5824775987E-02    0.6509305359E+00    0.2385780887E-03
    0.4900000000E+07    0.1047288052E-04    0.6958059594E+00    0.5593967595E-02    0.6515720102E+00    0.2391312196E-03
    0.1000000000E+07    0.1887607534E-03    0.6958217691E+00    0.2391644071E-01    0.5998356096E+00    0.2189178602E-03
    0.3000000000E+07    0.2630022883E-04    0.6958115252E+00    0.8954193495E-02    0.6422132748E+00    0.2326995760E-03
    0.5000000000E+07    0.1008022749E-04    0.6958057211E+00    0.5485239155E-02    0.6518741320E+00    0.2393998358E-03
    0.7000000000E+07    0.5321942968E-05    0.6958016605E+00    0.3946615096E-02    0.6561456348E+00    0.2439181933E-03
    0.9000000000E+07    0.3296554858E-05    0.6957985238E+00    0.3079057175E-02    0.6585515398E+00    0.2473485262E-03
    0.1100000000E+08    0.2248000794E-05    0.6957959612E+00    0.2522599776E-02    0.6600940822E+00    0.2501221888E-03
    0.1300000000E+08    0.1634767395E-05    0.6957937910E+00    0.2135555947E-02    0.6611668739E+00    0.2524549044E-03
    0.1500000000E+08    0.1244873306E-05    0.6957919064E+00    0.1850888871E-02    0.6619559225E+00    0.2544704271E-03
    0.1700000000E+08    0.9814013278E-06    0.6957902392E+00    0.1632785956E-02    0.6625605271E+00    0.2562464869E-03
    0.1900000000E+08    0.7948916280E-06    0.6957887433E+00    0.1460382039E-02    0.6630385165E+00    0.2578351698E-03
    0.2100000000E+08    0.6579382828E-06    0.6957873858E+00    0.1320700872E-02    0.6634258456E+00    0.2592731184E-03
    0.2300000000E+08    0.5543509091E-06    0.6957861427E+00    0.1205250292E-02    0.6637460409E+00    0.2605871088E-03
    0.2500000000E+08    0.4740608093E-06    0.6957849956E+00    0.1108240209E-02    0.6640151417E+00    0.2617973134E-03
    0.2700000000E+08    0.4105368888E-06    0.6957839303E+00    0.1025587614E-02    0.6642444578E+00    0.2629193149E-03
