  Pressure (Pa) 23mC5-500 (mol/kg) 24mC5-500 (mol/kg) 2mC6-500 (mol/kg) 3mC6-500 (mol/kg) C7-500 (mol/kg)
    0.1000000000E+01    0.3284782949E-05    0.2142833814E+00    0.7449876998E-05    0.2040840523E-05    0.4145934005E-02
    0.3000000000E+01    0.5622187884E-05    0.3978589648E+00    0.1227116091E-04    0.5033374204E-05    0.4169927791E-02
    0.5000000000E+01    0.6539699321E-05    0.4801242575E+00    0.1435003729E-04    0.7742994160E-05    0.4175849710E-02
    0.7000000000E+01    0.7076672959E-05    0.5268084390E+00    0.1591912531E-04    0.1031774536E-04    0.4178516931E-02
    0.9000000000E+01    0.7481734798E-05    0.5568913337E+00    0.1739831395E-04    0.1280660173E-04    0.4179948068E-02
    0.1100000000E+02    0.7835990057E-05    0.5778915328E+00    0.1888680894E-04    0.1523382493E-04    0.4180768498E-02
    0.1300000000E+02    0.8170705684E-05    0.5933829577E+00    0.2040691117E-04    0.1761375828E-04    0.4181240749E-02
    0.1500000000E+02    0.8499150520E-05    0.6052818843E+00    0.2196001009E-04    0.1995580545E-04    0.4181495395E-02
    0.1700000000E+02    0.8827232921E-05    0.6147081421E+00    0.2354196560E-04    0.2226656990E-04    0.4181604992E-02
    0.1900000000E+02    0.9157589978E-05    0.6223599448E+00    0.2514770533E-04    0.2455092234E-04    0.4181613161E-02
    0.2100000000E+02    0.9491323574E-05    0.6286952438E+00    0.2677258219E-04    0.2681259090E-04    0.4181547732E-02
    0.2300000000E+02    0.9828792775E-05    0.6340268882E+00    0.2841269528E-04    0.2905451287E-04    0.4181427302E-02
    0.2500000000E+02    0.1016999515E-04    0.6385758766E+00    0.3006487944E-04    0.3127905682E-04    0.4181264768E-02
    0.2700000000E+02    0.1051475721E-04    0.6425027603E+00    0.3172660154E-04    0.3348816954E-04    0.4181069356E-02
    0.2900000000E+02    0.1086283180E-04    0.6459269881E+00    0.3339584399E-04    0.3568347692E-04    0.4180847835E-02
    0.3100000000E+02    0.1121394817E-04    0.6489392677E+00    0.3507100070E-04    0.3786635533E-04    0.4180605282E-02
    0.3300000000E+02    0.1156783759E-04    0.6516097201E+00    0.3675079145E-04    0.4003798363E-04    0.4180345576E-02
    0.3500000000E+02    0.1192424579E-04    0.6539934062E+00    0.3843419354E-04    0.4219938176E-04    0.4180071732E-02
    0.3700000000E+02    0.1228293843E-04    0.6561341641E+00    0.4012038811E-04    0.4435144006E-04    0.4179786121E-02
    0.3900000000E+02    0.1264370280E-04    0.6580673294E+00    0.4180871823E-04    0.4649494191E-04    0.4179490639E-02
    0.4100000000E+02    0.1300634761E-04    0.6598217019E+00    0.4349865605E-04    0.4863058138E-04    0.4179186813E-02
    0.4300000000E+02    0.1337070173E-04    0.6614209892E+00    0.4518977712E-04    0.5075897731E-04    0.4178875889E-02
    0.4500000000E+02    0.1373661258E-04    0.6628848851E+00    0.4688174024E-04    0.5288068464E-04    0.4178558890E-02
    0.4700000000E+02    0.1410394432E-04    0.6642298842E+00    0.4857427144E-04    0.5499620354E-04    0.4178236665E-02
    0.4900000000E+02    0.1447257610E-04    0.6654699063E+00    0.5026715135E-04    0.5710598693E-04    0.4177909923E-02
    0.1000000000E+02    0.7662631371E-05    0.5682486890E+00    0.1813919072E-04    0.1402686809E-04    0.4180413690E-02
    0.3000000000E+02    0.1103802679E-04    0.6474798311E+00    0.3423276983E-04    0.3677639194E-04    0.4180728921E-02
    0.5000000000E+02    0.1465734542E-04    0.6660543182E+00    0.5111366591E-04    0.5815885799E-04    0.4177745048E-02
    0.7000000000E+02    0.1840050850E-04    0.6743452497E+00    0.6803587123E-04    0.7899836740E-04    0.4174314623E-02
    0.9000000000E+02    0.2220367339E-04    0.6790411652E+00    0.8492924686E-04    0.9957445262E-04    0.4170763922E-02
    0.1100000000E+03    0.2604552604E-04    0.6820636843E+00    0.1018116640E-03    0.1200280218E-03    0.4167172561E-02
    0.1300000000E+03    0.2991881472E-04    0.6841720056E+00    0.1187119203E-03    0.1404439751E-03    0.4163565091E-02
    0.1500000000E+03    0.3382156464E-04    0.6857264050E+00    0.1356568712E-03    0.1608792782E-03    0.4159949150E-02
    0.1700000000E+03    0.3775397280E-04    0.6869198311E+00    0.1526695692E-03    0.1813750908E-03    0.4156326254E-02
    0.1900000000E+03    0.4171717367E-04    0.6878649417E+00    0.1697695806E-03    0.2019628372E-03    0.4152695515E-02
    0.2100000000E+03    0.4571270624E-04    0.6886319324E+00    0.1869736520E-03    0.2226675687E-03    0.4149055090E-02
    0.2300000000E+03    0.4974227145E-04    0.6892668193E+00    0.2042963236E-03    0.2435099697E-03    0.4145402790E-02
    0.2500000000E+03    0.5380761893E-04    0.6898010248E+00    0.2217504221E-03    0.2645076259E-03    0.4141736349E-02
    0.2700000000E+03    0.5791049456E-04    0.6902567378E+00    0.2393474402E-03    0.2856758633E-03    0.4138053539E-02
    0.2900000000E+03    0.6205261774E-04    0.6906500734E+00    0.2570978271E-03    0.3070283248E-03    0.4134352216E-02
    0.3100000000E+03    0.6623567339E-04    0.6909930177E+00    0.2750112122E-03    0.3285773789E-03    0.4130630339E-02
    0.3300000000E+03    0.7046131129E-04    0.6912946709E+00    0.2930965782E-03    0.3503344176E-03    0.4126885965E-02
    0.3500000000E+03    0.7473114907E-04    0.6915620663E+00    0.3113623966E-03    0.3723100788E-03    0.4123117250E-02
    0.3700000000E+03    0.7904677681E-04    0.6918007259E+00    0.3298167354E-03    0.3945144148E-03    0.4119322430E-02
    0.3900000000E+03    0.8340976218E-04    0.6920150452E+00    0.3484673455E-03    0.4169570240E-03    0.4115499818E-02
    0.4100000000E+03    0.8782165577E-04    0.6922085668E+00    0.3673217303E-03    0.4396471543E-03    0.4111647791E-02
    0.4300000000E+03    0.9228399615E-04    0.6923841779E+00    0.3863872037E-03    0.4625937862E-03    0.4107764781E-02
    0.4500000000E+03    0.9679831469E-04    0.6925442545E+00    0.4056709373E-03    0.4858056999E-03    0.4103849267E-02
    0.4700000000E+03    0.1013661400E-03    0.6926907705E+00    0.4251800012E-03    0.5092915314E-03    0.4099899765E-02
    0.4900000000E+03    0.1059890019E-03    0.6928253788E+00    0.4449213976E-03    0.5330598187E-03    0.4095914825E-02
    0.1000000000E+03    0.2412039974E-04    0.6807002276E+00    0.9337003511E-04    0.1098103805E-03    0.4168971174E-02
    0.3000000000E+03    0.6413892510E-04    0.6908272192E+00    0.2660335700E-03    0.3177775457E-03    0.4132493970E-02
    0.5000000000E+03    0.1083215511E-03    0.6928886621E+00    0.4548813973E-03    0.5450525345E-03    0.4093908619E-02
    0.7000000000E+03    0.1582463289E-03    0.6937757839E+00    0.6679970096E-03    0.8018244070E-03    0.4051582190E-02
    0.9000000000E+03    0.2155771787E-03    0.6942695350E+00    0.9127401410E-03    0.1097036914E-02    0.4004101993E-02
    0.1100000000E+04    0.2823295878E-03    0.6945840546E+00    0.1197835633E-02    0.1441285173E-02    0.3949922936E-02
    0.1300000000E+04    0.3611042339E-03    0.6948019286E+00    0.1534489927E-02    0.1848194337E-02    0.3887149489E-02
    0.1500000000E+04    0.4553692584E-03    0.6949617615E+00    0.1937635375E-02    0.2335940963E-02    0.3813328866E-02
    0.1700000000E+04    0.5698557034E-03    0.6950840142E+00    0.2427648378E-02    0.2929355746E-02    0.3725189858E-02
    0.1900000000E+04    0.7111347391E-03    0.6951805420E+00    0.3032853045E-02    0.3662993861E-02    0.3618282590E-02
    0.2100000000E+04    0.8884599373E-03    0.6952586886E+00    0.3793180062E-02    0.4585633772E-02    0.3486479735E-02
    0.2300000000E+04    0.1114948121E-02    0.6953232453E+00    0.4765314843E-02    0.5766632606E-02    0.3321328451E-02
    0.2500000000E+04    0.1409038372E-02    0.6953774718E+00    0.6029108034E-02    0.7303903383E-02    0.3111372802E-02
    0.2700000000E+04    0.1795610872E-02    0.6954236624E+00    0.7692646077E-02    0.9330418671E-02    0.2842005565E-02
    0.2900000000E+04    0.2304447003E-02    0.6954634790E+00    0.9886079074E-02    0.1200727318E-01    0.2497590621E-02
    0.3100000000E+04    0.2960091226E-02    0.6954981547E+00    0.1271861648E-01    0.1547209569E-01    0.2069758450E-02
    0.3300000000E+04    0.3755177677E-02    0.6955286241E+00    0.1616397543E-01    0.1969980952E-01    0.1575761345E-02
    0.3500000000E+04    0.4617058161E-02    0.6955556080E+00    0.1991513934E-01    0.2432363448E-01    0.1076536672E-02
    0.3700000000E+04    0.5421107717E-02    0.6955796716E+00    0.2343774639E-01    0.2869519198E-01    0.6578961232E-03
    0.3900000000E+04    0.6074359594E-02    0.6956012641E+00    0.2632817990E-01    0.3231838427E-01    0.3703011548E-03
    0.4100000000E+04    0.6568703855E-02    0.6956207472E+00    0.2854586751E-01    0.3513664338E-01    0.2026034506E-03
    0.4300000000E+04    0.6946769389E-02    0.6956384151E+00    0.3027020471E-01    0.3736340555E-01    0.1148044451E-03
    0.4500000000E+04    0.7253775562E-02    0.6956545101E+00    0.3169391787E-01    0.3923111470E-01    0.7151571575E-04
    0.4700000000E+04    0.7520210164E-02    0.6956692327E+00    0.3294757465E-01    0.4089806297E-01    0.5080607618E-04
    0.4900000000E+04    0.7763265959E-02    0.6956827513E+00    0.3410498968E-01    0.4245398960E-01    0.4104211673E-04
    0.1000000000E+04    0.2476297660E-03    0.6944424921E+00    0.1049614574E-02    0.1262266882E-02    0.3977957804E-02
    0.3000000000E+04    0.2613190873E-02    0.6954813952E+00    0.1121902913E-01    0.1363662373E-01    0.2293902983E-02
    0.5000000000E+04    0.7879036727E-02    0.6956891042E+00    0.3466053879E-01    0.4320605882E-01    0.3832865875E-04
    0.7000000000E+04    0.9833728869E-02    0.6957779671E+00    0.4442261300E-01    0.5690522472E-01    0.3290622198E-04
    0.9000000000E+04    0.1134260136E-01    0.6958272355E+00    0.5255936453E-01    0.6909122206E-01    0.3336618401E-04
    0.1100000000E+05    0.1251996698E-01    0.6958585206E+00    0.5945135976E-01    0.8009688381E-01    0.3374111338E-04
    0.1300000000E+05    0.1344071390E-01    0.6958801311E+00    0.6534444970E-01    0.9012798930E-01    0.3405633695E-04
    0.1500000000E+05    0.1416020884E-01    0.6958959425E+00    0.7042427007E-01    0.9934282715E-01    0.3432863571E-04
    0.1700000000E+05    0.1472010317E-01    0.6959080054E+00    0.7483356175E-01    0.1078653617E+00    0.3456854306E-04
    0.1900000000E+05    0.1515220748E-01    0.6959175061E+00    0.7868383701E-01    0.1157942023E+00    0.3478311291E-04
    0.2100000000E+05    0.1548114246E-01    0.6959251787E+00    0.8206344555E-01    0.1232088827E+00    0.3497730534E-04
    0.2300000000E+05    0.1572619053E-01    0.6959315015E+00    0.8504327024E-01    0.1301743502E+00    0.3515474354E-04
    0.2500000000E+05    0.1590261322E-01    0.6959367996E+00    0.8768082522E-01    0.1367442339E+00    0.3531815631E-04
    0.2700000000E+05    0.1602260414E-01    0.6959413015E+00    0.9002325490E-01    0.1429632645E+00    0.3546965109E-04
    0.2900000000E+05    0.1609598864E-01    0.6959451728E+00    0.9210956220E-01    0.1488690935E+00    0.3561089000E-04
    0.3100000000E+05    0.1613074452E-01    0.6959485361E+00    0.9397228716E-01    0.1544936785E+00    0.3574320748E-04
    0.3300000000E+05    0.1613339435E-01    0.6959514841E+00    0.9563878765E-01    0.1598643518E+00    0.3586769145E-04
    0.3500000000E+05    0.1610930432E-01    0.6959540885E+00    0.9713222769E-01    0.1650046545E+00    0.3598524072E-04
    0.3700000000E+05    0.1606291437E-01    0.6959564054E+00    0.9847234837E-01    0.1699349942E+00    0.3609660659E-04
    0.3900000000E+05    0.1599791697E-01    0.6959584793E+00    0.9967607505E-01    0.1746731674E+00    0.3620242359E-04
    0.4100000000E+05    0.1591739731E-01    0.6959603459E+00    0.1007580000E+00    0.1792347807E+00    0.3630323254E-04
    0.4300000000E+05    0.1582394404E-01    0.6959620344E+00    0.1017307692E+00    0.1836335905E+00    0.3639949827E-04
    0.4500000000E+05    0.1571973753E-01    0.6959635687E+00    0.1026053946E+00    0.1878817810E+00    0.3649162321E-04
    0.4700000000E+05    0.1560662054E-01    0.6959649687E+00    0.1033915087E+00    0.1919901921E+00    0.3657995818E-04
    0.4900000000E+05    0.1548615535E-01    0.6959662510E+00    0.1040975725E+00    0.1959685089E+00    0.3666481083E-04
    0.1000000000E+05    0.1196749877E-01    0.6958444508E+00    0.5614392494E-01    0.7472742772E-01    0.3356253335E-04
    0.3000000000E+05    0.1611775728E-01    0.6959469116E+00    0.9306705395E-01    0.1517147356E+00    0.3567809092E-04
    0.5000000000E+05    0.1542359026E-01    0.6959668524E+00    0.1044229523E+00    0.1979116318E+00    0.3670601735E-04
    0.7000000000E+05    0.1402015589E-01    0.6959751648E+00    0.1081429456E+00    0.2316483700E+00    0.3739911763E-04
    0.9000000000E+05    0.1261530297E-01    0.6959796516E+00    0.1087415542E+00    0.2585029303E+00    0.3792529128E-04
    0.1100000000E+06    0.1135492683E-01    0.6959824222E+00    0.1078616786E+00    0.2809117960E+00    0.3835072787E-04
    0.1300000000E+06    0.1025654666E-01    0.6959842812E+00    0.1062304945E+00    0.3001701260E+00    0.3870852457E-04
    0.1500000000E+06    0.9305680574E-02    0.6959856006E+00    0.1042108790E+00    0.3170569589E+00    0.3901766667E-04
    0.1700000000E+06    0.8481541869E-02    0.6959865758E+00    0.1019986778E+00    0.3320821942E+00    0.3929007819E-04
    0.1900000000E+06    0.7764279534E-02    0.6959873189E+00    0.9970523158E-01    0.3456005676E+00    0.3953374898E-04
    0.2100000000E+06    0.7136783830E-02    0.6959878985E+00    0.9739595927E-01    0.3578704498E+00    0.3975429973E-04
    0.2300000000E+06    0.6584823269E-02    0.6959883591E+00    0.9510995660E-01    0.3690868376E+00    0.3995583763E-04
    0.2500000000E+06    0.6096703019E-02    0.6959887307E+00    0.9287060871E-01    0.3794011212E+00    0.4014145685E-04
    0.2700000000E+06    0.5662834022E-02    0.6959890340E+00    0.9069163438E-01    0.3889335658E+00    0.4031354757E-04
    0.2900000000E+06    0.5275335344E-02    0.6959892841E+00    0.8858067071E-01    0.3977815418E+00    0.4047399523E-04
    0.3100000000E+06    0.4927700650E-02    0.6959894920E+00    0.8654147010E-01    0.4060251481E+00    0.4062431384E-04
    0.3300000000E+06    0.4614528907E-02    0.6959896659E+00    0.8457528296E-01    0.4137311731E+00    0.4076573787E-04
    0.3500000000E+06    0.4331310266E-02    0.6959898121E+00    0.8268174716E-01    0.4209559578E+00    0.4089928734E-04
    0.3700000000E+06    0.4074256694E-02    0.6959899355E+00    0.8085946984E-01    0.4277475129E+00    0.4102581494E-04
    0.3900000000E+06    0.3840167960E-02    0.6959900399E+00    0.7910641332E-01    0.4341471139E+00    0.4114604090E-04
    0.4100000000E+06    0.3626325287E-02    0.6959901284E+00    0.7742015334E-01    0.4401905241E+00    0.4126057916E-04
    0.4300000000E+06    0.3430406563E-02    0.6959902035E+00    0.7579805293E-01    0.4459089473E+00    0.4136995738E-04
    0.4500000000E+06    0.3250418400E-02    0.6959902672E+00    0.7423737970E-01    0.4513297789E+00    0.4147463248E-04
    0.4700000000E+06    0.3084641357E-02    0.6959903211E+00    0.7273538455E-01    0.4564772065E+00    0.4157500274E-04
    0.4900000000E+06    0.2931585556E-02    0.6959903666E+00    0.7128935423E-01    0.4613726937E+00    0.4167141750E-04
    0.1000000000E+06    0.1196466250E-01    0.6959811859E+00    0.1084287409E+00    0.2701655859E+00    0.3814807296E-04
    0.3000000000E+06    0.5096895716E-02    0.6959893928E+00    0.8755197551E-01    0.4019744429E+00    0.4055033783E-04
    0.5000000000E+06    0.2859416256E-02    0.6959903866E+00    0.7058649647E-01    0.4637320212E+00    0.4171823930E-04
    0.7000000000E+06    0.1843833684E-02    0.6959905409E+00    0.5888200696E-01    0.5014072570E+00    0.4250582514E-04
    0.9000000000E+06    0.1292543708E-02    0.6959904746E+00    0.5044462473E-01    0.5270959945E+00    0.4310376339E-04
    0.1100000000E+07    0.9584034623E-03    0.6959903347E+00    0.4409688625E-01    0.5458173093E+00    0.4358724078E-04
    0.1300000000E+07    0.7400178400E-03    0.6959901694E+00    0.3915467148E-01    0.5600962745E+00    0.4399385866E-04
    0.1500000000E+07    0.5891991779E-03    0.6959899976E+00    0.3520024888E-01    0.5713579544E+00    0.4434518791E-04
    0.1700000000E+07    0.4805555110E-03    0.6959898273E+00    0.3196558840E-01    0.5804724458E+00    0.4465477721E-04
    0.1900000000E+07    0.3996359243E-03    0.6959896618E+00    0.2927123104E-01    0.5880028006E+00    0.4493170538E-04
    0.2100000000E+07    0.3377087632E-03    0.6959895025E+00    0.2699263771E-01    0.5943301829E+00    0.4518235941E-04
    0.2300000000E+07    0.2892385851E-03    0.6959893500E+00    0.2504073027E-01    0.5997221345E+00    0.4541140653E-04
    0.2500000000E+07    0.2505750138E-03    0.6959892042E+00    0.2335013449E-01    0.6043721204E+00    0.4562236289E-04
    0.2700000000E+07    0.2192299844E-03    0.6959890647E+00    0.2187179992E-01    0.6084235801E+00    0.4581794468E-04
    0.2900000000E+07    0.1934593777E-03    0.6959889314E+00    0.2056821107E-01    0.6119851529E+00    0.4600029455E-04
    0.3100000000E+07    0.1720106629E-03    0.6959888038E+00    0.1941018892E-01    0.6151406491E+00    0.4617113305E-04
    0.3300000000E+07    0.1539652095E-03    0.6959886815E+00    0.1837469953E-01    0.6179557714E+00    0.4633186305E-04
    0.3500000000E+07    0.1386366989E-03    0.6959885641E+00    0.1744331888E-01    0.6204827612E+00    0.4648364375E-04
    0.3700000000E+07    0.1255039026E-03    0.6959884514E+00    0.1660113555E-01    0.6227636827E+00    0.4662744421E-04
    0.3900000000E+07    0.1141651390E-03    0.6959883429E+00    0.1583595246E-01    0.6248327879E+00    0.4676408291E-04
    0.4100000000E+07    0.1043067624E-03    0.6959882385E+00    0.1513769660E-01    0.6267182517E+00    0.4689425759E-04
    0.4300000000E+07    0.9568094534E-04    0.6959881377E+00    0.1449797635E-01    0.6284434629E+00    0.4701856791E-04
    0.4500000000E+07    0.8808974728E-04    0.6959880405E+00    0.1390974498E-01    0.6300280002E+00    0.4713753313E-04
    0.4700000000E+07    0.8137351213E-04    0.6959879465E+00    0.1336704180E-01    0.6314883775E+00    0.4725160591E-04
    0.4900000000E+07    0.7540230050E-04    0.6959878555E+00    0.1286479089E-01    0.6328386217E+00    0.4736118326E-04
    0.1000000000E+07    0.1106502392E-02    0.6959904097E+00    0.4706049487E-01    0.5371341264E+00    0.4335693688E-04
    0.3000000000E+07    0.1822586252E-03    0.6959888669E+00    0.1997256725E-01    0.6136091923E+00    0.4608705858E-04
    0.5000000000E+07    0.7266198692E-04    0.6959878111E+00    0.1262745109E-01    0.6334762602E+00    0.4741439721E-04
    0.7000000000E+07    0.3898045284E-04    0.6959870452E+00    0.9217002808E-02    0.6426101496E+00    0.4830950684E-04
    0.9000000000E+07    0.2432488604E-04    0.6959864441E+00    0.7250231843E-02    0.6478548695E+00    0.4898907921E-04
    0.1100000000E+08    0.1664101193E-04    0.6959859485E+00    0.5971605684E-02    0.6512565462E+00    0.4953856445E-04
    0.1300000000E+08    0.1211099785E-04    0.6959855263E+00    0.5074214477E-02    0.6536405783E+00    0.5000069704E-04
    0.1500000000E+08    0.9215319987E-05    0.6959851581E+00    0.4409924822E-02    0.6554037134E+00    0.5039999268E-04
    0.1700000000E+08    0.7251336780E-05    0.6959848314E+00    0.3898496459E-02    0.6567602779E+00    0.5075184972E-04
    0.1900000000E+08    0.5857506945E-05    0.6959845375E+00    0.3492699247E-02    0.6578361858E+00    0.5106658650E-04
    0.2100000000E+08    0.4832250079E-05    0.6959842703E+00    0.3162928134E-02    0.6587102528E+00    0.5135146197E-04
    0.2300000000E+08    0.4055903461E-05    0.6959840252E+00    0.2889686825E-02    0.6594343275E+00    0.5161178055E-04
    0.2500000000E+08    0.3453763684E-05    0.6959837988E+00    0.2659614547E-02    0.6600439124E+00    0.5185153847E-04
    0.2700000000E+08    0.2977224091E-05    0.6959835882E+00    0.2463249696E-02    0.6605641325E+00    0.5207382274E-04
