  Pressure (Pa) 23mC5-500 (mol/kg) 24mC5-500 (mol/kg) 2mC6-500 (mol/kg) 3mC6-500 (mol/kg) C7-500 (mol/kg)
    0.1000000000E+01    0.3677091079E-05    0.1514025650E+00    0.5495168713E-05    0.2400126541E-05    0.4191582844E-02
    0.3000000000E+01    0.7141077545E-05    0.3164859691E+00    0.1017074721E-04    0.6135236790E-05    0.4230416286E-02
    0.5000000000E+01    0.8708652469E-05    0.4047517362E+00    0.1213729300E-04    0.9567463493E-05    0.4249962550E-02
    0.7000000000E+01    0.9576319498E-05    0.4596978855E+00    0.1327421020E-04    0.1285249150E-04    0.4262134951E-02
    0.9000000000E+01    0.1013460335E-04    0.4971957881E+00    0.1412281957E-04    0.1604292895E-04    0.4270497729E-02
    0.1100000000E+02    0.1054117954E-04    0.5244178102E+00    0.1487233154E-04    0.1916513108E-04    0.4276611889E-02
    0.1300000000E+02    0.1086870580E-04    0.5450789472E+00    0.1559605566E-04    0.2223479959E-04    0.4281280198E-02
    0.1500000000E+02    0.1115379858E-04    0.5612960206E+00    0.1632359327E-04    0.2526228944E-04    0.4284960265E-02
    0.1700000000E+02    0.1141611368E-04    0.5743636370E+00    0.1706657532E-04    0.2825490675E-04    0.4287932963E-02
    0.1900000000E+02    0.1166668697E-04    0.5851180615E+00    0.1782886031E-04    0.3121806195E-04    0.4290380678E-02
    0.2100000000E+02    0.1191190920E-04    0.5941235638E+00    0.1861088598E-04    0.3415591042E-04    0.4292427223E-02
    0.2300000000E+02    0.1215555172E-04    0.6017746860E+00    0.1941162283E-04    0.3707173584E-04    0.4294159747E-02
    0.2500000000E+02    0.1239985541E-04    0.6083555959E+00    0.2022947795E-04    0.3996819318E-04    0.4295641454E-02
    0.2700000000E+02    0.1264614219E-04    0.6140761606E+00    0.2106271671E-04    0.4284746984E-04    0.4296919353E-02
    0.2900000000E+02    0.1289517062E-04    0.6190947411E+00    0.2190965550E-04    0.4571139659E-04    0.4298029178E-02
    0.3100000000E+02    0.1314734899E-04    0.6235330796E+00    0.2276874326E-04    0.4856152641E-04    0.4298998596E-02
    0.3300000000E+02    0.1340286602E-04    0.6274863057E+00    0.2363858907E-04    0.5139919181E-04    0.4299849387E-02
    0.3500000000E+02    0.1366177266E-04    0.6310298314E+00    0.2451796371E-04    0.5422554770E-04    0.4300598944E-02
    0.3700000000E+02    0.1392403410E-04    0.6342242080E+00    0.2540578959E-04    0.5704160384E-04    0.4301261334E-02
    0.3900000000E+02    0.1418956320E-04    0.6371186150E+00    0.2630112591E-04    0.5984825004E-04    0.4301848064E-02
    0.4100000000E+02    0.1445824216E-04    0.6397534097E+00    0.2720315277E-04    0.6264627577E-04    0.4302368647E-02
    0.4300000000E+02    0.1472993666E-04    0.6421620208E+00    0.2811115594E-04    0.6543638594E-04    0.4302831019E-02
    0.4500000000E+02    0.1500450501E-04    0.6443723738E+00    0.2902451285E-04    0.6821921346E-04    0.4303241858E-02
    0.4700000000E+02    0.1528180412E-04    0.6464079792E+00    0.2994268023E-04    0.7099532946E-04    0.4303606823E-02
    0.4900000000E+02    0.1556169327E-04    0.6482887711E+00    0.3086518326E-04    0.7376525180E-04    0.4303930750E-02
    0.1000000000E+02    0.1035112014E-04    0.5118078648E+00    0.1450386727E-04    0.1761141298E-04    0.4273774615E-02
    0.3000000000E+02    0.1302085026E-04    0.6213799641E+00    0.2233777155E-04    0.4713809823E-04    0.4298529958E-02
    0.5000000000E+02    0.1570256636E-04    0.6491765280E+00    0.3132792867E-04    0.7514803933E-04    0.4304078645E-02
    0.7000000000E+02    0.1862666926E-04    0.6618652476E+00    0.4073332037E-04    0.1025740682E-03    0.4305639073E-02
    0.9000000000E+02    0.2169736799E-04    0.6691309715E+00    0.5031483318E-04    0.1297374190E-03    0.4305618285E-02
    0.1100000000E+03    0.2486488591E-04    0.6738380575E+00    0.6000051836E-04    0.1568016343E-03    0.4304779464E-02
    0.1300000000E+03    0.2810396650E-04    0.6771356389E+00    0.6976754675E-04    0.1838661161E-03    0.4303447709E-02
    0.1500000000E+03    0.3140112854E-04    0.6795743283E+00    0.7961013543E-04    0.2109981348E-03    0.4301787203E-02
    0.1700000000E+03    0.3474890119E-04    0.6814509932E+00    0.8952906368E-04    0.2382467250E-03    0.4299890649E-02
    0.1900000000E+03    0.3814309100E-04    0.6829398254E+00    0.9952775616E-04    0.2656496678E-03    0.4297814681E-02
    0.2100000000E+03    0.4158139609E-04    0.6841497743E+00    0.1096106839E-03    0.2932373697E-03    0.4295595973E-02
    0.2300000000E+03    0.4506265943E-04    0.6851524765E+00    0.1197826764E-03    0.3210351835E-03    0.4293259350E-02
    0.2500000000E+03    0.4858644531E-04    0.6859969696E+00    0.1300486204E-03    0.3490648796E-03    0.4290822204E-02
    0.2700000000E+03    0.5215278872E-04    0.6867179520E+00    0.1404133323E-03    0.3773456207E-03    0.4288297054E-02
    0.2900000000E+03    0.5576204160E-04    0.6873406670E+00    0.1508815109E-03    0.4058946340E-03    0.4285693101E-02
    0.3100000000E+03    0.5941477581E-04    0.6878839181E+00    0.1614577282E-03    0.4347276885E-03    0.4283017217E-02
    0.3300000000E+03    0.6311172026E-04    0.6883619993E+00    0.1721464365E-03    0.4638594435E-03    0.4280274594E-02
    0.3500000000E+03    0.6685371947E-04    0.6887859703E+00    0.1829519846E-03    0.4933037097E-03    0.4277469181E-02
    0.3700000000E+03    0.7064170574E-04    0.6891645226E+00    0.1938786350E-03    0.5230736479E-03    0.4274603996E-02
    0.3900000000E+03    0.7447668036E-04    0.6895045809E+00    0.2049305827E-03    0.5531819242E-03    0.4271681337E-02
    0.4100000000E+03    0.7835970067E-04    0.6898117304E+00    0.2161119723E-03    0.5836408327E-03    0.4268702939E-02
    0.4300000000E+03    0.8229187132E-04    0.6900905257E+00    0.2274269142E-03    0.6144623945E-03    0.4265670096E-02
    0.4500000000E+03    0.8627433828E-04    0.6903447182E+00    0.2388794997E-03    0.6456584382E-03    0.4262583743E-02
    0.4700000000E+03    0.9030828483E-04    0.6905774255E+00    0.2504738139E-03    0.6772406668E-03    0.4259444521E-02
    0.4900000000E+03    0.9439492900E-04    0.6907912597E+00    0.2622139487E-03    0.7092207148E-03    0.4256252832E-02
    0.1000000000E+03    0.2327098010E-04    0.6717117252E+00    0.5514668549E-04    0.1432747125E-03    0.4305275311E-02
    0.3000000000E+03    0.5758293110E-04    0.6876212439E+00    0.1561558338E-03    0.4202747173E-03    0.4284363793E-02
    0.5000000000E+03    0.9645840242E-04    0.6908918023E+00    0.2681399820E-03    0.7253635498E-03    0.4254637382E-02
    0.7000000000E+03    0.1408205350E-03    0.6923020094E+00    0.3953484316E-03    0.1071996038E-02    0.4219539546E-02
    0.9000000000E+03    0.1921279420E-03    0.6930873693E+00    0.5422771703E-03    0.1472692523E-02    0.4178653915E-02
    0.1100000000E+04    0.2522695907E-03    0.6935876940E+00    0.7144613001E-03    0.1942694296E-02    0.4130812768E-02
    0.1300000000E+04    0.3237550530E-03    0.6939342289E+00    0.9191675472E-03    0.2501987733E-02    0.4074284743E-02
    0.1500000000E+04    0.4100052659E-03    0.6941883756E+00    0.1166270184E-02    0.3177743363E-02    0.4006652786E-02
    0.1700000000E+04    0.5157915335E-03    0.6943826944E+00    0.1469533215E-02    0.4007866167E-02    0.3924545462E-02
    0.1900000000E+04    0.6479111530E-03    0.6945360578E+00    0.1848572928E-02    0.5046432147E-02    0.3823204818E-02
    0.2100000000E+04    0.8162321565E-03    0.6946601579E+00    0.2331893459E-02    0.6372113268E-02    0.3695828386E-02
    0.2300000000E+04    0.1035273558E-02    0.6947626250E+00    0.2961490247E-02    0.8100994126E-02    0.3532618224E-02
    0.2500000000E+04    0.1326397791E-02    0.6948486498E+00    0.3799272988E-02    0.1040456003E-01    0.3319585488E-02
    0.2700000000E+04    0.1720037393E-02    0.6949218860E+00    0.4933703623E-02    0.1352861356E-01    0.3037720186E-02
    0.2900000000E+04    0.2254815108E-02    0.6949849802E+00    0.6477693622E-02    0.1778873282E-01    0.2665038788E-02
    0.3100000000E+04    0.2963678823E-02    0.6950398962E+00    0.8529301667E-02    0.2346393055E-01    0.2188404668E-02
    0.3300000000E+04    0.3831675749E-02    0.6950881220E+00    0.1105028640E-01    0.3046291970E-01    0.1633556680E-02
    0.3500000000E+04    0.4745653295E-02    0.6951308055E+00    0.1371914178E-01    0.3791364052E-01    0.1092770917E-02
    0.3700000000E+04    0.5539299076E-02    0.6951688464E+00    0.1605677113E-01    0.4449748294E-01    0.6790764161E-03
    0.3900000000E+04    0.6132019898E-02    0.6952029598E+00    0.1782644450E-01    0.4954986919E-01    0.4296474970E-03
    0.4100000000E+04    0.6557229820E-02    0.6952337213E+00    0.1911985241E-01    0.5331021352E-01    0.3031160120E-03
    0.4300000000E+04    0.6880404553E-02    0.6952615994E+00    0.2012334705E-01    0.5628508255E-01    0.2450101954E-03
    0.4500000000E+04    0.7149023583E-02    0.6952869791E+00    0.2097300998E-01    0.5884716161E-01    0.2196795913E-03
    0.4700000000E+04    0.7388839556E-02    0.6953101802E+00    0.2174290238E-01    0.6120003731E-01    0.2089943024E-03
    0.4900000000E+04    0.7612305299E-02    0.6953314699E+00    0.2246888209E-01    0.6344244295E-01    0.2046610845E-03
    0.1000000000E+04    0.2209550299E-03    0.6933625056E+00    0.6248075544E-03    0.1697917046E-02    0.4155697126E-02
    0.3000000000E+04    0.2586575964E-02    0.6950133582E+00    0.7437152886E-02    0.2044070345E-01    0.2439493124E-02
    0.5000000000E+04    0.7719861001E-02    0.6953414699E+00    0.2282102422E-01    0.6453768073E-01    0.2036427183E-03
    0.7000000000E+04    0.9545925531E-02    0.6954809131E+00    0.2907311343E-01    0.8476318251E-01    0.2050801829E-03
    0.9000000000E+04    0.1091912310E-01    0.6955576914E+00    0.3422419672E-01    0.1027180779E+00    0.2079756037E-03
    0.1100000000E+05    0.1195373807E-01    0.6956060990E+00    0.3851979268E-01    0.1188576680E+00    0.2103151998E-03
    0.1300000000E+05    0.1272919813E-01    0.6956392939E+00    0.4213196914E-01    0.1334984575E+00    0.2122817264E-03
    0.1500000000E+05    0.1330395163E-01    0.6956634003E+00    0.4519044742E-01    0.1468839080E+00    0.2139801763E-03
    0.1700000000E+05    0.1372172489E-01    0.6956816519E+00    0.4779477865E-01    0.1592046230E+00    0.2154763980E-03
    0.1900000000E+05    0.1401570529E-01    0.6956959155E+00    0.5002256666E-01    0.1706121629E+00    0.2168144688E-03
    0.2100000000E+05    0.1421140226E-01    0.6957073435E+00    0.5193515400E-01    0.1812287230E+00    0.2180253722E-03
    0.2300000000E+05    0.1432864389E-01    0.6957166852E+00    0.5358163602E-01    0.1911540548E+00    0.2191317345E-03
    0.2500000000E+05    0.1438299545E-01    0.6957244488E+00    0.5500174739E-01    0.2004705055E+00    0.2201505933E-03
    0.2700000000E+05    0.1438678362E-01    0.6957309907E+00    0.5622797286E-01    0.2092467484E+00    0.2210951042E-03
    0.2900000000E+05    0.1434984677E-01    0.6957365684E+00    0.5728711402E-01    0.2175405849E+00    0.2219756414E-03
    0.3100000000E+05    0.1428009192E-01    0.6957413722E+00    0.5820146836E-01    0.2254010785E+00    0.2228005330E-03
    0.3300000000E+05    0.1418391317E-01    0.6957455459E+00    0.5898972787E-01    0.2328701995E+00    0.2235765676E-03
    0.3500000000E+05    0.1406650939E-01    0.6957492001E+00    0.5966767152E-01    0.2399841074E+00    0.2243093535E-03
    0.3700000000E+05    0.1393212809E-01    0.6957524211E+00    0.6024870487E-01    0.2467741607E+00    0.2250035780E-03
    0.3900000000E+05    0.1378425406E-01    0.6957552776E+00    0.6074428442E-01    0.2532677213E+00    0.2256631998E-03
    0.4100000000E+05    0.1362575684E-01    0.6957578243E+00    0.6116425454E-01    0.2594887980E+00    0.2262915927E-03
    0.4300000000E+05    0.1345900662E-01    0.6957601058E+00    0.6151711708E-01    0.2654585692E+00    0.2268916560E-03
    0.4500000000E+05    0.1328596621E-01    0.6957621588E+00    0.6181024891E-01    0.2711958080E+00    0.2274659001E-03
    0.4700000000E+05    0.1310826441E-01    0.6957640134E+00    0.6205007871E-01    0.2767172313E+00    0.2280165130E-03
    0.4900000000E+05    0.1292725492E-01    0.6957656948E+00    0.6224223154E-01    0.2820377893E+00    0.2285454137E-03
    0.1000000000E+05    0.1147320534E-01    0.6955843717E+00    0.3646700547E-01    0.1109929988E+00    0.2092009387E-03
    0.3000000000E+05    0.1431864064E-01    0.6957390571E+00    0.5776114576E-01    0.2215222268E+00    0.2223945873E-03
    0.5000000000E+05    0.1283586950E-01    0.6957664773E+00    0.6232199694E-01    0.2846269925E+00    0.2288022586E-03
    0.7000000000E+05    0.1102338946E-01    0.6957767524E+00    0.6234317505E-01    0.3285051702E+00    0.2331222526E-03
    0.9000000000E+05    0.9434046174E-02    0.6957816345E+00    0.6076583321E-01    0.3618153835E+00    0.2364016336E-03
    0.1100000000E+06    0.8120725493E-02    0.6957842102E+00    0.5859678404E-01    0.3883864679E+00    0.2390530821E-03
    0.1300000000E+06    0.7046787267E-02    0.6957856222E+00    0.5624458248E-01    0.4102727551E+00    0.2412829285E-03
    0.1500000000E+06    0.6165638788E-02    0.6957863833E+00    0.5388968302E-01    0.4287148462E+00    0.2432095203E-03
    0.1700000000E+06    0.5437035840E-02    0.6957867538E+00    0.5161383821E-01    0.4445234318E+00    0.2449071839E-03
    0.1900000000E+06    0.4829128057E-02    0.6957868784E+00    0.4945255622E-01    0.4582588048E+00    0.2464257207E-03
    0.2100000000E+06    0.4317320804E-02    0.6957868423E+00    0.4741862384E-01    0.4703247204E+00    0.2478001640E-03
    0.2300000000E+06    0.3882694174E-02    0.6957866988E+00    0.4551342967E-01    0.4810216983E+00    0.2490561131E-03
    0.2500000000E+06    0.3510630367E-02    0.6957864823E+00    0.4373269315E-01    0.4905792743E+00    0.2502128530E-03
    0.2700000000E+06    0.3189748555E-02    0.6957862158E+00    0.4206946158E-01    0.4991765167E+00    0.2512852805E-03
    0.2900000000E+06    0.2911108646E-02    0.6957859149E+00    0.4051570733E-01    0.5069556147E+00    0.2522851469E-03
    0.3100000000E+06    0.2667622698E-02    0.6957855906E+00    0.3906318152E-01    0.5140311851E+00    0.2532218880E-03
    0.3300000000E+06    0.2453619904E-02    0.6957852508E+00    0.3770386234E-01    0.5204968245E+00    0.2541031974E-03
    0.3500000000E+06    0.2264523464E-02    0.6957849011E+00    0.3643017855E-01    0.5264298353E+00    0.2549354323E-03
    0.3700000000E+06    0.2096608815E-02    0.6957845455E+00    0.3523510736E-01    0.5318947030E+00    0.2557239070E-03
    0.3900000000E+06    0.1946821197E-02    0.6957841871E+00    0.3411220248E-01    0.5369457014E+00    0.2564731100E-03
    0.4100000000E+06    0.1812636777E-02    0.6957838282E+00    0.3305558397E-01    0.5416288757E+00    0.2571868675E-03
    0.4300000000E+06    0.1691956005E-02    0.6957834703E+00    0.3205990835E-01    0.5459835720E+00    0.2578684681E-03
    0.4500000000E+06    0.1583021009E-02    0.6957831146E+00    0.3112032932E-01    0.5500436329E+00    0.2585207593E-03
    0.4700000000E+06    0.1484351084E-02    0.6957827621E+00    0.3023245532E-01    0.5538383411E+00    0.2591462232E-03
    0.4900000000E+06    0.1394691914E-02    0.6957824135E+00    0.2939230720E-01    0.5573931736E+00    0.2597470370E-03
    0.1000000000E+06    0.8744543376E-02    0.6957831168E+00    0.5972193800E-01    0.3757889791E+00    0.2377900846E-03
    0.3000000000E+06    0.2785354818E-02    0.6957857551E+00    0.3977730097E-01    0.5105750610E+00    0.2527608918E-03
    0.5000000000E+06    0.1352901204E-02    0.6957822408E+00    0.2898898965E-01    0.5590877091E+00    0.2600388091E-03
    0.7000000000E+06    0.7994685820E-03    0.6957790446E+00    0.2271388556E-01    0.5845580561E+00    0.2649466472E-03
    0.9000000000E+06    0.5284375847E-03    0.6957763239E+00    0.1864477984E-01    0.6003024837E+00    0.2686726517E-03
    0.1100000000E+07    0.3755796459E-03    0.6957739857E+00    0.1579999681E-01    0.6110079010E+00    0.2716853761E-03
    0.1300000000E+07    0.2808683437E-03    0.6957719429E+00    0.1370182724E-01    0.6187616822E+00    0.2742191432E-03
    0.1500000000E+07    0.2181001932E-03    0.6957701313E+00    0.1209156599E-01    0.6246369871E+00    0.2764083765E-03
    0.1700000000E+07    0.1743431121E-03    0.6957685045E+00    0.1081732015E-01    0.6292426356E+00    0.2783375067E-03
    0.1900000000E+07    0.1426116124E-03    0.6957670283E+00    0.9784171826E-02    0.6329499087E+00    0.2800631097E-03
    0.2100000000E+07    0.1188610627E-03    0.6957656770E+00    0.8929804537E-02    0.6359981583E+00    0.2816249866E-03
    0.2300000000E+07    0.1006168451E-03    0.6957644309E+00    0.8211635160E-02    0.6385486435E+00    0.2830522215E-03
    0.2500000000E+07    0.8629539155E-04    0.6957632745E+00    0.7599586708E-02    0.6407139847E+00    0.2843667254E-03
    0.2700000000E+07    0.7484483063E-04    0.6957621957E+00    0.7071816958E-02    0.6425752173E+00    0.2855854244E-03
    0.2900000000E+07    0.6554411384E-04    0.6957611845E+00    0.6612083980E-02    0.6441921394E+00    0.2867216703E-03
    0.3100000000E+07    0.5788546636E-04    0.6957602327E+00    0.6208061307E-02    0.6456098409E+00    0.2877861847E-03
    0.3300000000E+07    0.5150286203E-04    0.6957593337E+00    0.5850226315E-02    0.6468629635E+00    0.2887877096E-03
    0.3500000000E+07    0.4612701428E-04    0.6957584818E+00    0.5531106670E-02    0.6479785605E+00    0.2897334685E-03
    0.3700000000E+07    0.4155621045E-04    0.6957576721E+00    0.5244757227E-02    0.6489780669E+00    0.2906294999E-03
    0.3900000000E+07    0.3763691908E-04    0.6957569006E+00    0.4986389192E-02    0.6498786851E+00    0.2914809042E-03
    0.4100000000E+07    0.3425059730E-04    0.6957561638E+00    0.4752102264E-02    0.6506943807E+00    0.2922920293E-03
    0.4300000000E+07    0.3130453097E-04    0.6957554586E+00    0.4538687890E-02    0.6514366092E+00    0.2930666119E-03
    0.4500000000E+07    0.2872535722E-04    0.6957547823E+00    0.4343482544E-02    0.6521148554E+00    0.2938078878E-03
    0.4700000000E+07    0.2645440727E-04    0.6957541327E+00    0.4164256815E-02    0.6527370399E+00    0.2945186776E-03
    0.4900000000E+07    0.2444430724E-04    0.6957535075E+00    0.3999130496E-02    0.6533098284E+00    0.2952014552E-03
    0.1000000000E+07    0.4421947726E-03    0.6957751130E+00    0.1710637975E-01    0.6061204388E+00    0.2702502712E-03
    0.3000000000E+07    0.6153510591E-04    0.6957607016E+00    0.6403759535E-02    0.6449235216E+00    0.2872623073E-03
    0.5000000000E+07    0.2352472731E-04    0.6957532036E+00    0.3921346049E-02    0.6535794990E+00    0.2955330315E-03
    0.7000000000E+07    0.1238591091E-04    0.6957480601E+00    0.2820814644E-02    0.6573853761E+00    0.3011104267E-03
    0.9000000000E+07    0.7649243620E-05    0.6957441231E+00    0.2200460172E-02    0.6595236101E+00    0.3053447717E-03
    0.1100000000E+08    0.5199380741E-05    0.6957409242E+00    0.1802637548E-02    0.6608926192E+00    0.3087685287E-03
    0.1300000000E+08    0.3767991474E-05    0.6957382250E+00    0.1525969313E-02    0.6618439038E+00    0.3116479852E-03
    0.1500000000E+08    0.2858816964E-05    0.6957358872E+00    0.1322502489E-02    0.6625431863E+00    0.3141359024E-03
    0.1700000000E+08    0.2245071694E-05    0.6957338234E+00    0.1166624341E-02    0.6630787997E+00    0.3163282298E-03
    0.1900000000E+08    0.1811069998E-05    0.6957319746E+00    0.1043414530E-02    0.6635021297E+00    0.3182892618E-03
    0.2100000000E+08    0.1492737007E-05    0.6957302991E+00    0.9435950278E-03    0.6638450988E+00    0.3200642296E-03
    0.2300000000E+08    0.1252235623E-05    0.6957287666E+00    0.8610944984E-03    0.6641285821E+00    0.3216861853E-03
    0.2500000000E+08    0.1066045117E-05    0.6957273538E+00    0.7917737338E-03    0.6643668040E+00    0.3231800294E-03
    0.2700000000E+08    0.9189151864E-06    0.6957260429E+00    0.7327140672E-03    0.6645697912E+00    0.3245649973E-03
