  Pressure (Pa) 23mC5-500 (mol/kg) 24mC5-500 (mol/kg) 2mC6-500 (mol/kg) 3mC6-500 (mol/kg) C7-500 (mol/kg)
    0.1000000000E+01    0.3843677113E-05    0.1266267215E+00    0.5737574254E-05    0.7346312483E-06    0.4220754695E-02
    0.3000000000E+01    0.7912207293E-05    0.2784958134E+00    0.1127789625E-04    0.1898402964E-05    0.4292778791E-02
    0.5000000000E+01    0.9936742262E-05    0.3663793431E+00    0.1379186435E-04    0.2971998659E-05    0.4334343591E-02
    0.7000000000E+01    0.1110049758E-04    0.4236789605E+00    0.1519655713E-04    0.4001112365E-05    0.4361900933E-02
    0.9000000000E+01    0.1184481970E-04    0.4639936098E+00    0.1614333347E-04    0.5001310678E-05    0.4381654992E-02
    0.1100000000E+02    0.1236527736E-04    0.4939006371E+00    0.1689226570E-04    0.5980428969E-05    0.4396587489E-02
    0.1300000000E+02    0.1275887287E-04    0.5169695588E+00    0.1755791849E-04    0.6943151662E-05    0.4408320709E-02
    0.1500000000E+02    0.1307771005E-04    0.5353050253E+00    0.1819386233E-04    0.7892576767E-05    0.4417816118E-02
    0.1700000000E+02    0.1335147072E-04    0.5502283469E+00    0.1882588560E-04    0.8830895325E-05    0.4425681081E-02
    0.1900000000E+02    0.1359783219E-04    0.5626109151E+00    0.1946636059E-04    0.9759733237E-05    0.4432318847E-02
    0.2100000000E+02    0.1382768560E-04    0.5730506825E+00    0.2012091912E-04    0.1068034152E-04    0.4438008059E-02
    0.2300000000E+02    0.1404791551E-04    0.5819716165E+00    0.2079172782E-04    0.1159371037E-04    0.4442947694E-02
    0.2500000000E+02    0.1426295624E-04    0.5896826883E+00    0.2147916250E-04    0.1250064155E-04    0.4447283807E-02
    0.2700000000E+02    0.1447569990E-04    0.5964143869E+00    0.2218269004E-04    0.1340179653E-04    0.4451126140E-02
    0.2900000000E+02    0.1468804459E-04    0.6023421501E+00    0.2290134215E-04    0.1429772960E-04    0.4454558834E-02
    0.3100000000E+02    0.1490123538E-04    0.6076018745E+00    0.2363397207E-04    0.1518891142E-04    0.4457647538E-02
    0.3300000000E+02    0.1511608152E-04    0.6123004612E+00    0.2437939306E-04    0.1607574628E-04    0.4460444269E-02
    0.3500000000E+02    0.1533309783E-04    0.6165231578E+00    0.2513645138E-04    0.1695858488E-04    0.4462990809E-02
    0.3700000000E+02    0.1555259854E-04    0.6203387764E+00    0.2590406263E-04    0.1783773410E-04    0.4465321127E-02
    0.3900000000E+02    0.1577476036E-04    0.6238034725E+00    0.2668122740E-04    0.1871346454E-04    0.4467463142E-02
    0.4100000000E+02    0.1599966558E-04    0.6269635270E+00    0.2746703562E-04    0.1958601649E-04    0.4469440030E-02
    0.4300000000E+02    0.1622733178E-04    0.6298574254E+00    0.2826066466E-04    0.2045560457E-04    0.4471271201E-02
    0.4500000000E+02    0.1645773253E-04    0.6325174326E+00    0.2906137419E-04    0.2132242161E-04    0.4472973041E-02
    0.4700000000E+02    0.1669081187E-04    0.6349708009E+00    0.2986849969E-04    0.2218664168E-04    0.4474559490E-02
    0.4900000000E+02    0.1692649458E-04    0.6372407071E+00    0.3068144551E-04    0.2304842269E-04    0.4476042484E-02
    0.1000000000E+02    0.1212551675E-04    0.4799788047E+00    0.1653333237E-04    0.5493163117E-05    0.4389601719E-02
    0.3000000000E+02    0.1479447538E-04    0.6050482547E+00    0.2326598420E-04    0.1474388776E-04    0.4456142659E-02
    0.5000000000E+02    0.1704528522E-04    0.6383131744E+00    0.3108993200E-04    0.2347844397E-04    0.4476748457E-02
    0.7000000000E+02    0.1953481916E-04    0.6537154465E+00    0.3946223173E-04    0.3197993570E-04    0.4487319942E-02
    0.9000000000E+02    0.2218451663E-04    0.6625971563E+00    0.4805858853E-04    0.4034630520E-04    0.4493849745E-02
    0.1100000000E+03    0.2493706647E-04    0.6683754224E+00    0.5676028500E-04    0.4862724042E-04    0.4498277874E-02
    0.1300000000E+03    0.2775956639E-04    0.6724347867E+00    0.6551907349E-04    0.5685263698E-04    0.4501443333E-02
    0.1500000000E+03    0.3063275047E-04    0.6754428433E+00    0.7431408514E-04    0.6504239462E-04    0.4503775838E-02
    0.1700000000E+03    0.3354487118E-04    0.6777611109E+00    0.8313631218E-04    0.7321069102E-04    0.4505521591E-02
    0.1900000000E+03    0.3648849920E-04    0.6796024031E+00    0.9198229545E-04    0.8136813826E-04    0.4506833416E-02
    0.2100000000E+03    0.3945879877E-04    0.6811001578E+00    0.1008513038E-03    0.8952298535E-04    0.4507812052E-02
    0.2300000000E+03    0.4245255566E-04    0.6823422872E+00    0.1097439813E-03    0.9768184002E-04    0.4508527086E-02
    0.2500000000E+03    0.4546760506E-04    0.6833890670E+00    0.1186616643E-03    0.1058501271E-03    0.4509028421E-02
    0.2700000000E+03    0.4850248170E-04    0.6842832046E+00    0.1276060228E-03    0.1140323934E-03    0.4509352959E-02
    0.2900000000E+03    0.5155619843E-04    0.6850558051E+00    0.1365788681E-03    0.1222325172E-03    0.4509528690E-02
    0.3100000000E+03    0.5462810207E-04    0.6857300606E+00    0.1455820489E-03    0.1304538582E-03    0.4509577306E-02
    0.3300000000E+03    0.5771777706E-04    0.6863236157E+00    0.1546173948E-03    0.1386993656E-03    0.4509515935E-02
    0.3500000000E+03    0.6082497971E-04    0.6868501329E+00    0.1636866877E-03    0.1469716599E-03    0.4509358310E-02
    0.3700000000E+03    0.6394959236E-04    0.6873203556E+00    0.1727916477E-03    0.1552730944E-03    0.4509115603E-02
    0.3900000000E+03    0.6709159095E-04    0.6877428484E+00    0.1819339283E-03    0.1636058027E-03    0.4508797011E-02
    0.4100000000E+03    0.7025102172E-04    0.6881245226E+00    0.1911151161E-03    0.1719717363E-03    0.4508410184E-02
    0.4300000000E+03    0.7342798419E-04    0.6884710168E+00    0.2003367333E-03    0.1803726946E-03    0.4507961552E-02
    0.4500000000E+03    0.7662261868E-04    0.6887869769E+00    0.2096002419E-03    0.1888103486E-03    0.4507456560E-02
    0.4700000000E+03    0.7983509699E-04    0.6890762654E+00    0.2189070480E-03    0.1972862603E-03    0.4506899860E-02
    0.4900000000E+03    0.8306561540E-04    0.6893421199E+00    0.2282585065E-03    0.2058018992E-03    0.4506295448E-02
    0.1000000000E+03    0.2355041198E-04    0.6657628421E+00    0.5240021946E-04    0.4449527554E-04    0.4496260143E-02
    0.3000000000E+03    0.5308990754E-04    0.6854040145E+00    0.1410765513E-03    0.1263403427E-03    0.4509567726E-02
    0.5000000000E+03    0.8468770635E-04    0.6894671307E+00    0.2329513912E-03    0.2100750535E-03    0.4505976450E-02
    0.7000000000E+03    0.1181361110E-03    0.6912210153E+00    0.3294528885E-03    0.2979313792E-03    0.4497728421E-02
    0.9000000000E+03    0.1536924411E-03    0.6921979765E+00    0.4317314289E-03    0.3910667702E-03    0.4486845618E-02
    0.1100000000E+04    0.1916586187E-03    0.6928202848E+00    0.5407988506E-03    0.4904327703E-03    0.4473966769E-02
    0.1300000000E+04    0.2323636547E-03    0.6932511822E+00    0.6576667270E-03    0.5969643691E-03    0.4459318719E-02
    0.1500000000E+04    0.2761714391E-03    0.6935670775E+00    0.7834170714E-03    0.7116569382E-03    0.4442954095E-02
    0.1700000000E+04    0.3234915747E-03    0.6938085006E+00    0.9192501906E-03    0.8356134650E-03    0.4424831027E-02
    0.1900000000E+04    0.3747914534E-03    0.6939989469E+00    0.1066526432E-02    0.9700840418E-03    0.4404844132E-02
    0.2100000000E+04    0.4306100376E-03    0.6941529739E+00    0.1226809266E-02    0.1116505962E-02    0.4382836530E-02
    0.2300000000E+04    0.4915741478E-03    0.6942800818E+00    0.1401914107E-02    0.1276548916E-02    0.4358602934E-02
    0.2500000000E+04    0.5584181940E-03    0.6943867332E+00    0.1593966417E-02    0.1452168715E-02    0.4331887606E-02
    0.2700000000E+04    0.6320084748E-03    0.6944774772E+00    0.1805472727E-02    0.1645672945E-02    0.4302378642E-02
    0.2900000000E+04    0.7133734267E-03    0.6945556085E+00    0.2039408766E-02    0.1859802488E-02    0.4269699025E-02
    0.3100000000E+04    0.8037415731E-03    0.6946235717E+00    0.2299329903E-02    0.2097833747E-02    0.4233394329E-02
    0.3300000000E+04    0.9045893904E-03    0.6946832186E+00    0.2589510441E-02    0.2363707669E-02    0.4192916634E-02
    0.3500000000E+04    0.1017701891E-02    0.6947359780E+00    0.2915119973E-02    0.2662193258E-02    0.4147603904E-02
    0.3700000000E+04    0.1145249391E-02    0.6947829693E+00    0.3282447033E-02    0.2999095147E-02    0.4096653907E-02
    0.3900000000E+04    0.1289884594E-02    0.6948250824E+00    0.3699182251E-02    0.3381516722E-02    0.4039091574E-02
    0.4100000000E+04    0.1454864563E-02    0.6948630332E+00    0.4174774610E-02    0.3818191714E-02    0.3973728741E-02
    0.4300000000E+04    0.1644201817E-02    0.6948974046E+00    0.4720873636E-02    0.4319896609E-02    0.3899115658E-02
    0.4500000000E+04    0.1862846514E-02    0.6949286753E+00    0.5351864086E-02    0.4899950790E-02    0.3813484986E-02
    0.4700000000E+04    0.2116895113E-02    0.6949572429E+00    0.6085481116E-02    0.5574794571E-02    0.3714692140E-02
    0.4900000000E+04    0.2413805440E-02    0.6949834397E+00    0.6943449673E-02    0.6364595084E-02    0.3600162610E-02
    0.1000000000E+04    0.1723544355E-03    0.6925402112E+00    0.4853543036E-03    0.4399132548E-03    0.4480635910E-02
    0.3000000000E+04    0.7573462724E-03    0.6945907338E+00    0.2165872766E-02    0.1975601396E-02    0.4252031648E-02
    0.5000000000E+04    0.2581080600E-02    0.6949957384E+00    0.7427079210E-02    0.6810054205E-02    0.3536067836E-02
    0.7000000000E+04    0.9626587058E-02    0.6951666901E+00    0.2797966379E-01    0.2591710577E-01    0.1125955030E-02
    0.9000000000E+04    0.1358727322E-01    0.6952601475E+00    0.4012437879E-01    0.3778212479E-01    0.4591527121E-03
    0.1100000000E+05    0.1548989353E-01    0.6953186345E+00    0.4648046061E-01    0.4449153550E-01    0.4543547653E-03
    0.1300000000E+05    0.1709275267E-01    0.6953584325E+00    0.5209294431E-01    0.5065944833E-01    0.4584843956E-03
    0.1500000000E+05    0.1846960090E-01    0.6953871036E+00    0.5714511162E-01    0.5642853381E-01    0.4621521350E-03
    0.1700000000E+05    0.1965590636E-01    0.6954086315E+00    0.6171510313E-01    0.6184882166E-01    0.4653843543E-03
    0.1900000000E+05    0.2068021924E-01    0.6954253113E+00    0.6586633896E-01    0.6696106835E-01    0.4682747525E-03
    0.2100000000E+05    0.2156598642E-01    0.6954385563E+00    0.6965156168E-01    0.7179955055E-01    0.4708903096E-03
    0.2300000000E+05    0.2233261981E-01    0.6954492837E+00    0.7311500306E-01    0.7639333730E-01    0.4732799504E-03
    0.2500000000E+05    0.2299630690E-01    0.6954581139E+00    0.7629403361E-01    0.8076726092E-01    0.4754805094E-03
    0.2700000000E+05    0.2357063587E-01    0.6954654810E+00    0.7922044305E-01    0.8494267661E-01    0.4775204257E-03
    0.2900000000E+05    0.2406708267E-01    0.6954716977E+00    0.8192144480E-01    0.8893806305E-01    0.4794221229E-03
    0.3100000000E+05    0.2449539411E-01    0.6954769950E+00    0.8442047118E-01    0.9276950159E-01    0.4812036006E-03
    0.3300000000E+05    0.2486389164E-01    0.6954815466E+00    0.8673780856E-01    0.9645106177E-01    0.4828795301E-03
    0.3500000000E+05    0.2517971433E-01    0.6954854860E+00    0.8889110874E-01    0.9999511418E-01    0.4844620309E-03
    0.3700000000E+05    0.2544901453E-01    0.6954889172E+00    0.9089580376E-01    0.1034125860E+00    0.4859612318E-03
    0.3900000000E+05    0.2567711662E-01    0.6954919222E+00    0.9276544475E-01    0.1067131712E+00    0.4873856863E-03
    0.4100000000E+05    0.2586864652E-01    0.6954945669E+00    0.9451198056E-01    0.1099055049E+00    0.4887426844E-03
    0.4300000000E+05    0.2602763816E-01    0.6954969045E+00    0.9614598829E-01    0.1129973083E+00    0.4900384904E-03
    0.4500000000E+05    0.2615762135E-01    0.6954989785E+00    0.9767686515E-01    0.1159955101E+00    0.4912785277E-03
    0.4700000000E+05    0.2626169482E-01    0.6955008248E+00    0.9911298891E-01    0.1189063493E+00    0.4924675236E-03
    0.4900000000E+05    0.2634258712E-01    0.6955024732E+00    0.1004618529E+00    0.1217354616E+00    0.4936096236E-03
    0.1000000000E+05    0.1458766612E-01    0.6952924378E+00    0.4342701520E-01    0.4123203361E-01    0.4529045169E-03
    0.3000000000E+05    0.2428920492E-01    0.6954744493E+00    0.8319486980E-01    0.9087335329E-01    0.4803269046E-03
    0.5000000000E+05    0.2637510452E-01    0.6955032312E+00    0.1011056908E+00    0.1231209847E+00    0.4941642472E-03
    0.7000000000E+05    0.2626461584E-01    0.6955123732E+00    0.1107163078E+00    0.1475594279E+00    0.5034924143E-03
    0.9000000000E+05    0.2539834638E-01    0.6955156658E+00    0.1162907611E+00    0.1675454563E+00    0.5105732665E-03
    0.1100000000E+06    0.2427265512E-01    0.6955166137E+00    0.1196066381E+00    0.1846242873E+00    0.5162981248E-03
    0.1300000000E+06    0.2308345871E-01    0.6955164684E+00    0.1215400161E+00    0.1996333127E+00    0.5211125904E-03
    0.1500000000E+06    0.2191322596E-01    0.6955157692E+00    0.1225737022E+00    0.2130787538E+00    0.5252722381E-03
    0.1700000000E+06    0.2079667580E-01    0.6955147780E+00    0.1229958621E+00    0.2252915372E+00    0.5289375714E-03
    0.1900000000E+06    0.1974700442E-01    0.6955136328E+00    0.1229890461E+00    0.2365010463E+00    0.5322161309E-03
    0.2100000000E+06    0.1876733990E-01    0.6955124103E+00    0.1226743370E+00    0.2468736518E+00    0.5351835656E-03
    0.2300000000E+06    0.1785607525E-01    0.6955111551E+00    0.1221350181E+00    0.2565344419E+00    0.5378951518E-03
    0.2500000000E+06    0.1700946320E-01    0.6955098936E+00    0.1214300736E+00    0.2655802481E+00    0.5403925310E-03
    0.2700000000E+06    0.1622291256E-01    0.6955086418E+00    0.1206022877E+00    0.2740878509E+00    0.5427078694E-03
    0.2900000000E+06    0.1549164115E-01    0.6955074093E+00    0.1196833108E+00    0.2821193674E+00    0.5448665401E-03
    0.3100000000E+06    0.1481099949E-01    0.6955062016E+00    0.1186969427E+00    0.2897259138E+00    0.5468889173E-03
    0.3300000000E+06    0.1417662238E-01    0.6955050220E+00    0.1176613247E+00    0.2969501706E+00    0.5487916129E-03
    0.3500000000E+06    0.1358448969E-01    0.6955038720E+00    0.1165904428E+00    0.3038282256E+00    0.5505883531E-03
    0.3700000000E+06    0.1303093951E-01    0.6955027522E+00    0.1154951804E+00    0.3103909290E+00    0.5522906120E-03
    0.3900000000E+06    0.1251265694E-01    0.6955016626E+00    0.1143840714E+00    0.3166649079E+00    0.5539080813E-03
    0.4100000000E+06    0.1202665123E-01    0.6955006026E+00    0.1132638482E+00    0.3226733414E+00    0.5554490223E-03
    0.4300000000E+06    0.1157022824E-01    0.6954995714E+00    0.1121398465E+00    0.3284365602E+00    0.5569205351E-03
    0.4500000000E+06    0.1114096184E-01    0.6954985683E+00    0.1110163084E+00    0.3339725177E+00    0.5583287680E-03
    0.4700000000E+06    0.1073666642E-01    0.6954975920E+00    0.1098966128E+00    0.3392971648E+00    0.5596790802E-03
    0.4900000000E+06    0.1035537120E-01    0.6954966417E+00    0.1087834516E+00    0.3444247515E+00    0.5609761724E-03
    0.1000000000E+06    0.2485177516E-01    0.6955163292E+00    0.1181634411E+00    0.1763854074E+00    0.5135711477E-03
    0.3000000000E+06    0.1514527211E-01    0.6955068021E+00    0.1191973045E+00    0.2859729210E+00    0.5458936507E-03
    0.5000000000E+06    0.1017278573E-01    0.6954961759E+00    0.1082300091E+00    0.3469186965E+00    0.5616060759E-03
    0.7000000000E+06    0.7378151044E-02    0.6954879782E+00    0.9783129848E-01    0.3889752842E+00    0.5722014526E-03
    0.9000000000E+06    0.5629817551E-02    0.6954813875E+00    0.8891610465E-01    0.4204807778E+00    0.5802452869E-03
    0.1100000000E+07    0.4453373299E-02    0.6954758858E+00    0.8136418685E-01    0.4452165454E+00    0.5867491936E-03
    0.1300000000E+07    0.3619370122E-02    0.6954711637E+00    0.7493761399E-01    0.4652598803E+00    0.5922190730E-03
    0.1500000000E+07    0.3004446605E-02    0.6954670259E+00    0.6942209717E-01    0.4818816401E+00    0.5969451399E-03
    0.1700000000E+07    0.2536892414E-02    0.6954633418E+00    0.6464539636E-01    0.4959159083E+00    0.6011096755E-03
    0.1900000000E+07    0.2172457541E-02    0.6954600202E+00    0.6047261225E-01    0.5079382477E+00    0.6048348230E-03
    0.2100000000E+07    0.1882517592E-02    0.6954569950E+00    0.5679827528E-01    0.5183611889E+00    0.6082065097E-03
    0.2300000000E+07    0.1647833089E-02    0.6954542166E+00    0.5353939288E-01    0.5274894013E+00    0.6112875252E-03
    0.2500000000E+07    0.1455055044E-02    0.6954516469E+00    0.5063005154E-01    0.5355534514E+00    0.6141251731E-03
    0.2700000000E+07    0.1294669673E-02    0.6954492562E+00    0.4801737438E-01    0.5427314135E+00    0.6167559948E-03
    0.2900000000E+07    0.1159738907E-02    0.6954470206E+00    0.4565851893E-01    0.5491632191E+00    0.6192088153E-03
    0.3100000000E+07    0.1045101199E-02    0.6954449208E+00    0.4351844155E-01    0.5549604799E+00    0.6215067809E-03
    0.3300000000E+07    0.9468489765E-03    0.6954429407E+00    0.4156822078E-01    0.5602133871E+00    0.6236687645E-03
    0.3500000000E+07    0.8619779519E-03    0.6954410673E+00    0.3978378849E-01    0.5649956661E+00    0.6257103605E-03
    0.3700000000E+07    0.7881463035E-03    0.6954392893E+00    0.3814496012E-01    0.5693682031E+00    0.6276446052E-03
    0.3900000000E+07    0.7235059148E-03    0.6954375972E+00    0.3663468631E-01    0.5733817454E+00    0.6294825097E-03
    0.4100000000E+07    0.6665819410E-03    0.6954359830E+00    0.3523846994E-01    0.5770789426E+00    0.6312334599E-03
    0.4300000000E+07    0.6161854499E-03    0.6954344395E+00    0.3394390766E-01    0.5804959097E+00    0.6329055233E-03
    0.4500000000E+07    0.5713491112E-03    0.6954329607E+00    0.3274032644E-01    0.5836634399E+00    0.6345056849E-03
    0.4700000000E+07    0.5312792141E-03    0.6954315413E+00    0.3161849291E-01    0.5866079553E+00    0.6360400341E-03
    0.4900000000E+07    0.4953194257E-03    0.6954301765E+00    0.3057037917E-01    0.5893522590E+00    0.6375139118E-03
    0.1000000000E+07    0.4987927150E-02    0.6954785233E+00    0.8498458304E-01    0.4335396223E+00    0.5836510793E-03
    0.3000000000E+07    0.1100152269E-02    0.6954459548E+00    0.4456306750E-01    0.5521350944E+00    0.6203758885E-03
    0.5000000000E+07    0.4787063324E-03    0.6954295133E+00    0.3007174061E-01    0.5906556186E+00    0.6382296678E-03
    0.7000000000E+07    0.2679166970E-03    0.6954183202E+00    0.2265974064E-01    0.6098685491E+00    0.6502691864E-03
    0.9000000000E+07    0.1714137364E-03    0.6954097844E+00    0.1816391761E-01    0.6213865585E+00    0.6594094280E-03
    0.1100000000E+08    0.1192106892E-03    0.6954028646E+00    0.1514842921E-01    0.6290598931E+00    0.6667998543E-03
    0.1300000000E+08    0.8777414329E-04    0.6953970348E+00    0.1298656216E-01    0.6345369476E+00    0.6730153112E-03
    0.1500000000E+08    0.6736791894E-04    0.6953919914E+00    0.1136137353E-01    0.6386417316E+00    0.6783855682E-03
    0.1700000000E+08    0.5336523957E-04    0.6953875432E+00    0.1009542592E-01    0.6418319861E+00    0.6831177517E-03
    0.1900000000E+08    0.4333637769E-04    0.6953835614E+00    0.9081673630E-02    0.6443823243E+00    0.6873506537E-03
    0.2100000000E+08    0.3590499538E-04    0.6953799553E+00    0.8251721783E-02    0.6464674707E+00    0.6911819139E-03
    0.2300000000E+08    0.3024364997E-04    0.6953766585E+00    0.7559834593E-02    0.6482038829E+00    0.6946828808E-03
    0.2500000000E+08    0.2583039588E-04    0.6953736209E+00    0.6974274264E-02    0.6496721644E+00    0.6979073063E-03
    0.2700000000E+08    0.2232267055E-04    0.6953708037E+00    0.6472329143E-02    0.6509298723E+00    0.7008967126E-03
