  Pressure (Pa) 23mC5-500 (mol/kg) 24mC5-500 (mol/kg) 2mC6-500 (mol/kg) 3mC6-500 (mol/kg) C7-500 (mol/kg)
    0.1000000000E+01    0.3207569797E-05    0.2142810471E+00    0.2377924391E-05    0.1675728360E-05    0.4178955923E-02
    0.3000000000E+01    0.5457547571E-05    0.3978495218E+00    0.3865658296E-05    0.4254477275E-05    0.4203194083E-02
    0.5000000000E+01    0.6301603099E-05    0.4801091167E+00    0.4458295579E-05    0.6616115879E-05    0.4212718127E-02
    0.7000000000E+01    0.6771326382E-05    0.5267889925E+00    0.4889443190E-05    0.8872014961E-05    0.4218039959E-02
    0.9000000000E+01    0.7112908294E-05    0.5568685610E+00    0.5295745645E-05    0.1105968824E-04    0.4221461835E-02
    0.1100000000E+02    0.7406285174E-05    0.5778661187E+00    0.5708680249E-05    0.1319790193E-04    0.4223847820E-02
    0.1300000000E+02    0.7682049220E-05    0.5933553936E+00    0.6134762513E-05    0.1529782696E-04    0.4225601899E-02
    0.1500000000E+02    0.7953035423E-05    0.6052525335E+00    0.6573865382E-05    0.1736682637E-04    0.4226939870E-02
    0.1700000000E+02    0.8224852463E-05    0.6146772803E+00    0.7024201154E-05    0.1941009335E-04    0.4227988098E-02
    0.1900000000E+02    0.8499919527E-05    0.6223277861E+00    0.7483782575E-05    0.2143147265E-04    0.4228825768E-02
    0.2100000000E+02    0.8779173808E-05    0.6286619579E+00    0.7950836533E-05    0.2343391661E-04    0.4229505169E-02
    0.2300000000E+02    0.9062846077E-05    0.6339926120E+00    0.8423888130E-05    0.2541975789E-04    0.4230062303E-02
    0.2500000000E+02    0.9350831495E-05    0.6385407221E+00    0.8901742930E-05    0.2739088231E-04    0.4230522815E-02
    0.2700000000E+02    0.9642873194E-05    0.6424668206E+00    0.9383443038E-05    0.2934884341E-04    0.4230905505E-02
    0.2900000000E+02    0.9938654946E-05    0.6458903410E+00    0.9868221901E-05    0.3129494134E-04    0.4231224485E-02
    0.3100000000E+02    0.1023784802E-04    0.6489019795E+00    0.1035546518E-04    0.3323027881E-04    0.4231490572E-02
    0.3300000000E+02    0.1054013437E-04    0.6515718474E+00    0.1084467897E-04    0.3515580193E-04    0.4231712205E-02
    0.3500000000E+02    0.1084521734E-04    0.6539549979E+00    0.1133546463E-04    0.3707233058E-04    0.4231896074E-02
    0.3700000000E+02    0.1115282582E-04    0.6560952627E+00    0.1182749914E-04    0.3898058152E-04    0.4232047554E-02
    0.3900000000E+02    0.1146271494E-04    0.6580279721E+00    0.1232051968E-04    0.4088118624E-04    0.4232171018E-02
    0.4100000000E+02    0.1177466506E-04    0.6597819215E+00    0.1281431169E-04    0.4277470495E-04    0.4232270064E-02
    0.4300000000E+02    0.1208847992E-04    0.6613808148E+00    0.1330869942E-04    0.4466163774E-04    0.4232347680E-02
    0.4500000000E+02    0.1240398450E-04    0.6628443425E+00    0.1380353855E-04    0.4654243349E-04    0.4232406369E-02
    0.4700000000E+02    0.1272102281E-04    0.6641889966E+00    0.1429871030E-04    0.4841749722E-04    0.4232448250E-02
    0.4900000000E+02    0.1303945584E-04    0.6654286946E+00    0.1479411680E-04    0.5028719602E-04    0.4232475123E-02
    0.1000000000E+02    0.7263090169E-05    0.5682245240E+00    0.5500715729E-05    0.1213416173E-04    0.4222752818E-02
    0.3000000000E+02    0.1008784537E-04    0.6474428559E+00    0.1011156886E-04    0.3226389272E-04    0.4231363565E-02
    0.5000000000E+02    0.1319915609E-04    0.6660129516E+00    0.1504188227E-04    0.5122013916E-04    0.4232483424E-02
    0.7000000000E+02    0.1644260631E-04    0.6743015037E+00    0.1999621358E-04    0.6966492556E-04    0.4232141947E-02
    0.9000000000E+02    0.1974328914E-04    0.6789958623E+00    0.2493608853E-04    0.8782542650E-04    0.4231230975E-02
    0.1100000000E+03    0.2307439734E-04    0.6820172518E+00    0.2985995658E-04    0.1058164682E-03    0.4230029164E-02
    0.1300000000E+03    0.2642534436E-04    0.6841246988E+00    0.3477284826E-04    0.1237070404E-03    0.4228654405E-02
    0.1500000000E+03    0.2979185827E-04    0.6856783907E+00    0.3968055892E-04    0.1415430812E-03    0.4227165915E-02
    0.1700000000E+03    0.3317240512E-04    0.6868712258E+00    0.4458838600E-04    0.1593573812E-03    0.4225596942E-02
    0.1900000000E+03    0.3656672391E-04    0.6878158306E+00    0.4950092046E-04    0.1771745664E-03    0.4223967672E-02
    0.2100000000E+03    0.3997516840E-04    0.6885823803E+00    0.5442209820E-04    0.1950138700E-03    0.4222291085E-02
    0.2300000000E+03    0.4339839096E-04    0.6892168769E+00    0.5935530453E-04    0.2128907922E-03    0.4220575899E-02
    0.2500000000E+03    0.4683718352E-04    0.6897507327E+00    0.6430347588E-04    0.2308181524E-03    0.4218828174E-02
    0.2700000000E+03    0.5029239527E-04    0.6902061293E+00    0.6926918562E-04    0.2488067871E-03    0.4217052232E-02
    0.2900000000E+03    0.5376488942E-04    0.6905991761E+00    0.7425471321E-04    0.2668660306E-03    0.4215251226E-02
    0.3100000000E+03    0.5725552089E-04    0.6909418548E+00    0.7926209899E-04    0.2850040557E-03    0.4213427489E-02
    0.3300000000E+03    0.6076512518E-04    0.6912432624E+00    0.8429318770E-04    0.3032281222E-03    0.4211582769E-02
    0.3500000000E+03    0.6429451348E-04    0.6915104294E+00    0.8934966295E-04    0.3215447618E-03    0.4209718389E-02
    0.3700000000E+03    0.6784447130E-04    0.6917488755E+00    0.9443307489E-04    0.3399599189E-03    0.4207835353E-02
    0.3900000000E+03    0.7141575886E-04    0.6919629944E+00    0.9954486244E-04    0.3584790590E-03    0.4205934421E-02
    0.4100000000E+03    0.7500911257E-04    0.6921563274E+00    0.1046863714E-03    0.3771072541E-03    0.4204016171E-02
    0.4300000000E+03    0.7862524693E-04    0.6923317601E+00    0.1098588693E-03    0.3958492504E-03    0.4202081033E-02
    0.4500000000E+03    0.8226485668E-04    0.6924916678E+00    0.1150635575E-03    0.4147095228E-03    0.4200129325E-02
    0.4700000000E+03    0.8592861893E-04    0.6926380232E+00    0.1203015817E-03    0.4336923195E-03    0.4198161271E-02
    0.4900000000E+03    0.8961719524E-04    0.6927724784E+00    0.1255740399E-03    0.4528016984E-03    0.4196177024E-02
    0.1000000000E+03    0.2140591707E-04    0.6806543201E+00    0.2739975659E-04    0.9683710634E-04    0.4230657048E-02
    0.3000000000E+03    0.5550788524E-04    0.6907761865E+00    0.7675555439E-04    0.2759247227E-03    0.4214342078E-02
    0.5000000000E+03    0.9147099166E-04    0.6928356879E+00    0.1282235138E-03    0.4624050799E-03    0.4195178857E-02
    0.7000000000E+03    0.1300029614E-03    0.6937216038E+00    0.1832641732E-03    0.6620112423E-03    0.4174364441E-02
    0.9000000000E+03    0.1717185342E-03    0.6942144773E+00    0.2428339378E-03    0.8782470881E-03    0.4151833103E-02
    0.1100000000E+04    0.2172289674E-03    0.6945283053E+00    0.3078337373E-03    0.1114397710E-02    0.4127359074E-02
    0.1300000000E+04    0.2672052440E-03    0.6947456077E+00    0.3792371599E-03    0.1374017688E-02    0.4100646068E-02
    0.1500000000E+04    0.3224205575E-03    0.6949049529E+00    0.4581603643E-03    0.1661188628E-02    0.4071335101E-02
    0.1700000000E+04    0.3837899915E-03    0.6950267799E+00    0.5459221058E-03    0.1980739110E-02    0.4038995160E-02
    0.1900000000E+04    0.4524153540E-03    0.6951229297E+00    0.6441095571E-03    0.2338486240E-02    0.4003106383E-02
    0.2100000000E+04    0.5296405221E-03    0.6952007362E+00    0.7546587699E-03    0.2741531559E-02    0.3963036890E-02
    0.2300000000E+04    0.6171225847E-03    0.6952649837E+00    0.8799578115E-03    0.3198640961E-02    0.3918012182E-02
    0.2500000000E+04    0.7169251423E-03    0.6953189265E+00    0.1022981962E-02    0.3720743368E-02    0.3867074981E-02
    0.2700000000E+04    0.8316419510E-03    0.6953648550E+00    0.1187472969E-02    0.4321592746E-02    0.3809032542E-02
    0.2900000000E+04    0.9645614720E-03    0.6954044279E+00    0.1378177847E-02    0.5018651212E-02    0.3742387690E-02
    0.3100000000E+04    0.1119885392E-02    0.6954388759E+00    0.1601166450E-02    0.5834265364E-02    0.3665249302E-02
    0.3300000000E+04    0.1303015511E-02    0.6954691316E+00    0.1864249230E-02    0.6797216964E-02    0.3575218517E-02
    0.3500000000E+04    0.1520920063E-02    0.6954959140E+00    0.2177512220E-02    0.7944714712E-02    0.3469250280E-02
    0.3700000000E+04    0.1782573903E-02    0.6955197871E+00    0.2553962996E-02    0.9324811001E-02    0.3343500516E-02
    0.3900000000E+04    0.2099417258E-02    0.6955411990E+00    0.3010210681E-02    0.1099897182E-01    0.3193196301E-02
    0.4100000000E+04    0.2485653554E-02    0.6955605101E+00    0.3566925316E-02    0.1304387974E-01    0.3012628238E-02
    0.4300000000E+04    0.2957936082E-02    0.6955780141E+00    0.4248432060E-02    0.1555011982E-01    0.2795489243E-02
    0.4500000000E+04    0.3533499540E-02    0.6955939523E+00    0.5080080591E-02    0.1861275832E-01    0.2535992219E-02
    0.4700000000E+04    0.4225184408E-02    0.6956085248E+00    0.6081138347E-02    0.2230549061E-01    0.2231405741E-02
    0.4900000000E+04    0.5031947426E-02    0.6956218993E+00    0.7251128103E-02    0.2663052151E-01    0.1886409131E-02
    0.1000000000E+04    0.1939593949E-03    0.6943870704E+00    0.2745968617E-03    0.9936206278E-03    0.4139856013E-02
    0.3000000000E+04    0.1039117287E-02    0.6954222284E+00    0.1485194997E-02    0.5410011872E-02    0.3705266706E-02
    0.5000000000E+04    0.5471277733E-02    0.6956281822E+00    0.7889451829E-02    0.2899475311E-01    0.1703508122E-02
    0.7000000000E+04    0.1104963575E-01    0.6957158731E+00    0.1622837428E-01    0.6078656938E-01    0.1149040566E-03
    0.9000000000E+04    0.1311319273E-01    0.6957642559E+00    0.1964239016E-01    0.7508077843E-01    0.1001600567E-03
    0.1100000000E+05    0.1479364498E-01    0.6957948268E+00    0.2258954451E-01    0.8805420978E-01    0.1012149844E-03
    0.1300000000E+05    0.1619206879E-01    0.6958158378E+00    0.2519277174E-01    0.1000811132E+00    0.1021601283E-03
    0.1500000000E+05    0.1735641823E-01    0.6958311319E+00    0.2750308587E-01    0.1112853302E+00    0.1029768795E-03
    0.1700000000E+05    0.1832505531E-01    0.6958427393E+00    0.2956181490E-01    0.1217681255E+00    0.1036964748E-03
    0.1900000000E+05    0.1912908256E-01    0.6958518329E+00    0.3140296828E-01    0.1316138884E+00    0.1043400703E-03
    0.2100000000E+05    0.1979392588E-01    0.6958591372E+00    0.3305477937E-01    0.1408935547E+00    0.1049225437E-03
    0.2300000000E+05    0.2034052699E-01    0.6958651236E+00    0.3454087454E-01    0.1496672228E+00    0.1054547629E-03
    0.2500000000E+05    0.2078625295E-01    0.6958701120E+00    0.3588117093E-01    0.1579861796E+00    0.1059449129E-03
    0.2700000000E+05    0.2114559712E-01    0.6958743269E+00    0.3709257306E-01    0.1658944870E+00    0.1063993151E-03
    0.2900000000E+05    0.2143072472E-01    0.6958779307E+00    0.3818951890E-01    0.1734302357E+00    0.1068229549E-03
    0.3100000000E+05    0.2165190127E-01    0.6958810434E+00    0.3918441187E-01    0.1806265455E+00    0.1072198350E-03
    0.3300000000E+05    0.2181783184E-01    0.6958837558E+00    0.4008796544E-01    0.1875123694E+00    0.1075932186E-03
    0.3500000000E+05    0.2193593177E-01    0.6958861377E+00    0.4090948027E-01    0.1941131459E+00    0.1079458016E-03
    0.3700000000E+05    0.2201254427E-01    0.6958882437E+00    0.4165706871E-01    0.2004513315E+00    0.1082798377E-03
    0.3900000000E+05    0.2205311657E-01    0.6958901173E+00    0.4233783798E-01    0.2065468381E+00    0.1085972301E-03
    0.4100000000E+05    0.2206234331E-01    0.6958917932E+00    0.4295804058E-01    0.2124173954E+00    0.1088996009E-03
    0.4300000000E+05    0.2204428401E-01    0.6958932995E+00    0.4352319849E-01    0.2180788517E+00    0.1091883445E-03
    0.4500000000E+05    0.2200245987E-01    0.6958946596E+00    0.4403820646E-01    0.2235454267E+00    0.1094646679E-03
    0.4700000000E+05    0.2193993392E-01    0.6958958925E+00    0.4450741820E-01    0.2288299231E+00    0.1097296233E-03
    0.4900000000E+05    0.2185937771E-01    0.6958970142E+00    0.4493471886E-01    0.2339439066E+00    0.1099841336E-03
    0.1000000000E+05    0.1399216073E-01    0.6957810970E+00    0.2116266031E-01    0.8169483307E-01    0.1006839041E-03
    0.3000000000E+05    0.2154872970E-01    0.6958795422E+00    0.3869901633E-01    0.1770689216E+00    0.1070245209E-03
    0.5000000000E+05    0.2181307998E-01    0.6958975377E+00    0.4513375373E-01    0.2364402700E+00    0.1101077300E-03
    0.7000000000E+05    0.2037345864E-01    0.6959045395E+00    0.4759111072E-01    0.2795083485E+00    0.1121866373E-03
    0.9000000000E+05    0.1857238740E-01    0.6959080316E+00    0.4825730013E-01    0.3131836090E+00    0.1137648546E-03
    0.1100000000E+06    0.1680453276E-01    0.6959099982E+00    0.4801838390E-01    0.3406829822E+00    0.1150409157E-03
    0.1300000000E+06    0.1518786953E-01    0.6959111811E+00    0.4729583015E-01    0.3637803924E+00    0.1161140946E-03
    0.1500000000E+06    0.1374804434E-01    0.6959119165E+00    0.4631138301E-01    0.3835689741E+00    0.1170413368E-03
    0.1700000000E+06    0.1247856579E-01    0.6959123770E+00    0.4518968367E-01    0.4007762114E+00    0.1178584079E-03
    0.1900000000E+06    0.1136255159E-01    0.6959126597E+00    0.4400390152E-01    0.4159138634E+00    0.1185892731E-03
    0.2100000000E+06    0.1038097153E-01    0.6959128227E+00    0.4279815514E-01    0.4293571454E+00    0.1192507914E-03
    0.2300000000E+06    0.9515739761E-02    0.6959129026E+00    0.4159938675E-01    0.4413900526E+00    0.1198552821E-03
    0.2500000000E+06    0.8750746319E-02    0.6959129236E+00    0.4042402490E-01    0.4522330038E+00    0.1204120258E-03
    0.2700000000E+06    0.8072053797E-02    0.6959129019E+00    0.3928189580E-01    0.4620605843E+00    0.1209281919E-03
    0.2900000000E+06    0.7467767898E-02    0.6959128489E+00    0.3817860343E-01    0.4710134145E+00    0.1214094356E-03
    0.3100000000E+06    0.6927797938E-02    0.6959127729E+00    0.3711702007E-01    0.4792063666E+00    0.1218602980E-03
    0.3300000000E+06    0.6443598387E-02    0.6959126797E+00    0.3609824141E-01    0.4867344173E+00    0.1222844819E-03
    0.3500000000E+06    0.6007927905E-02    0.6959125736E+00    0.3512220984E-01    0.4936769179E+00    0.1226850468E-03
    0.3700000000E+06    0.5614638192E-02    0.6959124580E+00    0.3418812698E-01    0.5001007751E+00    0.1230645502E-03
    0.3900000000E+06    0.5258494537E-02    0.6959123354E+00    0.3329472964E-01    0.5060628626E+00    0.1234251524E-03
    0.4100000000E+06    0.4935025691E-02    0.6959122076E+00    0.3244047566E-01    0.5116118777E+00    0.1237686948E-03
    0.4300000000E+06    0.4640399291E-02    0.6959120761E+00    0.3162366943E-01    0.5167897905E+00    0.1240967603E-03
    0.4500000000E+06    0.4371318838E-02    0.6959119421E+00    0.3084254669E-01    0.5216329886E+00    0.1244107191E-03
    0.4700000000E+06    0.4124938595E-02    0.6959118065E+00    0.3009533143E-01    0.5261731908E+00    0.1247117660E-03
    0.4900000000E+06    0.3898793210E-02    0.6959116699E+00    0.2938027351E-01    0.5304381845E+00    0.1250009489E-03
    0.1000000000E+06    0.1767358655E-01    0.6959091449E+00    0.4821808694E-01    0.3275728702E+00    0.1144330698E-03
    0.3000000000E+06    0.7190310781E-02    0.6959128134E+00    0.3764249657E-01    0.4751985293E+00    0.1216384160E-03
    0.5000000000E+06    0.3792627621E-02    0.6959116014E+00    0.2903426996E-01    0.5324752363E+00    0.1251413843E-03
    0.7000000000E+06    0.2336536350E-02    0.6959102685E+00    0.2342997800E-01    0.5633979345E+00    0.1275036337E-03
    0.9000000000E+06    0.1583728290E-02    0.6959090730E+00    0.1958333458E-01    0.5827877771E+00    0.1292970563E-03
    0.1100000000E+07    0.1144682145E-02    0.6959080201E+00    0.1679924679E-01    0.5960856771E+00    0.1307471674E-03
    0.1300000000E+07    0.8663683292E-03    0.6959070870E+00    0.1469717779E-01    0.6057722382E+00    0.1319667482E-03
    0.1500000000E+07    0.6788426044E-03    0.6959062518E+00    0.1305640405E-01    0.6131418224E+00    0.1330204982E-03
    0.1700000000E+07    0.5464620574E-03    0.6959054969E+00    0.1174129085E-01    0.6189362486E+00    0.1339490550E-03
    0.1900000000E+07    0.4495122232E-03    0.6959048085E+00    0.1066426661E-01    0.6236112630E+00    0.1347796494E-03
    0.2100000000E+07    0.3763681330E-03    0.6959041759E+00    0.9766404397E-02    0.6274623195E+00    0.1355314385E-03
    0.2300000000E+07    0.3198133735E-03    0.6959035909E+00    0.9006653744E-02    0.6306893500E+00    0.1362184209E-03
    0.2500000000E+07    0.2751750904E-03    0.6959030467E+00    0.8355567032E-02    0.6334324748E+00    0.1368511429E-03
    0.2700000000E+07    0.2393187599E-03    0.6959025380E+00    0.7791484485E-02    0.6357928083E+00    0.1374377512E-03
    0.2900000000E+07    0.2100778151E-03    0.6959020604E+00    0.7298126807E-02    0.6378451446E+00    0.1379846726E-03
    0.3100000000E+07    0.1859156663E-03    0.6959016101E+00    0.6863026431E-02    0.6396459961E+00    0.1384970674E-03
    0.3300000000E+07    0.1657178565E-03    0.6959011843E+00    0.6476476135E-02    0.6412388553E+00    0.1389791436E-03
    0.3500000000E+07    0.1486600678E-03    0.6959007804E+00    0.6130806751E-02    0.6426577392E+00    0.1394343778E-03
    0.3700000000E+07    0.1341219087E-03    0.6959003961E+00    0.5819879983E-02    0.6439296353E+00    0.1398656765E-03
    0.3900000000E+07    0.1216291882E-03    0.6959000297E+00    0.5538725258E-02    0.6450762275E+00    0.1402754949E-03
    0.4100000000E+07    0.1108144029E-03    0.6958996794E+00    0.5283275106E-02    0.6461151376E+00    0.1406659255E-03
    0.4300000000E+07    0.1013891509E-03    0.6958993440E+00    0.5050169280E-02    0.6470608332E+00    0.1410387671E-03
    0.4500000000E+07    0.9312452772E-04    0.6958990221E+00    0.4836607682E-02    0.6479253034E+00    0.1413955769E-03
    0.4700000000E+07    0.8583696849E-04    0.6958987127E+00    0.4640238467E-02    0.6487185670E+00    0.1417377128E-03
    0.4900000000E+07    0.7937787256E-04    0.6958984148E+00    0.4459071919E-02    0.6494490615E+00    0.1420663654E-03
    0.1000000000E+07    0.1337453466E-02    0.6959085301E+00    0.1808727975E-01    0.5900035087E+00    0.1300564091E-03
    0.3000000000E+07    0.1974396126E-03    0.6959018320E+00    0.7073956118E-02    0.6387740306E+00    0.1382449035E-03
    0.5000000000E+07    0.7642018311E-04    0.6958982700E+00    0.4373650074E-02    0.6497930500E+00    0.1422259686E-03
    0.7000000000E+07    0.4043956457E-04    0.6958958140E+00    0.3159480970E-02    0.6546524826E+00    0.1449106411E-03
    0.9000000000E+07    0.2503754824E-04    0.6958939297E+00    0.2470488796E-02    0.6573864810E+00    0.1469488517E-03
    0.1100000000E+08    0.1704124682E-04    0.6958923966E+00    0.2026916133E-02    0.6591384026E+00    0.1485968927E-03
    0.1300000000E+08    0.1235792130E-04    0.6958911019E+00    0.1717632815E-02    0.6603564554E+00    0.1499829381E-03
    0.1500000000E+08    0.9378314277E-05    0.6958899798E+00    0.1489762710E-02    0.6612522110E+00    0.1511805179E-03
    0.1700000000E+08    0.7364557178E-05    0.6958889887E+00    0.1314949532E-02    0.6619385336E+00    0.1522358164E-03
    0.1900000000E+08    0.5939348303E-05    0.6958881006E+00    0.1176626024E-02    0.6624811194E+00    0.1531797812E-03
    0.2100000000E+08    0.4893331028E-05    0.6958872955E+00    0.1064466831E-02    0.6629208001E+00    0.1540341841E-03
    0.2300000000E+08    0.4102701922E-05    0.6958865589E+00    0.9717032421E-03    0.6632842868E+00    0.1548149345E-03
    0.2500000000E+08    0.3490413702E-05    0.6958858797E+00    0.8937139422E-03    0.6635897863E+00    0.1555340183E-03
    0.2700000000E+08    0.3006464667E-05    0.6958852495E+00    0.8272364271E-03    0.6638501356E+00    0.1562006941E-03
