  Pressure (Pa) 23mC5-500 (mol/kg) 24mC5-500 (mol/kg) 2mC6-500 (mol/kg) 3mC6-500 (mol/kg) C7-500 (mol/kg)
    0.1000000000E+01    0.4324540006E-05    0.6965184264E-01    0.3281900641E-05    0.5602879624E-05    0.4195692162E-02
    0.3000000000E+01    0.1035101454E-04    0.1740912312E+00    0.7607941218E-05    0.1433345393E-04    0.4253327389E-02
    0.5000000000E+01    0.1431171410E-04    0.2486628776E+00    0.1028292238E-04    0.2236845997E-04    0.4292368663E-02
    0.7000000000E+01    0.1706152232E-04    0.3045765462E+00    0.1204760072E-04    0.3007012456E-04    0.4321522802E-02
    0.9000000000E+01    0.1905264324E-04    0.3480561480E+00    0.1327751344E-04    0.3756065981E-04    0.4344225215E-02
    0.1100000000E+02    0.2054501677E-04    0.3828343563E+00    0.1417960425E-04    0.4490121371E-04    0.4362429994E-02
    0.1300000000E+02    0.2169723805E-04    0.4112856833E+00    0.1487463188E-04    0.5212817646E-04    0.4377361285E-02
    0.1500000000E+02    0.2261065526E-04    0.4349926990E+00    0.1543619925E-04    0.5926552365E-04    0.4389830856E-02
    0.1700000000E+02    0.2335248953E-04    0.4550507814E+00    0.1591072835E-04    0.6633015751E-04    0.4400399957E-02
    0.1900000000E+02    0.2396871157E-04    0.4722421969E+00    0.1632830683E-04    0.7333458611E-04    0.4409469692E-02
    0.2100000000E+02    0.2449157372E-04    0.4871405171E+00    0.1670886497E-04    0.8028841068E-04    0.4417334652E-02
    0.2300000000E+02    0.2494419895E-04    0.5001758630E+00    0.1706583455E-04    0.8719921524E-04    0.4424216243E-02
    0.2500000000E+02    0.2534347504E-04    0.5116771128E+00    0.1740838922E-04    0.9407313007E-04    0.4430284186E-02
    0.2700000000E+02    0.2570193458E-04    0.5219000347E+00    0.1774285555E-04    0.1009152053E-03    0.4435670840E-02
    0.2900000000E+02    0.2602900807E-04    0.5310465332E+00    0.1807362358E-04    0.1077296678E-03    0.4440480996E-02
    0.3100000000E+02    0.2633187817E-04    0.5392781196E+00    0.1840374704E-04    0.1145201038E-03    0.4444798729E-02
    0.3300000000E+02    0.2661607369E-04    0.5467255318E+00    0.1873534627E-04    0.1212895916E-03    0.4448692306E-02
    0.3500000000E+02    0.2688589005E-04    0.5534957308E+00    0.1906988315E-04    0.1280408003E-03    0.4452217750E-02
    0.3700000000E+02    0.2714469167E-04    0.5596770707E+00    0.1940835132E-04    0.1347760656E-03    0.4455421486E-02
    0.3900000000E+02    0.2739513250E-04    0.5653431763E+00    0.1975140948E-04    0.1414974470E-03    0.4458342319E-02
    0.4100000000E+02    0.2763931898E-04    0.5705558896E+00    0.2009947576E-04    0.1482067739E-03    0.4461012949E-02
    0.4300000000E+02    0.2787893191E-04    0.5753675364E+00    0.2045279523E-04    0.1549056815E-03    0.4463461130E-02
    0.4500000000E+02    0.2811531846E-04    0.5798226885E+00    0.2081148858E-04    0.1615956402E-03    0.4465710579E-02
    0.4700000000E+02    0.2834956248E-04    0.5839595495E+00    0.2117558734E-04    0.1682779789E-03    0.4467781690E-02
    0.4900000000E+02    0.2858253850E-04    0.5878110520E+00    0.2154505970E-04    0.1749539042E-03    0.4469692096E-02
    0.1000000000E+02    0.1984954417E-04    0.3663610702E+00    0.1376055591E-04    0.4124702657E-04    0.4353800997E-02
    0.3000000000E+02    0.2618308985E-04    0.5352678905E+00    0.1823861520E-04    0.1111276861E-03    0.4442696826E-02
    0.5000000000E+02    0.2869877762E-04    0.5896388642E+00    0.2173178848E-04    0.1782898098E-03    0.4470591905E-02
    0.7000000000E+02    0.3107049050E-04    0.6164761155E+00    0.2571913757E-04    0.2448951939E-03    0.4482994623E-02
    0.9000000000E+02    0.3363566823E-04    0.6324685480E+00    0.3009410335E-04    0.3117030040E-03    0.4488951133E-02
    0.1100000000E+03    0.3641718848E-04    0.6430846136E+00    0.3475316522E-04    0.3791152888E-03    0.4491522576E-02
    0.1300000000E+03    0.3939562786E-04    0.6506452235E+00    0.3963587092E-04    0.4473911087E-03    0.4492046328E-02
    0.1500000000E+03    0.4254996498E-04    0.6563034624E+00    0.4470829275E-04    0.5167194722E-03    0.4491204181E-02
    0.1700000000E+03    0.4586385659E-04    0.6606970415E+00    0.4995156976E-04    0.5872509137E-03    0.4489381691E-02
    0.1900000000E+03    0.4932567916E-04    0.6642072929E+00    0.5535561522E-04    0.6591133554E-03    0.4486813645E-02
    0.2100000000E+03    0.5292756967E-04    0.6670762425E+00    0.6091567935E-04    0.7324209504E-03    0.4483651045E-02
    0.2300000000E+03    0.5666451286E-04    0.6694648994E+00    0.6663041481E-04    0.8072794194E-03    0.4479995072E-02
    0.2500000000E+03    0.6053364164E-04    0.6714845380E+00    0.7250074963E-04    0.8837894857E-03    0.4475915614E-02
    0.2700000000E+03    0.6453373108E-04    0.6732145244E+00    0.7852920947E-04    0.9620492127E-03    0.4471462013E-02
    0.2900000000E+03    0.6866483850E-04    0.6747129885E+00    0.8471949949E-04    0.1042155676E-02    0.4466669586E-02
    0.3100000000E+03    0.7292804818E-04    0.6760234817E+00    0.9107624139E-04    0.1124206215E-02    0.4461563763E-02
    0.3300000000E+03    0.7732528984E-04    0.6771792769E+00    0.9760480658E-04    0.1208299418E-02    0.4456162787E-02
    0.3500000000E+03    0.8185920957E-04    0.6782062321E+00    0.1043112105E-03    0.1294535924E-02    0.4450479540E-02
    0.3700000000E+03    0.8653307829E-04    0.6791247470E+00    0.1112020469E-03    0.1383019105E-02    0.4444522797E-02
    0.3900000000E+03    0.9135072752E-04    0.6799511306E+00    0.1182844502E-03    0.1473855679E-02    0.4438298110E-02
    0.4100000000E+03    0.9631650530E-04    0.6806985780E+00    0.1255660757E-03    0.1567156264E-02    0.4431808445E-02
    0.4300000000E+03    0.1014352473E-03    0.6813778795E+00    0.1330550940E-03    0.1663035901E-02    0.4425054642E-02
    0.4500000000E+03    0.1067122597E-03    0.6819979446E+00    0.1407601964E-03    0.1761614571E-02    0.4418035748E-02
    0.4700000000E+03    0.1121533112E-03    0.6825661946E+00    0.1486906069E-03    0.1863017695E-02    0.4410749268E-02
    0.4900000000E+03    0.1177646326E-03    0.6830888609E+00    0.1568561015E-03    0.1967376652E-02    0.4403191349E-02
    0.1000000000E+03    0.3500039077E-04    0.6382636422E+00    0.3239270399E-04    0.3453152072E-03    0.4490554175E-02
    0.3000000000E+03    0.7077982804E-04    0.6753894500E+00    0.8787674434E-04    0.1082931814E-02    0.4464154565E-02
    0.5000000000E+03    0.1206362193E-03    0.6833347797E+00    0.1610302174E-03    0.2020707381E-02    0.4399309059E-02
    0.7000000000E+03    0.1889559366E-03    0.6867953345E+00    0.2597938830E-03    0.3281101692E-02    0.4305540079E-02
    0.9000000000E+03    0.2860735055E-03    0.6887318005E+00    0.3994709563E-03    0.5063239951E-02    0.4171608342E-02
    0.1100000000E+04    0.4316581306E-03    0.6899689604E+00    0.6085441872E-03    0.7733603142E-02    0.3973283198E-02
    0.1300000000E+04    0.6644724419E-03    0.6908274678E+00    0.9430096284E-03    0.1201297655E-01    0.3663449856E-02
    0.1500000000E+04    0.1060752743E-02    0.6914579524E+00    0.1513305040E-02    0.1932810559E-01    0.3154613619E-02
    0.1700000000E+04    0.1733648869E-02    0.6919405165E+00    0.2485041789E-02    0.3184161283E-01    0.2338399110E-02
    0.1900000000E+04    0.2638142745E-02    0.6923216850E+00    0.3800259381E-02    0.4890144162E-01    0.1350189174E-02
    0.2100000000E+04    0.3362728266E-02    0.6926303285E+00    0.4870101431E-02    0.6299600470E-01    0.7241448209E-03
    0.2300000000E+04    0.3780787780E-02    0.6928853111E+00    0.5506294626E-02    0.7162910160E-01    0.5198865864E-03
    0.2500000000E+04    0.4062982830E-02    0.6930994791E+00    0.5950741233E-02    0.7785667099E-01    0.4728342805E-03
    0.2700000000E+04    0.4300598976E-02    0.6932818832E+00    0.6334253405E-02    0.8335074542E-01    0.4641305414E-03
    0.2900000000E+04    0.4519322071E-02    0.6934390838E+00    0.6693698272E-02    0.8858372500E-01    0.4637202160E-03
    0.3100000000E+04    0.4725633211E-02    0.6935759521E+00    0.7038250177E-02    0.9367179675E-01    0.4649985609E-03
    0.3300000000E+04    0.4921398892E-02    0.6936961806E+00    0.7370401150E-02    0.9864478050E-01    0.4665588911E-03
    0.3500000000E+04    0.5107408279E-02    0.6938026195E+00    0.7691085162E-02    0.1035123537E+00    0.4681082228E-03
    0.3700000000E+04    0.5284186187E-02    0.6938975037E+00    0.8000861866E-02    0.1082794331E+00    0.4695909608E-03
    0.3900000000E+04    0.5452178916E-02    0.6939826104E+00    0.8300188036E-02    0.1129497149E+00    0.4710015862E-03
    0.4100000000E+04    0.5611797592E-02    0.6940593702E+00    0.8589480623E-02    0.1175264960E+00    0.4723445205E-03
    0.4300000000E+04    0.5763429107E-02    0.6941289480E+00    0.8869132187E-02    0.1220128702E+00    0.4736255790E-03
    0.4500000000E+04    0.5907439595E-02    0.6941923020E+00    0.9139515349E-02    0.1264117795E+00    0.4748502349E-03
    0.4700000000E+04    0.6044176143E-02    0.6942502269E+00    0.9400984658E-02    0.1307260323E+00    0.4760233470E-03
    0.4900000000E+04    0.6173968025E-02    0.6943033883E+00    0.9653877797E-02    0.1349583132E+00    0.4771491868E-03
    0.1000000000E+04    0.3510037236E-03    0.6894117929E+00    0.4927280762E-03    0.6253893250E-02    0.4082721167E-02
    0.3000000000E+04    0.4623868571E-02    0.6935098057E+00    0.6867616449E-02    0.9114318661E-01    0.4642828705E-03
    0.5000000000E+04    0.6236358010E-02    0.6943283615E+00    0.9777209464E-02    0.1370445209E+00    0.4776955731E-03
    0.7000000000E+04    0.7187561477E-02    0.6946768094E+00    0.1186427576E-01    0.1750338144E+00    0.4868563777E-03
    0.9000000000E+04    0.7716624150E-02    0.6948688754E+00    0.1338052771E-01    0.2071592512E+00    0.4937812848E-03
    0.1100000000E+05    0.7970903465E-02    0.6949900775E+00    0.1448857433E-01    0.2347941256E+00    0.4993666459E-03
    0.1300000000E+05    0.8044236954E-02    0.6950732562E+00    0.1529769650E-01    0.2588985217E+00    0.5040565022E-03
    0.1500000000E+05    0.7997911158E-02    0.6951337068E+00    0.1588366351E-01    0.2801658037E+00    0.5081040919E-03
    0.1700000000E+05    0.7872767085E-02    0.6951795086E+00    0.1630040266E-01    0.2991107281E+00    0.5116678342E-03
    0.1900000000E+05    0.7696453555E-02    0.6952153282E+00    0.1658715583E-01    0.3161246163E+00    0.5148535735E-03
    0.2100000000E+05    0.7487912874E-02    0.6952440472E+00    0.1677302403E-01    0.3315111194E+00    0.5177356059E-03
    0.2300000000E+05    0.7260231007E-02    0.6952675401E+00    0.1687994173E-01    0.3455101103E+00    0.5203681273E-03
    0.2500000000E+05    0.7022491278E-02    0.6952870783E+00    0.1692467553E-01    0.3583140753E+00    0.5227919097E-03
    0.2700000000E+05    0.6781004557E-02    0.6953035540E+00    0.1692019885E-01    0.3700796270E+00    0.5250384128E-03
    0.2900000000E+05    0.6540140107E-02    0.6953176115E+00    0.1687665706E-01    0.3809357614E+00    0.5271324289E-03
    0.3100000000E+05    0.6302895351E-02    0.6953297276E+00    0.1680205762E-01    0.3909898948E+00    0.5290938500E-03
    0.3300000000E+05    0.6071291837E-02    0.6953402625E+00    0.1670277174E-01    0.4003323513E+00    0.5309388840E-03
    0.3500000000E+05    0.5846653597E-02    0.6953494932E+00    0.1658390448E-01    0.4090397521E+00    0.5326809151E-03
    0.3700000000E+05    0.5629804799E-02    0.6953576363E+00    0.1644957138E-01    0.4171776103E+00    0.5343311260E-03
    0.3900000000E+05    0.5421211295E-02    0.6953648634E+00    0.1630310777E-01    0.4248023444E+00    0.5358989577E-03
    0.4100000000E+05    0.5221082708E-02    0.6953713122E+00    0.1614722886E-01    0.4319628576E+00    0.5373924546E-03
    0.4300000000E+05    0.5029446507E-02    0.6953770944E+00    0.1598415346E-01    0.4387017918E+00    0.5388185283E-03
    0.4500000000E+05    0.4846201982E-02    0.6953823018E+00    0.1581570034E-01    0.4450565318E+00    0.5401831611E-03
    0.4700000000E+05    0.4671159722E-02    0.6953870102E+00    0.1564336404E-01    0.4510600168E+00    0.5414915667E-03
    0.4900000000E+05    0.4504070519E-02    0.6953912827E+00    0.1546837489E-01    0.4567414036E+00    0.5427483167E-03
    0.1000000000E+05    0.7871295237E-02    0.6949356648E+00    0.1397778117E-01    0.2214704067E+00    0.4967074151E-03
    0.3000000000E+05    0.6420919778E-02    0.6953238875E+00    0.1684280786E-01    0.3860570766E+00    0.5281286260E-03
    0.5000000000E+05    0.4423419426E-02    0.6953932724E+00    0.1538020972E-01    0.4594695231E+00    0.5433585992E-03
    0.7000000000E+05    0.3151894842E-02    0.6954195224E+00    0.1364493517E-01    0.5021196179E+00    0.5536214587E-03
    0.9000000000E+05    0.2342285189E-02    0.6954321513E+00    0.1212622173E-01    0.5301639214E+00    0.5614103923E-03
    0.1100000000E+06    0.1803995256E-02    0.6954389306E+00    0.1086047444E-01    0.5500455977E+00    0.5677070749E-03
    0.1300000000E+06    0.1430404868E-02    0.6954427451E+00    0.9810426914E-02    0.5648856376E+00    0.5730020740E-03
    0.1500000000E+06    0.1161355697E-02    0.6954448922E+00    0.8933200065E-02    0.5763889421E+00    0.5775766832E-03
    0.1700000000E+06    0.9614805282E-03    0.6954460331E+00    0.8192896105E-02    0.5855680616E+00    0.5816075269E-03
    0.1900000000E+06    0.8090660403E-03    0.6954465354E+00    0.7561532845E-02    0.5930629781E+00    0.5852129326E-03
    0.2100000000E+06    0.6902439073E-03    0.6954466176E+00    0.7017662363E-02    0.5992982739E+00    0.5884761291E-03
    0.2300000000E+06    0.5958426955E-03    0.6954464159E+00    0.6544827019E-02    0.6045668105E+00    0.5914579269E-03
    0.2500000000E+06    0.5196100365E-03    0.6954460188E+00    0.6130299420E-02    0.6090771685E+00    0.5942041339E-03
    0.2700000000E+06    0.4571689011E-03    0.6954454858E+00    0.5764135368E-02    0.6129819457E+00    0.5967501328E-03
    0.2900000000E+06    0.4053829049E-03    0.6954448576E+00    0.5438479786E-02    0.6163953639E+00    0.5991238331E-03
    0.3100000000E+06    0.3619579927E-03    0.6954441629E+00    0.5147060316E-02    0.6194046219E+00    0.6013476446E-03
    0.3300000000E+06    0.3251853354E-03    0.6954434222E+00    0.4884816295E-02    0.6220774415E+00    0.6034398385E-03
    0.3500000000E+06    0.2937711472E-03    0.6954426505E+00    0.4647624691E-02    0.6244672178E+00    0.6054155115E-03
    0.3700000000E+06    0.2667214676E-03    0.6954418587E+00    0.4432095681E-02    0.6266166179E+00    0.6072872835E-03
    0.3900000000E+06    0.2432625527E-03    0.6954410548E+00    0.4235418586E-02    0.6285601459E+00    0.6090658134E-03
    0.4100000000E+06    0.2227848531E-03    0.6954402450E+00    0.4055244551E-02    0.6303260058E+00    0.6107601868E-03
    0.4300000000E+06    0.2048029255E-03    0.6954394338E+00    0.3889596305E-02    0.6319374764E+00    0.6123782126E-03
    0.4500000000E+06    0.1889263072E-03    0.6954386245E+00    0.3736798067E-02    0.6334139416E+00    0.6139266520E-03
    0.4700000000E+06    0.1748380602E-03    0.6954378198E+00    0.3595420608E-02    0.6347716717E+00    0.6154113990E-03
    0.4900000000E+06    0.1622787619E-03    0.6954370215E+00    0.3464237813E-02    0.6360244245E+00    0.6168376231E-03
    0.1000000000E+06    0.2047336495E-02    0.6954360355E+00    0.1146360427E-01    0.5408835841E+00    0.5647077788E-03
    0.3000000000E+06    0.3827435079E-03    0.6954445171E+00    0.5288831619E-02    0.6179458934E+00    0.6002532489E-03
    0.5000000000E+06    0.1565040889E-03    0.6954366252E+00    0.3402133122E-02    0.6366151639E+00    0.6175302351E-03
    0.7000000000E+06    0.8491070363E-04    0.6954292307E+00    0.2501841316E-02    0.6450176977E+00    0.6291802805E-03
    0.9000000000E+06    0.5334613475E-04    0.6954228781E+00    0.1976170344E-02    0.6497937537E+00    0.6380246710E-03
    0.1100000000E+07    0.3667000631E-04    0.6954173934E+00    0.1631975687E-02    0.6528735690E+00    0.6451758108E-03
    0.1300000000E+07    0.2678855384E-04    0.6954125887E+00    0.1389279251E-02    0.6550241683E+00    0.6511899866E-03
    0.1500000000E+07    0.2044880733E-04    0.6954083200E+00    0.1209034177E-02    0.6566107841E+00    0.6563863118E-03
    0.1700000000E+07    0.1613665564E-04    0.6954044816E+00    0.1069926925E-02    0.6578294534E+00    0.6609652161E-03
    0.1900000000E+07    0.1306930363E-04    0.6954009950E+00    0.9593427610E-03    0.6587948121E+00    0.6650610024E-03
    0.2100000000E+07    0.1080870996E-04    0.6953978008E+00    0.8693414202E-03    0.6595783666E+00    0.6687681512E-03
    0.2300000000E+07    0.9094094102E-05    0.6953948534E+00    0.7946767666E-03    0.6602270307E+00    0.6721557022E-03
    0.2500000000E+07    0.7762272366E-05    0.6953921168E+00    0.7317441651E-03    0.6607728592E+00    0.6752756675E-03
    0.2700000000E+07    0.6706858652E-05    0.6953895626E+00    0.6779854129E-03    0.6612384984E+00    0.6781682250E-03
    0.2900000000E+07    0.5856071952E-05    0.6953871674E+00    0.6315349331E-03    0.6616404017E+00    0.6808650687E-03
    0.3100000000E+07    0.5160044858E-05    0.6953849123E+00    0.5910003670E-03    0.6619908104E+00    0.6833916485E-03
    0.3300000000E+07    0.4583251652E-05    0.6953827815E+00    0.5553215680E-03    0.6622990204E+00    0.6857687156E-03
    0.3500000000E+07    0.4099823905E-05    0.6953807617E+00    0.5236771581E-03    0.6625722178E+00    0.6880134161E-03
    0.3700000000E+07    0.3690559838E-05    0.6953788417E+00    0.4954209328E-03    0.6628160451E+00    0.6901400836E-03
    0.3900000000E+07    0.3340961710E-05    0.6953770119E+00    0.4700375544E-03    0.6630349945E+00    0.6921608251E-03
    0.4100000000E+07    0.3039916143E-05    0.6953752639E+00    0.4471110414E-03    0.6632326867E+00    0.6940859605E-03
    0.4300000000E+07    0.2778787340E-05    0.6953735906E+00    0.4263019396E-03    0.6634120725E+00    0.6959243599E-03
    0.4500000000E+07    0.2550781822E-05    0.6953719857E+00    0.4073305087E-03    0.6635755810E+00    0.6976837036E-03
    0.4700000000E+07    0.2350495541E-05    0.6953704437E+00    0.3899641538E-03    0.6637252297E+00    0.6993706868E-03
    0.4900000000E+07    0.2173585860E-05    0.6953689597E+00    0.3740079008E-03    0.6638627083E+00    0.7009911818E-03
    0.1000000000E+07    0.4383129296E-04    0.6954200400E+00    0.1787796759E-02    0.6514837530E+00    0.6417693954E-03
    0.3000000000E+07    0.5491204614E-05    0.6953860234E+00    0.6106009321E-03    0.6618214043E+00    0.6821482491E-03
    0.5000000000E+07    0.2092769737E-05    0.6953682381E+00    0.3665060867E-03    0.6639273382E+00    0.7017781389E-03
    0.7000000000E+07    0.1119483989E-05    0.6953560196E+00    0.2613540493E-03    0.6648331078E+00    0.7150152757E-03
    0.9000000000E+07    0.7081066733E-06    0.6953466596E+00    0.2028823433E-03    0.6653369973E+00    0.7250646908E-03
    0.1100000000E+08    0.4952218757E-06    0.6953390499E+00    0.1656843706E-03    0.6656578603E+00    0.7331902116E-03
    0.1300000000E+08    0.3703356929E-06    0.6953326261E+00    0.1399511822E-03    0.6658800717E+00    0.7400238758E-03
    0.1500000000E+08    0.2905164646E-06    0.6953270603E+00    0.1210974675E-03    0.6660430582E+00    0.7459282609E-03
    0.1700000000E+08    0.2362149130E-06    0.6953221452E+00    0.1066939239E-03    0.6661677097E+00    0.7511310992E-03
    0.1900000000E+08    0.1974738537E-06    0.6953177409E+00    0.9533379556E-04    0.6662661265E+00    0.7557849902E-03
    0.2100000000E+08    0.1687790806E-06    0.6953137487E+00    0.8614628988E-04    0.6663458018E+00    0.7599972868E-03
    0.2300000000E+08    0.1468716467E-06    0.6953100960E+00    0.7856363338E-04    0.6664116239E+00    0.7638464354E-03
    0.2500000000E+08    0.1297224927E-06    0.6953067282E+00    0.7219987269E-04    0.6664669170E+00    0.7673915348E-03
    0.2700000000E+08    0.1160131876E-06    0.6953036028E+00    0.6678352200E-04    0.6665140208E+00    0.7706782378E-03
