  Pressure (Pa) 23mC5-500 (mol/kg) 24mC5-500 (mol/kg) 2mC6-500 (mol/kg) 3mC6-500 (mol/kg) C7-500 (mol/kg)
    0.1000000000E+01    0.4589902533E-05    0.3665878899E-01    0.2452900885E-04    0.1600488209E-05    0.4197714971E-02
    0.3000000000E+01    0.1210603469E-04    0.9947729812E-01    0.6331242805E-04    0.4092927873E-05    0.4266192082E-02
    0.5000000000E+01    0.1803668032E-04    0.1513476196E+00    0.9286195745E-04    0.6385118812E-05    0.4320091476E-02
    0.7000000000E+01    0.2280799735E-04    0.1949030951E+00    0.1158738139E-03    0.8580674033E-05    0.4365174819E-02
    0.9000000000E+01    0.2670646510E-04    0.2319951657E+00    0.1341079291E-03    0.1071457611E-04    0.4403614368E-02
    0.1100000000E+02    0.2993398752E-04    0.2639635303E+00    0.1487786698E-03    0.1280433888E-04    0.4436828630E-02
    0.1300000000E+02    0.3263694696E-04    0.2918015309E+00    0.1607490159E-03    0.1486039060E-04    0.4465838369E-02
    0.1500000000E+02    0.3492385726E-04    0.3162612926E+00    0.1706459489E-03    0.1688960499E-04    0.4491407839E-02
    0.1700000000E+02    0.3687667457E-04    0.3379227558E+00    0.1789333415E-03    0.1889682965E-04    0.4514123617E-02
    0.1900000000E+02    0.3855830061E-04    0.3572402841E+00    0.1859597368E-03    0.2088565289E-04    0.4534444460E-02
    0.2100000000E+02    0.4001769727E-04    0.3745749106E+00    0.1919905563E-03    0.2285882969E-04    0.4552734767E-02
    0.2300000000E+02    0.4129345364E-04    0.3902171325E+00    0.1972303113E-03    0.2481853639E-04    0.4569287870E-02
    0.2500000000E+02    0.4241632343E-04    0.4044033362E+00    0.2018382255E-03    0.2676653220E-04    0.4584342672E-02
    0.2700000000E+02    0.4341106163E-04    0.4173278367E+00    0.2059394114E-03    0.2870426625E-04    0.4598095787E-02
    0.2900000000E+02    0.4429777495E-04    0.4291518393E+00    0.2096329903E-03    0.3063295124E-04    0.4610710545E-02
    0.3100000000E+02    0.4509292862E-04    0.4400102039E+00    0.2129980703E-03    0.3255361578E-04    0.4622323787E-02
    0.3300000000E+02    0.4581010670E-04    0.4500166166E+00    0.2160982047E-03    0.3446714244E-04    0.4633051048E-02
    0.3500000000E+02    0.4646059277E-04    0.4592675883E+00    0.2189847513E-03    0.3637429622E-04    0.4642990564E-02
    0.3700000000E+02    0.4705381830E-04    0.4678455805E+00    0.2216994325E-03    0.3827574606E-04    0.4652226415E-02
    0.3900000000E+02    0.4759771211E-04    0.4758214725E+00    0.2242763019E-03    0.4017208152E-04    0.4660830991E-02
    0.4100000000E+02    0.4809897524E-04    0.4832565257E+00    0.2267432705E-03    0.4206382585E-04    0.4668866966E-02
    0.4300000000E+02    0.4856329896E-04    0.4902039622E+00    0.2291232985E-03    0.4395144639E-04    0.4676388884E-02
    0.4500000000E+02    0.4899553894E-04    0.4967102412E+00    0.2314353340E-03    0.4583536291E-04    0.4683444443E-02
    0.4700000000E+02    0.4939985551E-04    0.5028161005E+00    0.2336950572E-03    0.4771595441E-04    0.4690075539E-02
    0.4900000000E+02    0.4977982727E-04    0.5085574111E+00    0.2359154738E-03    0.4959356471E-04    0.4696319129E-02
    0.1000000000E+02    0.2839389057E-04    0.2485510622E+00    0.1418281677E-03    0.1176421337E-04    0.4420803636E-02
    0.3000000000E+02    0.4470588776E-04    0.4346941765E+00    0.2113522999E-03    0.3159422786E-04    0.4616634688E-02
    0.5000000000E+02    0.4996166625E-04    0.5113014158E+00    0.2370143942E-03    0.5053135087E-04    0.4699305984E-02
    0.7000000000E+02    0.5288222047E-04    0.5530856115E+00    0.2587466897E-03    0.6919407824E-04    0.4744957488E-02
    0.9000000000E+02    0.5521298943E-04    0.5793958870E+00    0.2819460878E-03    0.8779674624E-04    0.4773677702E-02
    0.1100000000E+03    0.5744730045E-04    0.5974857216E+00    0.3073057854E-03    0.1064501023E-03    0.4793138724E-02
    0.1300000000E+03    0.5974768141E-04    0.6106874689E+00    0.3346865142E-03    0.1252230419E-03    0.4806928754E-02
    0.1500000000E+03    0.6216972093E-04    0.6207466434E+00    0.3638322508E-03    0.1441636736E-03    0.4816959832E-02
    0.1700000000E+03    0.6473034491E-04    0.6286660272E+00    0.3945156322E-03    0.1633084447E-03    0.4824348604E-02
    0.1900000000E+03    0.6743182147E-04    0.6350627525E+00    0.4265599376E-03    0.1826867188E-03    0.4829793129E-02
    0.2100000000E+03    0.7027100555E-04    0.6403374398E+00    0.4598337965E-03    0.2023233189E-03    0.4833753330E-02
    0.2300000000E+03    0.7324309295E-04    0.6447614948E+00    0.4942415719E-03    0.2222400491E-03    0.4836545148E-02
    0.2500000000E+03    0.7634316950E-04    0.6485253191E+00    0.5297147852E-03    0.2424566619E-03    0.4838393079E-02
    0.2700000000E+03    0.7956682862E-04    0.6517664331E+00    0.5662054697E-03    0.2629915031E-03    0.4839461156E-02
    0.2900000000E+03    0.8291038408E-04    0.6545866437E+00    0.6036812414E-03    0.2838619593E-03    0.4839872045E-02
    0.3100000000E+03    0.8637090701E-04    0.6570629310E+00    0.6421216932E-03    0.3050847799E-03    0.4839719284E-02
    0.3300000000E+03    0.8994618981E-04    0.6592545813E+00    0.6815157597E-03    0.3266763165E-03    0.4839075375E-02
    0.3500000000E+03    0.9363468348E-04    0.6612079951E+00    0.7218597842E-03    0.3486527061E-03    0.4837997298E-02
    0.3700000000E+03    0.9743542973E-04    0.6629600070E+00    0.7631560909E-03    0.3710300155E-03    0.4836530351E-02
    0.3900000000E+03    0.1013479967E-03    0.6645402306E+00    0.8054119256E-03    0.3938243576E-03    0.4834710885E-02
    0.4100000000E+03    0.1053724219E-03    0.6659727449E+00    0.8486386632E-03    0.4170519886E-03    0.4832568292E-02
    0.4300000000E+03    0.1095091634E-03    0.6672773300E+00    0.8928512145E-03    0.4407293908E-03    0.4830126474E-02
    0.4500000000E+03    0.1137590588E-03    0.6684703850E+00    0.9380675794E-03    0.4648733443E-03    0.4827404941E-02
    0.4700000000E+03    0.1181232914E-03    0.6695656213E+00    0.9843085132E-03    0.4895009921E-03    0.4824419646E-02
    0.4900000000E+03    0.1226033622E-03    0.6705745912E+00    0.1031597276E-02    0.5146298985E-03    0.4821183631E-02
    0.1000000000E+03    0.5632817024E-04    0.5892071348E+00    0.2943583647E-03    0.9711213711E-04    0.4784285696E-02
    0.3000000000E+03    0.8462617882E-04    0.6558637228E+00    0.6227817673E-03    0.2944282951E-03    0.4839861171E-02
    0.5000000000E+03    0.1248873874E-03    0.6710498485E+00    0.1055642502E-02    0.5273879414E-03    0.4819475007E-02
    0.7000000000E+03    0.1772454686E-03    0.6777738445E+00    0.1599078617E-02    0.8136523866E-03    0.4773784265E-02
    0.9000000000E+03    0.2449901675E-03    0.6815663768E+00    0.2291172587E-02    0.1175848825E-02    0.4706590008E-02
    0.1100000000E+04    0.3341622856E-03    0.6840007851E+00    0.3195076462E-02    0.1647903950E-02    0.4613933945E-02
    0.1300000000E+04    0.4547762186E-03    0.6856954395E+00    0.4412948390E-02    0.2283727573E-02    0.4486639223E-02
    0.1500000000E+04    0.6235673965E-03    0.6869428139E+00    0.6114426543E-02    0.3172556696E-02    0.4308621025E-02
    0.1700000000E+04    0.8689500726E-03    0.6878991787E+00    0.8587375474E-02    0.4465945877E-02    0.4052909491E-02
    0.1900000000E+04    0.1238078068E-02    0.6886556151E+00    0.1231068866E-01    0.6416800885E-02    0.3676815343E-02
    0.2100000000E+04    0.1796813115E-02    0.6892687952E+00    0.1795802177E-01    0.9383545577E-02    0.3127578390E-02
    0.2300000000E+04    0.2578374095E-02    0.6897758274E+00    0.2588683203E-01    0.1356593439E-01    0.2402379251E-02
    0.2500000000E+04    0.3443325567E-02    0.6902020269E+00    0.3472130403E-01    0.1825912436E-01    0.1677152260E-02
    0.2700000000E+04    0.4128498707E-02    0.6905652550E+00    0.4181026630E-01    0.2207445385E-01    0.1205859754E-02
    0.2900000000E+04    0.4573809105E-02    0.6908784741E+00    0.4652026788E-01    0.2466485201E-01    0.9996141161E-03
    0.3100000000E+04    0.4879991822E-02    0.6911513193E+00    0.4984793603E-01    0.2654258243E-01    0.9284083184E-03
    0.3300000000E+04    0.5125540007E-02    0.6913911013E+00    0.5257933572E-01    0.2811695752E-01    0.9072336286E-03
    0.3500000000E+04    0.5344357159E-02    0.6916034674E+00    0.5505534807E-01    0.2956625742E-01    0.9025052438E-03
    0.3700000000E+04    0.5548818587E-02    0.6917928490E+00    0.5740031464E-01    0.3095550091E-01    0.9029375637E-03
    0.3900000000E+04    0.5743355382E-02    0.6919627720E+00    0.5965831142E-01    0.3230752276E-01    0.9049178063E-03
    0.4100000000E+04    0.5929677551E-02    0.6921160767E+00    0.6184584139E-01    0.3363061919E-01    0.9073054279E-03
    0.4300000000E+04    0.6108574068E-02    0.6922550770E+00    0.6397007422E-01    0.3492816162E-01    0.9097442847E-03
    0.4500000000E+04    0.6280515353E-02    0.6923816764E+00    0.6603497422E-01    0.3620183966E-01    0.9121268975E-03
    0.4700000000E+04    0.6445854262E-02    0.6924974555E+00    0.6804335072E-01    0.3745274966E-01    0.9144246151E-03
    0.4900000000E+04    0.6604893765E-02    0.6926037376E+00    0.6999754895E-01    0.3868176197E-01    0.9166335209E-03
    0.1000000000E+04    0.2863885830E-03    0.6829033087E+00    0.2711425857E-02    0.1395379342E-02    0.4663888125E-02
    0.3000000000E+04    0.4738078846E-02    0.6910194410E+00    0.4829477883E-01    0.2566051319E-01    0.9540495541E-03
    0.5000000000E+04    0.6682138377E-02    0.6926536730E+00    0.7095499919E-01    0.3928829956E-01    0.9177056629E-03
    0.7000000000E+04    0.7955365743E-02    0.6933510054E+00    0.8771285194E-01    0.5043368067E-01    0.9356281310E-03
    0.9000000000E+04    0.8833312069E-02    0.6937359216E+00    0.1008675066E+00    0.6005099961E-01    0.9491120532E-03
    0.1100000000E+05    0.9441601080E-02    0.6939790772E+00    0.1114203557E+00    0.6851533613E-01    0.9599571039E-03
    0.1300000000E+05    0.9860649597E-02    0.6941460979E+00    0.1200350213E+00    0.7608274347E-01    0.9690465769E-03
    0.1500000000E+05    0.1014385414E-01    0.6942675771E+00    0.1271683970E+00    0.8293470620E-01    0.9768810677E-03
    0.1700000000E+05    0.1032775713E-01    0.6943596865E+00    0.1331451629E+00    0.8920391978E-01    0.9837723732E-03
    0.1900000000E+05    0.1043800662E-01    0.6944317718E+00    0.1382022817E+00    0.9498998275E-01    0.9899281452E-03
    0.2100000000E+05    0.1049299312E-01    0.6944896069E+00    0.1425166823E+00    0.1003693437E+00    0.9954937827E-03
    0.2300000000E+05    0.1050614592E-01    0.6945369493E+00    0.1462230950E+00    0.1054018274E+00    0.1000575142E-02
    0.2500000000E+05    0.1048742636E-01    0.6945763483E+00    0.1494258929E+00    0.1101350461E+00    0.1005251732E-02
    0.2700000000E+05    0.1044432409E-01    0.6946095937E+00    0.1522071631E+00    0.1146074586E+00    0.1009584824E-02
    0.2900000000E+05    0.1038253673E-01    0.6946379786E+00    0.1546323360E+00    0.1188505416E+00    0.1013622648E-02
    0.3100000000E+05    0.1030644293E-01    0.6946624597E+00    0.1567541924E+00    0.1228903608E+00    0.1017403867E-02
    0.3300000000E+05    0.1021943742E-01    0.6946837603E+00    0.1586157686E+00    0.1267487298E+00    0.1020959955E-02
    0.3500000000E+05    0.1012417213E-01    0.6947024367E+00    0.1602524973E+00    0.1304440781E+00    0.1024316889E-02
    0.3700000000E+05    0.1002273217E-01    0.6947189238E+00    0.1616938081E+00    0.1339921102E+00    0.1027496355E-02
    0.3900000000E+05    0.9916765947E-02    0.6947335666E+00    0.1629643413E+00    0.1374063143E+00    0.1030516654E-02
    0.4100000000E+05    0.9807582473E-02    0.6947466419E+00    0.1640848787E+00    0.1406983579E+00    0.1033393372E-02
    0.4300000000E+05    0.9696224939E-02    0.6947583742E+00    0.1650730663E+00    0.1438784005E+00    0.1036139893E-02
    0.4500000000E+05    0.9583526865E-02    0.6947689480E+00    0.1659439799E+00    0.1469553417E+00    0.1038767798E-02
    0.4700000000E+05    0.9470155338E-02    0.6947785156E+00    0.1667105736E+00    0.1499370213E+00    0.1041287177E-02
    0.4900000000E+05    0.9356644580E-02    0.6947872043E+00    0.1673840377E+00    0.1528303811E+00    0.1043706873E-02
    0.1000000000E+05    0.9165343801E-02    0.6938698862E+00    0.1064216682E+00    0.6440913969E-01    0.9547966745E-03
    0.3000000000E+05    0.1034604610E-01    0.6946506574E+00    0.1557282887E+00    0.1208944075E+00    0.1015543220E-02
    0.5000000000E+05    0.9299974187E-02    0.6947912532E+00    0.1676889326E+00    0.1542458981E+00    0.1044881813E-02
    0.7000000000E+05    0.8225767887E-02    0.6948448773E+00    0.1706913092E+00    0.1791154864E+00    0.1064633986E-02
    0.9000000000E+05    0.7314220414E-02    0.6948709422E+00    0.1704092555E+00    0.1994019471E+00    0.1079618434E-02
    0.1100000000E+06    0.6558210956E-02    0.6948851297E+00    0.1686855212E+00    0.2167374016E+00    0.1091729086E-02
    0.1300000000E+06    0.5928115262E-02    0.6948932733E+00    0.1662769125E+00    0.2319740953E+00    0.1101911516E-02
    0.1500000000E+06    0.5397248662E-02    0.6948980031E+00    0.1635403934E+00    0.2456202581E+00    0.1110707607E-02
    0.1700000000E+06    0.4944815104E-02    0.6949006626E+00    0.1606599218E+00    0.2580071041E+00    0.1118457477E-02
    0.1900000000E+06    0.4555062352E-02    0.6949020008E+00    0.1577359179E+00    0.2693646225E+00    0.1125388921E-02
    0.2100000000E+06    0.4216047575E-02    0.6949024638E+00    0.1548251573E+00    0.2798602822E+00    0.1131662127E-02
    0.2300000000E+06    0.3918624230E-02    0.6949023309E+00    0.1519602424E+00    0.2896206020E+00    0.1137394117E-02
    0.2500000000E+06    0.3655696902E-02    0.6949017842E+00    0.1491597858E+00    0.2987440083E+00    0.1142673030E-02
    0.2700000000E+06    0.3421688160E-02    0.6949009458E+00    0.1464340355E+00    0.3073089229E+00    0.1147566938E-02
    0.2900000000E+06    0.3212157836E-02    0.6948999006E+00    0.1437881187E+00    0.3153790762E+00    0.1152129532E-02
    0.3100000000E+06    0.3023529046E-02    0.6948987081E+00    0.1412239803E+00    0.3230071276E+00    0.1156403916E-02
    0.3300000000E+06    0.2852888751E-02    0.6948974112E+00    0.1387415742E+00    0.3302372086E+00    0.1160425235E-02
    0.3500000000E+06    0.2697840724E-02    0.6948960413E+00    0.1363396129E+00    0.3371067572E+00    0.1164222523E-02
    0.3700000000E+06    0.2556395755E-02    0.6948946215E+00    0.1340160467E+00    0.3436478709E+00    0.1167820051E-02
    0.3900000000E+06    0.2426888641E-02    0.6948931691E+00    0.1317683752E+00    0.3498883246E+00    0.1171238317E-02
    0.4100000000E+06    0.2307914674E-02    0.6948916969E+00    0.1295938512E+00    0.3558523502E+00    0.1174494793E-02
    0.4300000000E+06    0.2198280515E-02    0.6948902149E+00    0.1274896148E+00    0.3615612426E+00    0.1177604495E-02
    0.4500000000E+06    0.2096965791E-02    0.6948887306E+00    0.1254527817E+00    0.3670338381E+00    0.1180580424E-02
    0.4700000000E+06    0.2003092792E-02    0.6948872495E+00    0.1234805004E+00    0.3722868950E+00    0.1183433912E-02
    0.4900000000E+06    0.1915902327E-02    0.6948857761E+00    0.1215699893E+00    0.3773354025E+00    0.1186174901E-02
    0.1000000000E+06    0.6918596841E-02    0.6948790424E+00    0.1696665572E+00    0.2083741886E+00    0.1085960716E-02
    0.3000000000E+06    0.3115426438E-02    0.6948993197E+00    0.1424957938E+00    0.3192454308E+00    0.1154300392E-02
    0.5000000000E+06    0.1874603356E-02    0.6948850433E+00    0.1206370532E+00    0.3797872131E+00    0.1187505988E-02
    0.7000000000E+06    0.1277111880E-02    0.6948712523E+00    0.1046288416E+00    0.4207441830E+00    0.1209894645E-02
    0.9000000000E+06    0.9345243853E-03    0.6948592993E+00    0.9243365668E-01    0.4508975800E+00    0.1226890590E-02
    0.1100000000E+07    0.7170357258E-03    0.6948489362E+00    0.8282040606E-01    0.4742218066E+00    0.1240632196E-02
    0.1300000000E+07    0.5692634857E-03    0.6948398359E+00    0.7503738396E-01    0.4928811142E+00    0.1252188717E-02
    0.1500000000E+07    0.4638145840E-03    0.6948317385E+00    0.6860139368E-01    0.5081848458E+00    0.1262173499E-02
    0.1700000000E+07    0.3857063886E-03    0.6948244496E+00    0.6318719239E-01    0.5209822651E+00    0.1270971755E-02
    0.1900000000E+07    0.3261188248E-03    0.6948178236E+00    0.5856737897E-01    0.5318526349E+00    0.1278841601E-02
    0.2100000000E+07    0.2795580742E-03    0.6948117499E+00    0.5457790617E-01    0.5412065522E+00    0.1285964613E-02
    0.2300000000E+07    0.2424450329E-03    0.6948061429E+00    0.5109730038E-01    0.5493441088E+00    0.1292473472E-02
    0.2500000000E+07    0.2123608979E-03    0.6948009354E+00    0.4803360407E-01    0.5564902076E+00    0.1298468133E-02
    0.2700000000E+07    0.1876202392E-03    0.6947960735E+00    0.4531587283E-01    0.5628169856E+00    0.1304025808E-02
    0.2900000000E+07    0.1670177702E-03    0.6947915134E+00    0.4288846699E-01    0.5684585804E+00    0.1309207403E-02
    0.3100000000E+07    0.1496721098E-03    0.6947872194E+00    0.4070711695E-01    0.5735211547E+00    0.1314061825E-02
    0.3300000000E+07    0.1349260948E-03    0.6947831614E+00    0.3873614826E-01    0.5780898812E+00    0.1318628951E-02
    0.3500000000E+07    0.1222813020E-03    0.6947793144E+00    0.3694648477E-01    0.5822339188E+00    0.1322941731E-02
    0.3700000000E+07    0.1113539392E-03    0.6947756572E+00    0.3531418566E-01    0.5860100288E+00    0.1327027708E-02
    0.3900000000E+07    0.1018444597E-03    0.6947721714E+00    0.3381935647E-01    0.5894652476E+00    0.1330910148E-02
    0.4100000000E+07    0.9351621132E-04    0.6947688413E+00    0.3244532673E-01    0.5926388930E+00    0.1334608881E-02
    0.4300000000E+07    0.8618016543E-04    0.6947656535E+00    0.3117802087E-01    0.5955640913E+00    0.1338140952E-02
    0.4500000000E+07    0.7968381816E-04    0.6947625958E+00    0.3000547123E-01    0.5982689544E+00    0.1341521120E-02
    0.4700000000E+07    0.7390300603E-04    0.6947596579E+00    0.2891743700E-01    0.6007774971E+00    0.1344762249E-02
    0.4900000000E+07    0.6873579085E-04    0.6947568306E+00    0.2790510312E-01    0.6031103590E+00    0.1347875624E-02
    0.1000000000E+07    0.8145582867E-03    0.6948539407E+00    0.8735937860E-01    0.4632510712E+00    0.1234086490E-02
    0.3000000000E+07    0.1579832709E-03    0.6947893351E+00    0.4176943961E-01    0.5710564961E+00    0.1311672834E-02
    0.5000000000E+07    0.6635534184E-04    0.6947554557E+00    0.2742489885E-01    0.6042165806E+00    0.1349387561E-02
    0.7000000000E+07    0.3655543780E-04    0.6947321767E+00    0.2039120782E-01    0.6203934046E+00    0.1374818879E-02
    0.9000000000E+07    0.2319785349E-04    0.6947143474E+00    0.1621652569E-01    0.6299735920E+00    0.1394125361E-02
    0.1100000000E+08    0.1606304599E-04    0.6946998568E+00    0.1345357985E-01    0.6363065318E+00    0.1409735403E-02
    0.1300000000E+08    0.1180211495E-04    0.6946876283E+00    0.1149064714E-01    0.6408025234E+00    0.1422863408E-02
    0.1500000000E+08    0.9052197715E-05    0.6946770369E+00    0.1002466989E-01    0.6441587009E+00    0.1434206026E-02
    0.1700000000E+08    0.7173043785E-05    0.6946676869E+00    0.8888414951E-02    0.6467592012E+00    0.1444200807E-02
    0.1900000000E+08    0.5831268730E-05    0.6946593113E+00    0.7982068133E-02    0.6488330683E+00    0.1453140944E-02
    0.2100000000E+08    0.4839248831E-05    0.6946517218E+00    0.7242381539E-02    0.6505253310E+00    0.1461232693E-02
    0.2300000000E+08    0.4084763604E-05    0.6946447798E+00    0.6627339962E-02    0.6519322776E+00    0.1468626773E-02
    0.2500000000E+08    0.3497317155E-05    0.6946383811E+00    0.6107944539E-02    0.6531203379E+00    0.1475436727E-02
    0.2700000000E+08    0.3030798154E-05    0.6946324447E+00    0.5663536743E-02    0.6541368197E+00    0.1481750265E-02
