  Pressure (Pa) 23mC5-500 (mol/kg) 24mC5-500 (mol/kg) 2mC6-500 (mol/kg) 3mC6-500 (mol/kg) C7-500 (mol/kg)
    0.1000000000E+01    0.3232890393E-05    0.2142831156E+00    0.2412471189E-05    0.2693096743E-05    0.4167106337E-02
    0.3000000000E+01    0.5512545874E-05    0.3978567356E+00    0.3940704658E-05    0.6771732618E-05    0.4188094775E-02
    0.5000000000E+01    0.6381839706E-05    0.4801197178E+00    0.4567810340E-05    0.1049357084E-04    0.4195164318E-02
    0.7000000000E+01    0.6874867837E-05    0.5268018516E+00    0.5030809489E-05    0.1404331844E-04    0.4198863209E-02
    0.9000000000E+01    0.7238612807E-05    0.5568830234E+00    0.5467421745E-05    0.1748279027E-04    0.4201113983E-02
    0.1100000000E+02    0.7553390908E-05    0.5778817807E+00    0.5909639860E-05    0.2084279720E-04    0.4202596217E-02
    0.1300000000E+02    0.7850013310E-05    0.5933719901E+00    0.6364276356E-05    0.2414163190E-04    0.4203618039E-02
    0.1500000000E+02    0.8141455519E-05    0.6052698812E+00    0.6831394814E-05    0.2739132637E-04    0.4204340877E-02
    0.1700000000E+02    0.8433423082E-05    0.6146952474E+00    0.7309339000E-05    0.3060035211E-04    0.4204857948E-02
    0.1900000000E+02    0.8728405490E-05    0.6223462742E+00    0.7796217116E-05    0.3377497160E-04    0.4205227031E-02
    0.2100000000E+02    0.9027392971E-05    0.6286808917E+00    0.8290328090E-05    0.3691998737E-04    0.4205485935E-02
    0.2300000000E+02    0.9330657545E-05    0.6340119325E+00    0.8790253069E-05    0.4003918958E-04    0.4205660485E-02
    0.2500000000E+02    0.9638127242E-05    0.6385603820E+00    0.9294842300E-05    0.4313563908E-04    0.4205768948E-02
    0.2700000000E+02    0.9949571923E-05    0.6424867816E+00    0.9803174229E-05    0.4621185506E-04    0.4205824626E-02
    0.2900000000E+02    0.1026469746E-04    0.6459105714E+00    0.1031451236E-04    0.4926994396E-04    0.4205837444E-02
    0.3100000000E+02    0.1058319366E-04    0.6489224528E+00    0.1082826758E-04    0.5231169101E-04    0.4205814962E-02
    0.3300000000E+02    0.1090475823E-04    0.6515925413E+00    0.1134396742E-04    0.5533862676E-04    0.4205763049E-02
    0.3500000000E+02    0.1122910802E-04    0.6539758933E+00    0.1186123163E-04    0.5835207670E-04    0.4205686327E-02
    0.3700000000E+02    0.1155598364E-04    0.6561163430E+00    0.1237975314E-04    0.6135319894E-04    0.4205588493E-02
    0.3900000000E+02    0.1188515048E-04    0.6580492233E+00    0.1289928308E-04    0.6434301324E-04    0.4205472537E-02
    0.4100000000E+02    0.1221639791E-04    0.6598033309E+00    0.1341961919E-04    0.6732242382E-04    0.4205340906E-02
    0.4300000000E+02    0.1254953767E-04    0.6614023714E+00    0.1394059661E-04    0.7029223749E-04    0.4205195621E-02
    0.4500000000E+02    0.1288440187E-04    0.6628660366E+00    0.1446208074E-04    0.7325317820E-04    0.4205038369E-02
    0.4700000000E+02    0.1322084093E-04    0.6642108196E+00    0.1498396155E-04    0.7620589886E-04    0.4204870566E-02
    0.4900000000E+02    0.1355872162E-04    0.6654506387E+00    0.1550614902E-04    0.7915099109E-04    0.4204693413E-02
    0.1000000000E+02    0.7399574389E-05    0.5682396262E+00    0.5687139988E-05    0.1917139001E-04    0.4201926994E-02
    0.3000000000E+02    0.1042354348E-04    0.6474632108E+00    0.1057111979E-04    0.5079275924E-04    0.4205830215E-02
    0.5000000000E+02    0.1372816495E-04    0.6660349535E+00    0.1576733419E-04    0.8062084667E-04    0.4204601656E-02
    0.7000000000E+02    0.1716999172E-04    0.6743243987E+00    0.2099527149E-04    0.1097263155E-03    0.4202459552E-02
    0.9000000000E+02    0.2067765650E-04    0.6790193505E+00    0.2622128984E-04    0.1384751022E-03    0.4199986212E-02
    0.1100000000E+03    0.2422615084E-04    0.6820411779E+00    0.3144630384E-04    0.1670523335E-03    0.4197352759E-02
    0.1300000000E+03    0.2780602864E-04    0.6841489695E+00    0.3667691450E-04    0.1955697459E-03    0.4194626976E-02
    0.1500000000E+03    0.3141385086E-04    0.6857029447E+00    0.4192007043E-04    0.2241023413E-03    0.4191840480E-02
    0.1700000000E+03    0.3504875465E-04    0.6868960197E+00    0.4718200345E-04    0.2527042725E-03    0.4189009561E-02
    0.1900000000E+03    0.3871105879E-04    0.6878408325E+00    0.5246811575E-04    0.2814168134E-03    0.4186143136E-02
    0.2100000000E+03    0.4240164321E-04    0.6886075655E+00    0.5778308262E-04    0.3102727830E-03    0.4183246251E-02
    0.2300000000E+03    0.4612165477E-04    0.6892422260E+00    0.6313098678E-04    0.3392991888E-03    0.4180321771E-02
    0.2500000000E+03    0.4987236177E-04    0.6897762300E+00    0.6851543840E-04    0.3685189009E-03    0.4177371273E-02
    0.2700000000E+03    0.5365508036E-04    0.6902317618E+00    0.7393967289E-04    0.3979517602E-03    0.4174395537E-02
    0.2900000000E+03    0.5747113731E-04    0.6906249329E+00    0.7940662805E-04    0.4276153413E-03    0.4171394840E-02
    0.3100000000E+03    0.6132185183E-04    0.6909677267E+00    0.8491900469E-04    0.4575254932E-03    0.4168369124E-02
    0.3300000000E+03    0.6520852754E-04    0.6912692414E+00    0.9047931422E-04    0.4876967337E-03    0.4165318112E-02
    0.3500000000E+03    0.6913244994E-04    0.6915365085E+00    0.9608991636E-04    0.5181425434E-03    0.4162241373E-02
    0.3700000000E+03    0.7309488677E-04    0.6917750487E+00    0.1017530492E-03    0.5488755897E-03    0.4159138370E-02
    0.3900000000E+03    0.7709708993E-04    0.6919892564E+00    0.1074708537E-03    0.5799079000E-03    0.4156008491E-02
    0.4100000000E+03    0.8114029816E-04    0.6921826734E+00    0.1132453930E-03    0.6112509986E-03    0.4152851070E-02
    0.4300000000E+03    0.8522574002E-04    0.6923581858E+00    0.1190786692E-03    0.6429160161E-03    0.4149665401E-02
    0.4500000000E+03    0.8935463690E-04    0.6925181692E+00    0.1249726367E-03    0.6749137780E-03    0.4146450745E-02
    0.4700000000E+03    0.9352820609E-04    0.6926645969E+00    0.1309292134E-03    0.7072548778E-03    0.4143206343E-02
    0.4900000000E+03    0.9774766356E-04    0.6927991213E+00    0.1369502905E-03    0.7399497374E-03    0.4139931412E-02
    0.1000000000E+03    0.2244759592E-04    0.6806780417E+00    0.2883354413E-04    0.1527770427E-03    0.4198684007E-02
    0.3000000000E+03    0.5939208048E-04    0.6908020019E+00    0.8215697777E-04    0.4425386612E-03    0.4169885123E-02
    0.5000000000E+03    0.9987498071E-04    0.6928623642E+00    0.1399856025E-03    0.7564330498E-03    0.4138282250E-02
    0.7000000000E+03    0.1451333640E-03    0.6937488332E+00    0.2045356545E-03    0.1107182593E-02    0.4103493027E-02
    0.9000000000E+03    0.1964648901E-03    0.6942421167E+00    0.2777415996E-03    0.1505396264E-02    0.4064642487E-02
    0.1100000000E+04    0.2553999789E-03    0.6945562718E+00    0.3618222078E-03    0.1963222614E-02    0.4020688753E-02
    0.1300000000E+04    0.3238635795E-03    0.6947738467E+00    0.4595504119E-03    0.2495861198E-02    0.3970343531E-02
    0.1500000000E+04    0.4043597725E-03    0.6949334259E+00    0.5745280547E-03    0.3123077424E-02    0.3911958765E-02
    0.1700000000E+04    0.5002217300E-03    0.6950554580E+00    0.7115493880E-03    0.3871206697E-02    0.3843373949E-02
    0.1900000000E+04    0.6159707863E-03    0.6951517907E+00    0.8771209973E-03    0.4776025466E-02    0.3761702070E-02
    0.2100000000E+04    0.7578425191E-03    0.6952297621E+00    0.1080223653E-02    0.5886965847E-02    0.3663024885E-02
    0.2300000000E+04    0.9345560984E-03    0.6952941600E+00    0.1333428389E-02    0.7273304131E-02    0.3541963706E-02
    0.2500000000E+04    0.1158406149E-02    0.6953482411E+00    0.1654485462E-02    0.9033001591E-02    0.3391104563E-02
    0.2700000000E+04    0.1446675571E-02    0.6953942976E+00    0.2068393028E-02    0.1130428690E-01    0.3200335690E-02
    0.2900000000E+04    0.1822988539E-02    0.6954339896E+00    0.2609414521E-02    0.1427715698E-01    0.2956441356E-02
    0.3100000000E+04    0.2316987526E-02    0.6954685492E+00    0.3320744967E-02    0.1819229667E-01    0.2644118716E-02
    0.3300000000E+04    0.2957726817E-02    0.6954989096E+00    0.4245209727E-02    0.2329110639E-01    0.2251352286E-02
    0.3500000000E+04    0.3752576541E-02    0.6955257910E+00    0.5395087605E-02    0.2965077376E-01    0.1783548256E-02
    0.3700000000E+04    0.4651609636E-02    0.6955497576E+00    0.6700616928E-02    0.3689965568E-01    0.1283767164E-02
    0.3900000000E+04    0.5536675820E-02    0.6955712583E+00    0.7993151073E-02    0.4411820334E-01    0.8319232536E-03
    0.4100000000E+04    0.6287256962E-02    0.6955906540E+00    0.9098758348E-02    0.5034704966E-01    0.4965797432E-03
    0.4300000000E+04    0.6862132493E-02    0.6956082388E+00    0.9956244991E-02    0.5523900170E-01    0.2885350355E-03
    0.4500000000E+04    0.7293432524E-02    0.6956242542E+00    0.1061010422E-01    0.5902888649E-01    0.1750227416E-03
    0.4700000000E+04    0.7632103682E-02    0.6956389007E+00    0.1113269214E-01    0.6210926021E-01    0.1176656082E-03
    0.4900000000E+04    0.7917108944E-02    0.6956523463E+00    0.1157970367E-01    0.6478437648E-01    0.8984838458E-04
    0.1000000000E+04    0.2248728661E-03    0.6944148815E+00    0.3182651938E-03    0.1725995632E-02    0.4043377082E-02
    0.3000000000E+04    0.2053293349E-02    0.6954518468E+00    0.2940886700E-02    0.1610068303E-01    0.2809774467E-02
    0.5000000000E+04    0.8047240159E-02    0.6956586637E+00    0.1178598618E-01    0.6603090736E-01    0.8201793004E-04
    0.7000000000E+04    0.1012034401E-01    0.6957469340E+00    0.1522428698E-01    0.8767282935E-01    0.6581249691E-04
    0.9000000000E+04    0.1171044841E-01    0.6957957557E+00    0.1808020955E-01    0.1069055368E+00    0.6672952764E-04
    0.1100000000E+05    0.1294884340E-01    0.6958266812E+00    0.2050360451E-01    0.1243535988E+00    0.6747932051E-04
    0.1300000000E+05    0.1390972468E-01    0.6958479901E+00    0.2257287475E-01    0.1402972303E+00    0.6810971285E-04
    0.1500000000E+05    0.1464962939E-01    0.6958635414E+00    0.2434898344E-01    0.1549580535E+00    0.6865426263E-04
    0.1700000000E+05    0.1521221076E-01    0.6958753754E+00    0.2588002257E-01    0.1685139279E+00    0.6913403498E-04
    0.1900000000E+05    0.1563156080E-01    0.6958846716E+00    0.2720440773E-01    0.1811093782E+00    0.6956313656E-04
    0.2100000000E+05    0.1593457635E-01    0.6958921593E+00    0.2835317267E-01    0.1928631698E+00    0.6995148674E-04
    0.2300000000E+05    0.1614267135E-01    0.6958983132E+00    0.2935164454E-01    0.2038739026E+00    0.7030633128E-04
    0.2500000000E+05    0.1627303394E-01    0.6959034559E+00    0.3022068555E-01    0.2142242028E+00    0.7063312734E-04
    0.2700000000E+05    0.1633956162E-01    0.6959078138E+00    0.3097762590E-01    0.2239839048E+00    0.7093608946E-04
    0.2900000000E+05    0.1635356534E-01    0.6959115509E+00    0.3163697335E-01    0.2332124986E+00    0.7121854158E-04
    0.3100000000E+05    0.1632430546E-01    0.6959147884E+00    0.3221095940E-01    0.2419610305E+00    0.7148315239E-04
    0.3300000000E+05    0.1625940390E-01    0.6959176183E+00    0.3270996388E-01    0.2502735969E+00    0.7173209751E-04
    0.3500000000E+05    0.1616516397E-01    0.6959201111E+00    0.3314284850E-01    0.2581885289E+00    0.7196717444E-04
    0.3700000000E+05    0.1604682076E-01    0.6959223223E+00    0.3351722108E-01    0.2657393392E+00    0.7218988564E-04
    0.3900000000E+05    0.1590873869E-01    0.6959242957E+00    0.3383964670E-01    0.2729554864E+00    0.7240150006E-04
    0.4100000000E+05    0.1575456854E-01    0.6959260666E+00    0.3411581783E-01    0.2798629965E+00    0.7260309928E-04
    0.4300000000E+05    0.1558737316E-01    0.6959276638E+00    0.3435069227E-01    0.2864849711E+00    0.7279561283E-04
    0.4500000000E+05    0.1540972866E-01    0.6959291107E+00    0.3454860593E-01    0.2928420071E+00    0.7297984554E-04
    0.4700000000E+05    0.1522380644E-01    0.6959304270E+00    0.3471336548E-01    0.2989525438E+00    0.7315649895E-04
    0.4900000000E+05    0.1503144002E-01    0.6959316288E+00    0.3484832503E-01    0.3048331537E+00    0.7332618836E-04
    0.1000000000E+05    0.1236848930E-01    0.6958127825E+00    0.1934059779E-01    0.1158335457E+00    0.6712219131E-04
    0.3000000000E+05    0.1634383271E-01    0.6959132258E+00    0.3193394870E-01    0.2376438686E+00    0.7135293115E-04
    0.5000000000E+05    0.1493333450E-01    0.6959321911E+00    0.3490557014E-01    0.3076919653E+00    0.7340859366E-04
    0.7000000000E+05    0.1290128132E-01    0.6959398466E+00    0.3504976688E-01    0.3557600611E+00    0.7479466287E-04
    0.9000000000E+05    0.1104363887E-01    0.6959438348E+00    0.3415872167E-01    0.3916058648E+00    0.7584690881E-04
    0.1100000000E+06    0.9482129183E-02    0.6959462025E+00    0.3287407349E-01    0.4196672528E+00    0.7669769903E-04
    0.1300000000E+06    0.8196099676E-02    0.6959477226E+00    0.3146306957E-01    0.4423580708E+00    0.7741322191E-04
    0.1500000000E+06    0.7138722182E-02    0.6959487493E+00    0.3004557472E-01    0.4611437053E+00    0.7803144468E-04
    0.1700000000E+06    0.6265014486E-02    0.6959494666E+00    0.2867634716E-01    0.4769813582E+00    0.7857621318E-04
    0.1900000000E+06    0.5537731237E-02    0.6959499789E+00    0.2737925050E-01    0.4905297368E+00    0.7906350564E-04
    0.2100000000E+06    0.4927419535E-02    0.6959503497E+00    0.2616286852E-01    0.5022602036E+00    0.7950456243E-04
    0.2300000000E+06    0.4411115074E-02    0.6959506195E+00    0.2502810950E-01    0.5125205237E+00    0.7990759715E-04
    0.2500000000E+06    0.3970939464E-02    0.6959508153E+00    0.2397207927E-01    0.5215736840E+00    0.8027879756E-04
    0.2700000000E+06    0.3592917266E-02    0.6959509557E+00    0.2299011199E-01    0.5296226712E+00    0.8062294359E-04
    0.2900000000E+06    0.3266051952E-02    0.6959510539E+00    0.2207685056E-01    0.5368268978E+00    0.8094380577E-04
    0.3100000000E+06    0.2981624552E-02    0.6959511194E+00    0.2122682055E-01    0.5433134355E+00    0.8124441182E-04
    0.3300000000E+06    0.2732666463E-02    0.6959511594E+00    0.2043472793E-01    0.5491849016E+00    0.8152723044E-04
    0.3500000000E+06    0.2513563502E-02    0.6959511791E+00    0.1969560427E-01    0.5545251214E+00    0.8179430148E-04
    0.3700000000E+06    0.2319757471E-02    0.6959511826E+00    0.1900486710E-01    0.5594032717E+00    0.8204733017E-04
    0.3900000000E+06    0.2147519916E-02    0.6959511732E+00    0.1835833380E-01    0.5638769670E+00    0.8228775682E-04
    0.4100000000E+06    0.1993779434E-02    0.6959511532E+00    0.1775221044E-01    0.5679945904E+00    0.8251680919E-04
    0.4300000000E+06    0.1855988862E-02    0.6959511248E+00    0.1718306800E-01    0.5717970799E+00    0.8273554253E-04
    0.4500000000E+06    0.1732022368E-02    0.6959510893E+00    0.1664781319E-01    0.5753193131E+00    0.8294487053E-04
    0.4700000000E+06    0.1620095120E-02    0.6959510481E+00    0.1614365752E-01    0.5785911927E+00    0.8314558973E-04
    0.4900000000E+06    0.1518700103E-02    0.6959510023E+00    0.1566808722E-01    0.5816385051E+00    0.8333839874E-04
    0.1000000000E+06    0.1022591234E-01    0.6959451581E+00    0.3354389985E-01    0.4064287053E+00    0.7629242883E-04
    0.3000000000E+06    0.3119004886E-02    0.6959510902E+00    0.2164426897E-01    0.5401529662E+00    0.8109647515E-04
    0.5000000000E+06    0.1471544671E-02    0.6959509779E+00    0.1544030409E-01    0.5830850532E+00    0.8343203234E-04
    0.7000000000E+06    0.8543451358E-03    0.6959503862E+00    0.1194043981E-01    0.6043521570E+00    0.8500703433E-04
    0.9000000000E+06    0.5581559231E-03    0.6959497532E+00    0.9716395545E-02    0.6170478371E+00    0.8620277985E-04
    0.1100000000E+07    0.3934438713E-03    0.6959491549E+00    0.8183251955E-02    0.6254823209E+00    0.8716962737E-04
    0.1300000000E+07    0.2924317649E-03    0.6959486041E+00    0.7064061996E-02    0.6314911726E+00    0.8798277199E-04
    0.1500000000E+07    0.2260096807E-03    0.6959480992E+00    0.6211835903E-02    0.6359883611E+00    0.8868535105E-04
    0.1700000000E+07    0.1799892049E-03    0.6959476352E+00    0.5541588394E-02    0.6394800832E+00    0.8930445910E-04
    0.1900000000E+07    0.1467813541E-03    0.6959472070E+00    0.5000850615E-02    0.6422693159E+00    0.8985825191E-04
    0.2100000000E+07    0.1220269615E-03    0.6959468099E+00    0.4555509689E-02    0.6445484738E+00    0.9035950214E-04
    0.2300000000E+07    0.1030764630E-03    0.6959464400E+00    0.4182441670E-02    0.6464456132E+00    0.9081754324E-04
    0.2500000000E+07    0.8824367973E-04    0.6959460939E+00    0.3865423450E-02    0.6480492566E+00    0.9123940678E-04
    0.2700000000E+07    0.7641383667E-04    0.6959457688E+00    0.3592740881E-02    0.6494225512E+00    0.9163052456E-04
    0.2900000000E+07    0.6682585548E-04    0.6959454623E+00    0.3355726086E-02    0.6506117506E+00    0.9199518142E-04
    0.3100000000E+07    0.5894565847E-04    0.6959451724E+00    0.3147828869E-02    0.6516515084E+00    0.9233681806E-04
    0.3300000000E+07    0.5238944994E-04    0.6959448974E+00    0.2964007948E-02    0.6525682988E+00    0.9265823998E-04
    0.3500000000E+07    0.4687564344E-04    0.6959446359E+00    0.2800320590E-02    0.6533826950E+00    0.9296176530E-04
    0.3700000000E+07    0.4219382796E-04    0.6959443865E+00    0.2653639142E-02    0.6541109254E+00    0.9324933190E-04
    0.3900000000E+07    0.3818420219E-04    0.6959441482E+00    0.2521450965E-02    0.6547659632E+00    0.9352257661E-04
    0.4100000000E+07    0.3472362615E-04    0.6959439201E+00    0.2401714492E-02    0.6553583031E+00    0.9378289471E-04
    0.4300000000E+07    0.3171596281E-04    0.6959437012E+00    0.2292753880E-02    0.6558965261E+00    0.9403148543E-04
    0.4500000000E+07    0.2908526503E-04    0.6959434908E+00    0.2193180695E-02    0.6563877165E+00    0.9426938717E-04
    0.4700000000E+07    0.2677088803E-04    0.6959432884E+00    0.2101834892E-02    0.6568377744E+00    0.9449750513E-04
    0.4900000000E+07    0.2472392952E-04    0.6959430933E+00    0.2017739747E-02    0.6572516532E+00    0.9471663326E-04
    0.1000000000E+07    0.4649886680E-03    0.6959494484E+00    0.8885066996E-02    0.6216515304E+00    0.8670907082E-04
    0.3000000000E+07    0.6269912563E-04    0.6959453154E+00    0.3248482660E-02    0.6511484943E+00    0.9216868901E-04
    0.5000000000E+07    0.2378799955E-04    0.6959429983E+00    0.1978147340E-02    0.6574463603E+00    0.9482304823E-04
    0.7000000000E+07    0.1247976143E-04    0.6959413809E+00    0.1419449054E-02    0.6601842803E+00    0.9661304778E-04
    0.9000000000E+07    0.7690253421E-05    0.6959401327E+00    0.1105731938E-02    0.6617145219E+00    0.9797202290E-04
    0.1100000000E+08    0.5219005264E-05    0.6959391135E+00    0.9050109601E-03    0.6626913764E+00    0.9907085445E-04
    0.1300000000E+08    0.3777472901E-05    0.6959382507E+00    0.7656303958E-03    0.6633688976E+00    0.9999500153E-04
    0.1500000000E+08    0.2862951896E-05    0.6959375016E+00    0.6632384358E-03    0.6638663076E+00    0.1007934898E-03
    0.1700000000E+08    0.2246172617E-05    0.6959368390E+00    0.5848584990E-03    0.6642469539E+00    0.1014971125E-03
    0.1900000000E+08    0.1810355846E-05    0.6959362445E+00    0.5229442027E-03    0.6645476036E+00    0.1021265037E-03
    0.2100000000E+08    0.1490895344E-05    0.6959357051E+00    0.4728090948E-03    0.6647910588E+00    0.1026961797E-03
    0.2300000000E+08    0.1249675344E-05    0.6959352112E+00    0.4313896660E-03    0.6649922106E+00    0.1032167479E-03
    0.2500000000E+08    0.1063019839E-05    0.6959347554E+00    0.3965991032E-03    0.6651611953E+00    0.1036962000E-03
    0.2700000000E+08    0.9155876358E-06    0.6959343322E+00    0.3669669749E-03    0.6653051517E+00    0.1041407091E-03
