  Pressure (Pa) 23mC5-500 (mol/kg) 24mC5-500 (mol/kg) 2mC6-500 (mol/kg) 3mC6-500 (mol/kg) C7-500 (mol/kg)
    0.1000000000E+01    0.3432531033E-05    0.1950030448E+00    0.5203055170E-05    0.4082559751E-05    0.4145919404E-02
    0.3000000000E+01    0.6097041864E-05    0.3749169670E+00    0.8866659999E-05    0.1007263184E-04    0.4170307473E-02
    0.5000000000E+01    0.7185253792E-05    0.4597535268E+00    0.1042277473E-04    0.1550038481E-04    0.4176452763E-02
    0.7000000000E+01    0.7807299710E-05    0.5091280435E+00    0.1151468746E-04    0.2066155534E-04    0.4179212782E-02
    0.9000000000E+01    0.8254568606E-05    0.5414318235E+00    0.1249670246E-04    0.2565390254E-04    0.4180659249E-02
    0.1100000000E+02    0.8628480375E-05    0.5642131334E+00    0.1346525145E-04    0.3052582561E-04    0.4181447464E-02
    0.1300000000E+02    0.8970441081E-05    0.5811416723E+00    0.1444809473E-04    0.3530592151E-04    0.4181856825E-02
    0.1500000000E+02    0.9299106667E-05    0.5942161752E+00    0.1545186961E-04    0.4001292908E-04    0.4182027904E-02
    0.1700000000E+02    0.9623404050E-05    0.6046182880E+00    0.1647637367E-04    0.4466000100E-04    0.4182039480E-02
    0.1900000000E+02    0.9947734772E-05    0.6130913884E+00    0.1751932855E-04    0.4925683463E-04    0.4181939222E-02
    0.2100000000E+02    0.1027426637E-04    0.6201265354E+00    0.1857804690E-04    0.5381084976E-04    0.4181757686E-02
    0.2300000000E+02    0.1060401742E-04    0.6260611486E+00    0.1965000519E-04    0.5832789029E-04    0.4181515364E-02
    0.2500000000E+02    0.1093740052E-04    0.6311347371E+00    0.2073301231E-04    0.6281266743E-04    0.4181226507E-02
    0.2700000000E+02    0.1127450588E-04    0.6355220111E+00    0.2182522843E-04    0.6726905254E-04    0.4180901325E-02
    0.2900000000E+02    0.1161525405E-04    0.6393534079E+00    0.2292513188E-04    0.7170027826E-04    0.4180547319E-02
    0.3100000000E+02    0.1195948003E-04    0.6427282803E+00    0.2403147225E-04    0.7610908082E-04    0.4180170119E-02
    0.3300000000E+02    0.1230698022E-04    0.6457236356E+00    0.2514322421E-04    0.8049780362E-04    0.4179774025E-02
    0.3500000000E+02    0.1265753856E-04    0.6484000834E+00    0.2625954682E-04    0.8486847413E-04    0.4179362379E-02
    0.3700000000E+02    0.1301094099E-04    0.6508059796E+00    0.2737974945E-04    0.8922286224E-04    0.4178937811E-02
    0.3900000000E+02    0.1336698311E-04    0.6529803742E+00    0.2850326382E-04    0.9356252533E-04    0.4178502418E-02
    0.4100000000E+02    0.1372547392E-04    0.6549551470E+00    0.2962962141E-04    0.9788884345E-04    0.4178057887E-02
    0.4300000000E+02    0.1408623735E-04    0.6567565812E+00    0.3075843517E-04    0.1022030473E-03    0.4177605594E-02
    0.4500000000E+02    0.1444911243E-04    0.6584065400E+00    0.3188938489E-04    0.1065062409E-03    0.4177146666E-02
    0.4700000000E+02    0.1481395285E-04    0.6599233580E+00    0.3302220528E-04    0.1107994193E-03    0.4176682036E-02
    0.4900000000E+02    0.1518062599E-04    0.6613225255E+00    0.3415667641E-04    0.1150834842E-03    0.4176212482E-02
    0.1000000000E+02    0.8447325159E-05    0.5537286887E+00    0.1298014016E-04    0.2810282453E-04    0.4181113439E-02
    0.3000000000E+02    0.1178694451E-04    0.6410926534E+00    0.2347756630E-04    0.7390732777E-04    0.4180361323E-02
    0.5000000000E+02    0.1536461191E-04    0.6619821866E+00    0.3472447273E-04    0.1172223583E-03    0.4175976067E-02
    0.7000000000E+02    0.1911711459E-04    0.6713576274E+00    0.4613681717E-04    0.1596872674E-03    0.4171102532E-02
    0.9000000000E+02    0.2297068481E-04    0.6766818998E+00    0.5762779102E-04    0.2018604412E-03    0.4166093886E-02
    0.1100000000E+03    0.2689772643E-04    0.6801142718E+00    0.6919465156E-04    0.2440264357E-03    0.4161031290E-02
    0.1300000000E+03    0.3088765270E-04    0.6825109961E+00    0.8085081073E-04    0.2863597560E-03    0.4155936592E-02
    0.1500000000E+03    0.3493677997E-04    0.6842793517E+00    0.9261213652E-04    0.3289803784E-03    0.4150814097E-02
    0.1700000000E+03    0.3904452310E-04    0.6856378121E+00    0.1044938205E-03    0.3719776923E-03    0.4145662116E-02
    0.1900000000E+03    0.4321179926E-04    0.6867140901E+00    0.1165097796E-03    0.4154224668E-03    0.4140476822E-02
    0.2100000000E+03    0.4744029886E-04    0.6875878344E+00    0.1286727131E-03    0.4593734733E-03    0.4135253682E-02
    0.2300000000E+03    0.5173213115E-04    0.6883112962E+00    0.1409943109E-03    0.5038814387E-03    0.4129988019E-02
    0.2500000000E+03    0.5608964428E-04    0.6889201763E+00    0.1534854703E-03    0.5489915467E-03    0.4124675232E-02
    0.2700000000E+03    0.6051533169E-04    0.6894396973E+00    0.1661564856E-03    0.5947450988E-03    0.4119310870E-02
    0.2900000000E+03    0.6501178322E-04    0.6898881851E+00    0.1790172039E-03    0.6411806612E-03    0.4113890648E-02
    0.3100000000E+03    0.6958166034E-04    0.6902792751E+00    0.1920771521E-03    0.6883348850E-03    0.4108410433E-02
    0.3300000000E+03    0.7422768466E-04    0.6906233228E+00    0.2053456391E-03    0.7362431103E-03    0.4102866222E-02
    0.3500000000E+03    0.7895263394E-04    0.6909283338E+00    0.2188318408E-03    0.7849398248E-03    0.4097254121E-02
    0.3700000000E+03    0.8375934261E-04    0.6912005949E+00    0.2325448691E-03    0.8344590193E-03    0.4091570316E-02
    0.3900000000E+03    0.8865070460E-04    0.6914451116E+00    0.2464938306E-03    0.8848344724E-03    0.4085811055E-02
    0.4100000000E+03    0.9362967784E-04    0.6916659188E+00    0.2606878764E-03    0.9360999820E-03    0.4079972621E-02
    0.4300000000E+03    0.9869928956E-04    0.6918663054E+00    0.2751362455E-03    0.9882895591E-03    0.4074051320E-02
    0.4500000000E+03    0.1038626421E-03    0.6920489785E+00    0.2898483031E-03    0.1041437593E-02    0.4068043458E-02
    0.4700000000E+03    0.1091229192E-03    0.6922161874E+00    0.3048335746E-03    0.1095578997E-02    0.4061945331E-02
    0.4900000000E+03    0.1144833922E-03    0.6923698158E+00    0.3201017777E-03    0.1150749336E-02    0.4055753203E-02
    0.1000000000E+03    0.2492591593E-04    0.6785654052E+00    0.6340102670E-04    0.2229317359E-03    0.4163567318E-02
    0.3000000000E+03    0.6728737482E-04    0.6900901935E+00    0.1855216884E-03    0.6646657069E-03    0.4111158292E-02
    0.5000000000E+03    0.1172022501E-03    0.6924420439E+00    0.3278450750E-03    0.1178731677E-02    0.4052620713E-02
    0.7000000000E+03    0.1777320211E-03    0.6934547558E+00    0.5001748293E-03    0.1801925845E-02    0.3984069465E-02
    0.9000000000E+03    0.2530559663E-03    0.6940185691E+00    0.7146525961E-03    0.2578558153E-02    0.3901134251E-02
    0.1100000000E+04    0.3492767120E-03    0.6943777792E+00    0.9888174401E-03    0.3572613850E-02    0.3797843885E-02
    0.1300000000E+04    0.4757355854E-03    0.6946266391E+00    0.1349482284E-02    0.4882029777E-02    0.3665383368E-02
    0.1500000000E+04    0.6472159733E-03    0.6948092181E+00    0.1839115008E-02    0.6662168892E-02    0.3490230426E-02
    0.1700000000E+04    0.8875629088E-03    0.6949488773E+00    0.2526336113E-02    0.9164593007E-02    0.3251362240E-02
    0.1900000000E+04    0.1234625763E-02    0.6950591542E+00    0.3520390428E-02    0.1279105675E-01    0.2917186580E-02
    0.2100000000E+04    0.1741685906E-02    0.6951484351E+00    0.4975972268E-02    0.1811393063E-01    0.2447874090E-02
    0.2300000000E+04    0.2452604092E-02    0.6952221923E+00    0.7023295129E-02    0.2562588876E-01    0.1824578006E-02
    0.2500000000E+04    0.3313130773E-02    0.6952841487E+00    0.9513991848E-02    0.3481265035E-01    0.1130287082E-02
    0.2700000000E+04    0.4117127762E-02    0.6953369249E+00    0.1186134001E-01    0.4354816456E-01    0.5682146742E-03
    0.2900000000E+04    0.4706956625E-02    0.6953824192E+00    0.1360925599E-01    0.5015140597E-01    0.2518919079E-03
    0.3100000000E+04    0.5112582275E-02    0.6954220404E+00    0.1483731377E-01    0.5488908029E-01    0.1154858513E-03
    0.3300000000E+04    0.5419203696E-02    0.6954568558E+00    0.1578678077E-01    0.5863105933E-01    0.6414063697E-04
    0.3500000000E+04    0.5679894530E-02    0.6954876891E+00    0.1660905928E-01    0.6192753827E-01    0.4586365229E-04
    0.3700000000E+04    0.5918104507E-02    0.6955151858E+00    0.1737122981E-01    0.6502308108E-01    0.3951229242E-04
    0.3900000000E+04    0.6143118794E-02    0.6955398592E+00    0.1809981306E-01    0.6801430436E-01    0.3735438191E-04
    0.4100000000E+04    0.6358566718E-02    0.6955621224E+00    0.1880506855E-01    0.7093825098E-01    0.3666053630E-04
    0.4300000000E+04    0.6565947887E-02    0.6955823117E+00    0.1949111503E-01    0.7380939365E-01    0.3647672197E-04
    0.4500000000E+04    0.6765972111E-02    0.6956007036E+00    0.2015979218E-01    0.7663381553E-01    0.3646970119E-04
    0.4700000000E+04    0.6959054049E-02    0.6956175276E+00    0.2081209136E-01    0.7941448503E-01    0.3652282179E-04
    0.4900000000E+04    0.7145494235E-02    0.6956329758E+00    0.2144868097E-01    0.8215319902E-01    0.3659516699E-04
    0.1000000000E+04    0.2980665419E-03    0.6942160959E+00    0.8428743504E-03    0.3043298339E-02    0.3852499950E-02
    0.3000000000E+04    0.4927044220E-02    0.6954028906E+00    0.1427204724E-01    0.5269520954E-01    0.1679998413E-03
    0.5000000000E+04    0.7236303701E-02    0.6956402355E+00    0.2176125561E-01    0.8350725065E-01    0.3663360416E-04
    0.7000000000E+04    0.8756823532E-02    0.6957417862E+00    0.2729897212E-01    0.1086515803E+00    0.3732345790E-04
    0.9000000000E+04    0.9827668051E-02    0.6957980919E+00    0.3171504547E-01    0.1306699148E+00    0.3784994624E-04
    0.1100000000E+05    0.1057343268E-01    0.6958338471E+00    0.3527590307E-01    0.1502034712E+00    0.3827539207E-04
    0.1300000000E+05    0.1108049327E-01    0.6958585462E+00    0.3817189522E-01    0.1677219569E+00    0.3863306391E-04
    0.1500000000E+05    0.1141008295E-01    0.6958766180E+00    0.4054239299E-01    0.1835779680E+00    0.3894201862E-04
    0.1700000000E+05    0.1160644182E-01    0.6958904056E+00    0.4249161557E-01    0.1980418333E+00    0.3921421373E-04
    0.1900000000E+05    0.1170205596E-01    0.6959012650E+00    0.4409894055E-01    0.2113246748E+00    0.3945765599E-04
    0.2100000000E+05    0.1172111583E-01    0.6959100350E+00    0.4542580772E-01    0.2235940865E+00    0.3967797508E-04
    0.2300000000E+05    0.1168185271E-01    0.6959172624E+00    0.4652045512E-01    0.2349850524E+00    0.3987928303E-04
    0.2500000000E+05    0.1159815000E-01    0.6959233185E+00    0.4742123861E-01    0.2456077115E+00    0.4006467666E-04
    0.2700000000E+05    0.1148067485E-01    0.6959284648E+00    0.4815900367E-01    0.2555529850E+00    0.4023654757E-04
    0.2900000000E+05    0.1133768583E-01    0.6959328902E+00    0.4875880949E-01    0.2648967257E+00    0.4039678189E-04
    0.3100000000E+05    0.1117561804E-01    0.6959367349E+00    0.4924120186E-01    0.2737028232E+00    0.4054689388E-04
    0.3300000000E+05    0.1099951249E-01    0.6959401051E+00    0.4962316642E-01    0.2820255619E+00    0.4068811803E-04
    0.3500000000E+05    0.1081333500E-01    0.6959430825E+00    0.4991885164E-01    0.2899114339E+00    0.4082147422E-04
    0.3700000000E+05    0.1062021569E-01    0.6959457312E+00    0.5014012386E-01    0.2974005492E+00    0.4094781495E-04
    0.3900000000E+05    0.1042263049E-01    0.6959481021E+00    0.5029699784E-01    0.3045277451E+00    0.4106786017E-04
    0.4100000000E+05    0.1022254009E-01    0.6959502361E+00    0.5039797420E-01    0.3113234667E+00    0.4118222355E-04
    0.4300000000E+05    0.1002149706E-01    0.6959521666E+00    0.5045030638E-01    0.3178144737E+00    0.4129143247E-04
    0.4500000000E+05    0.9820729125E-02    0.6959539208E+00    0.5046021349E-01    0.3240244108E+00    0.4139594356E-04
    0.4700000000E+05    0.9621204349E-02    0.6959555215E+00    0.5043305157E-01    0.3299742732E+00    0.4149615483E-04
    0.4900000000E+05    0.9423682452E-02    0.6959569876E+00    0.5037345221E-01    0.3356827892E+00    0.4159241537E-04
    0.1000000000E+05    0.1023507507E-01    0.6958177668E+00    0.3358904810E-01    0.1407146724E+00    0.3807275641E-04
    0.3000000000E+05    0.1125869324E-01    0.6959348778E+00    0.4901354674E-01    0.2693633854E+00    0.4047302033E-04
    0.5000000000E+05    0.9325863209E-02    0.6959576752E+00    0.5033276606E-01    0.3384518537E+00    0.4163916176E-04
    0.7000000000E+05    0.7559639468E-02    0.6959671802E+00    0.4855477890E-01    0.3844487921E+00    0.4242543679E-04
    0.9000000000E+05    0.6184374777E-02    0.6959723115E+00    0.4598465525E-01    0.4181155219E+00    0.4302233824E-04
    0.1100000000E+06    0.5132100007E-02    0.6959754807E+00    0.4330506962E-01    0.4441339367E+00    0.4350495858E-04
    0.1300000000E+06    0.4319699947E-02    0.6959776075E+00    0.4074371518E-01    0.4649783996E+00    0.4391084576E-04
    0.1500000000E+06    0.3683047194E-02    0.6959791172E+00    0.3837306845E-01    0.4821175859E+00    0.4426153783E-04
    0.1700000000E+06    0.3176274658E-02    0.6959802333E+00    0.3620729407E-01    0.4964931153E+00    0.4457056195E-04
    0.1900000000E+06    0.2766907601E-02    0.6959810838E+00    0.3423813297E-01    0.5087429176E+00    0.4484698208E-04
    0.2100000000E+06    0.2431759902E-02    0.6959817474E+00    0.3244931341E-01    0.5193175387E+00    0.4509717454E-04
    0.2300000000E+06    0.2154040921E-02    0.6959822749E+00    0.3082257151E-01    0.5285457507E+00    0.4532579861E-04
    0.2500000000E+06    0.1921399816E-02    0.6959827004E+00    0.2934015701E-01    0.5366738964E+00    0.4553636440E-04
    0.2700000000E+06    0.1724610061E-02    0.6959830479E+00    0.2798580240E-01    0.5438906504E+00    0.4573158337E-04
    0.2900000000E+06    0.1556677377E-02    0.6959833345E+00    0.2674500797E-01    0.5503432249E+00    0.4591359440E-04
    0.3100000000E+06    0.1412226860E-02    0.6959835728E+00    0.2560502651E-01    0.5561483244E+00    0.4608411501E-04
    0.3300000000E+06    0.1287075701E-02    0.6959837721E+00    0.2455472476E-01    0.5613997590E+00    0.4624454557E-04
    0.3500000000E+06    0.1177930837E-02    0.6959839397E+00    0.2358440390E-01    0.5661738592E+00    0.4639604322E-04
    0.3700000000E+06    0.1082171889E-02    0.6959840812E+00    0.2268561666E-01    0.5705334072E+00    0.4653957527E-04
    0.3900000000E+06    0.9976931750E-03    0.6959842010E+00    0.2185099733E-01    0.5745305434E+00    0.4667595873E-04
    0.4100000000E+06    0.9227872187E-03    0.6959843027E+00    0.2107411046E-01    0.5782089483E+00    0.4680589007E-04
    0.4300000000E+06    0.8560578103E-03    0.6959843889E+00    0.2034931941E-01    0.5816055044E+00    0.4692996787E-04
    0.4500000000E+06    0.7963543842E-03    0.6959844620E+00    0.1967167350E-01    0.5847515787E+00    0.4704871046E-04
    0.4700000000E+06    0.7427219588E-03    0.6959845240E+00    0.1903681182E-01    0.5876740231E+00    0.4716256965E-04
    0.4900000000E+06    0.6943625708E-03    0.6959845763E+00    0.1844088154E-01    0.5903959634E+00    0.4727194174E-04
    0.1000000000E+06    0.5623426082E-02    0.6959740664E+00    0.4463877738E-01    0.4318939768E+00    0.4327506473E-04
    0.3000000000E+06    0.1481802174E-02    0.6959834590E+00    0.2616314724E-01    0.5533203814E+00    0.4600019704E-04
    0.5000000000E+06    0.6719463176E-03    0.6959845993E+00    0.1815643331E-01    0.5916881098E+00    0.4732505598E-04
    0.7000000000E+06    0.3830738773E-03    0.6959847779E+00    0.1385955519E-01    0.6106951085E+00    0.4821848595E-04
    0.9000000000E+06    0.2476746643E-03    0.6959847034E+00    0.1119327010E-01    0.6220581005E+00    0.4889678084E-04
    0.1100000000E+07    0.1734160102E-03    0.6959845440E+00    0.9380791133E-02    0.6296179031E+00    0.4944523222E-04
    0.1300000000E+07    0.1282904777E-03    0.6959843555E+00    0.8069817947E-02    0.6350100514E+00    0.4990649484E-04
    0.1500000000E+07    0.9880932419E-04    0.6959841592E+00    0.7078050572E-02    0.6390496419E+00    0.5030503856E-04
    0.1700000000E+07    0.7848193118E-04    0.6959839645E+00    0.6301847105E-02    0.6421886052E+00    0.5065623288E-04
    0.1900000000E+07    0.6386878257E-04    0.6959837752E+00    0.5677984335E-02    0.6446977274E+00    0.5097037675E-04
    0.2100000000E+07    0.5300808272E-04    0.6959835930E+00    0.5165726413E-02    0.6467491484E+00    0.5125471552E-04
    0.2300000000E+07    0.4471401053E-04    0.6959834183E+00    0.4737653246E-02    0.6484575324E+00    0.5151454364E-04
    0.2500000000E+07    0.3823527462E-04    0.6959832513E+00    0.4374635696E-02    0.6499022061E+00    0.5175384981E-04
    0.2700000000E+07    0.3307700208E-04    0.6959830915E+00    0.4062924882E-02    0.6511397967E+00    0.5197571524E-04
    0.2900000000E+07    0.2890237423E-04    0.6959829387E+00    0.3792386458E-02    0.6522118078E+00    0.5218257052E-04
    0.3100000000E+07    0.2547565190E-04    0.6959827924E+00    0.3555387008E-02    0.6531493512E+00    0.5237636743E-04
    0.3300000000E+07    0.2262781184E-04    0.6959826521E+00    0.3346068018E-02    0.6539762076E+00    0.5255869739E-04
    0.3500000000E+07    0.2023508710E-04    0.6959825175E+00    0.3159858736E-02    0.6547108648E+00    0.5273087536E-04
    0.3700000000E+07    0.1820515423E-04    0.6959823881E+00    0.2993141048E-02    0.6553679124E+00    0.5289400063E-04
    0.3900000000E+07    0.1646800314E-04    0.6959822637E+00    0.2843013765E-02    0.6559590177E+00    0.5304900171E-04
    0.4100000000E+07    0.1496975867E-04    0.6959821438E+00    0.2707123564E-02    0.6564936222E+00    0.5319667006E-04
    0.4300000000E+07    0.1366841107E-04    0.6959820281E+00    0.2583541591E-02    0.6569794480E+00    0.5333768596E-04
    0.4500000000E+07    0.1253080965E-04    0.6959819164E+00    0.2470671955E-02    0.6574228721E+00    0.5347263845E-04
    0.4700000000E+07    0.1153050953E-04    0.6959818084E+00    0.2367182906E-02    0.6578292069E+00    0.5360204100E-04
    0.4900000000E+07    0.1064620564E-04    0.6959817040E+00    0.2271954404E-02    0.6582029135E+00    0.5372634401E-04
    0.1000000000E+07    0.2055730532E-03    0.6959846296E+00    0.1020802069E-01    0.6261831597E+00    0.4918397807E-04
    0.3000000000E+07    0.2710735407E-04    0.6959828648E+00    0.3670095502E-02    0.6526957576E+00    0.5228099448E-04
    0.5000000000E+07    0.1024200922E-04    0.6959816529E+00    0.2227135588E-02    0.6583787336E+00    0.5378670916E-04
    0.7000000000E+07    0.5365622419E-05    0.6959807722E+00    0.1595717314E-02    0.6608518301E+00    0.5480210857E-04
    0.9000000000E+07    0.3304901944E-05    0.6959800798E+00    0.1242002433E-02    0.6622346098E+00    0.5557300530E-04
    0.1100000000E+08    0.2242923237E-05    0.6959795083E+00    0.1016001931E-02    0.6631174850E+00    0.5619633293E-04
    0.1300000000E+08    0.1623894758E-05    0.6959790208E+00    0.8592094723E-03    0.6637298703E+00    0.5672056888E-04
    0.1500000000E+08    0.1231350012E-05    0.6959785953E+00    0.7441003518E-03    0.6641794705E+00    0.5717352347E-04
    0.1700000000E+08    0.9666756547E-06    0.6959782174E+00    0.6560278213E-03    0.6645235279E+00    0.5757266439E-04
    0.1900000000E+08    0.7796826641E-06    0.6959778772E+00    0.5864829683E-03    0.6647952720E+00    0.5792969659E-04
    0.2100000000E+08    0.6426210472E-06    0.6959775676E+00    0.5301857318E-03    0.6650153134E+00    0.5825285457E-04
    0.2300000000E+08    0.5391263858E-06    0.6959772834E+00    0.4836867004E-03    0.6651971128E+00    0.5854815558E-04
    0.2500000000E+08    0.4590372123E-06    0.6959770206E+00    0.4446373704E-03    0.6653498335E+00    0.5882013286E-04
    0.2700000000E+08    0.3957710024E-06    0.6959767761E+00    0.4113836022E-03    0.6654799291E+00    0.5907228830E-04
