  Pressure (Pa) 23mC5-500 (mol/kg) 24mC5-500 (mol/kg) 2mC6-500 (mol/kg) 3mC6-500 (mol/kg) C7-500 (mol/kg)
    0.1000000000E+01    0.4590155752E-05    0.3665996961E-01    0.7008806006E-05    0.5603316434E-05    0.4197448532E-02
    0.3000000000E+01    0.1210779720E-04    0.9948570857E-01    0.1809283970E-04    0.1433648519E-04    0.4265609046E-02
    0.5000000000E+01    0.1804073659E-04    0.1513664688E+00    0.2654029707E-04    0.2237595548E-04    0.4319242494E-02
    0.7000000000E+01    0.2281479263E-04    0.1949333856E+00    0.3312093529E-04    0.3008375641E-04    0.4364082389E-02
    0.9000000000E+01    0.2671628317E-04    0.2320367869E+00    0.3833732404E-04    0.3758199794E-04    0.4402291604E-02
    0.1100000000E+02    0.2994703817E-04    0.2640158286E+00    0.4253630951E-04    0.4493176539E-04    0.4435284090E-02
    0.1300000000E+02    0.3265341024E-04    0.2918636128E+00    0.4596441579E-04    0.5216940680E-04    0.4464078038E-02
    0.1500000000E+02    0.3494390602E-04    0.3163321864E+00    0.4880077501E-04    0.5931886780E-04    0.4489436111E-02
    0.1700000000E+02    0.3690048564E-04    0.3380014972E+00    0.5117793326E-04    0.6639702852E-04    0.4511943844E-02
    0.1900000000E+02    0.3858605988E-04    0.3573259590E+00    0.5319549232E-04    0.7341638028E-04    0.4532059275E-02
    0.2100000000E+02    0.4004960171E-04    0.3746666754E+00    0.5492930668E-04    0.8038651145E-04    0.4550146293E-02
    0.2300000000E+02    0.4132971161E-04    0.3903142207E+00    0.5643782748E-04    0.8731499611E-04    0.4566497852E-02
    0.2500000000E+02    0.4245715415E-04    0.4045050583E+00    0.5776656488E-04    0.9420795683E-04    0.4581352568E-02
    0.2700000000E+02    0.4345669432E-04    0.4174335765E+00    0.5895128109E-04    0.1010704378E-03    0.4594906830E-02
    0.2900000000E+02    0.4434844781E-04    0.4292610482E+00    0.6002031018E-04    0.1079066616E-03    0.4607323790E-02
    0.3100000000E+02    0.4514888783E-04    0.4401223948E+00    0.6099626642E-04    0.1147202111E-03    0.4618740143E-02
    0.3300000000E+02    0.4587160545E-04    0.4501313577E+00    0.6189731807E-04    0.1215141624E-03    0.4629271300E-02
    0.3500000000E+02    0.4652789044E-04    0.4593844971E+00    0.6273814770E-04    0.1282911834E-03    0.4639015398E-02
    0.3700000000E+02    0.4712717967E-04    0.4679643184E+00    0.6353068356E-04    0.1350536091E-03    0.4648056427E-02
    0.3900000000E+02    0.4767740673E-04    0.4759417396E+00    0.6428466197E-04    0.1418034992E-03    0.4656466697E-02
    0.4100000000E+02    0.4818527684E-04    0.4833780566E+00    0.6500806328E-04    0.1485426837E-03    0.4664308818E-02
    0.4300000000E+02    0.4865648496E-04    0.4903265217E+00    0.6570745271E-04    0.1552727993E-03    0.4671637272E-02
    0.4500000000E+02    0.4909589008E-04    0.4968336211E+00    0.6638824864E-04    0.1619953178E-03    0.4678499702E-02
    0.4700000000E+02    0.4950765546E-04    0.5029401162E+00    0.6705493529E-04    0.1687115702E-03    0.4684937954E-02
    0.4900000000E+02    0.4989536235E-04    0.5086818989E+00    0.6771123241E-04    0.1754227660E-03    0.4690988940E-02
    0.1000000000E+02    0.2840530128E-04    0.2485981237E+00    0.4054669495E-04    0.4127278605E-04    0.4419369106E-02
    0.3000000000E+02    0.4475917256E-04    0.4348049336E+00    0.6051869523E-04    0.1113160678E-03    0.4613149382E-02
    0.5000000000E+02    0.5008117702E-04    0.5114260842E+00    0.6803647234E-04    0.1787768163E-03    0.4693879570E-02
    0.7000000000E+02    0.5309676871E-04    0.5532088006E+00    0.7451589264E-04    0.2458171982E-03    0.4737610536E-02
    0.9000000000E+02    0.5555316939E-04    0.5795130705E+00    0.8150213923E-04    0.3132007487E-03    0.4764400622E-02
    0.1100000000E+03    0.5794504612E-04    0.5975958357E+00    0.8919656043E-04    0.3813358004E-03    0.4781904117E-02
    0.1300000000E+03    0.6043633146E-04    0.6107906212E+00    0.9756324703E-04    0.4504890124E-03    0.4793696734E-02
    0.1500000000E+03    0.6308418088E-04    0.6208433275E+00    0.1065335233E-03    0.5208580723E-03    0.4801680849E-02
    0.1700000000E+03    0.6590726355E-04    0.6287568345E+00    0.1160474472E-03    0.5926031785E-03    0.4806965074E-02
    0.1900000000E+03    0.6890976638E-04    0.6351482642E+00    0.1260600589E-03    0.6658628716E-03    0.4810240404E-02
    0.2100000000E+03    0.7209063739E-04    0.6404181887E+00    0.1365398555E-03    0.7407628841E-03    0.4811960278E-02
    0.2300000000E+03    0.7544734116E-04    0.6448379558E+00    0.1474660442E-03    0.8174215066E-03    0.4812434477E-02
    0.2500000000E+03    0.7897741218E-04    0.6485979098E+00    0.1588261039E-03    0.8959530699E-03    0.4811881496E-02
    0.2700000000E+03    0.8267907899E-04    0.6518355194E+00    0.1706139056E-03    0.9764703416E-03    0.4810459402E-02
    0.2900000000E+03    0.8655148566E-04    0.6546525458E+00    0.1828283296E-03    0.1059086269E-02    0.4808284843E-02
    0.3100000000E+03    0.9059473946E-04    0.6571259295E+00    0.1954722663E-03    0.1143915314E-02    0.4805445213E-02
    0.3300000000E+03    0.9480988703E-04    0.6593149230E+00    0.2085518996E-03    0.1231074527E-02    0.4802006691E-02
    0.3500000000E+03    0.9919886578E-04    0.6612658975E+00    0.2220761951E-03    0.1320684454E-02    0.4798019698E-02
    0.3700000000E+03    0.1037644516E-03    0.6630156627E+00    0.2360565376E-03    0.1412869936E-02    0.4793522698E-02
    0.3900000000E+03    0.1085102117E-03    0.6645938107E+00    0.2505064785E-03    0.1507760842E-02    0.4788544887E-02
    0.4100000000E+03    0.1134404673E-03    0.6660244019E+00    0.2654415649E-03    0.1605492762E-02    0.4783108141E-02
    0.4300000000E+03    0.1185602648E-03    0.6673272005E+00    0.2808792302E-03    0.1706207690E-02    0.4777228446E-02
    0.4500000000E+03    0.1238753583E-03    0.6685185916E+00    0.2968387327E-03    0.1810054700E-02    0.4770916953E-02
    0.4700000000E+03    0.1293922006E-03    0.6696122745E+00    0.3133411326E-03    0.1917190635E-02    0.4764180774E-02
    0.4900000000E+03    0.1351179426E-03    0.6706197908E+00    0.3304092993E-03    0.2027780824E-02    0.4757023581E-02
    0.1000000000E+03    0.5674305690E-04    0.5893208152E+00    0.8526130427E-04    0.3471555092E-03    0.4774034144E-02
    0.3000000000E+03    0.8855171276E-04    0.6559281403E+00    0.1890962927E-03    0.1101216908E-02    0.4806943602E-02
    0.5000000000E+03    0.1380615783E-03    0.6710943559E+00    0.3391631943E-03    0.2084425433E-02    0.4753287425E-02
    0.7000000000E+03    0.2102876304E-03    0.6778079998E+00    0.5512349600E-03    0.3448357272E-02    0.4655239557E-02
    0.9000000000E+03    0.3185458226E-03    0.6815941830E+00    0.8650182177E-03    0.5456982417E-02    0.4501102931E-02
    0.1100000000E+04    0.4904865447E-03    0.6840242900E+00    0.1360809072E-02    0.8628920808E-02    0.4255696064E-02
    0.1300000000E+04    0.7840441616E-03    0.6857158318E+00    0.2206277128E-02    0.1404529265E-01    0.3845332873E-02
    0.1500000000E+04    0.1309826053E-02    0.6869608458E+00    0.3723015708E-02    0.2379092668E-01    0.3141603145E-02
    0.1700000000E+04    0.2145140188E-02    0.6879153568E+00    0.6144705521E-02    0.3944009335E-01    0.2112426353E-02
    0.1900000000E+04    0.2965324696E-02    0.6886702972E+00    0.8551167529E-02    0.5518417511E-01    0.1270656465E-02
    0.2100000000E+04    0.3448465154E-02    0.6892822437E+00    0.1000785018E-01    0.6497374875E-01    0.9617972983E-03
    0.2300000000E+04    0.3746447311E-02    0.6897882405E+00    0.1094064359E-01    0.7146731819E-01    0.8944023344E-03
    0.2500000000E+04    0.3986690726E-02    0.6902135580E+00    0.1171405506E-01    0.7698966606E-01    0.8844237853E-03
    0.2700000000E+04    0.4205198452E-02    0.6905760255E+00    0.1243143532E-01    0.8220272551E-01    0.8857070434E-03
    0.2900000000E+04    0.4410331325E-02    0.6908885816E+00    0.1311651417E-01    0.8725702495E-01    0.8889545831E-03
    0.3100000000E+04    0.4604288619E-02    0.6911608435E+00    0.1377518753E-01    0.9218793175E-01    0.8923868629E-03
    0.3300000000E+04    0.4787956370E-02    0.6914001082E+00    0.1440955404E-01    0.9700628366E-01    0.8956822434E-03
    0.3500000000E+04    0.4961923886E-02    0.6916120123E+00    0.1502087421E-01    0.1017176057E+00    0.8987981362E-03
    0.3700000000E+04    0.5126695485E-02    0.6918009787E+00    0.1561018881E-01    0.1063261420E+00    0.9017432149E-03
    0.3900000000E+04    0.5282735861E-02    0.6919705263E+00    0.1617845065E-01    0.1108357107E+00    0.9045335766E-03
    0.4100000000E+04    0.5430480952E-02    0.6921234900E+00    0.1672655478E-01    0.1152498946E+00    0.9071846213E-03
    0.4300000000E+04    0.5570341540E-02    0.6922621789E+00    0.1725534747E-01    0.1195720896E+00    0.9097098485E-03
    0.4500000000E+04    0.5702705245E-02    0.6923884931E+00    0.1776563037E-01    0.1238055244E+00    0.9121209370E-03
    0.4700000000E+04    0.5827938085E-02    0.6925040097E+00    0.1825816357E-01    0.1279532719E+00    0.9144280142E-03
    0.4900000000E+04    0.5946385871E-02    0.6926100495E+00    0.1873366821E-01    0.1320182588E+00    0.9166399106E-03
    0.1000000000E+04    0.3939230494E-03    0.6829287763E+00    0.1082545100E-02    0.6848461967E-02    0.4393219427E-02
    0.3000000000E+04    0.4508639595E-02    0.6910292479E+00    0.1344898615E-01    0.8973700557E-01    0.8906797829E-03
    0.5000000000E+04    0.6003168227E-02    0.6926598706E+00    0.1896525014E-01    0.1340205939E+00    0.9177126236E-03
    0.7000000000E+04    0.6853104761E-02    0.6933555695E+00    0.2285204362E-01    0.1703354075E+00    0.9356341167E-03
    0.9000000000E+04    0.7303911713E-02    0.6937395466E+00    0.2563524256E-01    0.2008661361E+00    0.9491168739E-03
    0.1100000000E+05    0.7501802906E-02    0.6939820891E+00    0.2764457466E-01    0.2270392267E+00    0.9599611545E-03
    0.1300000000E+05    0.7537187587E-02    0.6941486768E+00    0.2909609042E-01    0.2498291962E+00    0.9690500778E-03
    0.1500000000E+05    0.7467640139E-02    0.6942698329E+00    0.3013651100E-01    0.2699268498E+00    0.9768841550E-03
    0.1700000000E+05    0.7330685272E-02    0.6943616915E+00    0.3086847768E-01    0.2878372816E+00    0.9837751371E-03
    0.1900000000E+05    0.7151223177E-02    0.6944335761E+00    0.3136560676E-01    0.3039396463E+00    0.9899306485E-03
    0.2100000000E+05    0.6945999153E-02    0.6944912469E+00    0.3168182440E-01    0.3185250625E+00    0.9954960713E-03
    0.2300000000E+05    0.6726377266E-02    0.6945384520E+00    0.3185735261E-01    0.3318214687E+00    0.1000577250E-02
    0.2500000000E+05    0.6500106948E-02    0.6945777345E+00    0.3192266126E-01    0.3440104065E+00    0.1005253687E-02
    0.2700000000E+05    0.6272473634E-02    0.6946108797E+00    0.3190114452E-01    0.3552386473E+00    0.1009586645E-02
    0.2900000000E+05    0.6047062837E-02    0.6946391774E+00    0.3181097451E-01    0.3656264326E+00    0.1013624354E-02
    0.3100000000E+05    0.5826276085E-02    0.6946635820E+00    0.3166641087E-01    0.3752734347E+00    0.1017405470E-02
    0.3300000000E+05    0.5611684376E-02    0.6946848147E+00    0.3147874252E-01    0.3842631459E+00    0.1020961467E-02
    0.3500000000E+05    0.5404273374E-02    0.6947034305E+00    0.3125697564E-01    0.3926661663E+00    0.1024318319E-02
    0.3700000000E+05    0.5204615330E-02    0.6947198633E+00    0.3100834353E-01    0.4005427018E+00    0.1027497712E-02
    0.3900000000E+05    0.5012990719E-02    0.6947344569E+00    0.3073868937E-01    0.4079444892E+00    0.1030517944E-02
    0.4100000000E+05    0.4829474954E-02    0.6947474874E+00    0.3045275689E-01    0.4149162969E+00    0.1033394601E-02
    0.4300000000E+05    0.4654000578E-02    0.6947591789E+00    0.3015441350E-01    0.4214971100E+00    0.1036141066E-02
    0.4500000000E+05    0.4486402056E-02    0.6947697152E+00    0.2984682319E-01    0.4277210733E+00    0.1038768920E-02
    0.4700000000E+05    0.4326448152E-02    0.6947792484E+00    0.2953258175E-01    0.4336182521E+00    0.1041288252E-02
    0.4900000000E+05    0.4173865331E-02    0.6947879052E+00    0.2921382332E-01    0.4392152482E+00    0.1043707904E-02
    0.1000000000E+05    0.7427849005E-02    0.6938731757E+00    0.2672111840E-01    0.2144283113E+00    0.9548010748E-03
    0.3000000000E+05    0.5935977104E-02    0.6946518167E+00    0.3174472579E-01    0.3705369771E+00    0.1015544873E-02
    0.5000000000E+05    0.4100245302E-02    0.6947919390E+00    0.2905331212E-01    0.4419086701E+00    0.1044882823E-02
    0.7000000000E+05    0.2940023710E-02    0.6948453463E+00    0.2589567988E-01    0.4845800445E+00    0.1064634694E-02
    0.9000000000E+05    0.2198863590E-02    0.6948712839E+00    0.2312132713E-01    0.5133355408E+00    0.1079618961E-02
    0.1100000000E+06    0.1703330956E-02    0.6948853861E+00    0.2079495025E-01    0.5341382803E+00    0.1091729491E-02
    0.1300000000E+06    0.1357405718E-02    0.6948934678E+00    0.1885308891E-01    0.5499272865E+00    0.1101911829E-02
    0.1500000000E+06    0.1106911556E-02    0.6948981500E+00    0.1722156656E-01    0.5623375152E+00    0.1110707850E-02
    0.1700000000E+06    0.9198934238E-03    0.6949007713E+00    0.1583765078E-01    0.5723568944E+00    0.1118457663E-02
    0.1900000000E+06    0.7766464462E-03    0.6949020781E+00    0.1465201346E-01    0.5806198056E+00    0.1125389059E-02
    0.2100000000E+06    0.6645262195E-03    0.6949025145E+00    0.1362654993E-01    0.5875531763E+00    0.1131662225E-02
    0.2300000000E+06    0.5751322718E-03    0.6949023588E+00    0.1273181619E-01    0.5934552951E+00    0.1137394180E-02
    0.2500000000E+06    0.5027127924E-03    0.6949017919E+00    0.1194489809E-01    0.5985410748E+00    0.1142673062E-02
    0.2700000000E+06    0.4432247160E-03    0.6949009358E+00    0.1124779021E-01    0.6029693880E+00    0.1147566943E-02
    0.2900000000E+06    0.3937599728E-03    0.6948998746E+00    0.1062619640E-01    0.6068602735E+00    0.1152129511E-02
    0.3100000000E+06    0.3521840426E-03    0.6948986676E+00    0.1006864756E-01    0.6103061515E+00    0.1156403872E-02
    0.3300000000E+06    0.3169017804E-03    0.6948973575E+00    0.9565850709E-02    0.6133793544E+00    0.1160425170E-02
    0.3500000000E+06    0.2867018560E-03    0.6948959754E+00    0.9110205146E-02    0.6161373145E+00    0.1164222439E-02
    0.3700000000E+06    0.2606510777E-03    0.6948945443E+00    0.8695439498E-02    0.6186262205E+00    0.1167819949E-02
    0.3900000000E+06    0.2380211431E-03    0.6948930814E+00    0.8316336767E-02    0.6208836452E+00    0.1171238198E-02
    0.4100000000E+06    0.2182369346E-03    0.6948915994E+00    0.7968523965E-02    0.6229404679E+00    0.1174494658E-02
    0.4300000000E+06    0.2008394159E-03    0.6948901082E+00    0.7648309594E-02    0.6248223032E+00    0.1177604345E-02
    0.4500000000E+06    0.1854586032E-03    0.6948886151E+00    0.7352556914E-02    0.6265505791E+00    0.1180580259E-02
    0.4700000000E+06    0.1717936029E-03    0.6948871258E+00    0.7078584235E-02    0.6281433591E+00    0.1183433734E-02
    0.4900000000E+06    0.1595976813E-03    0.6948856445E+00    0.6824085801E-02    0.6296159783E+00    0.1186174710E-02
    0.1000000000E+06    0.1927703490E-02    0.6948793378E+00    0.2190529917E-01    0.5245047677E+00    0.1085961176E-02
    0.3000000000E+06    0.3720961229E-03    0.6948992863E+00    0.1034004182E-01    0.6086339167E+00    0.1154300359E-02
    0.5000000000E+06    0.1539854923E-03    0.6948849080E+00    0.6703505837E-02    0.6303113985E+00    0.1187505791E-02
    0.7000000000E+06    0.8412994695E-04    0.6948710556E+00    0.4948568204E-02    0.6402738071E+00    0.1209894345E-02
    0.9000000000E+06    0.5312834333E-04    0.6948590575E+00    0.3917726257E-02    0.6459970106E+00    0.1226890213E-02
    0.1100000000E+07    0.3667874536E-04    0.6948486578E+00    0.3240243408E-02    0.6497113864E+00    0.1240631754E-02
    0.1300000000E+07    0.2690054212E-04    0.6948395264E+00    0.2761326086E-02    0.6523162422E+00    0.1252188220E-02
    0.1500000000E+07    0.2061121459E-04    0.6948314015E+00    0.2404988527E-02    0.6542438655E+00    0.1262172952E-02
    0.1700000000E+07    0.1632429688E-04    0.6948240879E+00    0.2129593415E-02    0.6557278328E+00    0.1270971163E-02
    0.1900000000E+07    0.1326923755E-04    0.6948174392E+00    0.1910425484E-02    0.6569054086E+00    0.1278840967E-02
    0.2100000000E+07    0.1101392528E-04    0.6948113445E+00    0.1731892686E-02    0.6578625416E+00    0.1285963941E-02
    0.2300000000E+07    0.9300654133E-05    0.6948057179E+00    0.1583674679E-02    0.6586557919E+00    0.1292472763E-02
    0.2500000000E+07    0.7967920989E-05    0.6948004920E+00    0.1458669796E-02    0.6593239011E+00    0.1298467390E-02
    0.2700000000E+07    0.6910296983E-05    0.6947956125E+00    0.1351831747E-02    0.6598942955E+00    0.1304025031E-02
    0.2900000000E+07    0.6056563971E-05    0.6947910358E+00    0.1259476641E-02    0.6603869355E+00    0.1309206595E-02
    0.3100000000E+07    0.5357193509E-05    0.6947867258E+00    0.1178852554E-02    0.6608166933E+00    0.1314060987E-02
    0.3300000000E+07    0.4776867407E-05    0.6947826526E+00    0.1107862520E-02    0.6611948773E+00    0.1318628084E-02
    0.3500000000E+07    0.4289845454E-05    0.6947787910E+00    0.1044880742E-02    0.6615302386E+00    0.1322940836E-02
    0.3700000000E+07    0.3877005146E-05    0.6947751195E+00    0.9886273768E-03    0.6618296552E+00    0.1327026786E-02
    0.3900000000E+07    0.3523897263E-05    0.6947716201E+00    0.9380812184E-03    0.6620986075E+00    0.1330909199E-02
    0.4100000000E+07    0.3219437358E-05    0.6947682768E+00    0.8924175496E-03    0.6623415163E+00    0.1334607906E-02
    0.4300000000E+07    0.2955005964E-05    0.6947650761E+00    0.8509630817E-03    0.6625619866E+00    0.1338139952E-02
    0.4500000000E+07    0.2723817790E-05    0.6947620059E+00    0.8131627464E-03    0.6627629879E+00    0.1341520096E-02
    0.4700000000E+07    0.2520471713E-05    0.6947590559E+00    0.7785548566E-03    0.6629469879E+00    0.1344761201E-02
    0.4900000000E+07    0.2340624638E-05    0.6947562167E+00    0.7467522736E-03    0.6631160545E+00    0.1347874554E-02
    0.1000000000E+07    0.4374992636E-04    0.6948536798E+00    0.3547197091E-02    0.6480328901E+00    0.1234086079E-02
    0.3000000000E+07    0.5690059279E-05    0.6947888495E+00    0.1217842126E-02    0.6606088981E+00    0.1311672011E-02
    0.5000000000E+07    0.2258384966E-05    0.6947548360E+00    0.7317987487E-03    0.6631955441E+00    0.1349386478E-02
    0.7000000000E+07    0.1262018789E-05    0.6947314531E+00    0.5220906491E-03    0.6643101815E+00    0.1374817590E-02
    0.9000000000E+07    0.8347992783E-06    0.6947135363E+00    0.4053925858E-03    0.6649306959E+00    0.1394123896E-02
    0.1100000000E+08    0.6103320718E-06    0.6946989688E+00    0.3311206330E-03    0.6653259392E+00    0.1409733781E-02
    0.1300000000E+08    0.4765388615E-06    0.6946866712E+00    0.2797254073E-03    0.6655996964E+00    0.1422861644E-02
    0.1500000000E+08    0.3896060476E-06    0.6946760166E+00    0.2420625074E-03    0.6658004991E+00    0.1434204130E-02
    0.1700000000E+08    0.3294575549E-06    0.6946666079E+00    0.2132851048E-03    0.6659540719E+00    0.1444198788E-02
    0.1900000000E+08    0.2858017064E-06    0.6946581775E+00    0.1905856108E-03    0.6660753200E+00    0.1453138808E-02
    0.2100000000E+08    0.2529010367E-06    0.6946505362E+00    0.1722256813E-03    0.6661734752E+00    0.1461230448E-02
    0.2300000000E+08    0.2273413868E-06    0.6946435454E+00    0.1570716635E-03    0.6662545602E+00    0.1468624423E-02
    0.2500000000E+08    0.2069821064E-06    0.6946371001E+00    0.1443528171E-03    0.6663226715E+00    0.1475434277E-02
    0.2700000000E+08    0.1904222499E-06    0.6946311192E+00    0.1335269208E-03    0.6663806922E+00    0.1481747719E-02
