  Pressure (Pa) 23mC5-500 (mol/kg) 24mC5-500 (mol/kg) 2mC6-500 (mol/kg) 3mC6-500 (mol/kg) C7-500 (mol/kg)
    0.1000000000E+01    0.4340525005E-05    0.6965103548E-01    0.1651877242E-04    0.3353435867E-05    0.4184394382E-02
    0.3000000000E+01    0.1038581211E-04    0.1740868643E+00    0.3827812889E-04    0.8522478194E-05    0.4230089540E-02
    0.5000000000E+01    0.1436236040E-04    0.2486551970E+00    0.5176188369E-04    0.1326555150E-04    0.4259689776E-02
    0.7000000000E+01    0.1712667428E-04    0.3045666696E+00    0.6068470857E-04    0.1780459911E-04    0.4281581544E-02
    0.9000000000E+01    0.1913144978E-04    0.3480451778E+00    0.6692765039E-04    0.2221423126E-04    0.4298543040E-02
    0.1100000000E+02    0.2063685204E-04    0.3828231836E+00    0.7152700822E-04    0.2653170875E-04    0.4312093135E-02
    0.1300000000E+02    0.2180160215E-04    0.4112749792E+00    0.7508748182E-04    0.3077917779E-04    0.4323169654E-02
    0.1500000000E+02    0.2272712842E-04    0.4349829510E+00    0.7797767160E-04    0.3497121509E-04    0.4332390204E-02
    0.1700000000E+02    0.2348070766E-04    0.4550423347E+00    0.8043009800E-04    0.3911808866E-04    0.4340180120E-02
    0.1900000000E+02    0.2410835173E-04    0.4722352897E+00    0.8259550307E-04    0.4322739179E-04    0.4346842623E-02
    0.2100000000E+02    0.2464234474E-04    0.4871353084E+00    0.8457377211E-04    0.4730494946E-04    0.4352600028E-02
    0.2300000000E+02    0.2510583507E-04    0.5001724532E+00    0.8643224964E-04    0.5135536013E-04    0.4357619215E-02
    0.2500000000E+02    0.2551573121E-04    0.5116755593E+00    0.8821695440E-04    0.5538233870E-04    0.4362027983E-02
    0.2700000000E+02    0.2588458302E-04    0.5219003633E+00    0.8995964336E-04    0.5938894382E-04    0.4365925920E-02
    0.2900000000E+02    0.2622183560E-04    0.5310487472E+00    0.9168237077E-04    0.6337773415E-04    0.4369391821E-02
    0.3100000000E+02    0.2653468405E-04    0.5392822052E+00    0.9340049338E-04    0.6735087926E-04    0.4372488869E-02
    0.3300000000E+02    0.2682866794E-04    0.5467314637E+00    0.9512468829E-04    0.7131024036E-04    0.4375268343E-02
    0.3500000000E+02    0.2710809203E-04    0.5535034752E+00    0.9686232994E-04    0.7525743044E-04    0.4377772305E-02
    0.3700000000E+02    0.2737632893E-04    0.5596865880E+00    0.9861844308E-04    0.7919385985E-04    0.4380035600E-02
    0.3900000000E+02    0.2763603980E-04    0.5653544231E+00    0.1003963706E-03    0.8312077163E-04    0.4382087340E-02
    0.4100000000E+02    0.2788933745E-04    0.5705688200E+00    0.1021982468E-03    0.8703926907E-04    0.4383952051E-02
    0.4300000000E+02    0.2813790836E-04    0.5753821033E+00    0.1040253355E-03    0.9095033773E-04    0.4385650541E-02
    0.4500000000E+02    0.2838310477E-04    0.5798388444E+00    0.1058782743E-03    0.9485486301E-04    0.4387200586E-02
    0.4700000000E+02    0.2862601506E-04    0.5839772468E+00    0.1077572513E-03    0.9875364459E-04    0.4388617467E-02
    0.4900000000E+02    0.2886751785E-04    0.5878302440E+00    0.1096621348E-03    0.1026474081E-03    0.4389914394E-02
    0.1000000000E+02    0.1993493398E-04    0.3663499018E+00    0.6938780721E-04    0.2438287128E-04    0.4305676284E-02
    0.3000000000E+02    0.2638093094E-04    0.5352710429E+00    0.9254124931E-04    0.6536613959E-04    0.4370983003E-02
    0.5000000000E+02    0.2898796920E-04    0.5896587861E+00    0.1106241867E-03    0.1045926171E-03    0.4390521521E-02
    0.7000000000E+02    0.3143732696E-04    0.6165084646E+00    0.1310833960E-03    0.1433676265E-03    0.4398494770E-02
    0.9000000000E+02    0.3406878200E-04    0.6325100964E+00    0.1534014555E-03    0.1821451798E-03    0.4401671848E-02
    0.1100000000E+03    0.3690612821E-04    0.6431331920E+00    0.1770665424E-03    0.2211624571E-03    0.4402336819E-02
    0.1300000000E+03    0.3993025598E-04    0.6506993452E+00    0.2017781816E-03    0.2605695712E-03    0.4401484763E-02
    0.1500000000E+03    0.4312013963E-04    0.6563620732E+00    0.2273664117E-03    0.3004737332E-03    0.4399621497E-02
    0.1700000000E+03    0.4645923510E-04    0.6607593691E+00    0.2537352912E-03    0.3409583544E-03    0.4397032199E-02
    0.1900000000E+03    0.4993558052E-04    0.6642727550E+00    0.2808318195E-03    0.3820926252E-03    0.4393889979E-02
    0.2100000000E+03    0.5354086807E-04    0.6671443891E+00    0.3086289523E-03    0.4239368384E-03    0.4390305807E-02
    0.2300000000E+03    0.5726954818E-04    0.6695353756E+00    0.3371160382E-03    0.4665455856E-03    0.4386353786E-02
    0.2500000000E+03    0.6111813917E-04    0.6715570583E+00    0.3662932419E-03    0.5099697988E-03    0.4382084924E-02
    0.2700000000E+03    0.6508472595E-04    0.6732888559E+00    0.3961681847E-03    0.5542581228E-03    0.4377535101E-02
    0.2900000000E+03    0.6916860180E-04    0.6747889386E+00    0.4267538624E-03    0.5994578805E-03    0.4372729908E-02
    0.3100000000E+03    0.7337001280E-04    0.6761008887E+00    0.4580673269E-03    0.6456157807E-03    0.4367687701E-02
    0.3300000000E+03    0.7768997462E-04    0.6772580042E+00    0.4901288375E-03    0.6927784570E-03    0.4362421602E-02
    0.3500000000E+03    0.8213014051E-04    0.6782861628E+00    0.5229613108E-03    0.7409928938E-03    0.4356940843E-02
    0.3700000000E+03    0.8669270602E-04    0.6792057803E+00    0.5565899646E-03    0.7903067753E-03    0.4351251696E-02
    0.3900000000E+03    0.9138034001E-04    0.6800331790E+00    0.5910420931E-03    0.8407687811E-03    0.4345358120E-02
    0.4100000000E+03    0.9619613517E-04    0.6807815650E+00    0.6263469303E-03    0.8924288451E-03    0.4339262235E-02
    0.4300000000E+03    0.1011435729E-03    0.6814617376E+00    0.6625355771E-03    0.9453383897E-03    0.4332964659E-02
    0.4500000000E+03    0.1062264991E-03    0.6820826140E+00    0.6996409750E-03    0.9995505429E-03    0.4326464759E-02
    0.4700000000E+03    0.1114491086E-03    0.6826516222E+00    0.7376979122E-03    0.1055120344E-02    0.4319760836E-02
    0.4900000000E+03    0.1168159360E-03    0.6831749992E+00    0.7767430583E-03    0.1112104947E-02    0.4312850266E-02
    0.1000000000E+03    0.3546269475E-04    0.6383089267E+00    0.1650883540E-03    0.2016131344E-03    0.4402239556E-02
    0.3000000000E+03    0.7125456821E-04    0.6754661470E+00    0.4423184227E-03    0.6224141519E-03    0.4370237506E-02
    0.5000000000E+03    0.1195549404E-03    0.6834212571E+00    0.7966481963E-03    0.1141146285E-02    0.4309316440E-02
    0.7000000000E+03    0.1833092571E-03    0.6868869759E+00    0.1257397923E-02    0.1812536833E-02    0.4226538992E-02
    0.9000000000E+03    0.2697443427E-03    0.6888267850E+00    0.1878700125E-02    0.2717505185E-02    0.4114648227E-02
    0.1100000000E+04    0.3916445996E-03    0.6900663575E+00    0.2753313724E-02    0.3992456747E-02    0.3959034591E-02
    0.1300000000E+04    0.5720578582E-03    0.6909267272E+00    0.4047601860E-02    0.5881780923E-02    0.3733502504E-02
    0.1500000000E+04    0.8535005696E-03    0.6915587160E+00    0.6068713017E-02    0.8837631006E-02    0.3391491513E-02
    0.1700000000E+04    0.1309719531E-02    0.6920425354E+00    0.9351736599E-02    0.1365154628E-01    0.2858389620E-02
    0.1900000000E+04    0.2021273514E-02    0.6924247773E+00    0.1449084083E-01    0.2121723159E-01    0.2074951272E-02
    0.2100000000E+04    0.2897084291E-02    0.6927343564E+00    0.2085930468E-01    0.3065944785E-01    0.1206421644E-02
    0.2300000000E+04    0.3600800282E-02    0.6929901667E+00    0.2604773365E-01    0.3846125051E-01    0.6448193397E-03
    0.2500000000E+04    0.4033563593E-02    0.6932050761E+00    0.2932093452E-01    0.4350833852E-01    0.4302838517E-03
    0.2700000000E+04    0.4326863754E-02    0.6933881511E+00    0.3160807197E-01    0.4713798401E-01    0.3687602842E-03
    0.2900000000E+04    0.4567707583E-02    0.6935459639E+00    0.3353131343E-01    0.5025706612E-01    0.3533560205E-03
    0.3100000000E+04    0.4786493352E-02    0.6936833949E+00    0.3530870081E-01    0.5318456495E-01    0.3502770473E-03
    0.3300000000E+04    0.4992386520E-02    0.6938041440E+00    0.3700562434E-01    0.5601572800E-01    0.3503688673E-03
    0.3500000000E+04    0.5188259842E-02    0.6939110669E+00    0.3864203374E-01    0.5877888322E-01    0.3512412706E-03
    0.3700000000E+04    0.5375214044E-02    0.6940064035E+00    0.4022506284E-01    0.6148344183E-01    0.3522750721E-03
    0.3900000000E+04    0.5553844361E-02    0.6940919345E+00    0.4175821320E-01    0.6413347835E-01    0.3533118668E-03
    0.4100000000E+04    0.5724590223E-02    0.6941690941E+00    0.4324389907E-01    0.6673150924E-01    0.3543134467E-03
    0.4300000000E+04    0.5887832518E-02    0.6942390497E+00    0.4468415591E-01    0.6927954678E-01    0.3552728938E-03
    0.4500000000E+04    0.6043921489E-02    0.6943027616E+00    0.4608084206E-01    0.7177939739E-01    0.3561912193E-03
    0.4700000000E+04    0.6193185422E-02    0.6943610268E+00    0.4743569957E-01    0.7423274923E-01    0.3570712101E-03
    0.4900000000E+04    0.6335933956E-02    0.6944145123E+00    0.4875037556E-01    0.7664120071E-01    0.3579158305E-03
    0.1000000000E+04    0.3251424917E-03    0.6895080699E+00    0.2276262408E-02    0.3296867474E-02    0.4043591574E-02
    0.3000000000E+04    0.4679041315E-02    0.6936169729E+00    0.3443239485E-01    0.5173622566E-01    0.3511153964E-03
    0.5000000000E+04    0.6404957048E-02    0.6944396420E+00    0.4939313677E-01    0.7782906671E-01    0.3583257484E-03
    0.7000000000E+04    0.7506627738E-02    0.6947906433E+00    0.6047912038E-01    0.9956268658E-01    0.3651986118E-03
    0.9000000000E+04    0.8208391919E-02    0.6949845669E+00    0.6891501300E-01    0.1181604809E+00    0.3703940070E-03
    0.1100000000E+05    0.8644046143E-02    0.6951072321E+00    0.7545634117E-01    0.1343951009E+00    0.3745844145E-03
    0.1300000000E+05    0.8898175607E-02    0.6951916198E+00    0.8060127426E-01    0.1487932122E+00    0.3781029752E-03
    0.1500000000E+05    0.9026154810E-02    0.6952531015E+00    0.8469092719E-01    0.1617274956E+00    0.3811396797E-03
    0.1700000000E+05    0.9065285088E-02    0.6952998032E+00    0.8796631424E-01    0.1734700161E+00    0.3838133811E-03
    0.1900000000E+05    0.9041292787E-02    0.6953364216E+00    0.9060228656E-01    0.1842246909E+00    0.3862034884E-03
    0.2100000000E+05    0.8972272152E-02    0.6953658592E+00    0.9272859251E-01    0.1941478496E+00    0.3883657415E-03
    0.2300000000E+05    0.8871158822E-02    0.6953900055E+00    0.9444340720E-01    0.2033617065E+00    0.3903408006E-03
    0.2500000000E+05    0.8747326633E-02    0.6954101428E+00    0.9582228809E-01    0.2119634525E+00    0.3921592545E-03
    0.2700000000E+05    0.8607644416E-02    0.6954271720E+00    0.9692425951E-01    0.2200315524E+00    0.3938447056E-03
    0.2900000000E+05    0.8457190789E-02    0.6954417440E+00    0.9779604262E-01    0.2276302048E+00    0.3954157541E-03
    0.3100000000E+05    0.8299746979E-02    0.6954543409E+00    0.9847505650E-01    0.2348125678E+00    0.3968873238E-03
    0.3300000000E+05    0.8138142424E-02    0.6954653270E+00    0.9899158653E-01    0.2416231311E+00    0.3982715746E-03
    0.3500000000E+05    0.7974500822E-02    0.6954749829E+00    0.9937037675E-01    0.2480994926E+00    0.3995785478E-03
    0.3700000000E+05    0.7810417682E-02    0.6954835281E+00    0.9963181677E-01    0.2542737051E+00    0.4008166332E-03
    0.3900000000E+05    0.7647090017E-02    0.6954911367E+00    0.9979283823E-01    0.2601733136E+00    0.4019929139E-03
    0.4100000000E+05    0.7485412100E-02    0.6954979483E+00    0.9986760029E-01    0.2658221622E+00    0.4031134252E-03
    0.4300000000E+05    0.7326046872E-02    0.6955040766E+00    0.9986801963E-01    0.2712410302E+00    0.4041833522E-03
    0.4500000000E+05    0.7169479656E-02    0.6955096148E+00    0.9980418448E-01    0.2764481373E+00    0.4052071834E-03
    0.4700000000E+05    0.7016058884E-02    0.6955146400E+00    0.9968468107E-01    0.2814595497E+00    0.4061888302E-03
    0.4900000000E+05    0.6866027198E-02    0.6955192165E+00    0.9951685335E-01    0.2862895093E+00    0.4071317224E-03
    0.1000000000E+05    0.8453335272E-02    0.6950521263E+00    0.7238678830E-01    0.1265358340E+00    0.3725893307E-03
    0.3000000000E+05    0.8379146789E-02    0.6954482643E+00    0.9815760666E-01    0.2312704620E+00    0.3961631576E-03
    0.5000000000E+05    0.6792335161E-02    0.6955213538E+00    0.9941682529E-01    0.2886404631E+00    0.4075895947E-03
    0.7000000000E+05    0.5509161207E-02    0.6955500765E+00    0.9601988105E-01    0.3285962035E+00    0.4152894591E-03
    0.9000000000E+05    0.4545091329E-02    0.6955645734E+00    0.9152015104E-01    0.3591846753E+00    0.4211332538E-03
    0.1100000000E+06    0.3814684779E-02    0.6955728591E+00    0.8690331162E-01    0.3838210854E+00    0.4258574787E-03
    0.1300000000E+06    0.3250181905E-02    0.6955779381E+00    0.8248759597E-01    0.4043084568E+00    0.4298301824E-03
    0.1500000000E+06    0.2805021819E-02    0.6955811764E+00    0.7837248267E-01    0.4217288511E+00    0.4332624060E-03
    0.1700000000E+06    0.2447545397E-02    0.6955832778E+00    0.7457683908E-01    0.4367884759E+00    0.4362866631E-03
    0.1900000000E+06    0.2155882461E-02    0.6955846389E+00    0.7108865681E-01    0.4499762051E+00    0.4389917293E-03
    0.2100000000E+06    0.1914596408E-02    0.6955854978E+00    0.6788475149E-01    0.4616455221E+00    0.4414400478E-03
    0.2300000000E+06    0.1712553204E-02    0.6955860057E+00    0.6493897943E-01    0.4720607100E+00    0.4436772422E-03
    0.2500000000E+06    0.1541558590E-02    0.6955862619E+00    0.6222569573E-01    0.4814246711E+00    0.4457376804E-03
    0.2700000000E+06    0.1395470535E-02    0.6955863344E+00    0.5972113475E-01    0.4898965769E+00    0.4476479087E-03
    0.2900000000E+06    0.1269608853E-02    0.6955862706E+00    0.5740385799E-01    0.4976035465E+00    0.4494288664E-03
    0.3100000000E+06    0.1160354156E-02    0.6955861045E+00    0.5525478410E-01    0.5046486474E+00    0.4510973668E-03
    0.3300000000E+06    0.1064869917E-02    0.6955858612E+00    0.5325703963E-01    0.5111165347E+00    0.4526671182E-03
    0.3500000000E+06    0.9809062826E-03    0.6955855591E+00    0.5139574342E-01    0.5170775267E+00    0.4541494471E-03
    0.3700000000E+06    0.9066592078E-03    0.6955852121E+00    0.4965777748E-01    0.5225906121E+00    0.4555538218E-03
    0.3900000000E+06    0.8406677293E-03    0.6955848309E+00    0.4803156818E-01    0.5277057098E+00    0.4568882392E-03
    0.4100000000E+06    0.7817379826E-03    0.6955844237E+00    0.4650688768E-01    0.5324653942E+00    0.4581595161E-03
    0.4300000000E+06    0.7288862580E-03    0.6955839969E+00    0.4507467826E-01    0.5369062322E+00    0.4593735112E-03
    0.4500000000E+06    0.6812958122E-03    0.6955835555E+00    0.4372689933E-01    0.5410598309E+00    0.4605352972E-03
    0.4700000000E+06    0.6382837476E-03    0.6955831035E+00    0.4245639509E-01    0.5449536691E+00    0.4616492962E-03
    0.4900000000E+06    0.5992753537E-03    0.6955826441E+00    0.4125678064E-01    0.5486117636E+00    0.4627193868E-03
    0.1000000000E+06    0.4155479530E-02    0.6955692469E+00    0.8919860724E-01    0.3721110641E+00    0.4236071885E-03
    0.3000000000E+06    0.1213098641E-02    0.6955861986E+00    0.5630939966E-01    0.5012031621E+00    0.4502762538E-03
    0.5000000000E+06    0.5811174885E-03    0.6955824124E+00    0.4068174820E-01    0.5503591003E+00    0.4632390513E-03
    0.7000000000E+06    0.3420166079E-03    0.6955777856E+00    0.3179341957E-01    0.5769113691E+00    0.4719800770E-03
    0.9000000000E+06    0.2257535481E-03    0.6955735345E+00    0.2607316051E-01    0.5936081577E+00    0.4786160647E-03
    0.1100000000E+07    0.1603808734E-03    0.6955697493E+00    0.2208692008E-01    0.6050918846E+00    0.4839816264E-03
    0.1300000000E+07    0.1199336020E-03    0.6955663743E+00    0.1915144060E-01    0.6134777826E+00    0.4884941335E-03
    0.1500000000E+07    0.9314669296E-04    0.6955633413E+00    0.1690037534E-01    0.6198712161E+00    0.4923930121E-03
    0.1700000000E+07    0.7447912916E-04    0.6955605920E+00    0.1511978760E-01    0.6249070040E+00    0.4958286418E-03
    0.1900000000E+07    0.6094367164E-04    0.6955580799E+00    0.1367640986E-01    0.6289759948E+00    0.4989017885E-03
    0.2100000000E+07    0.5081275342E-04    0.6955557680E+00    0.1248291884E-01    0.6323320875E+00    0.5016833403E-03
    0.2300000000E+07    0.4303018862E-04    0.6955536269E+00    0.1147971831E-01    0.6351474162E+00    0.5042250972E-03
    0.2500000000E+07    0.3692041665E-04    0.6955516333E+00    0.1062474958E-01    0.6375428250E+00    0.5065660833E-03
    0.2700000000E+07    0.3203483478E-04    0.6955497679E+00    0.9887486104E-02    0.6396056517E+00    0.5087364442E-03
    0.2900000000E+07    0.2806598498E-04    0.6955480152E+00    0.9245236766E-02    0.6414005894E+00    0.5107599597E-03
    0.3100000000E+07    0.2479737187E-04    0.6955463622E+00    0.8680784928E-02    0.6429765796E+00    0.5126557248E-03
    0.3300000000E+07    0.2207294347E-04    0.6955447980E+00    0.8180832342E-02    0.6443713306E+00    0.5144393092E-03
    0.3500000000E+07    0.1977789285E-04    0.6955433133E+00    0.7734945072E-02    0.6456143657E+00    0.5161235775E-03
    0.3700000000E+07    0.1782622086E-04    0.6955419003E+00    0.7334822185E-02    0.6467291291E+00    0.5177192844E-03
    0.3900000000E+07    0.1615246771E-04    0.6955405524E+00    0.6973777519E-02    0.6477344739E+00    0.5192355137E-03
    0.4100000000E+07    0.1470608880E-04    0.6955392636E+00    0.6646365490E-02    0.6486457331E+00    0.5206800085E-03
    0.4300000000E+07    0.1344755005E-04    0.6955380289E+00    0.6348106300E-02    0.6494755044E+00    0.5220594240E-03
    0.4500000000E+07    0.1234556679E-04    0.6955368438E+00    0.6075281054E-02    0.6502342341E+00    0.5233795228E-03
    0.4700000000E+07    0.1137511864E-04    0.6955357045E+00    0.5824776897E-02    0.6509306570E+00    0.5246453284E-03
    0.4900000000E+07    0.1051600061E-04    0.6955346073E+00    0.5593968471E-02    0.6515721337E+00    0.5258612469E-03
    0.1000000000E+07    0.1888546138E-03    0.6955715863E+00    0.2391644445E-01    0.5998356708E+00    0.4814257605E-03
    0.3000000000E+07    0.2635505238E-04    0.6955471770E+00    0.8954194866E-02    0.6422133742E+00    0.5117227663E-03
    0.5000000000E+07    0.1012292330E-04    0.6955340736E+00    0.5485240015E-02    0.6518742566E+00    0.5264517309E-03
    0.7000000000E+07    0.5358155881E-05    0.6955250181E+00    0.3946615728E-02    0.6561457793E+00    0.5363841081E-03
    0.9000000000E+07    0.3328576439E-05    0.6955180629E+00    0.3079057677E-02    0.6585517012E+00    0.5439246638E-03
    0.1100000000E+08    0.2277026780E-05    0.6955124002E+00    0.2522600194E-02    0.6600942585E+00    0.5500216675E-03
    0.1300000000E+08    0.1661514502E-05    0.6955076155E+00    0.2135556306E-02    0.6611670638E+00    0.5551493498E-03
    0.1500000000E+08    0.1269811111E-05    0.6955034675E+00    0.1850889186E-02    0.6619561247E+00    0.5595797611E-03
    0.1700000000E+08    0.1004857252E-05    0.6954998029E+00    0.1632786237E-02    0.6625607408E+00    0.5634837751E-03
    0.1900000000E+08    0.8171047450E-06    0.6954965182E+00    0.1460382293E-02    0.6630387410E+00    0.5669758916E-03
    0.2100000000E+08    0.6790894769E-06    0.6954935401E+00    0.1320701104E-02    0.6634260803E+00    0.5701366610E-03
    0.2300000000E+08    0.5745809660E-06    0.6954908148E+00    0.1205250505E-02    0.6637462852E+00    0.5730249441E-03
    0.2500000000E+08    0.4934818603E-06    0.6954883018E+00    0.1108240407E-02    0.6640153951E+00    0.5756850849E-03
    0.2700000000E+08    0.4292399695E-06    0.6954859694E+00    0.1025587798E-02    0.6642447200E+00    0.5781513383E-03
