  Pressure (Pa) 23mC5-500 (mol/kg) 24mC5-500 (mol/kg) 2mC6-500 (mol/kg) 3mC6-500 (mol/kg) C7-500 (mol/kg)
    0.1000000000E+01    0.3284823991E-05    0.2142842827E+00    0.4966680832E-05    0.3061458765E-05    0.4145849807E-02
    0.3000000000E+01    0.5622401813E-05    0.3978614572E+00    0.8181321139E-05    0.7551395417E-05    0.4169752325E-02
    0.5000000000E+01    0.6540176200E-05    0.4801272884E+00    0.9567965036E-05    0.1161776561E-04    0.4175598552E-02
    0.7000000000E+01    0.7077503533E-05    0.5268115751E+00    0.1061501431E-04    0.1548255624E-04    0.4178196997E-02
    0.9000000000E+01    0.7483007807E-05    0.5568944101E+00    0.1160238363E-04    0.1921918479E-04    0.4179563604E-02
    0.1100000000E+02    0.7837791519E-05    0.5778944881E+00    0.1259620040E-04    0.2286401510E-04    0.4180322472E-02
    0.1300000000E+02    0.8173119124E-05    0.5933857725E+00    0.1361132412E-04    0.2643854139E-04    0.4180735393E-02
    0.1500000000E+02    0.8502257363E-05    0.6052845571E+00    0.1464867494E-04    0.2995685327E-04    0.4180932469E-02
    0.1700000000E+02    0.8831112846E-05    0.6147106788E+00    0.1570548787E-04    0.3342884330E-04    0.4180985930E-02
    0.1900000000E+02    0.9162321208E-05    0.6223623540E+00    0.1677837726E-04    0.3686180725E-04    0.4180939159E-02
    0.2100000000E+02    0.9496983110E-05    0.6286975352E+00    0.1786424169E-04    0.4026132874E-04    0.4180819806E-02
    0.2300000000E+02    0.9835456583E-05    0.6340290711E+00    0.1896047773E-04    0.4363180645E-04    0.4180646328E-02
    0.2500000000E+02    0.1017773831E-04    0.6385779598E+00    0.2006497286E-04    0.4697678709E-04    0.4180431512E-02
    0.2700000000E+02    0.1052365404E-04    0.6425047520E+00    0.2117603627E-04    0.5029918554E-04    0.4180184491E-02
    0.2900000000E+02    0.1087295594E-04    0.6459288956E+00    0.2229232107E-04    0.5360143599E-04    0.4179911959E-02
    0.3100000000E+02    0.1122537271E-04    0.6489410975E+00    0.2341275500E-04    0.5688559902E-04    0.4179618931E-02
    0.3300000000E+02    0.1158063510E-04    0.6516114783E+00    0.2453648319E-04    0.6015343939E-04    0.4179309231E-02
    0.3500000000E+02    0.1193848839E-04    0.6539950981E+00    0.2566282266E-04    0.6340648393E-04    0.4178985826E-02
    0.3700000000E+02    0.1229869785E-04    0.6561357944E+00    0.2679122645E-04    0.6664606547E-04    0.4178651051E-02
    0.3900000000E+02    0.1266105044E-04    0.6580689025E+00    0.2792125566E-04    0.6987335667E-04    0.4178306763E-02
    0.4100000000E+02    0.1302535455E-04    0.6598232217E+00    0.2905255758E-04    0.7308939655E-04    0.4177954460E-02
    0.4300000000E+02    0.1339143879E-04    0.6614224593E+00    0.3018484853E-04    0.7629511154E-04    0.4177595360E-02
    0.4500000000E+02    0.1375915034E-04    0.6628863086E+00    0.3131790040E-04    0.7949133244E-04    0.4177230462E-02
    0.4700000000E+02    0.1412835315E-04    0.6642312640E+00    0.3245153000E-04    0.8267880807E-04    0.4176860592E-02
    0.4900000000E+02    0.1449892618E-04    0.6654712452E+00    0.3358559059E-04    0.8585821662E-04    0.4176486440E-02
    0.1000000000E+02    0.7664158018E-05    0.5682517090E+00    0.1209701499E-04    0.2105150209E-04    0.4179998128E-02
    0.3000000000E+02    0.1104879203E-04    0.6474816990E+00    0.2285207733E-04    0.5524566196E-04    0.4179767745E-02
    0.5000000000E+02    0.1468469240E-04    0.6660556375E+00    0.3415274494E-04    0.8744509067E-04    0.4176297942E-02
    0.7000000000E+02    0.1845145022E-04    0.6743462724E+00    0.4550079049E-04    0.1188836732E-03    0.4172403783E-02
    0.9000000000E+02    0.2228515253E-04    0.6790420027E+00    0.5684927927E-04    0.1499802972E-03    0.4168399500E-02
    0.1100000000E+03    0.2616452037E-04    0.6820643949E+00    0.6821024095E-04    0.1809466814E-03    0.4164358805E-02
    0.1300000000E+03    0.3008239595E-04    0.6841726238E+00    0.7960315269E-04    0.2119109656E-03    0.4160302744E-02
    0.1500000000E+03    0.3403693726E-04    0.6857269527E+00    0.9104630544E-04    0.2429596768E-03    0.4156236620E-02
    0.1700000000E+03    0.3802850284E-04    0.6869203232E+00    0.1025555351E-03    0.2741558475E-03    0.4152160257E-02
    0.1900000000E+03    0.4205841170E-04    0.6878653889E+00    0.1141444179E-03    0.3055480802E-03    0.4148071468E-02
    0.2100000000E+03    0.4612840689E-04    0.6886323424E+00    0.1258247054E-03    0.3371755657E-03    0.4143967356E-02
    0.2300000000E+03    0.5024041086E-04    0.6892671981E+00    0.1376067274E-03    0.3690710768E-03    0.4139844850E-02
    0.2500000000E+03    0.5439641075E-04    0.6898013769E+00    0.1494997167E-03    0.4012628612E-03    0.4135700915E-02
    0.2700000000E+03    0.5859840523E-04    0.6902570670E+00    0.1615120599E-03    0.4337758937E-03    0.4131532635E-02
    0.2900000000E+03    0.6284838116E-04    0.6906503824E+00    0.1736514898E-03    0.4666327376E-03    0.4127337240E-02
    0.3100000000E+03    0.6714830538E-04    0.6909933091E+00    0.1859252336E-03    0.4998541564E-03    0.4123112101E-02
    0.3300000000E+03    0.7150012399E-04    0.6912949465E+00    0.1983401285E-03    0.5334595603E-03    0.4118854722E-02
    0.3500000000E+03    0.7590576540E-04    0.6915623279E+00    0.2109027121E-03    0.5674673399E-03    0.4114562722E-02
    0.3700000000E+03    0.8036714505E-04    0.6918009749E+00    0.2236192945E-03    0.6018951216E-03    0.4110233819E-02
    0.3900000000E+03    0.8488617090E-04    0.6920152827E+00    0.2364960169E-03    0.6367599666E-03    0.4105865817E-02
    0.4100000000E+03    0.8946474903E-04    0.6922087940E+00    0.2495388991E-03    0.6720785287E-03    0.4101456588E-02
    0.4300000000E+03    0.9410478909E-04    0.6923843956E+00    0.2627538791E-03    0.7078671824E-03    0.4097004060E-02
    0.4500000000E+03    0.9880820962E-04    0.6925444635E+00    0.2761468462E-03    0.7441421275E-03    0.4092506208E-02
    0.4700000000E+03    0.1035769430E-03    0.6926909715E+00    0.2897236689E-03    0.7809194767E-03    0.4087961041E-02
    0.4900000000E+03    0.1084129399E-03    0.6928255724E+00    0.3034902199E-03    0.8182153300E-03    0.4083366594E-02
    0.1000000000E+03    0.2421975946E-04    0.6807009962E+00    0.6252699313E-04    0.1654704710E-03    0.4166381810E-02
    0.3000000000E+03    0.6499197764E-04    0.6908275192E+00    0.1797711371E-03    0.4831966347E-03    0.4125228547E-02
    0.5000000000E+03    0.1108567781E-03    0.6928888523E+00    0.3104464851E-03    0.8370627394E-03    0.4081050282E-02
    0.7000000000E+03    0.1637684944E-03    0.6937759242E+00    0.4610192322E-03    0.1245298361E-02    0.4031660435E-02
    0.9000000000E+03    0.2259631759E-03    0.6942696466E+00    0.6380336161E-03    0.1725797870E-02    0.3975033121E-02
    0.1100000000E+04    0.3003204348E-03    0.6945841475E+00    0.8497814277E-03    0.2301227628E-02    0.3908783299E-02
    0.1300000000E+04    0.3907604515E-03    0.6948020082E+00    0.1107516666E-02    0.3002387745E-02    0.3829802341E-02
    0.1500000000E+04    0.5027950433E-03    0.6949618313E+00    0.1427059840E-02    0.3872628142E-02    0.3733840077E-02
    0.1700000000E+04    0.6443625611E-03    0.6950840763E+00    0.1831212635E-02    0.4974505954E-02    0.3614919554E-02
    0.1900000000E+04    0.8271059212E-03    0.6951805979E+00    0.2353457352E-02    0.6400013024E-02    0.3464493026E-02
    0.2100000000E+04    0.1068243473E-02    0.6952587394E+00    0.3043393172E-02    0.8285671281E-02    0.3270306932E-02
    0.2300000000E+04    0.1392884567E-02    0.6953232920E+00    0.3973528946E-02    0.1083157996E-01    0.3015263700E-02
    0.2500000000E+04    0.1835220374E-02    0.6953775150E+00    0.5243012914E-02    0.1431253887E-01    0.2677782355E-02
    0.2700000000E+04    0.2432463940E-02    0.6954237025E+00    0.6960811936E-02    0.1903356879E-01    0.2238546269E-02
    0.2900000000E+04    0.3197473860E-02    0.6954635164E+00    0.9167767531E-02    0.2511799633E-01    0.1703074670E-02
    0.3100000000E+04    0.4066297972E-02    0.6954981898E+00    0.1168541873E-01    0.3209114995E-01    0.1137271867E-02
    0.3300000000E+04    0.4889509416E-02    0.6955286571E+00    0.1408768324E-01    0.3879282657E-01    0.6588839992E-03
    0.3500000000E+04    0.5544271796E-02    0.6955556391E+00    0.1601966307E-01    0.4424333774E-01    0.3438923414E-03
    0.3700000000E+04    0.6023247090E-02    0.6955797011E+00    0.1745561679E-01    0.4835885400E-01    0.1746657344E-03
    0.3900000000E+04    0.6383106344E-02    0.6956012921E+00    0.1855498233E-01    0.5156748473E-01    0.9451098703E-04
    0.4100000000E+04    0.6676471332E-02    0.6956207738E+00    0.1946746892E-01    0.5427605981E-01    0.5891077939E-04
    0.4300000000E+04    0.6934574058E-02    0.6956384405E+00    0.2028232492E-01    0.5672827154E-01    0.4356041080E-04
    0.4500000000E+04    0.7173074488E-02    0.6956545343E+00    0.2104438770E-01    0.5904683456E-01    0.3703555738E-04
    0.4700000000E+04    0.7399334737E-02    0.6956692559E+00    0.2177471954E-01    0.6128938030E-01    0.3429320898E-04
    0.4900000000E+04    0.7616768568E-02    0.6956827735E+00    0.2248303125E-01    0.6348235285E-01    0.3316274401E-04
    0.1000000000E+04    0.2614062717E-03    0.6944425934E+00    0.7389477635E-03    0.1999955761E-02    0.3943284035E-02
    0.3000000000E+04    0.3627027673E-02    0.6954814314E+00    0.1041077345E-01    0.2855577584E-01    0.1417010968E-02
    0.5000000000E+04    0.7722719371E-02    0.6956891259E+00    0.2283045674E-01    0.6456435981E-01    0.3288704129E-04
    0.7000000000E+04    0.9545625015E-02    0.6957779823E+00    0.2907309028E-01    0.8476318878E-01    0.3290240727E-04
    0.9000000000E+04    0.1091885627E-01    0.6958272469E+00    0.3422417563E-01    0.1027180739E+00    0.3336618069E-04
    0.1100000000E+05    0.1195349614E-01    0.6958585294E+00    0.3851977512E-01    0.1188576637E+00    0.3374111380E-04
    0.1300000000E+05    0.1272897516E-01    0.6958801381E+00    0.4213195405E-01    0.1334984529E+00    0.3405633729E-04
    0.1500000000E+05    0.1330374371E-01    0.6958959482E+00    0.4519043418E-01    0.1468839030E+00    0.3432863599E-04
    0.1700000000E+05    0.1372152931E-01    0.6959080099E+00    0.4779476685E-01    0.1592046178E+00    0.3456854329E-04
    0.1900000000E+05    0.1401552006E-01    0.6959175097E+00    0.5002255599E-01    0.1706121574E+00    0.3478311309E-04
    0.2100000000E+05    0.1421122587E-01    0.6959251815E+00    0.5193514427E-01    0.1812287172E+00    0.3497730549E-04
    0.2300000000E+05    0.1432847517E-01    0.6959315037E+00    0.5358162706E-01    0.1911540488E+00    0.3515474366E-04
    0.2500000000E+05    0.1438283347E-01    0.6959368012E+00    0.5500173909E-01    0.2004704993E+00    0.3531815640E-04
    0.2700000000E+05    0.1438662762E-01    0.6959413026E+00    0.5622796513E-01    0.2092467420E+00    0.3546965116E-04
    0.2900000000E+05    0.1434969612E-01    0.6959451735E+00    0.5728710677E-01    0.2175405783E+00    0.3561089005E-04
    0.3100000000E+05    0.1427994611E-01    0.6959485363E+00    0.5820146154E-01    0.2254010717E+00    0.3574320751E-04
    0.3300000000E+05    0.1418377175E-01    0.6959514840E+00    0.5898972143E-01    0.2328701925E+00    0.3586769146E-04
    0.3500000000E+05    0.1406637199E-01    0.6959540881E+00    0.5966766542E-01    0.2399841002E+00    0.3598524071E-04
    0.3700000000E+05    0.1393199436E-01    0.6959564047E+00    0.6024869907E-01    0.2467741534E+00    0.3609660657E-04
    0.3900000000E+05    0.1378412374E-01    0.6959584782E+00    0.6074427889E-01    0.2532677137E+00    0.3620242355E-04
    0.4100000000E+05    0.1362562967E-01    0.6959603446E+00    0.6116424926E-01    0.2594887903E+00    0.3630323250E-04
    0.4300000000E+05    0.1345888237E-01    0.6959620328E+00    0.6151711202E-01    0.2654585613E+00    0.3639949821E-04
    0.4500000000E+05    0.1328584470E-01    0.6959635669E+00    0.6181024406E-01    0.2711958000E+00    0.3649162314E-04
    0.4700000000E+05    0.1310814546E-01    0.6959649667E+00    0.6205007405E-01    0.2767172231E+00    0.3657995809E-04
    0.4900000000E+05    0.1292713837E-01    0.6959662488E+00    0.6224222705E-01    0.2820377810E+00    0.3666481073E-04
    0.1000000000E+05    0.1147295189E-01    0.6958444608E+00    0.3646698630E-01    0.1109929946E+00    0.3356253368E-04
    0.3000000000E+05    0.1431849248E-01    0.6959469120E+00    0.5776113873E-01    0.2215222200E+00    0.3567809095E-04
    0.5000000000E+05    0.1283575409E-01    0.6959668501E+00    0.6232199253E-01    0.2846269841E+00    0.3670601725E-04
    0.7000000000E+05    0.1102329156E-01    0.6959751609E+00    0.6234317181E-01    0.3285051605E+00    0.3739911745E-04
    0.9000000000E+05    0.9433959605E-02    0.6959796465E+00    0.6076583063E-01    0.3618153727E+00    0.3792529104E-04
    0.1100000000E+06    0.8120647019E-02    0.6959824163E+00    0.5859678190E-01    0.3883864560E+00    0.3835072758E-04
    0.1300000000E+06    0.7046714953E-02    0.6959842745E+00    0.5624458064E-01    0.4102727423E+00    0.3870852423E-04
    0.1500000000E+06    0.6165571365E-02    0.6959855932E+00    0.5388968141E-01    0.4287148326E+00    0.3901766630E-04
    0.1700000000E+06    0.5436972422E-02    0.6959865679E+00    0.5161383677E-01    0.4445234175E+00    0.3929007779E-04
    0.1900000000E+06    0.4829067998E-02    0.6959873104E+00    0.4945255492E-01    0.4582587897E+00    0.3953374855E-04
    0.2100000000E+06    0.4317263616E-02    0.6959878895E+00    0.4741862265E-01    0.4703247046E+00    0.3975429927E-04
    0.2300000000E+06    0.3882639476E-02    0.6959883496E+00    0.4551342857E-01    0.4810216818E+00    0.3995583714E-04
    0.2500000000E+06    0.3510577856E-02    0.6959887208E+00    0.4373269213E-01    0.4905792573E+00    0.4014145634E-04
    0.2700000000E+06    0.3189697985E-02    0.6959890237E+00    0.4206946064E-01    0.4991764991E+00    0.4031354703E-04
    0.2900000000E+06    0.2911059813E-02    0.6959892734E+00    0.4051570645E-01    0.5069555966E+00    0.4047399467E-04
    0.3100000000E+06    0.2667575434E-02    0.6959894809E+00    0.3906318069E-01    0.5140311663E+00    0.4062431326E-04
    0.3300000000E+06    0.2453574064E-02    0.6959896545E+00    0.3770386156E-01    0.5204968053E+00    0.4076573727E-04
    0.3500000000E+06    0.2264478924E-02    0.6959898003E+00    0.3643017780E-01    0.5264298156E+00    0.4089928672E-04
    0.3700000000E+06    0.2096565470E-02    0.6959899234E+00    0.3523510665E-01    0.5318946828E+00    0.4102581430E-04
    0.3900000000E+06    0.1946778955E-02    0.6959900275E+00    0.3411220180E-01    0.5369456807E+00    0.4114604024E-04
    0.4100000000E+06    0.1812595556E-02    0.6959901157E+00    0.3305558333E-01    0.5416288545E+00    0.4126057848E-04
    0.4300000000E+06    0.1691915734E-02    0.6959901905E+00    0.3205990773E-01    0.5459835504E+00    0.4136995669E-04
    0.4500000000E+06    0.1582981624E-02    0.6959902539E+00    0.3112032872E-01    0.5500436108E+00    0.4147463176E-04
    0.4700000000E+06    0.1484312528E-02    0.6959903075E+00    0.3023245475E-01    0.5538383186E+00    0.4157500201E-04
    0.4900000000E+06    0.1394654137E-02    0.6959903528E+00    0.2939230665E-01    0.5573931507E+00    0.4167141676E-04
    0.1000000000E+06    0.8744461157E-02    0.6959811804E+00    0.5972193566E-01    0.3757889677E+00    0.3814807269E-04
    0.3000000000E+06    0.2785306789E-02    0.6959893819E+00    0.3977730011E-01    0.5105750426E+00    0.4055033726E-04
    0.5000000000E+06    0.1352863798E-02    0.6959903726E+00    0.2898898911E-01    0.5590876860E+00    0.4171823854E-04
    0.7000000000E+06    0.7994368552E-03    0.6959905246E+00    0.2271388517E-01    0.5845580293E+00    0.4250582424E-04
    0.9000000000E+06    0.5284095296E-03    0.6959904563E+00    0.1864477952E-01    0.6003024538E+00    0.4310376236E-04
    0.1100000000E+07    0.3755542150E-03    0.6959903145E+00    0.1579999655E-01    0.6110078683E+00    0.4358723964E-04
    0.1300000000E+07    0.2808449092E-03    0.6959901477E+00    0.1370182701E-01    0.6187616470E+00    0.4399385743E-04
    0.1500000000E+07    0.2180783438E-03    0.6959899745E+00    0.1209156579E-01    0.6246369496E+00    0.4434518659E-04
    0.1700000000E+07    0.1743225609E-03    0.6959898028E+00    0.1081731997E-01    0.6292425959E+00    0.4465477579E-04
    0.1900000000E+07    0.1425921499E-03    0.6959896360E+00    0.9784171668E-02    0.6329498671E+00    0.4493170388E-04
    0.2100000000E+07    0.1188425306E-03    0.6959894756E+00    0.8929804392E-02    0.6359981148E+00    0.4518235784E-04
    0.2300000000E+07    0.1005991200E-03    0.6959893220E+00    0.8211635027E-02    0.6385485982E+00    0.4541140488E-04
    0.2500000000E+07    0.8627837519E-04    0.6959891751E+00    0.7599586585E-02    0.6407139377E+00    0.4562236117E-04
    0.2700000000E+07    0.7482844327E-04    0.6959890347E+00    0.7071816843E-02    0.6425751687E+00    0.4581794290E-04
    0.2900000000E+07    0.6552828969E-04    0.6959889003E+00    0.6612083872E-02    0.6441920892E+00    0.4600029270E-04
    0.3100000000E+07    0.5787015035E-04    0.6959887718E+00    0.6208061206E-02    0.6456097893E+00    0.4617113113E-04
    0.3300000000E+07    0.5148800757E-04    0.6959886486E+00    0.5850226220E-02    0.6468629104E+00    0.4633186108E-04
    0.3500000000E+07    0.4611258148E-04    0.6959885303E+00    0.5531106580E-02    0.6479785060E+00    0.4648364172E-04
    0.3700000000E+07    0.4154216488E-04    0.6959884168E+00    0.5244757141E-02    0.6489780110E+00    0.4662744212E-04
    0.3900000000E+07    0.3762323076E-04    0.6959883075E+00    0.4986389110E-02    0.6498786279E+00    0.4676408077E-04
    0.4100000000E+07    0.3423723994E-04    0.6959882022E+00    0.4752102186E-02    0.6506943223E+00    0.4689425539E-04
    0.4300000000E+07    0.3129148136E-04    0.6959881007E+00    0.4538687815E-02    0.6514365495E+00    0.4701856566E-04
    0.4500000000E+07    0.2871259476E-04    0.6959880027E+00    0.4343482472E-02    0.6521147945E+00    0.4713753083E-04
    0.4700000000E+07    0.2644191355E-04    0.6959879080E+00    0.4164256745E-02    0.6527369778E+00    0.4725160356E-04
    0.4900000000E+07    0.2443206575E-04    0.6959878163E+00    0.3999130429E-02    0.6533097651E+00    0.4736118086E-04
    0.1000000000E+07    0.4421681274E-03    0.6959903905E+00    0.1710637946E-01    0.6061204075E+00    0.4335693580E-04
    0.3000000000E+07    0.6151954214E-04    0.6959888354E+00    0.6403759430E-02    0.6449234706E+00    0.4608705670E-04
    0.5000000000E+07    0.2351260626E-04    0.6959877716E+00    0.3921345983E-02    0.6535794352E+00    0.4741439478E-04
    0.7000000000E+07    0.1237563018E-04    0.6959869993E+00    0.2820814595E-02    0.6573853021E+00    0.4830950397E-04
    0.9000000000E+07    0.7640152719E-05    0.6959863928E+00    0.2200460134E-02    0.6595235274E+00    0.4898907595E-04
    0.1100000000E+08    0.5191140225E-05    0.6959858924E+00    0.1802637516E-02    0.6608925288E+00    0.4953856086E-04
    0.1300000000E+08    0.3760397886E-05    0.6959854659E+00    0.1525969286E-02    0.6618438065E+00    0.5000069314E-04
    0.1500000000E+08    0.2851737002E-05    0.6959850938E+00    0.1322502465E-02    0.6625430826E+00    0.5039998849E-04
    0.1700000000E+08    0.2238412412E-05    0.6959847634E+00    0.1166624319E-02    0.6630786901E+00    0.5075184526E-04
    0.1900000000E+08    0.1804763528E-05    0.6959844661E+00    0.1043414511E-02    0.6635020146E+00    0.5106658178E-04
    0.2100000000E+08    0.1486732001E-05    0.6959841957E+00    0.9435950101E-03    0.6638449786E+00    0.5135145701E-04
    0.2300000000E+08    0.1246492114E-05    0.6959839475E+00    0.8610944822E-03    0.6641284569E+00    0.5161177537E-04
    0.2500000000E+08    0.1060531273E-05    0.6959837181E+00    0.7917737187E-03    0.6643666741E+00    0.5185153306E-04
    0.2700000000E+08    0.9136051655E-06    0.6959835048E+00    0.7327140532E-03    0.6645696568E+00    0.5207381712E-04
