  Pressure (Pa) 23mC5-500 (mol/kg) 24mC5-500 (mol/kg) 2mC6-500 (mol/kg) 3mC6-500 (mol/kg) C7-500 (mol/kg)
    0.1000000000E+01    0.4340380662E-05    0.6964977808E-01    0.2642882795E-04    0.8382109681E-06    0.4184569213E-02
    0.3000000000E+01    0.1038492519E-04    0.1740795010E+00    0.6123746401E-04    0.2129592690E-05    0.4230469814E-02
    0.5000000000E+01    0.1436046216E-04    0.2486410684E+00    0.8280233351E-04    0.3313834127E-05    0.4260243845E-02
    0.7000000000E+01    0.1712361214E-04    0.3045466688E+00    0.9706769251E-04    0.4446478756E-05    0.4282295563E-02
    0.9000000000E+01    0.1912708951E-04    0.3480204572E+00    0.1070433277E-03    0.5546210050E-05    0.4299408719E-02
    0.1100000000E+02    0.2063105329E-04    0.3827947965E+00    0.1143872776E-03    0.6622363364E-05    0.4313104784E-02
    0.1300000000E+02    0.2179421403E-04    0.4112438004E+00    0.1200670019E-03    0.7680489632E-05    0.4324323046E-02
    0.1500000000E+02    0.2271799051E-04    0.4349496812E+00    0.1246722125E-03    0.8724243848E-05    0.4333682036E-02
    0.1700000000E+02    0.2346965207E-04    0.4550075270E+00    0.1285749088E-03    0.9756201431E-05    0.4341607718E-02
    0.1900000000E+02    0.2409520511E-04    0.4721993783E+00    0.1320162577E-03    0.1077826740E-04    0.4348403766E-02
    0.2100000000E+02    0.2462692987E-04    0.4870986337E+00    0.1351560645E-03    0.1179190342E-04    0.4354292841E-02
    0.2300000000E+02    0.2508797201E-04    0.5001352824E+00    0.1381020757E-03    0.1279826351E-04    0.4359442087E-02
    0.2500000000E+02    0.2549523822E-04    0.5116381019E+00    0.1409279206E-03    0.1379828005E-04    0.4363979522E-02
    0.2700000000E+02    0.2586127711E-04    0.5218627845E+00    0.1436844120E-03    0.1479272067E-04    0.4368004908E-02
    0.2900000000E+02    0.2619553297E-04    0.5310111765E+00    0.1464068397E-03    0.1578222752E-04    0.4371597187E-02
    0.3100000000E+02    0.2650520041E-04    0.5392447447E+00    0.1491197783E-03    0.1676734499E-04    0.4374819668E-02
    0.3300000000E+02    0.2679581867E-04    0.5466941934E+00    0.1518403149E-03    0.1774854005E-04    0.4377723734E-02
    0.3500000000E+02    0.2707169235E-04    0.5534664576E+00    0.1545802525E-03    0.1872621724E-04    0.4380351542E-02
    0.3700000000E+02    0.2733619396E-04    0.5596498718E+00    0.1573476340E-03    0.1970073019E-04    0.4382738016E-02
    0.3900000000E+02    0.2759198460E-04    0.5653180458E+00    0.1601478111E-03    0.2067239046E-04    0.4384912340E-02
    0.4100000000E+02    0.2784117708E-04    0.5705328104E+00    0.1629842009E-03    0.2164147443E-04    0.4386899102E-02
    0.4300000000E+02    0.2808545784E-04    0.5753464827E+00    0.1658588275E-03    0.2260822887E-04    0.4388719168E-02
    0.4500000000E+02    0.2832617911E-04    0.5798036285E+00    0.1687727123E-03    0.2357287534E-04    0.4390390364E-02
    0.4700000000E+02    0.2856442921E-04    0.5839424466E+00    0.1717261571E-03    0.2453561379E-04    0.4391928017E-02
    0.4900000000E+02    0.2880108671E-04    0.5877958667E+00    0.1747189514E-03    0.2549662554E-04    0.4393345378E-02
    0.1000000000E+02    0.1992987266E-04    0.3663232270E+00    0.1109723150E-03    0.6086828441E-05    0.4306615551E-02
    0.3000000000E+02    0.2635306086E-04    0.5352335160E+00    0.1477632815E-03    0.1627530412E-04    0.4373251197E-02
    0.5000000000E+02    0.2891904598E-04    0.5896246219E+00    0.1762299369E-03    0.2597653608E-04    0.4394012609E-02
    0.7000000000E+02    0.3130880678E-04    0.6164784553E+00    0.2082880689E-03    0.3551754648E-04    0.4403177885E-02
    0.9000000000E+02    0.3386186999E-04    0.6324836194E+00    0.2431071035E-03    0.4501109331E-04    0.4407542091E-02
    0.1100000000E+03    0.3660154983E-04    0.6431095816E+00    0.2798624413E-03    0.5451508873E-04    0.4409402771E-02
    0.1300000000E+03    0.3950809018E-04    0.6506780647E+00    0.3180657408E-03    0.6406528137E-04    0.4409763484E-02
    0.1500000000E+03    0.4255969422E-04    0.6563427095E+00    0.3574360981E-03    0.7368639811E-04    0.4409136088E-02
    0.1700000000E+03    0.4573894465E-04    0.6607416046E+00    0.3978099059E-03    0.8339696747E-04    0.4407810471E-02
    0.1900000000E+03    0.4903291596E-04    0.6642563426E+00    0.4390912509E-03    0.9321173795E-04    0.4405963675E-02
    0.2100000000E+03    0.5243225206E-04    0.6671291339E+00    0.4812247957E-03    0.1031430198E-03    0.4403710131E-02
    0.2300000000E+03    0.5593027278E-04    0.6695211214E+00    0.5241804996E-03    0.1132014878E-03    0.4401127109E-02
    0.2500000000E+03    0.5952228362E-04    0.6715436786E+00    0.5679446932E-03    0.1233966900E-03    0.4398268612E-02
    0.2700000000E+03    0.6320507306E-04    0.6732762466E+00    0.6125146847E-03    0.1337373863E-03    0.4395173419E-02
    0.2900000000E+03    0.6697655195E-04    0.6747770131E+00    0.6578953988E-03    0.1442317828E-03    0.4391869977E-02
    0.3100000000E+03    0.7083549458E-04    0.6760895744E+00    0.7040972283E-03    0.1548876990E-03    0.4388379500E-02
    0.3300000000E+03    0.7478135142E-04    0.6772472393E+00    0.7511346288E-03    0.1657126920E-03    0.4384717995E-02
    0.3500000000E+03    0.7881411259E-04    0.6782758947E+00    0.7990251839E-03    0.1767141505E-03    0.4380897641E-02
    0.3700000000E+03    0.8293420713E-04    0.6791959636E+00    0.8477889757E-03    0.1878993674E-03    0.4376927726E-02
    0.3900000000E+03    0.8714242838E-04    0.6800237742E+00    0.8974481563E-03    0.1992755989E-03    0.4372815330E-02
    0.4100000000E+03    0.9143987796E-04    0.6807725377E+00    0.9480266563E-03    0.2108501119E-03    0.4368565801E-02
    0.4300000000E+03    0.9582792378E-04    0.6814530575E+00    0.9995499880E-03    0.2226302239E-03    0.4364183113E-02
    0.4500000000E+03    0.1003081683E-03    0.6820742544E+00    0.1052045114E-02    0.2346233377E-03    0.4359670133E-02
    0.4700000000E+03    0.1048824245E-03    0.6826435594E+00    0.1105540366E-02    0.2468369706E-03    0.4355028822E-02
    0.4900000000E+03    0.1095526983E-03    0.6831672121E+00    0.1160065394E-02    0.2592787817E-03    0.4350260382E-02
    0.1000000000E+03    0.3520939599E-04    0.6382839587E+00    0.2612795454E-03    0.4975920878E-04    0.4408705974E-02
    0.3000000000E+03    0.6889513868E-04    0.6754545355E+00    0.6808928531E-03    0.1495390736E-03    0.4390147014E-02
    0.5000000000E+03    0.1119245179E-03    0.6834136005E+00    0.1187723694E-02    0.2655876922E-03    0.4347828688E-02
    0.7000000000E+03    0.1650343320E-03    0.6868812224E+00    0.1803335401E-02    0.4057961348E-03    0.4292389781E-02
    0.9000000000E+03    0.2313737029E-03    0.6888221571E+00    0.2567498574E-02    0.5796834019E-03    0.4222302655E-02
    0.1100000000E+04    0.3159727976E-03    0.6900624761E+00    0.3539420997E-02    0.8009210888E-03    0.4133149532E-02
    0.1300000000E+04    0.4266465131E-03    0.6909233785E+00    0.4809690712E-02    0.1090309276E-02    0.4017625297E-02
    0.1500000000E+04    0.5757879753E-03    0.6915557673E+00    0.6521466082E-02    0.1480710111E-02    0.3864156011E-02
    0.1700000000E+04    0.7834766866E-03    0.6920398985E+00    0.8906728626E-02    0.2025446722E-02    0.3654389654E-02
    0.1900000000E+04    0.1082242604E-02    0.6924223906E+00    0.1234204923E-01    0.2811293916E-02    0.3359733344E-02
    0.2100000000E+04    0.1521174178E-02    0.6927321752E+00    0.1739813816E-01    0.3970370048E-02    0.2940123440E-02
    0.2300000000E+04    0.2154028324E-02    0.6929881573E+00    0.2470777424E-01    0.5651022323E-02    0.2360785524E-02
    0.2500000000E+04    0.2970047920E-02    0.6932032125E+00    0.3417362714E-01    0.7837312563E-02    0.1661481080E-02
    0.2700000000E+04    0.3797129143E-02    0.6933864130E+00    0.4383916729E-01    0.1008684922E-01    0.1028013355E-02
    0.2900000000E+04    0.4430333704E-02    0.6935443350E+00    0.5133748014E-01    0.1185547269E-01    0.6347911118E-03
    0.3100000000E+04    0.4854426503E-02    0.6936818619E+00    0.5646550061E-01    0.1309010329E-01    0.4563146721E-03
    0.3300000000E+04    0.5157089708E-02    0.6938026958E+00    0.6021599934E-01    0.1401432318E-01    0.3883977698E-03
    0.3500000000E+04    0.5403256447E-02    0.6939096945E+00    0.6333159582E-01    0.1479718164E-01    0.3647017848E-03
    0.3700000000E+04    0.5622921285E-02    0.6940050990E+00    0.6615658224E-01    0.1551736849E-01    0.3570447096E-03
    0.3900000000E+04    0.5828049944E-02    0.6940906914E+00    0.6882826981E-01    0.1620627245E-01    0.3550126581E-03
    0.4100000000E+04    0.6023301069E-02    0.6941679066E+00    0.7139972361E-01    0.1687594233E-01    0.3549248446E-03
    0.4300000000E+04    0.6210580930E-02    0.6942379130E+00    0.7389218448E-01    0.1753109789E-01    0.3554944993E-03
    0.4500000000E+04    0.6390775636E-02    0.6943016715E+00    0.7631508881E-01    0.1817373678E-01    0.3562721054E-03
    0.4700000000E+04    0.6564388611E-02    0.6943599795E+00    0.7867346242E-01    0.1880484255E-01    0.3571008227E-03
    0.4900000000E+04    0.6731773700E-02    0.6944135044E+00    0.8097063224E-01    0.1942501301E-01    0.3579265876E-03
    0.1000000000E+04    0.2709835891E-03    0.6895038494E+00    0.3022755363E-02    0.6832955181E-03    0.4180487187E-02
    0.3000000000E+04    0.4663251832E-02    0.6936153934E+00    0.5413856415E-01    0.1252630449E-01    0.5255712585E-03
    0.5000000000E+04    0.6813222845E-02    0.6944386527E+00    0.8209710159E-01    0.1973113938E-01    0.3583321620E-03
    0.7000000000E+04    0.8174105923E-02    0.6947899196E+00    0.1019386200E+00    0.2536569467E-01    0.3651982425E-03
    0.9000000000E+04    0.9142619891E-02    0.6949839956E+00    0.1177197822E+00    0.3024318797E-01    0.3703937107E-03
    0.1100000000E+05    0.9840627561E-02    0.6951067604E+00    0.1305555373E+00    0.3454864656E-01    0.3745841670E-03
    0.1300000000E+05    0.1034656410E-01    0.6951912185E+00    0.1411867983E+00    0.3840855425E-01    0.3781027625E-03
    0.1500000000E+05    0.1071283467E-01    0.6952527528E+00    0.1501251839E+00    0.4191269385E-01    0.3811394933E-03
    0.1700000000E+05    0.1097554699E-01    0.6952994954E+00    0.1577353533E+00    0.4512680556E-01    0.3838132153E-03
    0.1900000000E+05    0.1116022960E-01    0.6953361466E+00    0.1642842480E+00    0.4810029903E-01    0.3862033392E-03
    0.2100000000E+05    0.1128533085E-01    0.6953656111E+00    0.1699717793E+00    0.5087114673E-01    0.3883656061E-03
    0.2300000000E+05    0.1136443524E-01    0.6953897799E+00    0.1749506335E+00    0.5346909798E-01    0.3903406767E-03
    0.2500000000E+05    0.1140770950E-01    0.6954099365E+00    0.1793394473E+00    0.5591785362E-01    0.3921591406E-03
    0.2700000000E+05    0.1142287094E-01    0.6954269823E+00    0.1832318031E+00    0.5823657606E-01    0.3938446002E-03
    0.2900000000E+05    0.1141585056E-01    0.6954415687E+00    0.1867025159E+00    0.6044096182E-01    0.3954156562E-03
    0.3100000000E+05    0.1139125658E-01    0.6954541783E+00    0.1898121161E+00    0.6254401895E-01    0.3968872326E-03
    0.3300000000E+05    0.1135270402E-01    0.6954651757E+00    0.1926101057E+00    0.6455664062E-01    0.3982714893E-03
    0.3500000000E+05    0.1130305304E-01    0.6954748418E+00    0.1951373626E+00    0.6648803523E-01    0.3995784679E-03
    0.3700000000E+05    0.1124458364E-01    0.6954833962E+00    0.1974279408E+00    0.6834605368E-01    0.4008165582E-03
    0.3900000000E+05    0.1117912550E-01    0.6954910130E+00    0.1995104385E+00    0.7013744162E-01    0.4019928433E-03
    0.4100000000E+05    0.1110815548E-01    0.6954978322E+00    0.2014090491E+00    0.7186803636E-01    0.4031133586E-03
    0.4300000000E+05    0.1103287189E-01    0.6955039674E+00    0.2031443779E+00    0.7354292206E-01    0.4041832893E-03
    0.4500000000E+05    0.1095425129E-01    0.6955095120E+00    0.2047340840E+00    0.7516655355E-01    0.4052071239E-03
    0.4700000000E+05    0.1087309261E-01    0.6955145430E+00    0.2061933885E+00    0.7674285578E-01    0.4061887739E-03
    0.4900000000E+05    0.1079005158E-01    0.6955191250E+00    0.2075354812E+00    0.7827530462E-01    0.4071316690E-03
    0.1000000000E+05    0.9519771126E-02    0.6950516095E+00    0.1244528658E+00    0.3245845987E-01    0.3725890610E-03
    0.3000000000E+05    0.1140550421E-01    0.6954480955E+00    0.1882991343E+00    0.6150443170E-01    0.3961630632E-03
    0.5000000000E+05    0.1074799772E-01    0.6955212649E+00    0.2081662215E+00    0.7902606391E-01    0.4075895427E-03
    0.7000000000E+05    0.9897501144E-02    0.6955500255E+00    0.2167619565E+00    0.9233782228E-01    0.4152894279E-03
    0.9000000000E+05    0.9120526852E-02    0.6955645456E+00    0.2208654199E+00    0.1033909726E+00    0.4211332356E-03
    0.1100000000E+06    0.8446532586E-02    0.6955728473E+00    0.2227663214E+00    0.1130004233E+00    0.4258574697E-03
    0.1300000000E+06    0.7865370000E-02    0.6955779384E+00    0.2234488606E+00    0.1215897872E+00    0.4298301803E-03
    0.1500000000E+06    0.7361597689E-02    0.6955811863E+00    0.2234030971E+00    0.1294102863E+00    0.4332624096E-03
    0.1700000000E+06    0.6921328238E-02    0.6955832958E+00    0.2228985992E+00    0.1366246510E+00    0.4362866714E-03
    0.1900000000E+06    0.6533265906E-02    0.6955846636E+00    0.2220947005E+00    0.1433451687E+00    0.4389917417E-03
    0.2100000000E+06    0.6188455428E-02    0.6955855285E+00    0.2210908162E+00    0.1496530856E+00    0.4414400638E-03
    0.2300000000E+06    0.5879816219E-02    0.6955860416E+00    0.2199516343E+00    0.1556093982E+00    0.4436772615E-03
    0.2500000000E+06    0.5601718196E-02    0.6955863025E+00    0.2187206680E+00    0.1612612722E+00    0.4457377026E-03
    0.2700000000E+06    0.5349645211E-02    0.6955863793E+00    0.2174279770E+00    0.1666460681E+00    0.4476479335E-03
    0.2900000000E+06    0.5119939216E-02    0.6955863194E+00    0.2160947779E+00    0.1717939794E+00    0.4494288937E-03
    0.3100000000E+06    0.4909608095E-02    0.6955861570E+00    0.2147363080E+00    0.1767298248E+00    0.4510973963E-03
    0.3300000000E+06    0.4716181310E-02    0.6955859171E+00    0.2133636623E+00    0.1814743028E+00    0.4526671499E-03
    0.3500000000E+06    0.4537600799E-02    0.6955856181E+00    0.2119850075E+00    0.1860448934E+00    0.4541494808E-03
    0.3700000000E+06    0.4372137866E-02    0.6955852741E+00    0.2106064030E+00    0.1904565214E+00    0.4555538574E-03
    0.3900000000E+06    0.4218329259E-02    0.6955848957E+00    0.2092323681E+00    0.1947220534E+00    0.4568882767E-03
    0.4100000000E+06    0.4074927560E-02    0.6955844912E+00    0.2078662824E+00    0.1988526770E+00    0.4581595554E-03
    0.4300000000E+06    0.3940862305E-02    0.6955840670E+00    0.2065106718E+00    0.2028581945E+00    0.4593735521E-03
    0.4500000000E+06    0.3815209244E-02    0.6955836281E+00    0.2051674164E+00    0.2067472538E+00    0.4605353397E-03
    0.4700000000E+06    0.3697165828E-02    0.6955831785E+00    0.2038379042E+00    0.2105275317E+00    0.4616493403E-03
    0.4900000000E+06    0.3586031498E-02    0.6955827214E+00    0.2025231448E+00    0.2142058815E+00    0.4627194324E-03
    0.1000000000E+06    0.8771002333E-02    0.6955692277E+00    0.2220128687E+00    0.1083441201E+00    0.4236071752E-03
    0.3000000000E+06    0.5012517004E-02    0.6955862493E+00    0.2154179279E+00    0.1742870321E+00    0.4502762823E-03
    0.5000000000E+06    0.3532860209E-02    0.6955824908E+00    0.2018715311E+00    0.2160087798E+00    0.4632390976E-03
    0.7000000000E+06    0.2716361812E-02    0.6955778828E+00    0.1896929322E+00    0.2479279376E+00    0.4719801359E-03
    0.9000000000E+06    0.2192283427E-02    0.6955736466E+00    0.1790547422E+00    0.2740572481E+00    0.4786161337E-03
    0.1100000000E+07    0.1825737782E-02    0.6955698741E+00    0.1697065889E+00    0.2962343295E+00    0.4839817042E-03
    0.1300000000E+07    0.1554668713E-02    0.6955665102E+00    0.1614123374E+00    0.3154930777E+00    0.4884942192E-03
    0.1500000000E+07    0.1346162796E-02    0.6955634872E+00    0.1539861591E+00    0.3324875114E+00    0.4923931048E-03
    0.1700000000E+07    0.1181001149E-02    0.6955607471E+00    0.1472846948E+00    0.3476640889E+00    0.4958287411E-03
    0.1900000000E+07    0.1047152106E-02    0.6955582435E+00    0.1411963266E+00    0.3613443281E+00    0.4989018940E-03
    0.2100000000E+07    0.9366745142E-03    0.6955559395E+00    0.1356328043E+00    0.3737691217E+00    0.5016834516E-03
    0.2300000000E+07    0.8441046242E-03    0.6955538060E+00    0.1305232449E+00    0.3851245356E+00    0.5042252139E-03
    0.2500000000E+07    0.7655548896E-03    0.6955518195E+00    0.1258098798E+00    0.3955577967E+00    0.5065662052E-03
    0.2700000000E+07    0.6981815808E-03    0.6955499609E+00    0.1214450112E+00    0.4051877029E+00    0.5087365711E-03
    0.2900000000E+07    0.6398555700E-03    0.6955482147E+00    0.1173887994E+00    0.4141116786E+00    0.5107600914E-03
    0.3100000000E+07    0.5889508498E-03    0.6955465679E+00    0.1136076274E+00    0.4224107165E+00    0.5126558612E-03
    0.3300000000E+07    0.5442042261E-03    0.6955450096E+00    0.1100728711E+00    0.4301529373E+00    0.5144394500E-03
    0.3500000000E+07    0.5046196190E-03    0.6955435307E+00    0.1067599607E+00    0.4373962138E+00    0.5161237227E-03
    0.3700000000E+07    0.4694012003E-03    0.6955421234E+00    0.1036476540E+00    0.4441901466E+00    0.5177194338E-03
    0.3900000000E+07    0.4379056847E-03    0.6955407808E+00    0.1007174660E+00    0.4505775766E+00    0.5192356671E-03
    0.4100000000E+07    0.4096076485E-03    0.6955394973E+00    0.9795321656E-01    0.4565957615E+00    0.5206801659E-03
    0.4300000000E+07    0.3840738965E-03    0.6955382677E+00    0.9534066715E-01    0.4622773040E+00    0.5220595852E-03
    0.4500000000E+07    0.3609442335E-03    0.6955370876E+00    0.9286722691E-01    0.4676508922E+00    0.5233796879E-03
    0.4700000000E+07    0.3399168457E-03    0.6955359531E+00    0.9052171206E-01    0.4727418969E+00    0.5246454972E-03
    0.4900000000E+07    0.3207370509E-03    0.6955348606E+00    0.8829414775E-01    0.4775728589E+00    0.5258614193E-03
    0.1000000000E+07    0.1994170270E-02    0.6955717050E+00    0.1742353525E+00    0.2855632421E+00    0.4814258341E-03
    0.3000000000E+07    0.6135617092E-03    0.6955473796E+00    0.1154657273E+00    0.4183347900E+00    0.5117229003E-03
    0.5000000000E+07    0.3117711055E-03    0.6955343293E+00    0.8722176943E-01    0.4798971939E+00    0.5264519051E-03
    0.7000000000E+07    0.1908980252E-03    0.6955253155E+00    0.7022299061E-01    0.5166367283E+00    0.5363843145E-03
    0.9000000000E+07    0.1295332179E-03    0.6955183956E+00    0.5879953348E-01    0.5412324308E+00    0.5439248980E-03
    0.1100000000E+08    0.9390241305E-04    0.6955127639E+00    0.5057736737E-01    0.5588973545E+00    0.5500219265E-03
    0.1300000000E+08    0.7130875875E-04    0.6955080073E+00    0.4437073188E-01    0.5722136415E+00    0.5551496313E-03
    0.1500000000E+08    0.5605407739E-04    0.6955038850E+00    0.3951755577E-01    0.5826161879E+00    0.5595800635E-03
    0.1700000000E+08    0.4525679153E-04    0.6955002442E+00    0.3561798942E-01    0.5909689308E+00    0.5634840970E-03
    0.1900000000E+08    0.3732742039E-04    0.6954969818E+00    0.3241590414E-01    0.5978240995E+00    0.5669762319E-03
    0.2100000000E+08    0.3132896838E-04    0.6954940247E+00    0.2973949922E-01    0.6035515299E+00    0.5701370187E-03
    0.2300000000E+08    0.2667921691E-04    0.6954913193E+00    0.2746917643E-01    0.6084083758E+00    0.5730253183E-03
    0.2500000000E+08    0.2300055678E-04    0.6954888253E+00    0.2551908606E-01    0.6125790542E+00    0.5756854750E-03
    0.2700000000E+08    0.2003920607E-04    0.6954865110E+00    0.2382599513E-01    0.6161992966E+00    0.5781517437E-03
