  Pressure (Pa) 23mC5-500 (mol/kg) 24mC5-500 (mol/kg) 2mC6-500 (mol/kg) 3mC6-500 (mol/kg) C7-500 (mol/kg)
    0.1000000000E+01    0.3232817628E-05    0.2142813129E+00    0.7237163656E-05    0.8975894931E-06    0.4167239155E-02
    0.3000000000E+01    0.5512175252E-05    0.3978517509E+00    0.1182070969E-04    0.2256493751E-05    0.4188379839E-02
    0.5000000000E+01    0.6381020456E-05    0.4801136563E+00    0.1370016855E-04    0.3496001039E-05    0.4195577439E-02
    0.7000000000E+01    0.6873443965E-05    0.5267955797E+00    0.1508662107E-04    0.4677724771E-05    0.4199393430E-02
    0.9000000000E+01    0.7236430379E-05    0.5568768710E+00    0.1639325208E-04    0.5822294160E-05    0.4201754500E-02
    0.1100000000E+02    0.7550300217E-05    0.5778758705E+00    0.1771606404E-04    0.6939995664E-05    0.4203342231E-02
    0.1300000000E+02    0.7845868786E-05    0.5933663608E+00    0.1907551431E-04    0.8036938648E-05    0.4204465912E-02
    0.1500000000E+02    0.8136115185E-05    0.6052645361E+00    0.2047180958E-04    0.9117142924E-05    0.4205287725E-02
    0.1700000000E+02    0.8426747993E-05    0.6146901745E+00    0.2189999407E-04    0.1018343965E-04    0.4205901407E-02
    0.1900000000E+02    0.8720259254E-05    0.6223414561E+00    0.2335440308E-04    0.1123792234E-04    0.4206365118E-02
    0.2100000000E+02    0.9017641366E-05    0.6286763093E+00    0.2482994236E-04    0.1228219693E-04    0.4206716955E-02
    0.2300000000E+02    0.9319168203E-05    0.6340075670E+00    0.2632236298E-04    0.1331753110E-04    0.4206982970E-02
    0.2500000000E+02    0.9624769399E-05    0.6385562159E+00    0.2782822222E-04    0.1434494887E-04    0.4207181610E-02
    0.2700000000E+02    0.9934216210E-05    0.6424827985E+00    0.2934476112E-04    0.1536529322E-04    0.4207326324E-02
    0.2900000000E+02    0.1024721573E-04    0.6459067568E+00    0.3086977518E-04    0.1637926914E-04    0.4207427159E-02
    0.3100000000E+02    0.1056345885E-04    0.6489187934E+00    0.3240150146E-04    0.1738747421E-04    0.4207491781E-02
    0.3300000000E+02    0.1088264423E-04    0.6515890253E+00    0.3393852641E-04    0.1839042086E-04    0.4207526142E-02
    0.3500000000E+02    0.1120448958E-04    0.6539725099E+00    0.3547971282E-04    0.1938855291E-04    0.4207534943E-02
    0.3700000000E+02    0.1152873627E-04    0.6561130827E+00    0.3702414254E-04    0.2038225816E-04    0.4207521945E-02
    0.3900000000E+02    0.1185515037E-04    0.6580460773E+00    0.3857107177E-04    0.2137187814E-04    0.4207490196E-02
    0.4100000000E+02    0.1218352187E-04    0.6598002915E+00    0.4011989619E-04    0.2235771569E-04    0.4207442193E-02
    0.4300000000E+02    0.1251366308E-04    0.6613994315E+00    0.4167012350E-04    0.2334004103E-04    0.4207380003E-02
    0.4500000000E+02    0.1284540659E-04    0.6628631899E+00    0.4322135193E-04    0.2431909665E-04    0.4207305352E-02
    0.4700000000E+02    0.1317860328E-04    0.6642080601E+00    0.4477325320E-04    0.2529510123E-04    0.4207219694E-02
    0.4900000000E+02    0.1351312034E-04    0.6654479611E+00    0.4632555893E-04    0.2626825292E-04    0.4207124260E-02
    0.1000000000E+02    0.7396956273E-05    0.5682335865E+00    0.1705056386E-04    0.6384056970E-05    0.4202620774E-02
    0.3000000000E+02    0.1040495103E-04    0.6474594754E+00    0.3163489489E-04    0.1688405922E-04    0.4207463591E-02
    0.5000000000E+02    0.1368083649E-04    0.6660323151E+00    0.4710179328E-04    0.2675381590E-04    0.4207073213E-02
    0.7000000000E+02    0.1708182521E-04    0.6743223534E+00    0.6261240527E-04    0.3635174587E-04    0.4205728925E-02
    0.9000000000E+02    0.2053676934E-04    0.6790176757E+00    0.7806667608E-04    0.4580031498E-04    0.4204032832E-02
    0.1100000000E+03    0.2402070293E-04    0.6820397568E+00    0.9346748856E-04    0.5516129062E-04    0.4202165765E-02
    0.1300000000E+03    0.2752412561E-04    0.6841477334E+00    0.1088343822E-03    0.6447173961E-04    0.4200201239E-02
    0.1500000000E+03    0.3104348196E-04    0.6857018494E+00    0.1241876804E-03    0.7375633080E-04    0.4198174651E-02
    0.1700000000E+03    0.3457774868E-04    0.6868950355E+00    0.1395453710E-03    0.8303267380E-04    0.4196104984E-02
    0.1900000000E+03    0.3812705021E-04    0.6878399382E+00    0.1549228112E-03    0.9231400099E-04    0.4194003190E-02
    0.2100000000E+03    0.4169204474E-04    0.6886067455E+00    0.1703330619E-03    0.1016106575E-03    0.4191875914E-02
    0.2300000000E+03    0.4527363411E-04    0.6892414685E+00    0.1857873080E-03    0.1109309928E-03    0.4189727333E-02
    0.2500000000E+03    0.4887282109E-04    0.6897755258E+00    0.2012952302E-03    0.1202819253E-03    0.4187560131E-02
    0.2700000000E+03    0.5249063774E-04    0.6902311036E+00    0.2168653060E-03    0.1296693163E-03    0.4185376045E-02
    0.2900000000E+03    0.5612810949E-04    0.6906243149E+00    0.2325050469E-03    0.1390982279E-03    0.4183176201E-02
    0.3100000000E+03    0.5978623790E-04    0.6909671441E+00    0.2482211842E-03    0.1485731051E-03    0.4180961305E-02
    0.3300000000E+03    0.6346599330E-04    0.6912686901E+00    0.2640198138E-03    0.1580979088E-03    0.4178731783E-02
    0.3500000000E+03    0.6716831260E-04    0.6915359854E+00    0.2799065118E-03    0.1676762150E-03    0.4176487858E-02
    0.3700000000E+03    0.7089409994E-04    0.6917745508E+00    0.2958864252E-03    0.1773112897E-03    0.4174229611E-02
    0.3900000000E+03    0.7464422877E-04    0.6919887813E+00    0.3119643455E-03    0.1870061471E-03    0.4171957017E-02
    0.4100000000E+03    0.7841954451E-04    0.6921822190E+00    0.3281447679E-03    0.1967635952E-03    0.4169669978E-02
    0.4300000000E+03    0.8222086744E-04    0.6923577504E+00    0.3444319401E-03    0.2065862718E-03    0.4167368336E-02
    0.4500000000E+03    0.8604899568E-04    0.6925177512E+00    0.3608299020E-03    0.2164766741E-03    0.4165051892E-02
    0.4700000000E+03    0.8990470794E-04    0.6926641949E+00    0.3773425188E-03    0.2264371820E-03    0.4162720414E-02
    0.4900000000E+03    0.9378876617E-04    0.6927987340E+00    0.3939735092E-03    0.2364700779E-03    0.4160373644E-02
    0.1000000000E+03    0.2227591004E-04    0.6806765046E+00    0.8577263905E-04    0.5048905235E-04    0.4203114759E-02
    0.3000000000E+03    0.5795453019E-04    0.6908014021E+00    0.2403531716E-03    0.1438296632E-03    0.4182070602E-02
    0.5000000000E+03    0.9574165914E-04    0.6928619839E+00    0.4023345223E-03    0.2415143619E-03    0.4159194439E-02
    0.7000000000E+03    0.1364654340E-03    0.6937485526E+00    0.5766032216E-03    0.3467090572E-03    0.4134732754E-02
    0.9000000000E+03    0.1808444171E-03    0.6942418935E+00    0.7664696189E-03    0.4614308757E-03    0.4108363392E-02
    0.1100000000E+04    0.2296092419E-03    0.6945560861E+00    0.9751462519E-03    0.5876303716E-03    0.4079706624E-02
    0.1300000000E+04    0.2835778839E-03    0.6947736875E+00    0.1206183070E-02    0.7274659531E-03    0.4048331897E-02
    0.1500000000E+04    0.3437092495E-03    0.6949332864E+00    0.1463724687E-02    0.8834614353E-03    0.4013738645E-02
    0.1700000000E+04    0.4111563923E-03    0.6950553339E+00    0.1752748754E-02    0.1058651547E-02    0.3975331774E-02
    0.1900000000E+04    0.4873292062E-03    0.6951516788E+00    0.2079340529E-02    0.1256749842E-02    0.3932391784E-02
    0.2100000000E+04    0.5739739235E-03    0.6952296603E+00    0.2451038737E-02    0.1482360636E-02    0.3884037152E-02
    0.2300000000E+04    0.6732772015E-03    0.6952940667E+00    0.2877287695E-02    0.1741256491E-02    0.3829175857E-02
    0.2500000000E+04    0.7880043540E-03    0.6953481549E+00    0.3370037872E-02    0.2040747350E-02    0.3766442230E-02
    0.2700000000E+04    0.9216837501E-03    0.6953942175E+00    0.3944547831E-02    0.2390174195E-02    0.3694114606E-02
    0.2900000000E+04    0.1078851716E-02    0.6954339148E+00    0.4620450962E-02    0.2801566916E-02    0.3610009086E-02
    0.3100000000E+04    0.1265372337E-02    0.6954684791E+00    0.5423151695E-02    0.3290507486E-02    0.3511346294E-02
    0.3300000000E+04    0.1488838920E-02    0.6954988436E+00    0.6385584438E-02    0.3877221394E-02    0.3394594457E-02
    0.3500000000E+04    0.1759035314E-02    0.6955257287E+00    0.7550247903E-02    0.4587848221E-02    0.3255310307E-02
    0.3700000000E+04    0.2088356488E-02    0.6955496987E+00    0.8971090636E-02    0.5455638693E-02    0.3088043653E-02
    0.3900000000E+04    0.2491900557E-02    0.6955712023E+00    0.1071401891E-01    0.6521335908E-02    0.2886468266E-02
    0.4100000000E+04    0.2986561948E-02    0.6955906008E+00    0.1285314410E-01    0.7830986064E-02    0.2644083890E-02
    0.4300000000E+04    0.3587847658E-02    0.6956081880E+00    0.1545723880E-01    0.9427790149E-02    0.2356088702E-02
    0.4500000000E+04    0.4302711806E-02    0.6956242057E+00    0.1855894971E-01    0.1133338411E-01    0.2023096010E-02
    0.4700000000E+04    0.5118093526E-02    0.6956388543E+00    0.2210516674E-01    0.1351741512E-01    0.1656437881E-02
    0.4900000000E+04    0.5990616676E-02    0.6956523018E+00    0.2591178334E-01    0.1586940289E-01    0.1281841617E-02
    0.1000000000E+04    0.2046301845E-03    0.6944146789E+00    0.8682459926E-03    0.5229679126E-03    0.4094346460E-02
    0.3000000000E+04    0.1168014127E-02    0.6954517744E+00    0.5004092712E-02    0.3035202769E-02    0.3562698503E-02
    0.5000000000E+04    0.6426943108E-02    0.6956586202E+00    0.2782113144E-01    0.1705279689E-01    0.1102737362E-02
    0.7000000000E+04    0.1072179109E-01    0.6957469036E+00    0.4731565337E-01    0.2958684604E-01    0.7244512425E-04
    0.9000000000E+04    0.1263402699E-01    0.6957957329E+00    0.5685179209E-01    0.3626911481E-01    0.6676006635E-04
    0.1100000000E+05    0.1420204373E-01    0.6958266635E+00    0.6511858454E-01    0.4234511145E-01    0.6747949980E-04
    0.1300000000E+05    0.1550599792E-01    0.6958479760E+00    0.7239632415E-01    0.4794734417E-01    0.6810971285E-04
    0.1500000000E+05    0.1659506212E-01    0.6958635302E+00    0.7884824755E-01    0.5314567189E-01    0.6865426153E-04
    0.1700000000E+05    0.1750749811E-01    0.6958753664E+00    0.8460328896E-01    0.5799601043E-01    0.6913403407E-04
    0.1900000000E+05    0.1827350749E-01    0.6958846645E+00    0.8976485459E-01    0.6254384448E-01    0.6956313582E-04
    0.2100000000E+05    0.1891719927E-01    0.6958921536E+00    0.9441684125E-01    0.6682659539E-01    0.6995148614E-04
    0.2300000000E+05    0.1945801444E-01    0.6958983089E+00    0.9862802921E-01    0.7087536604E-01    0.7030633080E-04
    0.2500000000E+05    0.1991177375E-01    0.6959034527E+00    0.1024553404E+00    0.7471624780E-01    0.7063312696E-04
    0.2700000000E+05    0.2029145905E-01    0.6959078116E+00    0.1059462890E+00    0.7837131296E-01    0.7093608918E-04
    0.2900000000E+05    0.2060780357E-01    0.6959115496E+00    0.1091408495E+00    0.8185937811E-01    0.7121854139E-04
    0.3100000000E+05    0.2086974304E-01    0.6959147879E+00    0.1120728958E+00    0.8519659806E-01    0.7148315227E-04
    0.3300000000E+05    0.2108476403E-01    0.6959176185E+00    0.1147713240E+00    0.8839693288E-01    0.7173209747E-04
    0.3500000000E+05    0.2125917573E-01    0.6959201120E+00    0.1172609350E+00    0.9147251888E-01    0.7196717446E-04
    0.3700000000E+05    0.2139832384E-01    0.6959223238E+00    0.1195631366E+00    0.9443396572E-01    0.7218988573E-04
    0.3900000000E+05    0.2150676030E-01    0.6959242977E+00    0.1216965054E+00    0.9729059666E-01    0.7240150020E-04
    0.4100000000E+05    0.2158837911E-01    0.6959260692E+00    0.1236772408E+00    0.1000506441E+00    0.7260309947E-04
    0.4300000000E+05    0.2164652574E-01    0.6959276669E+00    0.1255195341E+00    0.1027214100E+00    0.7279561307E-04
    0.4500000000E+05    0.2168408585E-01    0.6959291143E+00    0.1272358711E+00    0.1053093984E+00    0.7297984583E-04
    0.4700000000E+05    0.2170355776E-01    0.6959304310E+00    0.1288372814E+00    0.1078204256E+00    0.7315649928E-04
    0.4900000000E+05    0.2170711195E-01    0.6959316332E+00    0.1303335452E+00    0.1102597121E+00    0.7332618873E-04
    0.1000000000E+05    0.1345465850E-01    0.6958127625E+00    0.6112073804E-01    0.3937140981E-01    0.6712446700E-04
    0.3000000000E+05    0.2074507557E-01    0.6959132249E+00    0.1106377756E+00    0.8354592454E-01    0.7135293100E-04
    0.5000000000E+05    0.2170352079E-01    0.6959321958E+00    0.1310450049E+00    0.1114539404E+00    0.7340859406E-04
    0.7000000000E+05    0.2114570861E-01    0.6959398544E+00    0.1414320176E+00    0.1325007302E+00    0.7479466359E-04
    0.9000000000E+05    0.2016286642E-01    0.6959438449E+00    0.1472008052E+00    0.1497312588E+00    0.7584690978E-04
    0.1100000000E+06    0.1908690652E-01    0.6959462144E+00    0.1504769859E+00    0.1644993428E+00    0.7669770019E-04
    0.1300000000E+06    0.1803248840E-01    0.6959477360E+00    0.1522688094E+00    0.1775257161E+00    0.7741322324E-04
    0.1500000000E+06    0.1703961220E-01    0.6959487641E+00    0.1531162712E+00    0.1892416698E+00    0.7803144615E-04
    0.1700000000E+06    0.1611982408E-01    0.6959494825E+00    0.1533343388E+00    0.1999273345E+00    0.7857621478E-04
    0.1900000000E+06    0.1527331466E-01    0.6959499959E+00    0.1531186885E+00    0.2097760031E+00    0.7906350736E-04
    0.2100000000E+06    0.1449581791E-01    0.6959503677E+00    0.1525969096E+00    0.2189273754E+00    0.7950456427E-04
    0.2300000000E+06    0.1378154370E-01    0.6959506384E+00    0.1518554241E+00    0.2274861746E+00    0.7990759909E-04
    0.2500000000E+06    0.1312444926E-01    0.6959508351E+00    0.1509545868E+00    0.2355332542E+00    0.8027879961E-04
    0.2700000000E+06    0.1251877847E-01    0.6959509763E+00    0.1499376114E+00    0.2431325705E+00    0.8062294573E-04
    0.2900000000E+06    0.1195926842E-01    0.6959510753E+00    0.1488360795E+00    0.2503357498E+00    0.8094380800E-04
    0.3100000000E+06    0.1144120346E-01    0.6959511415E+00    0.1476734681E+00    0.2571851863E+00    0.8124441413E-04
    0.3300000000E+06    0.1096040073E-01    0.6959511822E+00    0.1464674774E+00    0.2637162088E+00    0.8152723284E-04
    0.3500000000E+06    0.1051316734E-01    0.6959512026E+00    0.1452316096E+00    0.2699586351E+00    0.8179430396E-04
    0.3700000000E+06    0.1009624818E-01    0.6959512068E+00    0.1439762643E+00    0.2759379131E+00    0.8204733273E-04
    0.3900000000E+06    0.9706773404E-02    0.6959511980E+00    0.1427095136E+00    0.2816759739E+00    0.8228775945E-04
    0.4100000000E+06    0.9342209576E-02    0.6959511787E+00    0.1414376614E+00    0.2871918828E+00    0.8251681190E-04
    0.4300000000E+06    0.9000315815E-02    0.6959511508E+00    0.1401656529E+00    0.2925023421E+00    0.8273554531E-04
    0.4500000000E+06    0.8679105383E-02    0.6959511159E+00    0.1388973782E+00    0.2976220857E+00    0.8294487338E-04
    0.4700000000E+06    0.8376812353E-02    0.6959510753E+00    0.1376359018E+00    0.3025641923E+00    0.8314559265E-04
    0.4900000000E+06    0.8091862887E-02    0.6959510300E+00    0.1363836357E+00    0.3073403374E+00    0.8333840172E-04
    0.1000000000E+06    0.1962670406E-01    0.6959451692E+00    0.1490719969E+00    0.1573688009E+00    0.7629242990E-04
    0.3000000000E+06    0.1169532880E-01    0.6959511120E+00    0.1482611884E+00    0.2538023329E+00    0.8109647742E-04
    0.5000000000E+06    0.7955446545E-02    0.6959510059E+00    0.1357615658E+00    0.3096694904E+00    0.8343203535E-04
    0.7000000000E+06    0.5864947538E-02    0.6959504189E+00    0.1240846882E+00    0.3496047648E+00    0.8500703792E-04
    0.9000000000E+06    0.4546191297E-02    0.6959497900E+00    0.1140069984E+00    0.3804397978E+00    0.8620278394E-04
    0.1100000000E+07    0.3647999400E-02    0.6959491952E+00    0.1053701652E+00    0.4052890228E+00    0.8716963190E-04
    0.1300000000E+07    0.3002983517E-02    0.6959486476E+00    0.9792563321E-01    0.4258860904E+00    0.8798277693E-04
    0.1500000000E+07    0.2521359102E-02    0.6959481455E+00    0.9145519799E-01    0.4433098368E+00    0.8868535636E-04
    0.1700000000E+07    0.2150756058E-02    0.6959476841E+00    0.8578383845E-01    0.4582815931E+00    0.8930446475E-04
    0.1900000000E+07    0.1858653903E-02    0.6959472584E+00    0.8077368532E-01    0.4713086036E+00    0.8985825789E-04
    0.2100000000E+07    0.1623851423E-02    0.6959468637E+00    0.7631596143E-01    0.4827612280E+00    0.9035950843E-04
    0.2300000000E+07    0.1431977300E-02    0.6959464960E+00    0.7232416173E-01    0.4929179075E+00    0.9081754982E-04
    0.2500000000E+07    0.1272973011E-02    0.6959461520E+00    0.6872881405E-01    0.5019929611E+00    0.9123941365E-04
    0.2700000000E+07    0.1139607334E-02    0.6959458289E+00    0.6547355886E-01    0.5101545866E+00    0.9163053170E-04
    0.2900000000E+07    0.1026561713E-02    0.6959455244E+00    0.6251222628E-01    0.5175369622E+00    0.9199518881E-04
    0.3100000000E+07    0.9298466635E-03    0.6959452364E+00    0.5980664572E-01    0.5242486381E+00    0.9233682571E-04
    0.3300000000E+07    0.8464178589E-03    0.6959449632E+00    0.5732499018E-01    0.5303785059E+00    0.9265824787E-04
    0.3500000000E+07    0.7739168419E-03    0.6959447034E+00    0.5504051237E-01    0.5360001420E+00    0.9296177342E-04
    0.3700000000E+07    0.7104918094E-03    0.6959444557E+00    0.5293057008E-01    0.5411750261E+00    0.9324934025E-04
    0.3900000000E+07    0.6546712007E-03    0.6959442191E+00    0.5097586711E-01    0.5459549686E+00    0.9352258518E-04
    0.4100000000E+07    0.6052728987E-03    0.6959439925E+00    0.4915985644E-01    0.5503839661E+00    0.9378290350E-04
    0.4300000000E+07    0.5613379468E-03    0.6959437752E+00    0.4746826676E-01    0.5544996401E+00    0.9403149444E-04
    0.4500000000E+07    0.5220814468E-03    0.6959435664E+00    0.4588872355E-01    0.5583343650E+00    0.9426939638E-04
    0.4700000000E+07    0.4868557001E-03    0.6959433654E+00    0.4441044355E-01    0.5619161618E+00    0.9449751454E-04
    0.4900000000E+07    0.4551222023E-03    0.6959431717E+00    0.4302398655E-01    0.5652694133E+00    0.9471664287E-04
    0.1000000000E+07    0.4057544234E-02    0.6959494869E+00    0.1095242649E+00    0.3934836838E+00    0.8670907515E-04
    0.3000000000E+07    0.9763717748E-03    0.6959453784E+00    0.6112958843E-01    0.5209706785E+00    0.9216869652E-04
    0.5000000000E+07    0.4404212225E-03    0.6959430774E+00    0.4236255806E-01    0.5668671038E+00    0.9482305793E-04
    0.7000000000E+07    0.2513194788E-03    0.6959414727E+00    0.3238704787E-01    0.5908152042E+00    0.9661305926E-04
    0.9000000000E+07    0.1627522424E-03    0.6959402353E+00    0.2619841877E-01    0.6055456295E+00    0.9797203590E-04
    0.1100000000E+08    0.1141249922E-03    0.6959392257E+00    0.2198564604E-01    0.6155238517E+00    0.9907086882E-04
    0.1300000000E+08    0.8453363989E-04    0.6959383715E+00    0.1893366330E-01    0.6227297248E+00    0.9999501715E-04
    0.1500000000E+08    0.6517521291E-04    0.6959376302E+00    0.1662139152E-01    0.6281770407E+00    0.1007935066E-03
    0.1700000000E+08    0.5181151257E-04    0.6959369750E+00    0.1480935666E-01    0.6324389731E+00    0.1014971304E-03
    0.1900000000E+08    0.4219446159E-04    0.6959363873E+00    0.1335132860E-01    0.6358640553E+00    0.1021265226E-03
    0.2100000000E+08    0.3504045580E-04    0.6959358544E+00    0.1215297458E-01    0.6386764219E+00    0.1026961995E-03
    0.2300000000E+08    0.2957279710E-04    0.6959353666E+00    0.1115071937E-01    0.6410267611E+00    0.1032167687E-03
    0.2500000000E+08    0.2529891354E-04    0.6959349166E+00    0.1030015881E-01    0.6430201178E+00    0.1036962216E-03
    0.2700000000E+08    0.2189405497E-04    0.6959344990E+00    0.9569342975E-02    0.6447319552E+00    0.1041407316E-03
