  Pressure (Pa) 23mC5-500 (mol/kg) 24mC5-500 (mol/kg) 2mC6-500 (mol/kg) 3mC6-500 (mol/kg) C7-500 (mol/kg)
    0.1000000000E+01    0.3339084707E-05    0.1949971768E+00    0.4948072131E-05    0.7998278335E-06    0.4189407929E-02
    0.3000000000E+01    0.5896259076E-05    0.3748950473E+00    0.8318740708E-05    0.2043601378E-05    0.4221126637E-02
    0.5000000000E+01    0.6893665229E-05    0.4597202879E+00    0.9626870370E-05    0.3185497044E-05    0.4235220063E-02
    0.7000000000E+01    0.7432104133E-05    0.5090869953E+00    0.1049029991E-04    0.4277495176E-05    0.4243495950E-02
    0.9000000000E+01    0.7800029921E-05    0.5413851190E+00    0.1125535608E-04    0.5337177847E-05    0.4248999956E-02
    0.1100000000E+02    0.8097455872E-05    0.5641621439E+00    0.1201465250E-04    0.6373360852E-05    0.4252948172E-02
    0.1300000000E+02    0.8364978145E-05    0.5810873168E+00    0.1279375204E-04    0.7391300660E-05    0.4255929250E-02
    0.1500000000E+02    0.8620733317E-05    0.5941590983E+00    0.1359788279E-04    0.8394466463E-05    0.4258264837E-02
    0.1700000000E+02    0.8873290450E-05    0.6045589587E+00    0.1442587114E-04    0.9385307747E-05    0.4260146335E-02
    0.1900000000E+02    0.9126791473E-05    0.6130301591E+00    0.1527473392E-04    0.1036563967E-04    0.4261695145E-02
    0.2100000000E+02    0.9383208110E-05    0.6200636774E+00    0.1614125195E-04    0.1133685718E-04    0.4262992201E-02
    0.2300000000E+02    0.9643406648E-05    0.6259968760E+00    0.1702248800E-04    0.1230006326E-04    0.4264093654E-02
    0.2500000000E+02    0.9907678352E-05    0.6310692215E+00    0.1791592114E-04    0.1325615016E-04    0.4265039761E-02
    0.2700000000E+02    0.1017601473E-04    0.6354553925E+00    0.1881944324E-04    0.1420585337E-04    0.4265860189E-02
    0.2900000000E+02    0.1044825471E-04    0.6392858021E+00    0.1973131060E-04    0.1514978874E-04    0.4266577316E-02
    0.3100000000E+02    0.1072416479E-04    0.6426597844E+00    0.2065008647E-04    0.1608847886E-04    0.4267208363E-02
    0.3300000000E+02    0.1100348316E-04    0.6456543316E+00    0.2157458712E-04    0.1702237231E-04    0.4267766817E-02
    0.3500000000E+02    0.1128594376E-04    0.6483300415E+00    0.2250383550E-04    0.1795185800E-04    0.4268263403E-02
    0.3700000000E+02    0.1157128917E-04    0.6507352604E+00    0.2343702289E-04    0.1887727603E-04    0.4268706763E-02
    0.3900000000E+02    0.1185927705E-04    0.6529090302E+00    0.2437347770E-04    0.1979892618E-04    0.4269103951E-02
    0.4100000000E+02    0.1214968296E-04    0.6548832242E+00    0.2531264030E-04    0.2071707446E-04    0.4269460782E-02
    0.4300000000E+02    0.1244230115E-04    0.6566841202E+00    0.2625404280E-04    0.2163195842E-04    0.4269782098E-02
    0.4500000000E+02    0.1273694416E-04    0.6583335766E+00    0.2719729270E-04    0.2254379136E-04    0.4270071969E-02
    0.4700000000E+02    0.1303344184E-04    0.6598499243E+00    0.2814205980E-04    0.2345276575E-04    0.4270333840E-02
    0.4900000000E+02    0.1333164012E-04    0.6612486501E+00    0.2908806555E-04    0.2435905613E-04    0.4270570650E-02
    0.1000000000E+02    0.7954246091E-05    0.5536797040E+00    0.1163336616E-04    0.5857823101E-05    0.4251122982E-02
    0.3000000000E+02    0.1058576704E-04    0.6410245914E+00    0.2018991430E-04    0.1561975987E-04    0.4266902682E-02
    0.5000000000E+02    0.1348133288E-04    0.6619081001E+00    0.2956145782E-04    0.2481124501E-04    0.4270680461E-02
    0.7000000000E+02    0.1653710247E-04    0.6712802961E+00    0.3905335096E-04    0.3374626129E-04    0.4272020993E-02
    0.9000000000E+02    0.1966603758E-04    0.6766024284E+00    0.4854252825E-04    0.4253289754E-04    0.4272389081E-02
    0.1100000000E+03    0.2283366989E-04    0.6800332302E+00    0.5800739013E-04    0.5122583992E-04    0.4272251337E-02
    0.1300000000E+03    0.2602495521E-04    0.6824287247E+00    0.6744905342E-04    0.5985792940E-04    0.4271808726E-02
    0.1500000000E+03    0.2923287405E-04    0.6841960740E+00    0.7687413310E-04    0.6845099578E-04    0.4271164060E-02
    0.1700000000E+03    0.3245408854E-04    0.6855536852E+00    0.8629014457E-04    0.7702057546E-04    0.4270376195E-02
    0.1900000000E+03    0.3568708508E-04    0.6866292296E+00    0.9570419441E-04    0.8557828832E-04    0.4269481615E-02
    0.2100000000E+03    0.3893130413E-04    0.6875023289E+00    0.1051226536E-03    0.9413316159E-04    0.4268504310E-02
    0.2300000000E+03    0.4218670322E-04    0.6882252153E+00    0.1145511406E-03    0.1026924236E-03    0.4267460794E-02
    0.2500000000E+03    0.4545352531E-04    0.6888335763E+00    0.1239945978E-03    0.1112620074E-03    0.4266362857E-02
    0.2700000000E+03    0.4873217097E-04    0.6893526245E+00    0.1334573877E-03    0.1198468854E-03    0.4265219163E-02
    0.2900000000E+03    0.5202312574E-04    0.6898006783E+00    0.1429433833E-03    0.1284512996E-03    0.4264036239E-02
    0.3100000000E+03    0.5532691792E-04    0.6901913671E+00    0.1524560481E-03    0.1370789251E-03    0.4262819102E-02
    0.3300000000E+03    0.5864409375E-04    0.6905350419E+00    0.1619985017E-03    0.1457329894E-03    0.4261571673E-02
    0.3500000000E+03    0.6197520298E-04    0.6908397045E+00    0.1715735752E-03    0.1544163616E-03    0.4260297065E-02
    0.3700000000E+03    0.6532079034E-04    0.6911116386E+00    0.1811838559E-03    0.1631316193E-03    0.4258997776E-02
    0.3900000000E+03    0.6868139091E-04    0.6913558473E+00    0.1908317250E-03    0.1718811017E-03    0.4257675835E-02
    0.4100000000E+03    0.7205752767E-04    0.6915763635E+00    0.2005193880E-03    0.1806669495E-03    0.4256332904E-02
    0.4300000000E+03    0.7544971047E-04    0.6917764740E+00    0.2102489005E-03    0.1894911382E-03    0.4254970356E-02
    0.4500000000E+03    0.7885843591E-04    0.6919588847E+00    0.2200221892E-03    0.1983555040E-03    0.4253589331E-02
    0.4700000000E+03    0.8228418764E-04    0.6921258434E+00    0.2298410702E-03    0.2072617654E-03    0.4252190782E-02
    0.4900000000E+03    0.8572743706E-04    0.6922792328E+00    0.2397072635E-03    0.2162115402E-03    0.4250775509E-02
    0.1000000000E+03    0.2124622517E-04    0.6784850957E+00    0.5327815538E-04    0.4688868831E-04    0.4272367532E-02
    0.3000000000E+03    0.5367338323E-04    0.6900024822E+00    0.1476961797E-03    0.1327619999E-03    0.4263431680E-02
    0.5000000000E+03    0.8745576756E-04    0.6923513453E+00    0.2446586168E-03    0.2207032268E-03    0.4250061815E-02
    0.7000000000E+03    0.1230482823E-03    0.6933621504E+00    0.3465356817E-03    0.3131613021E-03    0.4235025875E-02
    0.9000000000E+03    0.1608699110E-03    0.6939245544E+00    0.4547148808E-03    0.4114197873E-03    0.4218664637E-02
    0.1100000000E+04    0.2013070940E-03    0.6942826429E+00    0.5703657525E-03    0.5165465956E-03    0.4200997709E-02
    0.1300000000E+04    0.2447552240E-03    0.6945305694E+00    0.6946499506E-03    0.6296018713E-03    0.4181944615E-02
    0.1500000000E+04    0.2916430410E-03    0.6947123479E+00    0.8288131514E-03    0.7517240607E-03    0.4161374005E-02
    0.1700000000E+04    0.3424507635E-03    0.6948513056E+00    0.9742443978E-03    0.8841844698E-03    0.4139116769E-02
    0.1900000000E+04    0.3977269463E-03    0.6949609576E+00    0.1132527549E-02    0.1028434406E-02    0.4114967934E-02
    0.2100000000E+04    0.4581065622E-03    0.6950496748E+00    0.1305494784E-02    0.1186154276E-02    0.4088683742E-02
    0.2300000000E+04    0.5243319644E-03    0.6951229184E+00    0.1495287856E-02    0.1359309906E-02    0.4059975791E-02
    0.2500000000E+04    0.5972781981E-03    0.6951844028E+00    0.1704431683E-02    0.1550220329E-02    0.4028502713E-02
    0.2700000000E+04    0.6779842440E-03    0.6952367422E+00    0.1935925049E-02    0.1761641435E-02    0.3993859267E-02
    0.2900000000E+04    0.7676920811E-03    0.6952818300E+00    0.2193353951E-02    0.1996870624E-02    0.3955562415E-02
    0.3100000000E+04    0.8678959074E-03    0.6953210708E+00    0.2481034479E-02    0.2259878855E-02    0.3913033721E-02
    0.3300000000E+04    0.9804044404E-03    0.6953555288E+00    0.2804193764E-02    0.2555478060E-02    0.3865577207E-02
    0.3500000000E+04    0.1107419889E-02    0.6953860250E+00    0.3169199585E-02    0.2889533800E-02    0.3812351609E-02
    0.3700000000E+04    0.1251637852E-02    0.6954132026E+00    0.3583851149E-02    0.3269234953E-02    0.3752335870E-02
    0.3900000000E+04    0.1416372782E-02    0.6954375730E+00    0.4057744857E-02    0.3703433500E-02    0.3684286827E-02
    0.4100000000E+04    0.1605713146E-02    0.6954595478E+00    0.4602727604E-02    0.4203066542E-02    0.3606688542E-02
    0.4300000000E+04    0.1824707741E-02    0.6954794619E+00    0.5233442738E-02    0.4781666149E-02    0.3517694398E-02
    0.4500000000E+04    0.2079577117E-02    0.6954975906E+00    0.5967952577E-02    0.5455943566E-02    0.3415066692E-02
    0.4700000000E+04    0.2377926581E-02    0.6955141624E+00    0.6828371583E-02    0.6246389039E-02    0.3296126246E-02
    0.4900000000E+04    0.2728900711E-02    0.6955293683E+00    0.7841339320E-02    0.7177732677E-02    0.3157739754E-02
    0.1000000000E+04    0.1807373905E-03    0.6941214922E+00    0.5115349034E-03    0.4630594696E-03    0.4209997933E-02
    0.3000000000E+04    0.8163771566E-03    0.6953021081E+00    0.2333109843E-02    0.2124623568E-02    0.3934867497E-02
    0.5000000000E+04    0.2927399577E-02    0.6955365104E+00    0.8414597415E-02    0.7705143416E-02    0.3080167315E-02
    0.7000000000E+04    0.1025009760E-01    0.6956360871E+00    0.2978612077E-01    0.2758345858E-01    0.5952685126E-03
    0.9000000000E+04    0.1360036393E-01    0.6956908977E+00    0.4016409905E-01    0.3781942546E-01    0.1570892285E-03
    0.1100000000E+05    0.1548970342E-01    0.6957254457E+00    0.4648099434E-01    0.4449207108E-01    0.1531483968E-03
    0.1300000000E+05    0.1709240675E-01    0.6957491304E+00    0.5209292780E-01    0.5065945507E-01    0.1545103760E-03
    0.1500000000E+05    0.1846927561E-01    0.6957663263E+00    0.5714508933E-01    0.5642853179E-01    0.1557448534E-03
    0.1700000000E+05    0.1965560031E-01    0.6957793425E+00    0.6171508310E-01    0.6184881936E-01    0.1568332921E-03
    0.1900000000E+05    0.2067992938E-01    0.6957895121E+00    0.6586632086E-01    0.6696106593E-01    0.1578067679E-03
    0.2100000000E+05    0.2156571039E-01    0.6957976579E+00    0.6965154516E-01    0.7179954802E-01    0.1586877775E-03
    0.2300000000E+05    0.2233235578E-01    0.6958043150E+00    0.7311498786E-01    0.7639333467E-01    0.1594927643E-03
    0.2500000000E+05    0.2299605342E-01    0.6958098461E+00    0.7629401952E-01    0.8076725819E-01    0.1602341120E-03
    0.2700000000E+05    0.2357039175E-01    0.6958145057E+00    0.7922042992E-01    0.8494267378E-01    0.1609213845E-03
    0.2900000000E+05    0.2406684694E-01    0.6958184773E+00    0.8192143250E-01    0.8893806014E-01    0.1615621241E-03
    0.3100000000E+05    0.2449516593E-01    0.6958218970E+00    0.8442045961E-01    0.9276949859E-01    0.1621623861E-03
    0.3300000000E+05    0.2486367033E-01    0.6958248673E+00    0.8673779763E-01    0.9645105869E-01    0.1627271072E-03
    0.3500000000E+05    0.2517949930E-01    0.6958274672E+00    0.8889109838E-01    0.9999511102E-01    0.1632603656E-03
    0.3700000000E+05    0.2544880527E-01    0.6958297582E+00    0.9089579392E-01    0.1034125828E+00    0.1637655704E-03
    0.3900000000E+05    0.2567691268E-01    0.6958317893E+00    0.9276543537E-01    0.1067131679E+00    0.1642456007E-03
    0.4100000000E+05    0.2586844751E-01    0.6958335997E+00    0.9451197159E-01    0.1099055016E+00    0.1647029102E-03
    0.4300000000E+05    0.2602744372E-01    0.6958352210E+00    0.9614597971E-01    0.1129973049E+00    0.1651396081E-03
    0.4500000000E+05    0.2615743119E-01    0.6958366794E+00    0.9767685691E-01    0.1159955066E+00    0.1655575202E-03
    0.4700000000E+05    0.2626150867E-01    0.6958379965E+00    0.9911298100E-01    0.1189063458E+00    0.1659582382E-03
    0.4900000000E+05    0.2634240471E-01    0.6958391902E+00    0.1004618453E+00    0.1217354579E+00    0.1663431579E-03
    0.1000000000E+05    0.1458884419E-01    0.6957099403E+00    0.4343165439E-01    0.4123645158E-01    0.1528854502E-03
    0.3000000000E+05    0.2428897306E-01    0.6958202491E+00    0.8319485788E-01    0.9087335034E-01    0.1618669835E-03
    0.5000000000E+05    0.2637492391E-01    0.6958397456E+00    0.1011056833E+00    0.1231209810E+00    0.1665300839E-03
    0.7000000000E+05    0.2626446264E-01    0.6958470257E+00    0.1107163023E+00    0.1475594236E+00    0.1696741725E-03
    0.9000000000E+05    0.2539821090E-01    0.6958504685E+00    0.1162907567E+00    0.1675454515E+00    0.1720609977E-03
    0.1100000000E+06    0.2427253232E-01    0.6958522727E+00    0.1196066345E+00    0.1846242821E+00    0.1739908400E-03
    0.1300000000E+06    0.2308334554E-01    0.6958532517E+00    0.1215400130E+00    0.1996333071E+00    0.1756138458E-03
    0.1500000000E+06    0.2191312045E-01    0.6958537699E+00    0.1225736994E+00    0.2130787478E+00    0.1770161408E-03
    0.1700000000E+06    0.2079657655E-01    0.6958540123E+00    0.1229958596E+00    0.2252915308E+00    0.1782518172E-03
    0.1900000000E+06    0.1974691043E-01    0.6958540814E+00    0.1229890439E+00    0.2365010396E+00    0.1793571195E-03
    0.2100000000E+06    0.1876725040E-01    0.6958540378E+00    0.1226743350E+00    0.2468736449E+00    0.1803575450E-03
    0.2300000000E+06    0.1785598965E-01    0.6958539190E+00    0.1221350162E+00    0.2565344347E+00    0.1812717250E-03
    0.2500000000E+06    0.1700938102E-01    0.6958537495E+00    0.1214300719E+00    0.2655802407E+00    0.1821136954E-03
    0.2700000000E+06    0.1622283342E-01    0.6958535453E+00    0.1206022861E+00    0.2740878432E+00    0.1828942986E-03
    0.2900000000E+06    0.1549156473E-01    0.6958533175E+00    0.1196833093E+00    0.2821193594E+00    0.1836220876E-03
    0.3100000000E+06    0.1481092553E-01    0.6958530739E+00    0.1186969412E+00    0.2897259055E+00    0.1843039300E-03
    0.3300000000E+06    0.1417655065E-01    0.6958528200E+00    0.1176613234E+00    0.2969501621E+00    0.1849454256E-03
    0.3500000000E+06    0.1358441999E-01    0.6958525596E+00    0.1165904416E+00    0.3038282170E+00    0.1855512015E-03
    0.3700000000E+06    0.1303087168E-01    0.6958522956E+00    0.1154951792E+00    0.3103909201E+00    0.1861251256E-03
    0.3900000000E+06    0.1251259084E-01    0.6958520301E+00    0.1143840703E+00    0.3166648988E+00    0.1866704650E-03
    0.4100000000E+06    0.1202658673E-01    0.6958517647E+00    0.1132638471E+00    0.3226733321E+00    0.1871900045E-03
    0.4300000000E+06    0.1157016522E-01    0.6958515005E+00    0.1121398455E+00    0.3284365507E+00    0.1876861378E-03
    0.4500000000E+06    0.1114090021E-01    0.6958512382E+00    0.1110163074E+00    0.3339725080E+00    0.1881609374E-03
    0.4700000000E+06    0.1073660609E-01    0.6958509786E+00    0.1098966119E+00    0.3392971549E+00    0.1886162101E-03
    0.4900000000E+06    0.1035531208E-01    0.6958507220E+00    0.1087834507E+00    0.3444247414E+00    0.1890535405E-03
    0.1000000000E+06    0.2485164650E-01    0.6958515087E+00    0.1181634372E+00    0.1763854024E+00    0.1730715699E-03
    0.3000000000E+06    0.1514519695E-01    0.6958531973E+00    0.1191973030E+00    0.2859729129E+00    0.1839683763E-03
    0.5000000000E+06    0.1017272720E-01    0.6958505950E+00    0.1082300082E+00    0.3469186864E+00    0.1892659206E-03
    0.7000000000E+06    0.7378101397E-02    0.6958482509E+00    0.9783129781E-01    0.3889752725E+00    0.1928383349E-03
    0.9000000000E+06    0.5629773650E-02    0.6958462618E+00    0.8891610412E-01    0.4204807647E+00    0.1955505071E-03
    0.1100000000E+07    0.4453333505E-02    0.6958445549E+00    0.8136418641E-01    0.4452165310E+00    0.1977434880E-03
    0.1300000000E+07    0.3619333452E-02    0.6958430652E+00    0.7493761361E-01    0.4652598648E+00    0.1995878379E-03
    0.1500000000E+07    0.3004412415E-02    0.6958417450E+00    0.6942209683E-01    0.4818816236E+00    0.2011814023E-03
    0.1700000000E+07    0.2536860256E-02    0.6958405600E+00    0.6464539606E-01    0.4959158909E+00    0.2025856376E-03
    0.1900000000E+07    0.2172427087E-02    0.6958394851E+00    0.6047261198E-01    0.5079382295E+00    0.2038417252E-03
    0.2100000000E+07    0.1882488594E-02    0.6958385014E+00    0.5679827503E-01    0.5183611698E+00    0.2049786362E-03
    0.2300000000E+07    0.1647805354E-02    0.6958375946E+00    0.5353939265E-01    0.5274893814E+00    0.2060175406E-03
    0.2500000000E+07    0.1455028417E-02    0.6958367533E+00    0.5063005133E-01    0.5355534308E+00    0.2069743877E-03
    0.2700000000E+07    0.1294644031E-02    0.6958359686E+00    0.4801737419E-01    0.5427313922E+00    0.2078614979E-03
    0.2900000000E+07    0.1159714146E-02    0.6958352331E+00    0.4565851875E-01    0.5491631971E+00    0.2086885899E-03
    0.3100000000E+07    0.1045077233E-02    0.6958345410E+00    0.4351844137E-01    0.5549604572E+00    0.2094634680E-03
    0.3300000000E+07    0.9468257334E-03    0.6958338873E+00    0.4156822061E-01    0.5602133638E+00    0.2101924956E-03
    0.3500000000E+07    0.8619553687E-03    0.6958332680E+00    0.3978378834E-01    0.5649956422E+00    0.2108809307E-03
    0.3700000000E+07    0.7881243262E-03    0.6958326794E+00    0.3814495997E-01    0.5693681786E+00    0.2115331687E-03
    0.3900000000E+07    0.7234844966E-03    0.6958321186E+00    0.3663468618E-01    0.5733817203E+00    0.2121529222E-03
    0.4100000000E+07    0.6665610407E-03    0.6958315831E+00    0.3523846981E-01    0.5770789169E+00    0.2127433561E-03
    0.4300000000E+07    0.6161650311E-03    0.6958310707E+00    0.3394390753E-01    0.5804958835E+00    0.2133071903E-03
    0.4500000000E+07    0.5713291418E-03    0.6958305793E+00    0.3274032632E-01    0.5836634132E+00    0.2138467802E-03
    0.4700000000E+07    0.5312596652E-03    0.6958301072E+00    0.3161849279E-01    0.5866079280E+00    0.2143641789E-03
    0.4900000000E+07    0.4953002715E-03    0.6958296531E+00    0.3057037905E-01    0.5893522312E+00    0.2148611872E-03
    0.1000000000E+07    0.4987885456E-02    0.6958453776E+00    0.8498458256E-01    0.4335396085E+00    0.1966988653E-03
    0.3000000000E+07    0.1100127916E-02    0.6958348820E+00    0.4456306733E-01    0.5521350720E+00    0.2090821287E-03
    0.5000000000E+07    0.4786873667E-03    0.6958294323E+00    0.3007174050E-01    0.5906555906E+00    0.2151025488E-03
    0.7000000000E+07    0.2679006111E-03    0.6958256967E+00    0.2265974056E-01    0.6098685167E+00    0.2191624638E-03
    0.9000000000E+07    0.1713995123E-03    0.6958228389E+00    0.1816391754E-01    0.6213865222E+00    0.2222447529E-03
    0.1100000000E+08    0.1191977959E-03    0.6958205177E+00    0.1514842916E-01    0.6290598534E+00    0.2247370011E-03
    0.1300000000E+08    0.8776226222E-04    0.6958185597E+00    0.1298656211E-01    0.6345369049E+00    0.2268330427E-03
    0.1500000000E+08    0.6735684158E-04    0.6958168644E+00    0.1136137349E-01    0.6386416861E+00    0.2286440750E-03
    0.1700000000E+08    0.5335482048E-04    0.6958153681E+00    0.1009542588E-01    0.6418319381E+00    0.2302399410E-03
    0.1900000000E+08    0.4332651066E-04    0.6958140279E+00    0.9081673597E-02    0.6443822738E+00    0.2316674418E-03
    0.2100000000E+08    0.3589560007E-04    0.6958128137E+00    0.8251721753E-02    0.6464674179E+00    0.2329595021E-03
    0.2300000000E+08    0.3023466384E-04    0.6958117033E+00    0.7559834565E-02    0.6482038280E+00    0.2341401811E-03
    0.2500000000E+08    0.2582176911E-04    0.6958106798E+00    0.6974274238E-02    0.6496721074E+00    0.2352276044E-03
    0.2700000000E+08    0.2231436271E-04    0.6958097303E+00    0.6472329119E-02    0.6509298133E+00    0.2362357739E-03
