  Pressure (Pa) 23mC5-500 (mol/kg) 24mC5-500 (mol/kg) 2mC6-500 (mol/kg) 3mC6-500 (mol/kg) C7-500 (mol/kg)
    0.1000000000E+01    0.4503096494E-05    0.1266287943E+00    0.8672279422E-05    0.7726181667E-06    0.4202725261E-02
    0.3000000000E+01    0.9273310623E-05    0.2785063485E+00    0.1706517397E-04    0.1983664247E-05    0.4255802635E-02
    0.5000000000E+01    0.1165560409E-04    0.3663982921E+00    0.2090710376E-04    0.3098021928E-05    0.4285678866E-02
    0.7000000000E+01    0.1303214237E-04    0.4237050928E+00    0.2307990098E-04    0.4164997270E-05    0.4305353352E-02
    0.9000000000E+01    0.1391841332E-04    0.4640257539E+00    0.2456265551E-04    0.5201312147E-05    0.4319392851E-02
    0.1100000000E+02    0.1454287242E-04    0.4939378374E+00    0.2574648970E-04    0.6215362100E-05    0.4329962898E-02
    0.1300000000E+02    0.1501886159E-04    0.5170110570E+00    0.2680384429E-04    0.7212157229E-05    0.4338235496E-02
    0.1500000000E+02    0.1540728102E-04    0.5353502189E+00    0.2781545909E-04    0.8195006084E-05    0.4344903306E-02
    0.1700000000E+02    0.1574283756E-04    0.5502767521E+00    0.2882028229E-04    0.9166245752E-05    0.4350403123E-02
    0.1900000000E+02    0.1604621165E-04    0.5626621392E+00    0.2983706528E-04    0.1012760868E-04    0.4355024590E-02
    0.2100000000E+02    0.1633015257E-04    0.5731044026E+00    0.3087440126E-04    0.1108042664E-04    0.4358967664E-02
    0.2300000000E+02    0.1660272570E-04    0.5820275639E+00    0.3193565320E-04    0.1202575285E-04    0.4362375024E-02
    0.2500000000E+02    0.1686913104E-04    0.5897406374E+00    0.3302147472E-04    0.1296443950E-04    0.4365351334E-02
    0.2700000000E+02    0.1713276426E-04    0.5964741462E+00    0.3413113918E-04    0.1389718915E-04    0.4367975194E-02
    0.2900000000E+02    0.1739585765E-04    0.6024035555E+00    0.3526325444E-04    0.1482459015E-04    0.4370306835E-02
    0.3100000000E+02    0.1765987869E-04    0.6076647846E+00    0.3641615087E-04    0.1574714183E-04    0.4372393229E-02
    0.3300000000E+02    0.1792578414E-04    0.6123647531E+00    0.3758809121E-04    0.1666527284E-04    0.4374271581E-02
    0.3500000000E+02    0.1819418545E-04    0.6165887238E+00    0.3877738162E-04    0.1757935484E-04    0.4375971759E-02
    0.3700000000E+02    0.1846545858E-04    0.6204055219E+00    0.3998242729E-04    0.1848971291E-04    0.4377518038E-02
    0.3900000000E+02    0.1873981785E-04    0.6238713137E+00    0.4120175692E-04    0.1939663358E-04    0.4378930363E-02
    0.4100000000E+02    0.1901736644E-04    0.6270323893E+00    0.4243402985E-04    0.2030037114E-04    0.4380225283E-02
    0.4300000000E+02    0.1929813121E-04    0.6299272421E+00    0.4367803378E-04    0.2120115270E-04    0.4381416652E-02
    0.4500000000E+02    0.1958208697E-04    0.6325881438E+00    0.4493267752E-04    0.2209918218E-04    0.4382516162E-02
    0.4700000000E+02    0.1986917351E-04    0.6350423526E+00    0.4619698164E-04    0.2299464364E-04    0.4383533757E-02
    0.4900000000E+02    0.2015930759E-04    0.6373130505E+00    0.4747006821E-04    0.2388770398E-04    0.4384477948E-02
    0.1000000000E+02    0.1425458940E-04    0.4800135831E+00    0.2517809746E-04    0.5710754593E-05    0.4325023172E-02
    0.3000000000E+02    0.1752768272E-04    0.6051104290E+00    0.3583721365E-04    0.1528644388E-04    0.4371378166E-02
    0.5000000000E+02    0.2030548730E-04    0.6383858968E+00    0.4810965583E-04    0.2433338174E-04    0.4384924848E-02
    0.7000000000E+02    0.2336311975E-04    0.6537940244E+00    0.6121082225E-04    0.3315163203E-04    0.4391350627E-02
    0.9000000000E+02    0.2661167841E-04    0.6626795771E+00    0.7466374854E-04    0.4184462366E-04    0.4394922481E-02
    0.1100000000E+03    0.2998565109E-04    0.6684606192E+00    0.8829505619E-04    0.5046477805E-04    0.4397016299E-02
    0.1300000000E+03    0.3344746905E-04    0.6725221171E+00    0.1020352376E-03    0.5904366289E-04    0.4398224759E-02
    0.1500000000E+03    0.3697521944E-04    0.6755318861E+00    0.1158549790E-03    0.6760234379E-04    0.4398850182E-02
    0.1700000000E+03    0.4055562423E-04    0.6778515722E+00    0.1297422858E-03    0.7615589080E-04    0.4399065055E-02
    0.1900000000E+03    0.4418036312E-04    0.6796940685E+00    0.1436932084E-03    0.8471564814E-04    0.4398975978E-02
    0.2100000000E+03    0.4784409188E-04    0.6811928649E+00    0.1577077171E-03    0.9329049789E-04    0.4398652908E-02
    0.2300000000E+03    0.5154332600E-04    0.6824359095E+00    0.1717877344E-03    0.1018876173E-03    0.4398143940E-02
    0.2500000000E+03    0.5527578412E-04    0.6834835034E+00    0.1859361482E-03    0.1105129592E-03    0.4397483396E-02
    0.2700000000E+03    0.5903998689E-04    0.6843783730E+00    0.2001562985E-03    0.1191715711E-03    0.4396696523E-02
    0.2900000000E+03    0.6283500346E-04    0.6851516375E+00    0.2144517061E-03    0.1278678143E-03    0.4395802367E-02
    0.3100000000E+03    0.6666028654E-04    0.6858264999E+00    0.2288259272E-03    0.1366055203E-03    0.4394815602E-02
    0.3300000000E+03    0.7051556242E-04    0.6864206134E+00    0.2432824777E-03    0.1453881043E-03    0.4393747742E-02
    0.3500000000E+03    0.7440075597E-04    0.6869476473E+00    0.2578247962E-03    0.1542186495E-03    0.4392607957E-02
    0.3700000000E+03    0.7831593851E-04    0.6874183506E+00    0.2724562275E-03    0.1630999720E-03    0.4391403651E-02
    0.3900000000E+03    0.8226129097E-04    0.6878412923E+00    0.2871800188E-03    0.1720346704E-03    0.4390140872E-02
    0.4100000000E+03    0.8623707749E-04    0.6882233876E+00    0.3019993222E-03    0.1810251647E-03    0.4388824607E-02
    0.4300000000E+03    0.9024362625E-04    0.6885702781E+00    0.3169172006E-03    0.1900737275E-03    0.4387459008E-02
    0.4500000000E+03    0.9428131540E-04    0.6888866124E+00    0.3319366359E-03    0.1991825091E-03    0.4386047553E-02
    0.4700000000E+03    0.9835056260E-04    0.6891762553E+00    0.3470605369E-03    0.2083535578E-03    0.4384593181E-02
    0.4900000000E+03    0.1024518173E-03    0.6894424463E+00    0.3622917481E-03    0.2175888369E-03    0.4383098385E-02
    0.1000000000E+03    0.2828581874E-04    0.6658467509E+00    0.8146282340E-04    0.4616150850E-04    0.4396107205E-02
    0.3000000000E+03    0.6474388419E-04    0.6855001569E+00    0.2216287437E-03    0.1322312624E-03    0.4395319778E-02
    0.5000000000E+03    0.1045145951E-03    0.6895676192E+00    0.3699484683E-03    0.2222311564E-03    0.4382336504E-02
    0.7000000000E+03    0.1475773165E-03    0.6913241142E+00    0.5293775618E-03    0.3188860584E-03    0.4365354590E-02
    0.9000000000E+03    0.1944849136E-03    0.6923029369E+00    0.7025739829E-03    0.4239216641E-03    0.4345524346E-02
    0.1100000000E+04    0.2459008200E-03    0.6929266918E+00    0.8922056029E-03    0.5389915383E-03    0.4323045025E-02
    0.1300000000E+04    0.3025976850E-03    0.6933587729E+00    0.1101227889E-02    0.6659092055E-03    0.4297808014E-02
    0.1500000000E+04    0.3654893966E-03    0.6936756703E+00    0.1333075013E-02    0.8067771854E-03    0.4269541848E-02
    0.1700000000E+04    0.4356736853E-03    0.6939179630E+00    0.1591842972E-02    0.9641025771E-03    0.4237849324E-02
    0.1900000000E+04    0.5144861568E-03    0.6941091775E+00    0.1882500798E-02    0.1140927852E-02    0.4202208517E-02
    0.2100000000E+04    0.6035701153E-03    0.6942638929E+00    0.2211155264E-02    0.1340994009E-02    0.4161955765E-02
    0.2300000000E+04    0.7049683542E-03    0.6943916247E+00    0.2585395334E-02    0.1568952731E-02    0.4116255091E-02
    0.2500000000E+04    0.8212452378E-03    0.6944988467E+00    0.3014748789E-02    0.1830647761E-02    0.4064053736E-02
    0.2700000000E+04    0.9556502034E-03    0.6945901165E+00    0.3511293395E-02    0.2133491881E-02    0.4004021175E-02
    0.2900000000E+04    0.1112337217E-02    0.6946687355E+00    0.4090477702E-02    0.2486973835E-02    0.3934467462E-02
    0.3100000000E+04    0.1296658028E-02    0.6947371536E+00    0.4772219333E-02    0.2903337781E-02    0.3853236007E-02
    0.3300000000E+04    0.1515548040E-02    0.6947972268E+00    0.5582353163E-02    0.3398481247E-02    0.3757566866E-02
    0.3500000000E+04    0.1778016028E-02    0.6948503872E+00    0.6554475339E-02    0.3993102495E-02    0.3643932195E-02
    0.3700000000E+04    0.2095717407E-02    0.6948977573E+00    0.7732114763E-02    0.4714059779E-02    0.3507862494E-02
    0.3900000000E+04    0.2483500054E-02    0.6949402292E+00    0.9170830696E-02    0.5595703321E-02    0.3343825216E-02
    0.4100000000E+04    0.2959589973E-02    0.6949785211E+00    0.1093901617E-01    0.6680441184E-02    0.3145314065E-02
    0.4300000000E+04    0.3544617297E-02    0.6950132173E+00    0.1311445236E-01    0.8016735707E-02    0.2905496113E-02
    0.4500000000E+04    0.4257908297E-02    0.6950447983E+00    0.1577075910E-01    0.9650933815E-02    0.2619044345E-02
    0.4700000000E+04    0.5108833916E-02    0.6950736627E+00    0.1894544747E-01    0.1160778691E-01    0.2285917510E-02
    0.4900000000E+04    0.6082525887E-02    0.6951001442E+00    0.2258676142E-01    0.1385777207E-01    0.1916973818E-02
    0.1000000000E+04    0.2195839139E-03    0.6926459349E+00    0.7951598144E-03    0.4800944027E-03    0.4334617942E-02
    0.3000000000E+04    0.1200652279E-02    0.6947040921E+00    0.4417072506E-02    0.2686399792E-02    0.3895467997E-02
    0.5000000000E+04    0.6600550757E-02    0.6951125809E+00    0.2452833325E-01    0.1506023722E-01    0.1726623891E-02
    0.7000000000E+04    0.1239434813E-01    0.6952858396E+00    0.4694708199E-01    0.2939932400E-01    0.3273771423E-03
    0.9000000000E+04    0.1459682923E-01    0.6953810324E+00    0.5639479739E-01    0.3604038854E-01    0.3209402879E-03
    0.1100000000E+05    0.1638699011E-01    0.6954409148E+00    0.6452766049E-01    0.4204446368E-01    0.3245064913E-03
    0.1300000000E+05    0.1787157978E-01    0.6954818820E+00    0.7167578740E-01    0.4757487643E-01    0.3275423427E-03
    0.1500000000E+05    0.1910851578E-01    0.6955115604E+00    0.7800472751E-01    0.5270289516E-01    0.3301642582E-03
    0.1700000000E+05    0.2014259167E-01    0.6955339742E+00    0.8364444667E-01    0.5748519528E-01    0.3324737917E-03
    0.1900000000E+05    0.2100900299E-01    0.6955514450E+00    0.8869873015E-01    0.6196768845E-01    0.3345390686E-03
    0.2100000000E+05    0.2173573099E-01    0.6955654051E+00    0.9325146277E-01    0.6618800939E-01    0.3364079665E-03
    0.2300000000E+05    0.2234525701E-01    0.6955767852E+00    0.9737118328E-01    0.7017733691E-01    0.3381154430E-03
    0.2500000000E+05    0.2285581612E-01    0.6955862159E+00    0.1011144434E+00    0.7396175044E-01    0.3396878171E-03
    0.2700000000E+05    0.2328232721E-01    0.6955941393E+00    0.1045283217E+00    0.7756325512E-01    0.3411454086E-03
    0.2900000000E+05    0.2363709213E-01    0.6956008744E+00    0.1076523307E+00    0.8100056670E-01    0.3425042396E-03
    0.3100000000E+05    0.2393032778E-01    0.6956066570E+00    0.1105198809E+00    0.8428971990E-01    0.3437771712E-03
    0.3300000000E+05    0.2417057529E-01    0.6956116650E+00    0.1131594173E+00    0.8744454492E-01    0.3449746861E-03
    0.3500000000E+05    0.2436501815E-01    0.6956160351E+00    0.1155953111E+00    0.9047704467E-01    0.3461054439E-03
    0.3700000000E+05    0.2451973166E-01    0.6956198741E+00    0.1178485661E+00    0.9339769607E-01    0.3471766820E-03
    0.3900000000E+05    0.2463988041E-01    0.6956232666E+00    0.1199373820E+00    0.9621569287E-01    0.3481945120E-03
    0.4100000000E+05    0.2472987568E-01    0.6956262802E+00    0.1218776094E+00    0.9893914283E-01    0.3491641425E-03
    0.4300000000E+05    0.2479350199E-01    0.6956289700E+00    0.1236831176E+00    0.1015752291E+00    0.3500900496E-03
    0.4500000000E+05    0.2483401950E-01    0.6956313810E+00    0.1253660965E+00    0.1041303432E+00    0.3509761086E-03
    0.4700000000E+05    0.2485424739E-01    0.6956335503E+00    0.1269373040E+00    0.1066101955E+00    0.3518256970E-03
    0.4900000000E+05    0.2485663219E-01    0.6956355090E+00    0.1284062713E+00    0.1090199067E+00    0.3526417770E-03
    0.1000000000E+05    0.1553439087E-01    0.6954140542E+00    0.6059649377E-01    0.3910685843E-01    0.3227891032E-03
    0.3000000000E+05    0.2379083213E-01    0.6956038725E+00    0.1091162804E+00    0.8266275188E-01    0.3431507393E-03
    0.5000000000E+05    0.2485181013E-01    0.6956364176E+00    0.1291051006E+00    0.1101999178E+00    0.3530380799E-03
    0.7000000000E+05    0.2421174649E-01    0.6956480907E+00    0.1393461660E+00    0.1310267611E+00    0.3597034874E-03
    0.9000000000E+05    0.2309722870E-01    0.6956533025E+00    0.1450926767E+00    0.1481227326E+00    0.3647631141E-03
    0.1100000000E+06    0.2187918658E-01    0.6956558009E+00    0.1484053170E+00    0.1628076713E+00    0.3688538335E-03
    0.1300000000E+06    0.2068549314E-01    0.6956569587E+00    0.1502618363E+00    0.1757836668E+00    0.3722940414E-03
    0.1500000000E+06    0.1956076787E-01    0.6956573850E+00    0.1511869342E+00    0.1874710670E+00    0.3752663545E-03
    0.1700000000E+06    0.1851793572E-01    0.6956573853E+00    0.1514875479E+00    0.1981432032E+00    0.3778854582E-03
    0.1900000000E+06    0.1755726642E-01    0.6956571267E+00    0.1513550270E+00    0.2079889465E+00    0.3802281944E-03
    0.2100000000E+06    0.1667405145E-01    0.6956567065E+00    0.1509146166E+00    0.2171450118E+00    0.3823486173E-03
    0.2300000000E+06    0.1586186879E-01    0.6956561843E+00    0.1502514966E+00    0.2257140467E+00    0.3842862239E-03
    0.2500000000E+06    0.1511400077E-01    0.6956555978E+00    0.1494254076E+00    0.2337754248E+00    0.3860707689E-03
    0.2700000000E+06    0.1442403750E-01    0.6956549717E+00    0.1484793130E+00    0.2413920257E+00    0.3877252364E-03
    0.2900000000E+06    0.1378610972E-01    0.6956543224E+00    0.1474447557E+00    0.2486146786E+00    0.3892677567E-03
    0.3100000000E+06    0.1319495140E-01    0.6956536611E+00    0.1463452955E+00    0.2554851797E+00    0.3907128879E-03
    0.3300000000E+06    0.1264588561E-01    0.6956529955E+00    0.1451987836E+00    0.2620384037E+00    0.3920725001E-03
    0.3500000000E+06    0.1213477833E-01    0.6956523309E+00    0.1440189083E+00    0.2683038200E+00    0.3933564013E-03
    0.3700000000E+06    0.1165798142E-01    0.6956516710E+00    0.1428162707E+00    0.2743066071E+00    0.3945727904E-03
    0.3900000000E+06    0.1121227506E-01    0.6956510182E+00    0.1415991478E+00    0.2800684869E+00    0.3957285924E-03
    0.4100000000E+06    0.1079481383E-01    0.6956503744E+00    0.1403740447E+00    0.2856083612E+00    0.3968297105E-03
    0.4300000000E+06    0.1040307839E-01    0.6956497406E+00    0.1391460996E+00    0.2909428042E+00    0.3978812181E-03
    0.4500000000E+06    0.1003483294E-01    0.6956491177E+00    0.1379193856E+00    0.2960864490E+00    0.3988875085E-03
    0.4700000000E+06    0.9688088348E-02    0.6956485061E+00    0.1366971387E+00    0.3010522956E+00    0.3998524110E-03
    0.4900000000E+06    0.9361070255E-02    0.6956479060E+00    0.1354819310E+00    0.3058519579E+00    0.4007792847E-03
    0.1000000000E+06    0.2249019263E-01    0.6956547779E+00    0.1469771617E+00    0.1557136823E+00    0.3669052595E-03
    0.3000000000E+06    0.1348499004E-01    0.6956539927E+00    0.1469019098E+00    0.2520916264E+00    0.3900016994E-03
    0.5000000000E+06    0.9204456066E-02    0.6956476103E+00    0.1348776229E+00    0.3081927703E+00    0.4012294002E-03
    0.7000000000E+06    0.6799613860E-02    0.6956422730E+00    0.1234725023E+00    0.3483425698E+00    0.4088006602E-03
    0.9000000000E+06    0.5277726372E-02    0.6956378533E+00    0.1135623475E+00    0.3793538425E+00    0.4145486740E-03
    0.1100000000E+07    0.4238946843E-02    0.6956341066E+00    0.1050354000E+00    0.4043461775E+00    0.4191963014E-03
    0.1300000000E+07    0.3491818891E-02    0.6956308604E+00    0.9766644276E-01    0.4250601599E+00    0.4231050400E-03
    0.1500000000E+07    0.2933306465E-02    0.6956279976E+00    0.9124994938E-01    0.4425803835E+00    0.4264822678E-03
    0.1700000000E+07    0.2503158692E-02    0.6956254369E+00    0.8561825710E-01    0.4576325933E+00    0.4294582373E-03
    0.1900000000E+07    0.2163887950E-02    0.6956231202E+00    0.8063799973E-01    0.4707273692E+00    0.4321202286E-03
    0.2100000000E+07    0.1891016592E-02    0.6956210045E+00    0.7620327708E-01    0.4822375997E+00    0.4345296429E-03
    0.2300000000E+07    0.1667931323E-02    0.6956190571E+00    0.7222948872E-01    0.4924436619E+00    0.4367313481E-03
    0.2500000000E+07    0.1482992305E-02    0.6956172528E+00    0.6864846176E-01    0.5015613727E+00    0.4387591463E-03
    0.2700000000E+07    0.1327824188E-02    0.6956155716E+00    0.6540474585E-01    0.5097601022E+00    0.4406391491E-03
    0.2900000000E+07    0.1196262375E-02    0.6956139975E+00    0.6245282168E-01    0.5171749564E+00    0.4423919543E-03
    0.3100000000E+07    0.1083679856E-02    0.6956125174E+00    0.5975499317E-01    0.5239152266E+00    0.4440341018E-03
    0.3300000000E+07    0.9865439128E-03    0.6956111204E+00    0.5727978545E-01    0.5300704030E+00    0.4455790779E-03
    0.3500000000E+07    0.9021164444E-03    0.6956097975E+00    0.5500071651E-01    0.5357145490E+00    0.4470380259E-03
    0.3700000000E+07    0.8282466844E-03    0.6956085411E+00    0.5289534678E-01    0.5409095443E+00    0.4484202615E-03
    0.3900000000E+07    0.7632248831E-03    0.6956073447E+00    0.5094453674E-01    0.5457075299E+00    0.4497336529E-03
    0.4100000000E+07    0.7056771492E-03    0.6956062026E+00    0.4913186190E-01    0.5501527776E+00    0.4509849073E-03
    0.4300000000E+07    0.6544886415E-03    0.6956051100E+00    0.4744314772E-01    0.5542831402E+00    0.4521797894E-03
    0.4500000000E+07    0.6087466424E-03    0.6956040627E+00    0.4586609687E-01    0.5581311866E+00    0.4533232909E-03
    0.4700000000E+07    0.5676978073E-03    0.6956030570E+00    0.4438998819E-01    0.5617251033E+00    0.4544197630E-03
    0.4900000000E+07    0.5307156699E-03    0.6956020896E+00    0.4300543177E-01    0.5650894139E+00    0.4554730222E-03
    0.1000000000E+07    0.4712823890E-02    0.6956359082E+00    0.1091399594E+00    0.3924729732E+00    0.4169824168E-03
    0.3000000000E+07    0.1137841085E-02    0.6956132464E+00    0.6107424250E-01    0.5206234151E+00    0.4432259553E-03
    0.5000000000E+07    0.5135822683E-03    0.6956016194E+00    0.4234486522E-01    0.5666922746E+00    0.4559845146E-03
    0.7000000000E+07    0.2931394677E-03    0.6955936725E+00    0.3237924189E-01    0.5907098833E+00    0.4645882160E-03
    0.9000000000E+07    0.1898594262E-03    0.6955876009E+00    0.2619430185E-01    0.6054751875E+00    0.4711200815E-03
    0.1100000000E+08    0.1331446548E-03    0.6955826734E+00    0.2198321241E-01    0.6154733919E+00    0.4764015131E-03
    0.1300000000E+08    0.9862830184E-04    0.6955785191E+00    0.1893210590E-01    0.6226917825E+00    0.4808432966E-03
    0.1500000000E+08    0.7604647482E-04    0.6955749235E+00    0.1662033486E-01    0.6281474615E+00    0.4846810869E-03
    0.1700000000E+08    0.6045681803E-04    0.6955717508E+00    0.1480860684E-01    0.6324152605E+00    0.4880628980E-03
    0.1900000000E+08    0.4923746694E-04    0.6955689100E+00    0.1335077725E-01    0.6358446183E+00    0.4910879120E-03
    0.2100000000E+08    0.4089128052E-04    0.6955663366E+00    0.1215255730E-01    0.6386601982E+00    0.4938259036E-03
    0.2300000000E+08    0.3451230121E-04    0.6955639835E+00    0.1115039593E-01    0.6410130141E+00    0.4963278594E-03
    0.2500000000E+08    0.2952595809E-04    0.6955618149E+00    0.1029990300E-01    0.6430083207E+00    0.4986321913E-03
    0.2700000000E+08    0.2555342686E-04    0.6955598035E+00    0.9569137160E-02    0.6447217211E+00    0.5007685718E-03
