  Pressure (Pa) 23mC5-500 (mol/kg) 24mC5-500 (mol/kg) 2mC6-500 (mol/kg) 3mC6-500 (mol/kg) C7-500 (mol/kg)
    0.1000000000E+01    0.4876195569E-05    0.9950053385E-01    0.1605600865E-04    0.4083668347E-05    0.4146888522E-02
    0.3000000000E+01    0.1075403225E-04    0.2321172294E+00    0.3406915146E-04    0.1007998027E-04    0.4175561793E-02
    0.5000000000E+01    0.1411712682E-04    0.3164813806E+00    0.4373548512E-04    0.1551824454E-04    0.4185480236E-02
    0.7000000000E+01    0.1624897975E-04    0.3748756193E+00    0.4968954741E-04    0.2069375250E-04    0.4191165351E-02
    0.9000000000E+01    0.1770848366E-04    0.4176926010E+00    0.5381995474E-04    0.2570403733E-04    0.4194872986E-02
    0.1100000000E+02    0.1877307538E-04    0.4504322398E+00    0.5700131250E-04    0.3059735364E-04    0.4197435342E-02
    0.1300000000E+02    0.1959334719E-04    0.4762778482E+00    0.5967394065E-04    0.3540219573E-04    0.4199259925E-02
    0.1500000000E+02    0.2025661059E-04    0.4971996646E+00    0.6207296917E-04    0.4013722515E-04    0.4200576763E-02
    0.1700000000E+02    0.2081611928E-04    0.5144824384E+00    0.6432934424E-04    0.4481553427E-04    0.4201527585E-02
    0.1900000000E+02    0.2130568116E-04    0.5289997011E+00    0.6651813056E-04    0.4944677226E-04    0.4202205185E-02
    0.2100000000E+02    0.2174746247E-04    0.5413661059E+00    0.6868311558E-04    0.5403831971E-04    0.4202673133E-02
    0.2300000000E+02    0.2215638401E-04    0.5520267157E+00    0.7084999015E-04    0.5859598836E-04    0.4202976559E-02
    0.2500000000E+02    0.2254270896E-04    0.5613117202E+00    0.7303370417E-04    0.6312446272E-04    0.4203148441E-02
    0.2700000000E+02    0.2291362369E-04    0.5694712518E+00    0.7524271154E-04    0.6762759201E-04    0.4203213461E-02
    0.2900000000E+02    0.2327423419E-04    0.5766982630E+00    0.7748148827E-04    0.7210859041E-04    0.4203190470E-02
    0.3100000000E+02    0.2362821141E-04    0.5831439824E+00    0.7975206031E-04    0.7657017884E-04    0.4203094123E-02
    0.3300000000E+02    0.2397821931E-04    0.5889286142E+00    0.8205494739E-04    0.8101468802E-04    0.4202935987E-02
    0.3500000000E+02    0.2432620450E-04    0.5941489067E+00    0.8438975445E-04    0.8544413503E-04    0.4202725312E-02
    0.3700000000E+02    0.2467359598E-04    0.5988836070E+00    0.8675554583E-04    0.8986028135E-04    0.4202469586E-02
    0.3900000000E+02    0.2502144507E-04    0.6031974619E+00    0.8915108359E-04    0.9426467768E-04    0.4202174937E-02
    0.4100000000E+02    0.2537052481E-04    0.6071441969E+00    0.9157497933E-04    0.9865869894E-04    0.4201846424E-02
    0.4300000000E+02    0.2572140154E-04    0.6107687656E+00    0.9402579050E-04    0.1030435721E-03    0.4201488260E-02
    0.4500000000E+02    0.2607448699E-04    0.6141090700E+00    0.9650208085E-04    0.1074203984E-03    0.4201103986E-02
    0.4700000000E+02    0.2643007662E-04    0.6171972906E+00    0.9900245727E-04    0.1117901718E-03    0.4200696593E-02
    0.4900000000E+02    0.2678837805E-04    0.6200609272E+00    0.1015255914E-03    0.1161537933E-03    0.4200268628E-02
    0.1000000000E+02    0.1827874730E-04    0.4350858110E+00    0.5549517014E-04    0.2816323115E-04    0.4196266051E-02
    0.3000000000E+02    0.2345186579E-04    0.5800106453E+00    0.7861274034E-04    0.7434165706E-04    0.4203150681E-02
    0.5000000000E+02    0.2696859190E-04    0.6214160459E+00    0.1027952983E-03    0.1183335564E-03    0.4200047626E-02
    0.7000000000E+02    0.3072897832E-04    0.6410300506E+00    0.1291247839E-03    0.1617722825E-03    0.4194941563E-02
    0.9000000000E+02    0.3476496320E-04    0.6524720554E+00    0.1567750109E-03    0.2052202949E-03    0.4189075007E-02
    0.1100000000E+03    0.3902962669E-04    0.6599688086E+00    0.1853772869E-03    0.2489706688E-03    0.4182814466E-02
    0.1300000000E+03    0.4348753218E-04    0.6652607853E+00    0.2147731523E-03    0.2932091763E-03    0.4176300654E-02
    0.1500000000E+03    0.4811645089E-04    0.6691959349E+00    0.2448970408E-03    0.3380691059E-03    0.4169595364E-02
    0.1700000000E+03    0.5290311718E-04    0.6722367884E+00    0.2757277021E-03    0.3836548705E-03    0.4162727312E-02
    0.1900000000E+03    0.5784004423E-04    0.6746570954E+00    0.3072667598E-03    0.4300538103E-03    0.4155709539E-02
    0.2100000000E+03    0.6292352981E-04    0.6766292211E+00    0.3395285484E-03    0.4773427422E-03    0.4148546948E-02
    0.2300000000E+03    0.6815243299E-04    0.6782671037E+00    0.3725350024E-03    0.5255918915E-03    0.4141239906E-02
    0.2500000000E+03    0.7352741460E-04    0.6796490775E+00    0.4063129678E-03    0.5748674062E-03    0.4133786082E-02
    0.2700000000E+03    0.7905045624E-04    0.6808307722E+00    0.4408927471E-03    0.6252330547E-03    0.4126181443E-02
    0.2900000000E+03    0.8472455002E-04    0.6818527827E+00    0.4763073009E-03    0.6767514277E-03    0.4118420816E-02
    0.3100000000E+03    0.9055349549E-04    0.6827454275E+00    0.5125918189E-03    0.7294848273E-03    0.4110498213E-02
    0.3300000000E+03    0.9654176564E-04    0.6835318064E+00    0.5497835023E-03    0.7834959544E-03    0.4102407018E-02
    0.3500000000E+03    0.1026944187E-03    0.6842298288E+00    0.5879214758E-03    0.8388484605E-03    0.4094140103E-02
    0.3700000000E+03    0.1090170411E-03    0.6848535934E+00    0.6270467789E-03    0.8956074093E-03    0.4085689890E-02
    0.3900000000E+03    0.1155157119E-03    0.6854143510E+00    0.6672024104E-03    0.9538396771E-03    0.4077048381E-02
    0.4100000000E+03    0.1221969827E-03    0.6859211887E+00    0.7084334076E-03    0.1013614313E-02    0.4068207175E-02
    0.4300000000E+03    0.1290678697E-03    0.6863815265E+00    0.7507869524E-03    0.1075002870E-02    0.4059157469E-02
    0.4500000000E+03    0.1361358532E-03    0.6868014826E+00    0.7943124970E-03    0.1138079725E-02    0.4049890043E-02
    0.4700000000E+03    0.1434088853E-03    0.6871861469E+00    0.8390619060E-03    0.1202922387E-02    0.4040395252E-02
    0.4900000000E+03    0.1508954023E-03    0.6875397884E+00    0.8850896142E-03    0.1269611802E-02    0.4030662999E-02
    0.1000000000E+03    0.3687128403E-04    0.6565740232E+00    0.1709701036E-03    0.2270444362E-03    0.4185982441E-02
    0.3000000000E+03    0.8761940130E-04    0.6823136905E+00    0.4943385349E-03    0.7029623467E-03    0.4114480162E-02
    0.5000000000E+03    0.1547214906E-03    0.6877061252E+00    0.9086005858E-03    0.1303675354E-02    0.4025704540E-02
    0.7000000000E+03    0.2449842632E-03    0.6900432571E+00    0.1461910795E-02    0.2105437878E-02    0.3911143052E-02
    0.9000000000E+03    0.3714729901E-03    0.6913484389E+00    0.2235861046E-02    0.3228025070E-02    0.3756113004E-02
    0.1100000000E+04    0.5577539192E-03    0.6921815001E+00    0.3375775944E-02    0.4883971376E-02    0.3535457704E-02
    0.1300000000E+04    0.8475805740E-03    0.6927593462E+00    0.5151391697E-02    0.7468456913E-02    0.3204727170E-02
    0.1500000000E+04    0.1319174864E-02    0.6931836609E+00    0.8046732278E-02    0.1169370382E-01    0.2690656282E-02
    0.1700000000E+04    0.2070615339E-02    0.6935084448E+00    0.1267640665E-01    0.1847592990E-01    0.1922692759E-02
    0.1900000000E+04    0.3043768869E-02    0.6937650327E+00    0.1871009052E-01    0.2737372481E-01    0.1029850120E-02
    0.2100000000E+04    0.3873862768E-02    0.6939728558E+00    0.2392233971E-01    0.3516040870E-01    0.4166703733E-03
    0.2300000000E+04    0.4399156444E-02    0.6941446041E+00    0.2729908434E-01    0.4032405474E-01    0.1740383605E-03
    0.2500000000E+04    0.4755888450E-02    0.6942889164E+00    0.2965933200E-01    0.4403400511E-01    0.1035149831E-03
    0.2700000000E+04    0.5048253793E-02    0.6944118771E+00    0.3163862952E-01    0.4721194619E-01    0.8519384094E-04
    0.2900000000E+04    0.5313604059E-02    0.6945178958E+00    0.3346557576E-01    0.5019071617E-01    0.8070783528E-04
    0.3100000000E+04    0.5563186939E-02    0.6946102460E+00    0.3520863364E-01    0.5306955837E-01    0.7976781252E-04
    0.3300000000E+04    0.5800506663E-02    0.6946914092E+00    0.3688854816E-01    0.5587776381E-01    0.7972696612E-04
    0.3500000000E+04    0.6026905851E-02    0.6947633003E+00    0.3851272437E-01    0.5862502428E-01    0.7990787408E-04
    0.3700000000E+04    0.6243116785E-02    0.6948274211E+00    0.4008482750E-01    0.6131556534E-01    0.8013681093E-04
    0.3900000000E+04    0.6449684627E-02    0.6948849657E+00    0.4160741180E-01    0.6395203225E-01    0.8036948720E-04
    0.4100000000E+04    0.6647083660E-02    0.6949368953E+00    0.4308264290E-01    0.6653655942E-01    0.8059509236E-04
    0.4300000000E+04    0.6835750258E-02    0.6949839927E+00    0.4451250092E-01    0.6907106909E-01    0.8081148792E-04
    0.4500000000E+04    0.7016093164E-02    0.6950269016E+00    0.4589884150E-01    0.7155735838E-01    0.8101874005E-04
    0.4700000000E+04    0.7188497463E-02    0.6950661564E+00    0.4724341738E-01    0.7399712759E-01    0.8121742553E-04
    0.4900000000E+04    0.7353326737E-02    0.6951022040E+00    0.4854788884E-01    0.7639199199E-01    0.8140819164E-04
    0.1000000000E+04    0.4550362173E-03    0.6918063853E+00    0.2747116951E-02    0.3970370994E-02    0.3656180250E-02
    0.3000000000E+04    0.5440063297E-02    0.6945656089E+00    0.3434577486E-01    0.5164003446E-01    0.8003852866E-04
    0.5000000000E+04    0.7433008871E-02    0.6951191454E+00    0.4918558069E-01    0.7757306811E-01    0.8150079764E-04
    0.7000000000E+04    0.8703141769E-02    0.6953562054E+00    0.6017659167E-01    0.9917404472E-01    0.8305529041E-04
    0.9000000000E+04    0.9510313083E-02    0.6954877194E+00    0.6853259616E-01    0.1176504486E+00    0.8423221111E-04
    0.1100000000E+05    0.1001033832E-01    0.6955712680E+00    0.7500959219E-01    0.1337779848E+00    0.8518233120E-04
    0.1300000000E+05    0.1030131777E-01    0.6956290019E+00    0.8010413891E-01    0.1480833630E+00    0.8598059073E-04
    0.1500000000E+05    0.1044726874E-01    0.6956712571E+00    0.8415523654E-01    0.1609381645E+00    0.8666981742E-04
    0.1700000000E+05    0.1049120643E-01    0.6957035043E+00    0.8740185173E-01    0.1726129988E+00    0.8727684172E-04
    0.1900000000E+05    0.1046273934E-01    0.6957289093E+00    0.9001703950E-01    0.1833103033E+00    0.8781960865E-04
    0.2100000000E+05    0.1038265969E-01    0.6957494314E+00    0.9212903825E-01    0.1931850359E+00    0.8831072455E-04
    0.2300000000E+05    0.1026581370E-01    0.6957663475E+00    0.9383477902E-01    0.2023581918E+00    0.8875939109E-04
    0.2500000000E+05    0.1012294948E-01    0.6957805256E+00    0.9520880408E-01    0.2109259007E+00    0.8917253430E-04
    0.2700000000E+05    0.9961937170E-02    0.6957925762E+00    0.9630931274E-01    0.2189657126E+00    0.8955550052E-04
    0.2900000000E+05    0.9788592654E-02    0.6958029411E+00    0.9718235651E-01    0.2265410426E+00    0.8991250456E-04
    0.3100000000E+05    0.9607244485E-02    0.6958119479E+00    0.9786481068E-01    0.2337043776E+00    0.9024692914E-04
    0.3300000000E+05    0.9421130953E-02    0.6958198446E+00    0.9838651847E-01    0.2404996334E+00    0.9056153122E-04
    0.3500000000E+05    0.9232682417E-02    0.6958268226E+00    0.9877186381E-01    0.2469639157E+00    0.9085858793E-04
    0.3700000000E+05    0.9043724857E-02    0.6958330314E+00    0.9904094248E-01    0.2531288550E+00    0.9114000227E-04
    0.3900000000E+05    0.8855628422E-02    0.6958385903E+00    0.9921044597E-01    0.2590216329E+00    0.9140738110E-04
    0.4100000000E+05    0.8669417048E-02    0.6958435948E+00    0.9929433685E-01    0.2646657800E+00    0.9166209380E-04
    0.4300000000E+05    0.8485850150E-02    0.6958481228E+00    0.9930437068E-01    0.2700818044E+00    0.9190531705E-04
    0.4500000000E+05    0.8305484048E-02    0.6958522383E+00    0.9925050354E-01    0.2752876907E+00    0.9213806951E-04
    0.4700000000E+05    0.8128718522E-02    0.6958559943E+00    0.9914121321E-01    0.2802993010E+00    0.9236123900E-04
    0.4900000000E+05    0.7955832367E-02    0.6958594352E+00    0.9898375468E-01    0.2851306992E+00    0.9257560412E-04
    0.1000000000E+05    0.9791581265E-02    0.6955336896E+00    0.7197033853E-01    0.1259704277E+00    0.8472988826E-04
    0.3000000000E+05    0.9698694845E-02    0.6958075972E+00    0.9754539801E-01    0.2301712869E+00    0.9008235426E-04
    0.5000000000E+05    0.7870904949E-02    0.6958610494E+00    0.9888894641E-01    0.2874827883E+00    0.9267970278E-04
    0.7000000000E+05    0.6390866738E-02    0.6958833822E+00    0.9559275970E-01    0.3274976188E+00    0.9443046903E-04
    0.9000000000E+05    0.5277098414E-02    0.6958954640E+00    0.9117630502E-01    0.3581736410E+00    0.9575939050E-04
    0.1100000000E+06    0.4432108142E-02    0.6959029423E+00    0.8662428462E-01    0.3828997777E+00    0.9683380006E-04
    0.1300000000E+06    0.3778306897E-02    0.6959079721E+00    0.8225865441E-01    0.4034708247E+00    0.9773734283E-04
    0.1500000000E+06    0.3262249734E-02    0.6959115513E+00    0.7818250885E-01    0.4209666228E+00    0.9851799005E-04
    0.1700000000E+06    0.2847525713E-02    0.6959142040E+00    0.7441751857E-01    0.4360932921E+00    0.9920586675E-04
    0.1900000000E+06    0.2508941447E-02    0.6959162310E+00    0.7095373692E-01    0.4493403600E+00    0.9982115663E-04
    0.2100000000E+06    0.2228690613E-02    0.6959178172E+00    0.6776948079E-01    0.4610621715E+00    0.1003780575E-03
    0.2300000000E+06    0.1993915208E-02    0.6959190819E+00    0.6483970427E-01    0.4715238736E+00    0.1008869435E-03
    0.2500000000E+06    0.1795142911E-02    0.6959201057E+00    0.6213957301E-01    0.4809291579E+00    0.1013556296E-03
    0.2700000000E+06    0.1625267713E-02    0.6959209449E+00    0.5964592674E-01    0.4894378898E+00    0.1017901525E-03
    0.2900000000E+06    0.1478870920E-02    0.6959216397E+00    0.5733778448E-01    0.4971777874E+00    0.1021952740E-03
    0.3100000000E+06    0.1351759342E-02    0.6959222199E+00    0.5519641466E-01    0.5042524299E+00    0.1025748178E-03
    0.3300000000E+06    0.1240644920E-02    0.6959227076E+00    0.5320521426E-01    0.5107469090E+00    0.1029319014E-03
    0.3500000000E+06    0.1142918364E-02    0.6959231200E+00    0.5134951337E-01    0.5167319150E+00    0.1032691006E-03
    0.3700000000E+06    0.1056486495E-02    0.6959234702E+00    0.4961636058E-01    0.5222667542E+00    0.1035885690E-03
    0.3900000000E+06    0.9796535396E-03    0.6959237686E+00    0.4799431489E-01    0.5274016168E+00    0.1038921252E-03
    0.4100000000E+06    0.9110332645E-03    0.6959240236E+00    0.4647325488E-01    0.5321793102E+00    0.1041813196E-03
    0.4300000000E+06    0.8494830947E-03    0.6959242418E+00    0.4504420897E-01    0.5366366016E+00    0.1044574847E-03
    0.4500000000E+06    0.7940541165E-03    0.6959244286E+00    0.4369920675E-01    0.5408052713E+00    0.1047217743E-03
    0.4700000000E+06    0.7439527177E-03    0.6959245886E+00    0.4243115002E-01    0.5447129480E+00    0.1049751942E-03
    0.4900000000E+06    0.6985108568E-03    0.6959247255E+00    0.4123370143E-01    0.5483837789E+00    0.1052186264E-03
    0.1000000000E+06    0.4826496736E-02    0.6958996031E+00    0.8888926308E-01    0.3711453525E+00    0.9632201802E-04
    0.3000000000E+06    0.1413128174E-02    0.6959219426E+00    0.5624733849E-01    0.5007925681E+00    0.1023880339E-03
    0.5000000000E+06    0.6773569955E-03    0.6959247862E+00    0.4065965895E-01    0.5501371065E+00    0.1053368439E-03
    0.7000000000E+06    0.3987279061E-03    0.6959253217E+00    0.3178311231E-01    0.5767724202E+00    0.1073253547E-03
    0.9000000000E+06    0.2631931930E-03    0.6959252359E+00    0.2606753179E-01    0.5935129375E+00    0.1088350224E-03
    0.1100000000E+07    0.1869707049E-03    0.6959249347E+00    0.2208351238E-01    0.6050225029E+00    0.1100556920E-03
    0.1300000000E+07    0.1398061580E-03    0.6959245535E+00    0.1914922138E-01    0.6134249403E+00    0.1110823040E-03
    0.1500000000E+07    0.1085692260E-03    0.6959241462E+00    0.1689884931E-01    0.6198296017E+00    0.1119693225E-03
    0.1700000000E+07    0.8680010536E-04    0.6959237362E+00    0.1511869307E-01    0.6248733629E+00    0.1127509557E-03
    0.1900000000E+07    0.7101577659E-04    0.6959233341E+00    0.1367559799E-01    0.6289482211E+00    0.1134501265E-03
    0.2100000000E+07    0.5920178107E-04    0.6959229447E+00    0.1248229987E-01    0.6323087577E+00    0.1140829608E-03
    0.2300000000E+07    0.5012646249E-04    0.6959225699E+00    0.1147923550E-01    0.6351275337E+00    0.1146612424E-03
    0.2500000000E+07    0.4300199323E-04    0.6959222102E+00    0.1062436563E-01    0.6375256709E+00    0.1151938491E-03
    0.2700000000E+07    0.3730520550E-04    0.6959218654E+00    0.9887175684E-02    0.6395906942E+00    0.1156876386E-03
    0.2900000000E+07    0.3267753013E-04    0.6959215348E+00    0.9244982170E-02    0.6413874269E+00    0.1161480206E-03
    0.3100000000E+07    0.2886647904E-04    0.6959212177E+00    0.8680573483E-02    0.6429649026E+00    0.1165793393E-03
    0.3300000000E+07    0.2569005520E-04    0.6959209134E+00    0.8180654782E-02    0.6443608973E+00    0.1169851364E-03
    0.3500000000E+07    0.2301436379E-04    0.6959206210E+00    0.7734794494E-02    0.6456049840E+00    0.1173683388E-03
    0.3700000000E+07    0.2073910742E-04    0.6959203397E+00    0.7334693360E-02    0.6467206446E+00    0.1177313932E-03
    0.3900000000E+07    0.1878794328E-04    0.6959200688E+00    0.6973666429E-02    0.6477267610E+00    0.1180763659E-03
    0.4100000000E+07    0.1710192383E-04    0.6959198077E+00    0.6646269004E-02    0.6486386886E+00    0.1184050186E-03
    0.4300000000E+07    0.1563494293E-04    0.6959195556E+00    0.6348021950E-02    0.6494690429E+00    0.1187188653E-03
    0.4500000000E+07    0.1435051556E-04    0.6959193121E+00    0.6075206874E-02    0.6502282839E+00    0.1190192170E-03
    0.4700000000E+07    0.1321946260E-04    0.6959190765E+00    0.5824711304E-02    0.6509251580E+00    0.1193072167E-03
    0.4900000000E+07    0.1221822100E-04    0.6959188485E+00    0.5593910178E-02    0.6515670346E+00    0.1195838665E-03
    0.1000000000E+07    0.2201713258E-03    0.6959251008E+00    0.2391211120E-01    0.5997549092E+00    0.1094742283E-03
    0.3000000000E+07    0.3068264288E-04    0.6959213746E+00    0.8953963187E-02    0.6422009884E+00    0.1163670752E-03
    0.5000000000E+07    0.1176013707E-04    0.6959187371E+00    0.5485184965E-02    0.6518693406E+00    0.1197182157E-03
    0.7000000000E+07    0.6208906555E-05    0.6959168114E+00    0.3946594532E-02    0.6561430909E+00    0.1219780921E-03
    0.9000000000E+07    0.3845977014E-05    0.6959152952E+00    0.3079047260E-02    0.6585499620E+00    0.1236937968E-03
    0.1100000000E+08    0.2622671136E-05    0.6959140429E+00    0.2522594254E-02    0.6600930071E+00    0.1250810689E-03
    0.1300000000E+08    0.1907234759E-05    0.6959129745E+00    0.2135552561E-02    0.6611660937E+00    0.1262478011E-03
    0.1500000000E+08    0.1452359291E-05    0.6959120419E+00    0.1850886645E-02    0.6619553301E+00    0.1272558888E-03
    0.1700000000E+08    0.1144975641E-05    0.6959112136E+00    0.1632784415E-02    0.6625600618E+00    0.1281442085E-03
    0.1900000000E+08    0.9273810352E-06    0.6959104679E+00    0.1460380928E-02    0.6630381412E+00    0.1289388108E-03
    0.2100000000E+08    0.7676020509E-06    0.6959097896E+00    0.1320700045E-02    0.6634255364E+00    0.1296580226E-03
    0.2300000000E+08    0.6467499772E-06    0.6959091669E+00    0.1205249659E-02    0.6637457817E+00    0.1303152360E-03
    0.2500000000E+08    0.5530780335E-06    0.6959085914E+00    0.1108239715E-02    0.6640149211E+00    0.1309205402E-03
    0.2700000000E+08    0.4789666258E-06    0.6959080560E+00    0.1025587220E-02    0.6642442679E+00    0.1314817289E-03
