  Pressure (Pa) 23mC5-500 (mol/kg) 24mC5-500 (mol/kg) 2mC6-500 (mol/kg) 3mC6-500 (mol/kg) C7-500 (mol/kg)
    0.1000000000E+01    0.4625810477E-05    0.1266352233E+00    0.6068442146E-05    0.6125764266E-05    0.4146458208E-02
    0.3000000000E+01    0.9538836419E-05    0.2785372646E+00    0.1199726442E-04    0.1512178389E-04    0.4173504858E-02
    0.5000000000E+01    0.1204265762E-04    0.3664515658E+00    0.1484247082E-04    0.2328190584E-04    0.4181812511E-02
    0.7000000000E+01    0.1353147516E-04    0.4237761056E+00    0.1655355483E-04    0.3104897331E-04    0.4186134102E-02
    0.9000000000E+01    0.1452461627E-04    0.4641107272E+00    0.1779219977E-04    0.3856923112E-04    0.4188712391E-02
    0.1100000000E+02    0.1525239735E-04    0.4940339595E+00    0.1882347016E-04    0.4591502435E-04    0.4190334302E-02
    0.1300000000E+02    0.1582923785E-04    0.5171162485E+00    0.1976481655E-04    0.5312906810E-04    0.4191366262E-02
    0.1500000000E+02    0.1631673017E-04    0.5354629203E+00    0.2067166182E-04    0.6023933516E-04    0.4192006239E-02
    0.1700000000E+02    0.1675005808E-04    0.5503957723E+00    0.2157106993E-04    0.6726544917E-04    0.4192371767E-02
    0.1900000000E+02    0.1715024754E-04    0.5627865511E+00    0.2247633748E-04    0.7422187233E-04    0.4192537422E-02
    0.2100000000E+02    0.1753030805E-04    0.5732334723E+00    0.2339379254E-04    0.8111966648E-04    0.4192552946E-02
    0.2300000000E+02    0.1789850705E-04    0.5821607012E+00    0.2432614252E-04    0.8796754212E-04    0.4192452844E-02
    0.2500000000E+02    0.1826020531E-04    0.5898773607E+00    0.2527419378E-04    0.9477252042E-04    0.4192261825E-02
    0.2700000000E+02    0.1861892912E-04    0.5966140577E+00    0.2623776318E-04    0.1015403709E-03    0.4191998053E-02
    0.2900000000E+02    0.1897701875E-04    0.6025463229E+00    0.2721617187E-04    0.1082759114E-03    0.4191675182E-02
    0.3100000000E+02    0.1933603225E-04    0.6078101273E+00    0.2820851603E-04    0.1149832209E-03    0.4191303673E-02
    0.3300000000E+02    0.1969700334E-04    0.6125124321E+00    0.2921381550E-04    0.1216657937E-03    0.4190891673E-02
    0.3500000000E+02    0.2006060969E-04    0.6167385339E+00    0.3023109422E-04    0.1283266543E-03    0.4190445619E-02
    0.3700000000E+02    0.2042728468E-04    0.6205572853E+00    0.3125942206E-04    0.1349684442E-03    0.4189970661E-02
    0.3900000000E+02    0.2079729299E-04    0.6240248755E+00    0.3229793488E-04    0.1415934895E-03    0.4189470969E-02
    0.4100000000E+02    0.2117078225E-04    0.6271876137E+00    0.3334584209E-04    0.1482038528E-03    0.4188949952E-02
    0.4300000000E+02    0.2154781890E-04    0.6300840092E+00    0.3440242738E-04    0.1548013752E-03    0.4188410422E-02
    0.4500000000E+02    0.2192841317E-04    0.6327463474E+00    0.3546704569E-04    0.1613877095E-03    0.4187854717E-02
    0.4700000000E+02    0.2231253680E-04    0.6352018979E+00    0.3653911838E-04    0.1679643479E-03    0.4187284797E-02
    0.4900000000E+02    0.2270013552E-04    0.6374738527E+00    0.3761812760E-04    0.1745326436E-03    0.4186702318E-02
    0.1000000000E+02    0.1491281753E-04    0.4801044308E+00    0.1832434650E-04    0.4226080954E-04    0.4189614396E-02
    0.3000000000E+02    0.1915633543E-04    0.6052545162E+00    0.2771066267E-04    0.1116328644E-03    0.4191494952E-02
    0.5000000000E+02    0.2289521621E-04    0.6385472983E+00    0.3816008678E-04    0.1778140524E-03    0.4186406816E-02
    0.7000000000E+02    0.2695869175E-04    0.6539645248E+00    0.4927488784E-04    0.2432544531E-03    0.4180087242E-02
    0.9000000000E+02    0.3127629534E-04    0.6628559298E+00    0.6078022352E-04    0.3088005715E-03    0.4173320083E-02
    0.1100000000E+03    0.3579287714E-04    0.6686411749E+00    0.7258498448E-04    0.3748961185E-03    0.4166315704E-02
    0.1300000000E+03    0.4047830769E-04    0.6727059063E+00    0.8466055330E-04    0.4418247104E-03    0.4159145807E-02
    0.1500000000E+03    0.4531684572E-04    0.6757182816E+00    0.9700219079E-04    0.5097919340E-03    0.4151836301E-02
    0.1700000000E+03    0.5030080435E-04    0.6780401402E+00    0.1096153824E-03    0.5789606922E-03    0.4144394985E-02
    0.1900000000E+03    0.5542720959E-04    0.6798844931E+00    0.1225104367E-03    0.6494688859E-03    0.4136821599E-02
    0.2100000000E+03    0.6069600326E-04    0.6813849073E+00    0.1357001656E-03    0.7214392398E-03    0.4129111970E-02
    0.2300000000E+03    0.6610903882E-04    0.6826293835E+00    0.1491988355E-03    0.7949852170E-03    0.4121259879E-02
    0.2500000000E+03    0.7166949940E-04    0.6836782602E+00    0.1630216836E-03    0.8702148183E-03    0.4113257956E-02
    0.2700000000E+03    0.7738155032E-04    0.6845742910E+00    0.1771847036E-03    0.9472331642E-03    0.4105098123E-02
    0.2900000000E+03    0.8325012766E-04    0.6853486158E+00    0.1917045638E-03    0.1026144341E-02    0.4096771816E-02
    0.3100000000E+03    0.8928080846E-04    0.6860244535E+00    0.2065985946E-03    0.1107052782E-02    0.4088270085E-02
    0.3300000000E+03    0.9547973212E-04    0.6866194698E+00    0.2218848135E-03    0.1190064356E-02    0.4079583644E-02
    0.3500000000E+03    0.1018535546E-03    0.6871473439E+00    0.2375819708E-03    0.1275287258E-02    0.4070702879E-02
    0.3700000000E+03    0.1084094251E-03    0.6876188329E+00    0.2537096084E-03    0.1362832763E-02    0.4061617837E-02
    0.3900000000E+03    0.1151549771E-03    0.6880425124E+00    0.2702881261E-03    0.1452815909E-02    0.4052318205E-02
    0.4100000000E+03    0.1220983319E-03    0.6884253031E+00    0.2873388546E-03    0.1545356116E-02    0.4042793281E-02
    0.4300000000E+03    0.1292481092E-03    0.6887728512E+00    0.3048841339E-03    0.1640577774E-02    0.4033031941E-02
    0.4500000000E+03    0.1366134446E-03    0.6890898093E+00    0.3229473953E-03    0.1738610819E-02    0.4023022603E-02
    0.4700000000E+03    0.1442040130E-03    0.6893800455E+00    0.3415532496E-03    0.1839591304E-02    0.4012753184E-02
    0.4900000000E+03    0.1520300559E-03    0.6896468020E+00    0.3607275799E-03    0.1943661978E-02    0.4002211059E-02
    0.1000000000E+03    0.3351203795E-04    0.6660253572E+00    0.6664778430E-04    0.3417594983E-03    0.4169841439E-02
    0.3000000000E+03    0.8624483393E-04    0.6856976327E+00    0.1991036983E-03    0.1066342331E-02    0.4092543451E-02
    0.5000000000E+03    0.1560347437E-03    0.6897722481E+00    0.3705363840E-03    0.1996902721E-02    0.3996833627E-02
    0.7000000000E+03    0.2515726800E-03    0.6915332156E+00    0.6042413630E-03    0.3266147190E-02    0.3871296865E-02
    0.9000000000E+03    0.3889764664E-03    0.6925153102E+00    0.9401754306E-03    0.5093247199E-02    0.3697246187E-02
    0.1100000000E+04    0.5983936344E-03    0.6931416532E+00    0.1452595882E-02    0.7885318560E-02    0.3441521432E-02
    0.1300000000E+04    0.9379205402E-03    0.6935758795E+00    0.2284804403E-02    0.1243014185E-01    0.3043751493E-02
    0.1500000000E+04    0.1509618766E-02    0.6938946117E+00    0.3689944143E-02    0.2012770401E-01    0.2408937437E-02
    0.1700000000E+04    0.2396528061E-02    0.6941385088E+00    0.5880010835E-02    0.3218483538E-01    0.1501598221E-02
    0.1900000000E+04    0.3370241868E-02    0.6943311501E+00    0.8306361380E-02    0.4566903324E-01    0.6470351261E-03
    0.2100000000E+04    0.4044582430E-02    0.6944871511E+00    0.1001881331E-01    0.5536948457E-01    0.2267113677E-03
    0.2300000000E+04    0.4462602399E-02    0.6946160531E+00    0.1111250643E-01    0.6174722978E-01    0.1003580734E-03
    0.2500000000E+04    0.4779195364E-02    0.6947243496E+00    0.1196393408E-01    0.6684154173E-01    0.6934072467E-04
    0.2700000000E+04    0.5058580849E-02    0.6948166130E+00    0.1273022608E-01    0.7150972482E-01    0.6224926667E-04
    0.2900000000E+04    0.5319205590E-02    0.6948961564E+00    0.1345644479E-01    0.7599750590E-01    0.6077604918E-04
    0.3100000000E+04    0.5566200798E-02    0.6949654387E+00    0.1415486435E-01    0.8037057429E-01    0.6060061694E-04
    0.3300000000E+04    0.5801264479E-02    0.6950263237E+00    0.1482927920E-01    0.8464788385E-01    0.6071889477E-04
    0.3500000000E+04    0.6025218389E-02    0.6950802497E+00    0.1548132805E-01    0.8883653192E-01    0.6089764078E-04
    0.3700000000E+04    0.6238645897E-02    0.6951283441E+00    0.1611207861E-01    0.9294054242E-01    0.6108292859E-04
    0.3900000000E+04    0.6442050846E-02    0.6951715036E+00    0.1672242305E-01    0.9696306418E-01    0.6126274992E-04
    0.4100000000E+04    0.6635898085E-02    0.6952104497E+00    0.1731317827E-01    0.1009069259E+00    0.6143490451E-04
    0.4300000000E+04    0.6820624724E-02    0.6952457701E+00    0.1788511280E-01    0.1047747811E+00    0.6159944320E-04
    0.4500000000E+04    0.6996644048E-02    0.6952779480E+00    0.1843895533E-01    0.1085691500E+00    0.6175688319E-04
    0.4700000000E+04    0.7164347538E-02    0.6953073844E+00    0.1897539846E-01    0.1122924354E+00    0.6190779133E-04
    0.4900000000E+04    0.7324106343E-02    0.6953344149E+00    0.1949510124E-01    0.1159469312E+00    0.6205269314E-04
    0.1000000000E+04    0.4819314335E-03    0.6928596690E+00    0.1167546029E-02    0.6331457846E-02    0.3582542112E-02
    0.3000000000E+04    0.5444265995E-02    0.6949319521E+00    0.1380880648E-01    0.7819672131E-01    0.6062043202E-04
    0.5000000000E+04    0.7401117224E-02    0.6953471181E+00    0.1974887228E-01    0.1177490717E+00    0.6212304070E-04
    0.7000000000E+04    0.8600768487E-02    0.6955248486E+00    0.2408301941E-01    0.1506647337E+00    0.6330455506E-04
    0.9000000000E+04    0.9312228458E-02    0.6956234258E+00    0.2730039340E-01    0.1786831395E+00    0.6419976655E-04
    0.1100000000E+05    0.9701164319E-02    0.6956860398E+00    0.2971539115E-01    0.2029611963E+00    0.6492278060E-04
    0.1300000000E+05    0.9873425061E-02    0.6957293016E+00    0.3153873688E-01    0.2243023292E+00    0.6553040551E-04
    0.1500000000E+05    0.9898608558E-02    0.6957609611E+00    0.3291644390E-01    0.2432836622E+00    0.6605514019E-04
    0.1700000000E+05    0.9823552659E-02    0.6957851196E+00    0.3395254737E-01    0.2603317931E+00    0.6651735870E-04
    0.1900000000E+05    0.9680376391E-02    0.6958041503E+00    0.3472294668E-01    0.2757698808E+00    0.6693069482E-04
    0.2100000000E+05    0.9491439608E-02    0.6958195218E+00    0.3528414729E-01    0.2898479758E+00    0.6730473000E-04
    0.2300000000E+05    0.9272492820E-02    0.6958321912E+00    0.3567895790E-01    0.3027631740E+00    0.6764646012E-04
    0.2500000000E+05    0.9034728806E-02    0.6958428091E+00    0.3594030670E-01    0.3146733786E+00    0.6796115224E-04
    0.2700000000E+05    0.8786148530E-02    0.6958518329E+00    0.3609386013E-01    0.3257069250E+00    0.6825287292E-04
    0.2900000000E+05    0.8532488171E-02    0.6958595939E+00    0.3615985871E-01    0.3359694583E+00    0.6852482860E-04
    0.3100000000E+05    0.8277858938E-02    0.6958663373E+00    0.3615442884E-01    0.3455489428E+00    0.6877959310E-04
    0.3300000000E+05    0.8025195259E-02    0.6958722493E+00    0.3609053620E-01    0.3545193735E+00    0.6901926434E-04
    0.3500000000E+05    0.7776572853E-02    0.6958774729E+00    0.3597868944E-01    0.3629435703E+00    0.6924557533E-04
    0.3700000000E+05    0.7533437078E-02    0.6958821204E+00    0.3582746689E-01    0.3708753115E+00    0.6945997446E-04
    0.3900000000E+05    0.7296768534E-02    0.6958862811E+00    0.3564391564E-01    0.3783609830E+00    0.6966368486E-04
    0.4100000000E+05    0.7067204229E-02    0.6958900265E+00    0.3543385762E-01    0.3854408704E+00    0.6985774893E-04
    0.4300000000E+05    0.6845126924E-02    0.6958934151E+00    0.3520212664E-01    0.3921501808E+00    0.7004306248E-04
    0.4500000000E+05    0.6630731455E-02    0.6958964948E+00    0.3495275390E-01    0.3985198597E+00    0.7022040103E-04
    0.4700000000E+05    0.6424074236E-02    0.6958993052E+00    0.3468911426E-01    0.4045772501E+00    0.7039044056E-04
    0.4900000000E+05    0.6225110392E-02    0.6959018797E+00    0.3441404273E-01    0.4103466293E+00    0.7055377389E-04
    0.1000000000E+05    0.9539335666E-02    0.6956578785E+00    0.2859315024E-01    0.1912330316E+00    0.6457845389E-04
    0.3000000000E+05    0.8405087928E-02    0.6958630800E+00    0.3616519715E-01    0.3408396661E+00    0.6865421895E-04
    0.5000000000E+05    0.6128478790E-02    0.6959030874E+00    0.3427298168E-01    0.4131301729E+00    0.7063309153E-04
    0.7000000000E+05    0.4551699023E-02    0.6959197896E+00    0.3126491828E-01    0.4578865192E+00    0.7196714268E-04
    0.9000000000E+05    0.3489813279E-02    0.6959288182E+00    0.2838587619E-01    0.4888022967E+00    0.7297981629E-04
    0.1100000000E+06    0.2753749865E-02    0.6959344020E+00    0.2585508831E-01    0.5115848724E+00    0.7379857284E-04
    0.1300000000E+06    0.2226050580E-02    0.6959381544E+00    0.2367477609E-01    0.5291260451E+00    0.7448713495E-04
    0.1500000000E+06    0.1835990149E-02    0.6959408221E+00    0.2179993648E-01    0.5430720413E+00    0.7508205121E-04
    0.1700000000E+06    0.1539955386E-02    0.6959427972E+00    0.2018083457E-01    0.5544369628E+00    0.7560627470E-04
    0.1900000000E+06    0.1310145250E-02    0.6959443049E+00    0.1877360398E-01    0.5638826566E+00    0.7607518454E-04
    0.2100000000E+06    0.1128249712E-02    0.6959454833E+00    0.1754199063E-01    0.5718607258E+00    0.7649959924E-04
    0.2300000000E+06    0.9818448176E-03    0.6959464217E+00    0.1645666232E-01    0.5786904630E+00    0.7688742383E-04
    0.2500000000E+06    0.8622734620E-03    0.6959471804E+00    0.1549400263E-01    0.5846042910E+00    0.7724461349E-04
    0.2700000000E+06    0.7633595027E-03    0.6959478013E+00    0.1463495617E-01    0.5897755784E+00    0.7757576836E-04
    0.2900000000E+06    0.6806037220E-03    0.6959483146E+00    0.1386406578E-01    0.5943363589E+00    0.7788451709E-04
    0.3100000000E+06    0.6106670018E-03    0.6959487424E+00    0.1316870873E-01    0.5983890058E+00    0.7817377345E-04
    0.3300000000E+06    0.5510296791E-03    0.6959491014E+00    0.1253850239E-01    0.6020141459E+00    0.7844591317E-04
    0.3500000000E+06    0.4997618718E-03    0.6959494043E+00    0.1196484436E-01    0.6052761608E+00    0.7870289927E-04
    0.3700000000E+06    0.4553654108E-03    0.6959496609E+00    0.1144055635E-01    0.6082270923E+00    0.7894637274E-04
    0.3900000000E+06    0.4166630084E-03    0.6959498790E+00    0.1095960745E-01    0.6109094715E+00    0.7917771961E-04
    0.4100000000E+06    0.3827192210E-03    0.6959500648E+00    0.1051689771E-01    0.6133584003E+00    0.7939812137E-04
    0.4300000000E+06    0.3527832065E-03    0.6959502233E+00    0.1010808792E-01    0.6156031092E+00    0.7960859348E-04
    0.4500000000E+06    0.3262466778E-03    0.6959503585E+00    0.9729464697E-02    0.6176681377E+00    0.7981001521E-04
    0.4700000000E+06    0.3026126139E-03    0.6959504738E+00    0.9377832864E-02    0.6195742404E+00    0.8000315304E-04
    0.4900000000E+06    0.2814716976E-03    0.6959505719E+00    0.9050429024E-02    0.6213390904E+00    0.8018867924E-04
    0.1000000000E+06    0.3089790970E-02    0.6959319094E+00    0.2707477265E-01    0.5009892191E+00    0.7340856534E-04
    0.3000000000E+06    0.6442065473E-03    0.6959485381E+00    0.1350764104E-01    0.5964207240E+00    0.7803142240E-04
    0.5000000000E+06    0.2717277342E-03    0.6959506153E+00    0.8895049623E-02    0.6221733644E+00    0.8027877603E-04
    0.7000000000E+06    0.1495378835E-03    0.6959509800E+00    0.6615008989E-02    0.6341855436E+00    0.8179427976E-04
    0.9000000000E+06    0.9468906730E-04    0.6959508878E+00    0.5259567912E-02    0.6411380743E+00    0.8294484832E-04
    0.1100000000E+07    0.6539727033E-04    0.6959506391E+00    0.4362279793E-02    0.6456706996E+00    0.8387516444E-04
    0.1300000000E+07    0.4791577776E-04    0.6959503339E+00    0.3724890479E-02    0.6488589943E+00    0.8465758386E-04
    0.1500000000E+07    0.3664316601E-04    0.6959500116E+00    0.3248983607E-02    0.6512234625E+00    0.8533361473E-04
    0.1700000000E+07    0.2894717848E-04    0.6959496891E+00    0.2880210666E-02    0.6530466729E+00    0.8592932820E-04
    0.1900000000E+07    0.2345731054E-04    0.6959493741E+00    0.2586126374E-02    0.6544952608E+00    0.8646219422E-04
    0.2100000000E+07    0.1940248217E-04    0.6959490697E+00    0.2346171970E-02    0.6556738464E+00    0.8694450291E-04
    0.2300000000E+07    0.1632167161E-04    0.6959487772E+00    0.2146692141E-02    0.6566514241E+00    0.8738523511E-04
    0.2500000000E+07    0.1392539023E-04    0.6959484968E+00    0.1978263662E-02    0.6574753348E+00    0.8779115674E-04
    0.2700000000E+07    0.1202436698E-04    0.6959482283E+00    0.1834174815E-02    0.6581791410E+00    0.8816749437E-04
    0.2900000000E+07    0.1049058977E-04    0.6959479711E+00    0.1709516177E-02    0.6587872983E+00    0.8851837095E-04
    0.3100000000E+07    0.9234945498E-05    0.6959477245E+00    0.1600614100E-02    0.6593180475E+00    0.8884709718E-04
    0.3300000000E+07    0.8193839100E-05    0.6959474879E+00    0.1504665150E-02    0.6597852704E+00    0.8915637255E-04
    0.3500000000E+07    0.7320893513E-05    0.6959472607E+00    0.1419493007E-02    0.6601997182E+00    0.8944842759E-04
    0.3700000000E+07    0.6581638699E-05    0.6959470422E+00    0.1343382513E-02    0.6605698465E+00    0.8972512696E-04
    0.3900000000E+07    0.5950019343E-05    0.6959468318E+00    0.1274963743E-02    0.6609023973E+00    0.8998804565E-04
    0.4100000000E+07    0.5406042453E-05    0.6959466290E+00    0.1213129364E-02    0.6612028112E+00    0.9023852620E-04
    0.4300000000E+07    0.4934158470E-05    0.6959464333E+00    0.1156974631E-02    0.6614755278E+00    0.9047772253E-04
    0.4500000000E+07    0.4522125521E-05    0.6959462442E+00    0.1105753117E-02    0.6617242051E+00    0.9070663380E-04
    0.4700000000E+07    0.4160198731E-05    0.6959460613E+00    0.1058843557E-02    0.6619518845E+00    0.9092613101E-04
    0.4900000000E+07    0.3840542381E-05    0.6959458843E+00    0.1015724686E-02    0.6621611153E+00    0.9113697811E-04
    0.1000000000E+07    0.7800630383E-04    0.6959507745E+00    0.4769457879E-02    0.6436204486E+00    0.8343200983E-04
    0.3000000000E+07    0.9832458121E-05    0.6959478465E+00    0.1653287867E-02    0.6590613959E+00    0.8868532171E-04
    0.5000000000E+07    0.3694530179E-05    0.6959457978E+00    0.9954463569E-03    0.6622594986E+00    0.9123937156E-04
    0.7000000000E+07    0.1937962343E-05    0.6959443029E+00    0.7108000445E-03    0.6636396994E+00    0.9296172501E-04
    0.9000000000E+07    0.1198475492E-05    0.6959431255E+00    0.5521874182E-03    0.6644085099E+00    0.9426934240E-04
    0.1100000000E+08    0.8179102425E-06    0.6959421523E+00    0.4511596536E-03    0.6648983450E+00    0.9532664712E-04
    0.1300000000E+08    0.5961085160E-06    0.6959413214E+00    0.3812135080E-03    0.6652376591E+00    0.9621586881E-04
    0.1500000000E+08    0.4553709280E-06    0.6959405956E+00    0.3299374731E-03    0.6654865559E+00    0.9698418046E-04
    0.1700000000E+08    0.3603718489E-06    0.6959399505E+00    0.2907478140E-03    0.6656769067E+00    0.9766121151E-04
    0.1900000000E+08    0.2931546882E-06    0.6959393694E+00    0.2598285959E-03    0.6658271829E+00    0.9826681637E-04
    0.2100000000E+08    0.2437984082E-06    0.6959388403E+00    0.2348160949E-03    0.6659488273E+00    0.9881496269E-04
    0.2300000000E+08    0.2064547488E-06    0.6959383544E+00    0.2141682769E-03    0.6660493062E+00    0.9931585717E-04
    0.2500000000E+08    0.1774927036E-06    0.6959379050E+00    0.1968364540E-03    0.6661336983E+00    0.9977718925E-04
    0.2700000000E+08    0.1545599654E-06    0.6959374867E+00    0.1820826920E-03    0.6662055785E+00    0.1002048990E-03
