  Pressure (Pa) 23mC5-500 (mol/kg) 24mC5-500 (mol/kg) 2mC6-500 (mol/kg) 3mC6-500 (mol/kg) C7-500 (mol/kg)
    0.1000000000E+01    0.4131989230E-05    0.1741104426E+00    0.1064184096E-04    0.8976728198E-06    0.4168256839E-02
    0.3000000000E+01    0.7642359843E-05    0.3481335243E+00    0.1878963782E-04    0.2257049172E-05    0.4192360983E-02
    0.5000000000E+01    0.9129199033E-05    0.4351142730E+00    0.2214766575E-04    0.3497355029E-05    0.4201647959E-02
    0.7000000000E+01    0.9951373678E-05    0.4872937268E+00    0.2426618927E-04    0.4680171355E-05    0.4206890655E-02
    0.9000000000E+01    0.1050392024E-04    0.5220766131E+00    0.2602499766E-04    0.5826110247E-05    0.4210269127E-02
    0.1100000000E+02    0.1093419435E-04    0.5469200052E+00    0.2769516714E-04    0.6945446737E-05    0.4212612715E-02
    0.1300000000E+02    0.1130590327E-04    0.5655517861E+00    0.2936822906E-04    0.8044281770E-05    0.4214316690E-02
    0.1500000000E+02    0.1164935580E-04    0.5800427567E+00    0.3107451900E-04    0.9126628593E-05    0.4215595652E-02
    0.1700000000E+02    0.1197991910E-04    0.5916352932E+00    0.3282182182E-04    0.1019531306E-04    0.4216576874E-02
    0.1900000000E+02    0.1230570731E-04    0.6011199495E+00    0.3460944289E-04    0.1125242432E-04    0.4217340892E-02
    0.2100000000E+02    0.1263109508E-04    0.6090237367E+00    0.3643369250E-04    0.1229956457E-04    0.4217941289E-02
    0.2300000000E+02    0.1295844097E-04    0.6157114953E+00    0.3829009438E-04    0.1333799834E-04    0.4218415162E-02
    0.2500000000E+02    0.1328898066E-04    0.6214438182E+00    0.4017426699E-04    0.1436874688E-04    0.4218789052E-02
    0.2700000000E+02    0.1362331069E-04    0.6264118021E+00    0.4208224708E-04    0.1539265077E-04    0.4219082472E-02
    0.2900000000E+02    0.1396165960E-04    0.6307587671E+00    0.4401057635E-04    0.1641041287E-04    0.4219310103E-02
    0.3100000000E+02    0.1430404414E-04    0.6345943091E+00    0.4595628987E-04    0.1742262889E-04    0.4219483213E-02
    0.3300000000E+02    0.1465036113E-04    0.6380036681E+00    0.4791686747E-04    0.1842980956E-04    0.4219610601E-02
    0.3500000000E+02    0.1500044227E-04    0.6410541383E+00    0.4989017508E-04    0.1943239720E-04    0.4219699244E-02
    0.3700000000E+02    0.1535408702E-04    0.6437995545E+00    0.5187440746E-04    0.2043077826E-04    0.4219754746E-02
    0.3900000000E+02    0.1571108246E-04    0.6462834970E+00    0.5386803670E-04    0.2142529305E-04    0.4219781665E-02
    0.4100000000E+02    0.1607121507E-04    0.6485416219E+00    0.5586976780E-04    0.2241624329E-04    0.4219783748E-02
    0.4300000000E+02    0.1643427762E-04    0.6506033844E+00    0.5787850100E-04    0.2340389822E-04    0.4219764104E-02
    0.4500000000E+02    0.1680007299E-04    0.6524933302E+00    0.5989330038E-04    0.2438849940E-04    0.4219725333E-02
    0.4700000000E+02    0.1716841609E-04    0.6542320775E+00    0.6191336762E-04    0.2537026469E-04    0.4219669633E-02
    0.4900000000E+02    0.1753913459E-04    0.6558370727E+00    0.6393802028E-04    0.2634939149E-04    0.4219598870E-02
    0.1000000000E+02    0.1072923187E-04    0.5354539745E+00    0.2686324756E-04    0.6388657944E-05    0.4211539619E-02
    0.3000000000E+02    0.1413235183E-04    0.6327346541E+00    0.4498142734E-04    0.1691718044E-04    0.4219402874E-02
    0.5000000000E+02    0.1772533428E-04    0.6565941451E+00    0.6495188007E-04    0.2683802222E-04    0.4219558348E-02
    0.7000000000E+02    0.2154166357E-04    0.6673797673E+00    0.8536567558E-04    0.3650842818E-04    0.4218245853E-02
    0.9000000000E+02    0.2547763122E-04    0.6735263312E+00    0.1059072497E-03    0.4605044445E-04    0.4216381280E-02
    0.1100000000E+03    0.2948777606E-04    0.6774970618E+00    0.1265076047E-03    0.5552572868E-04    0.4214243187E-02
    0.1300000000E+03    0.3355121664E-04    0.6802735414E+00    0.1471590664E-03    0.6497140853E-04    0.4211945815E-02
    0.1500000000E+03    0.3765782550E-04    0.6823241060E+00    0.1678712803E-03    0.7441232297E-04    0.4209544650E-02
    0.1700000000E+03    0.4180261143E-04    0.6839005199E+00    0.1886585071E-03    0.8386632910E-04    0.4207069740E-02
    0.1900000000E+03    0.4598322197E-04    0.6851501890E+00    0.2095355644E-03    0.9334696558E-04    0.4204538618E-02
    0.2100000000E+03    0.5019873888E-04    0.6861651554E+00    0.2305165246E-03    0.1028649312E-03    0.4201962069E-02
    0.2300000000E+03    0.5444905744E-04    0.6870058588E+00    0.2516143677E-03    0.1124289690E-03    0.4199346980E-02
    0.2500000000E+03    0.5873454944E-04    0.6877136272E+00    0.2728409739E-03    0.1220464254E-03    0.4196697862E-02
    0.2700000000E+03    0.6305587240E-04    0.6883176779E+00    0.2942072295E-03    0.1317236213E-03    0.4194017707E-02
    0.2900000000E+03    0.6741385802E-04    0.6888392507E+00    0.3157231626E-03    0.1414661066E-03    0.4191308509E-02
    0.3100000000E+03    0.7180944537E-04    0.6892941567E+00    0.3373980747E-03    0.1512788414E-03    0.4188571581E-02
    0.3300000000E+03    0.7624364004E-04    0.6896944083E+00    0.3592406593E-03    0.1611663272E-03    0.4185807759E-02
    0.3500000000E+03    0.8071748911E-04    0.6900492958E+00    0.3812591032E-03    0.1711327052E-03    0.4183017540E-02
    0.3700000000E+03    0.8523206559E-04    0.6903661166E+00    0.4034611737E-03    0.1811818312E-03    0.4180201172E-02
    0.3900000000E+03    0.8978845895E-04    0.6906506828E+00    0.4258542906E-03    0.1913173326E-03    0.4177358720E-02
    0.4100000000E+03    0.9438776947E-04    0.6909076806E+00    0.4484455884E-03    0.2015426546E-03    0.4174490109E-02
    0.4300000000E+03    0.9903110501E-04    0.6911409303E+00    0.4712419677E-03    0.2118610957E-03    0.4171595159E-02
    0.4500000000E+03    0.1037195794E-03    0.6913535777E+00    0.4942501392E-03    0.2222758376E-03    0.4168673605E-02
    0.4700000000E+03    0.1084543121E-03    0.6915482362E+00    0.5174766616E-03    0.2327899686E-03    0.4165725116E-02
    0.4900000000E+03    0.1132364277E-03    0.6917270955E+00    0.5409279733E-03    0.2434065036E-03    0.4162749309E-02
    0.1000000000E+03    0.2747509041E-04    0.6757044581E+00    0.1162012265E-03    0.5079372771E-04    0.4215337258E-02
    0.3000000000E+03    0.6960688984E-04    0.6890742119E+00    0.3265401900E-03    0.1463634020E-03    0.4189943450E-02
    0.5000000000E+03    0.1156456073E-03    0.6918111894E+00    0.5527399113E-03    0.2487540989E-03    0.4161251030E-02
    0.7000000000E+03    0.1665991167E-03    0.6929904807E+00    0.8023129927E-03    0.3617918515E-03    0.4129729241E-02
    0.9000000000E+03    0.2236704328E-03    0.6936471625E+00    0.1081635610E-02    0.4884177153E-03    0.4094820701E-02
    0.1100000000E+04    0.2882537514E-03    0.6940655536E+00    0.1397718030E-02    0.6318367803E-03    0.4055786280E-02
    0.1300000000E+04    0.3620521889E-03    0.6943554006E+00    0.1759008461E-02    0.7959098431E-03    0.4011712440E-02
    0.1500000000E+04    0.4472114759E-03    0.6945680306E+00    0.2176107859E-02    0.9854849299E-03    0.3961456186E-02
    0.1700000000E+04    0.5464917836E-03    0.6947306569E+00    0.2662637899E-02    0.1206796780E-02    0.3903563040E-02
    0.1900000000E+04    0.6635027600E-03    0.6948590509E+00    0.3236412216E-02    0.1468005838E-02    0.3836153767E-02
    0.2100000000E+04    0.8030331643E-03    0.6949629834E+00    0.3921074401E-02    0.1779952982E-02    0.3756768083E-02
    0.2300000000E+04    0.9715161409E-03    0.6950488305E+00    0.4748410865E-02    0.2157227066E-02    0.3662149868E-02
    0.2500000000E+04    0.1177679232E-02    0.6951209300E+00    0.5761588013E-02    0.2619662663E-02    0.3547958521E-02
    0.2700000000E+04    0.1433419139E-02    0.6951823353E+00    0.7019523405E-02    0.3194369822E-02    0.3408404027E-02
    0.2900000000E+04    0.1754868085E-02    0.6952352583E+00    0.8602249542E-02    0.3918241591E-02    0.3235855501E-02
    0.3100000000E+04    0.2163354841E-02    0.6952813404E+00    0.1061584310E-01    0.4840303310E-02    0.3020630196E-02
    0.3300000000E+04    0.2685219761E-02    0.6953218252E+00    0.1319183910E-01    0.6021600938E-02    0.2751568730E-02
    0.3500000000E+04    0.3347785338E-02    0.6953576724E+00    0.1646784846E-01    0.7526556488E-02    0.2418802032E-02
    0.3700000000E+04    0.4166544208E-02    0.6953896341E+00    0.2052486522E-01    0.9394483481E-02    0.2020953791E-02
    0.3900000000E+04    0.5120515006E-02    0.6954183082E+00    0.2526554126E-01    0.1158373298E-01    0.1577243583E-02
    0.4100000000E+04    0.6130058286E-02    0.6954441761E+00    0.3030276947E-01    0.1391968936E-01    0.1135472524E-02
    0.4300000000E+04    0.7075865946E-02    0.6954676294E+00    0.3504981476E-01    0.1613437773E-01    0.7569007447E-03
    0.4500000000E+04    0.7866271824E-02    0.6954889902E+00    0.3905086238E-01    0.1801721997E-01    0.4802524834E-03
    0.4700000000E+04    0.8482434618E-02    0.6955085260E+00    0.4220676103E-01    0.1951984293E-01    0.3038683933E-03
    0.4900000000E+04    0.8958317057E-02    0.6955264604E+00    0.4467993826E-01    0.2071426174E-01    0.2017960704E-03
    0.1000000000E+04    0.2549253245E-03    0.6938772334E+00    0.1234595556E-02    0.5578059119E-03    0.4075871727E-02
    0.3000000000E+04    0.1946684306E-02    0.6952590690E+00    0.9547476802E-02    0.4350927683E-02    0.3134257128E-02
    0.5000000000E+04    0.9158263069E-02    0.6955348871E+00    0.4573161076E-01    0.2122802305E-01    0.1696369744E-03
    0.7000000000E+04    0.1171648844E-01    0.6956526426E+00    0.5990475516E-01    0.2849264915E-01    0.8646236357E-04
    0.9000000000E+04    0.1360288877E-01    0.6957177860E+00    0.7113700831E-01    0.3462322678E-01    0.8755573685E-04
    0.1100000000E+05    0.1511402957E-01    0.6957590574E+00    0.8076231280E-01    0.4017429128E-01    0.8853998363E-04
    0.1300000000E+05    0.1633318869E-01    0.6957874998E+00    0.8909831575E-01    0.4524861671E-01    0.8936759185E-04
    0.1500000000E+05    0.1732167558E-01    0.6958082602E+00    0.9638302128E-01    0.4992437627E-01    0.9008243679E-04
    0.1700000000E+05    0.1812565258E-01    0.6958240605E+00    0.1027991399E+00    0.5426262291E-01    0.9071220403E-04
    0.1900000000E+05    0.1878044171E-01    0.6958364742E+00    0.1084892707E+00    0.5831181686E-01    0.9127542973E-04
    0.2100000000E+05    0.1931345652E-01    0.6958464742E+00    0.1135663418E+00    0.6211097626E-01    0.9178514555E-04
    0.2300000000E+05    0.1974624241E-01    0.6958546941E+00    0.1181209527E+00    0.6569191875E-01    0.9225086933E-04
    0.2500000000E+05    0.2009592416E-01    0.6958615642E+00    0.1222266386E+00    0.6908088730E-01    0.9267976859E-04
    0.2700000000E+05    0.2037625103E-01    0.6958673868E+00    0.1259437134E+00    0.7229975012E-01    0.9307737826E-04
    0.2900000000E+05    0.2059836304E-01    0.6958723805E+00    0.1293221177E+00    0.7536689984E-01    0.9344806333E-04
    0.3100000000E+05    0.2077136084E-01    0.6958767073E+00    0.1324035616E+00    0.7829793718E-01    0.9379532800E-04
    0.3300000000E+05    0.2090273494E-01    0.6958804898E+00    0.1352231564E+00    0.8110619717E-01    0.9412202897E-04
    0.3500000000E+05    0.2099869289E-01    0.6958838222E+00    0.1378106734E+00    0.8380315910E-01    0.9443052626E-04
    0.3700000000E+05    0.2106441124E-01    0.6958867786E+00    0.1401915241E+00    0.8639876930E-01    0.9472279245E-04
    0.3900000000E+05    0.2110423162E-01    0.6958894174E+00    0.1423875326E+00    0.8890169776E-01    0.9500049348E-04
    0.4100000000E+05    0.2112181459E-01    0.6958917859E+00    0.1444175485E+00    0.9131954401E-01    0.9526504926E-04
    0.4300000000E+05    0.2112026151E-01    0.6958939222E+00    0.1462979391E+00    0.9365900380E-01    0.9551768006E-04
    0.4500000000E+05    0.2110221174E-01    0.6958958579E+00    0.1480429859E+00    0.9592600498E-01    0.9575944237E-04
    0.4700000000E+05    0.2106992073E-01    0.6958976190E+00    0.1496652075E+00    0.9812581906E-01    0.9599125713E-04
    0.4900000000E+05    0.2102532325E-01    0.6958992272E+00    0.1511756252E+00    0.1002631536E+00    0.9621393200E-04
    0.1000000000E+05    0.1439953801E-01    0.6957405082E+00    0.7612841041E-01    0.3746406937E-01    0.8807109746E-04
    0.3000000000E+05    0.2069049958E-01    0.6958746188E+00    0.1308976269E+00    0.7684855131E-01    0.9362443150E-04
    0.5000000000E+05    0.2099893937E-01    0.6958999799E+00    0.1518919965E+00    0.1013097272E+00    0.9632206789E-04
    0.7000000000E+05    0.2012621182E-01    0.6959102327E+00    0.1622063416E+00    0.1197881077E+00    0.9814089172E-04
    0.9000000000E+05    0.1900283962E-01    0.6959155831E+00    0.1677898523E+00    0.1349876035E+00    0.9952162950E-04
    0.1100000000E+06    0.1787751774E-01    0.6959187657E+00    0.1708796200E+00    0.1480806419E+00    0.1006380035E-03
    0.1300000000E+06    0.1682281486E-01    0.6959208136E+00    0.1725080524E+00    0.1596848683E+00    0.1015768756E-03
    0.1500000000E+06    0.1585646838E-01    0.6959222005E+00    0.1732177916E+00    0.1701682494E+00    0.1023880698E-03
    0.1700000000E+06    0.1497771478E-01    0.6959231724E+00    0.1733209652E+00    0.1797693857E+00    0.1031028782E-03
    0.1900000000E+06    0.1417969584E-01    0.6959238692E+00    0.1730093749E+00    0.1886528516E+00    0.1037422679E-03
    0.2100000000E+06    0.1345400895E-01    0.6959243760E+00    0.1724069710E+00    0.1969376173E+00    0.1043209887E-03
    0.2300000000E+06    0.1279240250E-01    0.6959247469E+00    0.1715970829E+00    0.2047129087E+00    0.1048498185E-03
    0.2500000000E+06    0.1218736593E-01    0.6959250182E+00    0.1706375319E+00    0.2120476525E+00    0.1053368769E-03
    0.2700000000E+06    0.1163227929E-01    0.6959252149E+00    0.1695694859E+00    0.2189964011E+00    0.1057884360E-03
    0.2900000000E+06    0.1112138949E-01    0.6959253546E+00    0.1684228828E+00    0.2256032125E+00    0.1062094433E-03
    0.3100000000E+06    0.1064972474E-01    0.6959254502E+00    0.1672198798E+00    0.2319042832E+00    0.1066038718E-03
    0.3300000000E+06    0.1021299341E-01    0.6959255112E+00    0.1659771161E+00    0.2379297895E+00    0.1069749608E-03
    0.3500000000E+06    0.9807486499E-02    0.6959255447E+00    0.1647072392E+00    0.2437052099E+00    0.1073253869E-03
    0.3700000000E+06    0.9429990442E-02    0.6959255563E+00    0.1634199589E+00    0.2492522959E+00    0.1076573876E-03
    0.3900000000E+06    0.9077711889E-02    0.6959255503E+00    0.1621227900E+00    0.2545897990E+00    0.1079728528E-03
    0.4100000000E+06    0.8748214038E-02    0.6959255299E+00    0.1608215853E+00    0.2597340247E+00    0.1082733936E-03
    0.4300000000E+06    0.8439363166E-02    0.6959254978E+00    0.1595209244E+00    0.2646992611E+00    0.1085603945E-03
    0.4500000000E+06    0.8149283895E-02    0.6959254562E+00    0.1582244020E+00    0.2694981161E+00    0.1088350544E-03
    0.4700000000E+06    0.7876321791E-02    0.6959254067E+00    0.1569348435E+00    0.2741417838E+00    0.1090984186E-03
    0.4900000000E+06    0.7619012055E-02    0.6959253508E+00    0.1556544687E+00    0.2786402600E+00    0.1093514037E-03
    0.1000000000E+06    0.1843386777E-01    0.6959173611E+00    0.1695656171E+00    0.1417508075E+00    0.1001062253E-03
    0.3000000000E+06    0.1088093697E-01    0.6959254073E+00    0.1678272828E+00    0.2287899559E+00    0.1064097625E-03
    0.5000000000E+06    0.7495814378E-02    0.6959253208E+00    0.1550182846E+00    0.2808378909E+00    0.1094742605E-03
    0.7000000000E+06    0.5603449158E-02    0.6959245742E+00    0.1430340560E+00    0.3189376713E+00    0.1115408190E-03
    0.9000000000E+06    0.4399844738E-02    0.6959237625E+00    0.1325873897E+00    0.3489482125E+00    0.1131097514E-03
    0.1100000000E+07    0.3571675412E-02    0.6959229910E+00    0.1235314404E+00    0.3735545428E+00    0.1143783456E-03
    0.1300000000E+07    0.2970691764E-02    0.6959222788E+00    0.1156368361E+00    0.3942627338E+00    0.1154452661E-03
    0.1500000000E+07    0.2517385609E-02    0.6959216248E+00    0.1087011923E+00    0.4120188426E+00    0.1163671135E-03
    0.1700000000E+07    0.2165227355E-02    0.6959210232E+00    0.1025609004E+00    0.4274620570E+00    0.1171794387E-03
    0.1900000000E+07    0.1885176083E-02    0.6959204677E+00    0.9708590057E-01    0.4410468037E+00    0.1179060641E-03
    0.2100000000E+07    0.1658184860E-02    0.6959199522E+00    0.9217257965E-01    0.4531085751E+00    0.1185637486E-03
    0.2300000000E+07    0.1471258879E-02    0.6959194719E+00    0.8773772469E-01    0.4639023832E+00    0.1191647387E-03
    0.2500000000E+07    0.1315242400E-02    0.6959190224E+00    0.8371385214E-01    0.4736266292E+00    0.1197182603E-03
    0.2700000000E+07    0.1183509282E-02    0.6959186001E+00    0.8004569091E-01    0.4824386423E+00    0.1202314407E-03
    0.2900000000E+07    0.1071153940E-02    0.6959182019E+00    0.7668754241E-01    0.4904651893E+00    0.1207099019E-03
    0.3100000000E+07    0.9744730287E-03    0.6959178252E+00    0.7360128804E-01    0.4978098084E+00    0.1211581585E-03
    0.3300000000E+07    0.8906229838E-03    0.6959174679E+00    0.7075487177E-01    0.5045580646E+00    0.1215798915E-03
    0.3500000000E+07    0.8173876433E-03    0.6959171281E+00    0.6812113308E-01    0.5107813993E+00    0.1219781425E-03
    0.3700000000E+07    0.7530168732E-03    0.6959168040E+00    0.6567690006E-01    0.5165400050E+00    0.1223554542E-03
    0.3900000000E+07    0.6961121852E-03    0.6959164943E+00    0.6340227769E-01    0.5218850085E+00    0.1227139743E-03
    0.4100000000E+07    0.6455441819E-03    0.6959161978E+00    0.6128008411E-01    0.5268601534E+00    0.1230555336E-03
    0.4300000000E+07    0.6003919998E-03    0.6959159134E+00    0.5929539988E-01    0.5315031126E+00    0.1233817054E-03
    0.4500000000E+07    0.5598982372E-03    0.6959156400E+00    0.5743520493E-01    0.5358465263E+00    0.1236938524E-03
    0.4700000000E+07    0.5234349608E-03    0.6959153769E+00    0.5568808348E-01    0.5399188289E+00    0.1239931621E-03
    0.4900000000E+07    0.4904777597E-03    0.6959151233E+00    0.5404398276E-01    0.5437449163E+00    0.1242806765E-03
    0.1000000000E+07    0.3950368340E-02    0.6959233697E+00    0.1279001302E+00    0.3618151756E+00    0.1137740527E-03
    0.3000000000E+07    0.1021048909E-02    0.6959180110E+00    0.7511255892E-01    0.4942170215E+00    0.1209375588E-03
    0.5000000000E+07    0.4751733427E-03    0.6959149999E+00    0.5325774673E-01    0.5455725771E+00    0.1244203017E-03
    0.7000000000E+07    0.2759147155E-03    0.6959128985E+00    0.4124628366E-01    0.5733427314E+00    0.1267689279E-03
    0.9000000000E+07    0.1806762291E-03    0.6959112776E+00    0.3364266414E-01    0.5907906265E+00    0.1285520125E-03
    0.1100000000E+08    0.1276732089E-03    0.6959099549E+00    0.2839620150E-01    0.6027777071E+00    0.1299937666E-03
    0.1300000000E+08    0.9510504425E-04    0.6959088356E+00    0.2455832296E-01    0.6115219788E+00    0.1312063200E-03
    0.1500000000E+08    0.7364357570E-04    0.6959078643E+00    0.2162935206E-01    0.6181823847E+00    0.1322539986E-03
    0.1700000000E+08    0.5874384952E-04    0.6959070056E+00    0.1932095040E-01    0.6234241259E+00    0.1331772056E-03
    0.1900000000E+08    0.4797260691E-04    0.6959062355E+00    0.1745504776E-01    0.6276564572E+00    0.1340030148E-03
    0.2100000000E+08    0.3993015054E-04    0.6959055371E+00    0.1591572771E-01    0.6311450345E+00    0.1347504728E-03
    0.2300000000E+08    0.3376436524E-04    0.6959048977E+00    0.1462428822E-01    0.6340698314E+00    0.1354334975E-03
    0.2500000000E+08    0.2893209861E-04    0.6959043081E+00    0.1352541941E-01    0.6365571093E+00    0.1360625745E-03
    0.2700000000E+08    0.2507370823E-04    0.6959037607E+00    0.1257911590E-01    0.6386980630E+00    0.1366458035E-03
