  Pressure (Pa) 23mC5-500 (mol/kg) 24mC5-500 (mol/kg) 2mC6-500 (mol/kg) 3mC6-500 (mol/kg) C7-500 (mol/kg)
    0.1000000000E+01    0.4289933303E-05    0.1514031653E+00    0.2747567134E-05    0.2399970560E-05    0.4191646979E-02
    0.3000000000E+01    0.8331149814E-05    0.3164881845E+00    0.5085208631E-05    0.6134155652E-05    0.4230557958E-02
    0.5000000000E+01    0.1015975730E-04    0.4047548559E+00    0.6068190289E-05    0.9564778357E-05    0.4250170122E-02
    0.7000000000E+01    0.1117169709E-04    0.4597014062E+00    0.6636235130E-05    0.1284758661E-04    0.4262403054E-02
    0.9000000000E+01    0.1182259460E-04    0.4971994386E+00    0.7060015380E-05    0.1603522306E-04    0.4270823028E-02
    0.1100000000E+02    0.1229641193E-04    0.5244214490E+00    0.7434142757E-05    0.1915406590E-04    0.4276992036E-02
    0.1300000000E+02    0.1267792080E-04    0.5450825011E+00    0.7795276033E-05    0.2221983356E-04    0.4281713423E-02
    0.1500000000E+02    0.1300984321E-04    0.5612994533E+00    0.8158218608E-05    0.2524289393E-04    0.4285445167E-02
    0.1700000000E+02    0.1331511289E-04    0.5743669321E+00    0.8528787979E-05    0.2823056343E-04    0.4288468399E-02
    0.1900000000E+02    0.1360660653E-04    0.5851212138E+00    0.8908914980E-05    0.3118826094E-04    0.4290965690E-02
    0.2100000000E+02    0.1389178117E-04    0.5941265742E+00    0.9298819778E-05    0.3412014891E-04    0.4293060996E-02
    0.2300000000E+02    0.1417503764E-04    0.6017775589E+00    0.9697988711E-05    0.3702951702E-04    0.4294841576E-02
    0.2500000000E+02    0.1445899113E-04    0.6083583371E+00    0.1010562625E-04    0.3991902536E-04    0.4296370721E-02
    0.2700000000E+02    0.1474518455E-04    0.6140787770E+00    0.1052086588E-04    0.4279086576E-04    0.4297695515E-02
    0.2900000000E+02    0.1503450347E-04    0.6190972396E+00    0.1094286650E-04    0.4564687289E-04    0.4298851749E-02
    0.3100000000E+02    0.1532742475E-04    0.6235354672E+00    0.1137085319E-04    0.4848860310E-04    0.4299867142E-02
    0.3300000000E+02    0.1562416899E-04    0.6274885891E+00    0.1180413104E-04    0.5131739189E-04    0.4300763516E-02
    0.3500000000E+02    0.1592479606E-04    0.6310320169E+00    0.1224208592E-04    0.5413439679E-04    0.4301558300E-02
    0.3700000000E+02    0.1622926569E-04    0.6342263016E+00    0.1268417946E-04    0.5694062991E-04    0.4302265594E-02
    0.3900000000E+02    0.1653747652E-04    0.6371206222E+00    0.1312994163E-04    0.5973698310E-04    0.4302896934E-02
    0.4100000000E+02    0.1684929142E-04    0.6397553357E+00    0.1357896284E-04    0.6252424767E-04    0.4303461857E-02
    0.4300000000E+02    0.1716455391E-04    0.6421638705E+00    0.1403088626E-04    0.6530313016E-04    0.4303968320E-02
    0.4500000000E+02    0.1748309894E-04    0.6443741516E+00    0.1448540088E-04    0.6807426488E-04    0.4304423021E-02
    0.4700000000E+02    0.1780475975E-04    0.6464096892E+00    0.1494223530E-04    0.7083822428E-04    0.4304831638E-02
    0.4900000000E+02    0.1812937234E-04    0.6482904172E+00    0.1540115233E-04    0.7359552729E-04    0.4305199022E-02
    0.1000000000E+02    0.1207494741E-04    0.5118115219E+00    0.7250237658E-05    0.1760209607E-04    0.4274127589E-02
    0.3000000000E+02    0.1518049535E-04    0.6213824063E+00    0.1115615695E-04    0.4706943453E-04    0.4299375568E-02
    0.5000000000E+02    0.1829273574E-04    0.6491781434E+00    0.1563132590E-04    0.7497183196E-04    0.4305368577E-02
    0.7000000000E+02    0.2168077564E-04    0.6618663937E+00    0.2030559866E-04    0.1022440868E-03    0.4307354882E-02
    0.9000000000E+02    0.2523293610E-04    0.6691318236E+00    0.2505950774E-04    0.1292078849E-03    0.4307751266E-02
    0.1100000000E+03    0.2889112638E-04    0.6738387105E+00    0.2985705190E-04    0.1560265905E-03    0.4307325733E-02
    0.1300000000E+03    0.3262580823E-04    0.6771361495E+00    0.3468672381E-04    0.1827990731E-03    0.4306406260E-02
    0.1500000000E+03    0.3642114517E-04    0.6795747326E+00    0.3954549562E-04    0.2095918365E-03    0.4305158947E-02
    0.1700000000E+03    0.4026828633E-04    0.6814513157E+00    0.4443358856E-04    0.2364529769E-03    0.4303677888E-02
    0.1900000000E+03    0.4416218349E-04    0.6829400832E+00    0.4935252115E-04    0.2634192001E-03    0.4302020782E-02
    0.2100000000E+03    0.4809997768E-04    0.6841499799E+00    0.5430431379E-04    0.2905197224E-03    0.4300225158E-02
    0.2300000000E+03    0.5208013011E-04    0.6851526392E+00    0.5929114732E-04    0.3177786054E-03    0.4298316556E-02
    0.2500000000E+03    0.5610192953E-04    0.6859970967E+00    0.6431521421E-04    0.3452162354E-03    0.4296312983E-02
    0.2700000000E+03    0.6016520074E-04    0.6867180490E+00    0.6937865577E-04    0.3728503048E-03    0.4294227504E-02
    0.2900000000E+03    0.6427012582E-04    0.6873407384E+00    0.7448353931E-04    0.4006964873E-03    0.4292069815E-02
    0.3100000000E+03    0.6841713127E-04    0.6878839675E+00    0.7963185374E-04    0.4287689178E-03    0.4289847241E-02
    0.3300000000E+03    0.7260681491E-04    0.6883620296E+00    0.8482551375E-04    0.4570805415E-03    0.4287565404E-02
    0.3500000000E+03    0.7683989752E-04    0.6887859841E+00    0.9006636752E-04    0.4856433760E-03    0.4285228660E-02
    0.3700000000E+03    0.8111719045E-04    0.6891645218E+00    0.9535620566E-04    0.5144687088E-03    0.4282840419E-02
    0.3900000000E+03    0.8543957346E-04    0.6895045672E+00    0.1006967702E-03    0.5435672525E-03    0.4280403360E-02
    0.4100000000E+03    0.8980797958E-04    0.6898117052E+00    0.1060897629E-03    0.5729492655E-03    0.4277919595E-02
    0.4300000000E+03    0.9422338459E-04    0.6900904904E+00    0.1115368535E-03    0.6026246495E-03    0.4275390785E-02
    0.4500000000E+03    0.9868679979E-04    0.6903446739E+00    0.1170396863E-03    0.6326030285E-03    0.4272818233E-02
    0.4700000000E+03    0.1031992670E-03    0.6905773730E+00    0.1225998865E-03    0.6628938129E-03    0.4270202950E-02
    0.4900000000E+03    0.1077618552E-03    0.6907911999E+00    0.1282190663E-03    0.6935062544E-03    0.4267545705E-02
    0.1000000000E+03    0.2705106252E-04    0.6717124689E+00    0.2745384565E-04    0.1426281949E-03    0.4307615212E-02
    0.3000000000E+03    0.6633833449E-04    0.6876213039E+00    0.7705214634E-04    0.4147035880E-03    0.4290966253E-02
    0.5000000000E+03    0.1100622856E-03    0.6908917391E+00    0.1310512750E-03    0.7089359552E-03    0.4266201532E-02
    0.7000000000E+03    0.1589839883E-03    0.6923019029E+00    0.1911864643E-03    0.1036639671E-02    0.4237175448E-02
    0.9000000000E+03    0.2143386929E-03    0.6930872439E+00    0.2591309567E-03    0.1407177225E-02    0.4203894022E-02
    0.1100000000E+04    0.2776497456E-03    0.6935875597E+00    0.3368135197E-03    0.1831179226E-02    0.4165741454E-02
    0.1300000000E+04    0.3508436795E-03    0.6939340904E+00    0.4266323647E-03    0.2321837665E-02    0.4121752769E-02
    0.1500000000E+04    0.4364177500E-03    0.6941882354E+00    0.5316803685E-03    0.2896169225E-02    0.4070606624E-02
    0.1700000000E+04    0.5376753258E-03    0.6943825540E+00    0.6560427780E-03    0.3576665344E-02    0.4010530966E-02
    0.1900000000E+04    0.6590661688E-03    0.6945359179E+00    0.8052217844E-03    0.4393642692E-02    0.3939141361E-02
    0.2100000000E+04    0.8066869557E-03    0.6946600191E+00    0.9867593898E-03    0.5388694651E-02    0.3853197104E-02
    0.2300000000E+04    0.9890214528E-03    0.6947624876E+00    0.1211158997E-02    0.6619806766E-02    0.3748245246E-02
    0.2500000000E+04    0.1218022312E-02    0.6948485138E+00    0.1493235130E-02    0.8168867487E-02    0.3618118000E-02
    0.2700000000E+04    0.1510620112E-02    0.6949217516E+00    0.1854003511E-02    0.1015222889E-01    0.3454275652E-02
    0.2900000000E+04    0.1890556254E-02    0.6949848474E+00    0.2322996110E-02    0.1273375266E-01    0.3245122722E-02
    0.3100000000E+04    0.2389670453E-02    0.6950397651E+00    0.2939948751E-02    0.1613466711E-01    0.2975885552E-02
    0.3300000000E+04    0.3045479473E-02    0.6950879926E+00    0.3751978897E-02    0.2061899467E-01    0.2630877299E-02
    0.3500000000E+04    0.3887142312E-02    0.6951306777E+00    0.4796468161E-02    0.2640052766E-01    0.2202200932E-02
    0.3700000000E+04    0.4899971203E-02    0.6951687201E+00    0.6057265127E-02    0.3340181892E-01    0.1708677802E-02
    0.3900000000E+04    0.5983996546E-02    0.6952028351E+00    0.7412820623E-02    0.4096457840E-01    0.1213435452E-02
    0.4100000000E+04    0.6977805049E-02    0.6952335980E+00    0.8664206662E-02    0.4799580492E-01    0.8024723799E-03
    0.4300000000E+04    0.7769420268E-02    0.6952614776E+00    0.9671594869E-02    0.5371674042E-01    0.5233990002E-03
    0.4500000000E+04    0.8357175983E-02    0.6952868588E+00    0.1043082450E-01    0.5809250821E-01    0.3623827815E-03
    0.4700000000E+04    0.8799673850E-02    0.6953100612E+00    0.1101288384E-01    0.6150619671E-01    0.2788832240E-03
    0.4900000000E+04    0.9155113831E-02    0.6953313523E+00    0.1148906577E-01    0.6434715609E-01    0.2381395612E-03
    0.1000000000E+04    0.2448904186E-03    0.6933623749E+00    0.2966185022E-03    0.1611744355E-02    0.4185479232E-02
    0.3000000000E+04    0.2122924157E-02    0.6950132262E+00    0.2610109055E-02    0.1431577047E-01    0.3119030948E-02
    0.5000000000E+04    0.9312866143E-02    0.6953413529E+00    0.1170305170E-01    0.6563844950E-01    0.2267190028E-03
    0.7000000000E+04    0.1171374297E-01    0.6954808072E+00    0.1512425810E-01    0.8721896906E-01    0.2050940274E-03
    0.9000000000E+04    0.1353528633E-01    0.6955575939E+00    0.1794125376E-01    0.1062597331E+00    0.2079755870E-03
    0.1100000000E+05    0.1494963821E-01    0.6956060081E+00    0.2032755119E-01    0.1235161266E+00    0.2103151734E-03
    0.1300000000E+05    0.1604410204E-01    0.6956392083E+00    0.2236262985E-01    0.1392743244E+00    0.2122817014E-03
    0.1500000000E+05    0.1688478882E-01    0.6956633192E+00    0.2410791293E-01    0.1537592633E+00    0.2139801523E-03
    0.1700000000E+05    0.1752247269E-01    0.6956815745E+00    0.2561160526E-01    0.1671505236E+00    0.2154763749E-03
    0.1900000000E+05    0.1799662319E-01    0.6956958414E+00    0.2691203970E-01    0.1795933597E+00    0.2168144466E-03
    0.2100000000E+05    0.1833825389E-01    0.6957072722E+00    0.2804006187E-01    0.1912066535E+00    0.2180253507E-03
    0.2300000000E+05    0.1857196903E-01    0.6957166165E+00    0.2902075940E-01    0.2020887481E+00    0.2191317137E-03
    0.2500000000E+05    0.1871745638E-01    0.6957243823E+00    0.2987473561E-01    0.2123217920E+00    0.2201505730E-03
    0.2700000000E+05    0.1879059150E-01    0.6957309263E+00    0.3061906115E-01    0.2219750201E+00    0.2210950845E-03
    0.2900000000E+05    0.1880426472E-01    0.6957365058E+00    0.3126799423E-01    0.2311072631E+00    0.2219756222E-03
    0.3100000000E+05    0.1876900775E-01    0.6957413113E+00    0.3183353236E-01    0.2397688891E+00    0.2228005142E-03
    0.3300000000E+05    0.1869347335E-01    0.6957454865E+00    0.3232583962E-01    0.2480033228E+00    0.2235765492E-03
    0.3500000000E+05    0.1858480625E-01    0.6957491422E+00    0.3275358091E-01    0.2558482446E+00    0.2243093355E-03
    0.3700000000E+05    0.1844893245E-01    0.6957523646E+00    0.3312418589E-01    0.2633365477E+00    0.2250035605E-03
    0.3900000000E+05    0.1829078671E-01    0.6957552222E+00    0.3344405925E-01    0.2704971068E+00    0.2256631826E-03
    0.4100000000E+05    0.1811449297E-01    0.6957577701E+00    0.3371874956E-01    0.2773554011E+00    0.2262915757E-03
    0.4300000000E+05    0.1792350819E-01    0.6957600527E+00    0.3395308593E-01    0.2839340236E+00    0.2268916394E-03
    0.4500000000E+05    0.1772073811E-01    0.6957621067E+00    0.3415128934E-01    0.2902530996E+00    0.2274658838E-03
    0.4700000000E+05    0.1750863068E-01    0.6957639622E+00    0.3431706397E-01    0.2963306324E+00    0.2280164969E-03
    0.4900000000E+05    0.1728925212E-01    0.6957656445E+00    0.3445367267E-01    0.3021827919E+00    0.2285453978E-03
    0.1000000000E+05    0.1428732259E-01    0.6955842777E+00    0.1918277832E-01    0.1150914210E+00    0.2092009119E-03
    0.3000000000E+05    0.1879217248E-01    0.6957389954E+00    0.3156051374E-01    0.2354940418E+00    0.2223945683E-03
    0.5000000000E+05    0.1717739302E-01    0.6957664275E+00    0.3451195436E-01    0.3050289689E+00    0.2288022429E-03
    0.7000000000E+05    0.1486082420E-01    0.6957767094E+00    0.3469475340E-01    0.3530080635E+00    0.2331222387E-03
    0.9000000000E+05    0.1274012531E-01    0.6957815960E+00    0.3385368641E-01    0.3889442132E+00    0.2364016210E-03
    0.1100000000E+06    0.1095369784E-01    0.6957841749E+00    0.3261612551E-01    0.4171672045E+00    0.2390530704E-03
    0.1300000000E+06    0.9479316678E-02    0.6957855895E+00    0.3124567518E-01    0.4400420439E+00    0.2412829175E-03
    0.1500000000E+06    0.8264753386E-02    0.6957863526E+00    0.2986198040E-01    0.4590118285E+00    0.2432095100E-03
    0.1700000000E+06    0.7259477563E-02    0.6957867249E+00    0.2852059796E-01    0.4750238925E+00    0.2449071741E-03
    0.1900000000E+06    0.6421456981E-02    0.6957868508E+00    0.2724638690E-01    0.4887330499E+00    0.2464257113E-03
    0.2100000000E+06    0.5717333000E-02    0.6957868160E+00    0.2604885407E-01    0.5006096664E+00    0.2478001550E-03
    0.2300000000E+06    0.5121017553E-02    0.6957866736E+00    0.2492968663E-01    0.5110018877E+00    0.2490561045E-03
    0.2500000000E+06    0.4612148054E-02    0.6957864581E+00    0.2388662273E-01    0.5201736946E+00    0.2502128446E-03
    0.2700000000E+06    0.4174771832E-02    0.6957861924E+00    0.2291550141E-01    0.5283292942E+00    0.2512852724E-03
    0.2900000000E+06    0.3796312321E-02    0.6957858922E+00    0.2201136628E-01    0.5356293517E+00    0.2522851390E-03
    0.3100000000E+06    0.3466780897E-02    0.6957855687E+00    0.2116906068E-01    0.5422021320E+00    0.2532218803E-03
    0.3300000000E+06    0.3178182301E-02    0.6957852295E+00    0.2038354326E-01    0.5481513450E+00    0.2541031899E-03
    0.3500000000E+06    0.2924066752E-02    0.6957848803E+00    0.1965004724E-01    0.5535617954E+00    0.2549354250E-03
    0.3700000000E+06    0.2699191496E-02    0.6957845253E+00    0.1896415192E-01    0.5585035274E+00    0.2557238998E-03
    0.3900000000E+06    0.2499263667E-02    0.6957841674E+00    0.1832180511E-01    0.5630349173E+00    0.2564731030E-03
    0.4100000000E+06    0.2320743605E-02    0.6957838089E+00    0.1771931867E-01    0.5672050158E+00    0.2571868607E-03
    0.4300000000E+06    0.2160693353E-02    0.6957834514E+00    0.1715334987E-01    0.5710553443E+00    0.2578684614E-03
    0.4500000000E+06    0.2016659071E-02    0.6957830962E+00    0.1662087611E-01    0.5746212901E+00    0.2585207527E-03
    0.4700000000E+06    0.1886579122E-02    0.6957827441E+00    0.1611916726E-01    0.5779332013E+00    0.2591462167E-03
    0.4900000000E+06    0.1768711693E-02    0.6957823957E+00    0.1564575787E-01    0.5810172544E+00    0.2597470306E-03
    0.1000000000E+06    0.1180510073E-01    0.6957830801E+00    0.3326312518E-01    0.4038428739E+00    0.2377900725E-03
    0.3000000000E+06    0.3625971158E-02    0.6957857328E+00    0.2158280500E-01    0.5389996691E+00    0.2527608840E-03
    0.5000000000E+06    0.1713886434E-02    0.6957822232E+00    0.1541896084E-01    0.5824810473E+00    0.2600388028E-03
    0.7000000000E+06    0.9957625246E-03    0.6957790296E+00    0.1193071507E-01    0.6039839261E+00    0.2649466417E-03
    0.9000000000E+06    0.6507801643E-03    0.6957763106E+00    0.9711181378E-02    0.6168003696E+00    0.2686726468E-03
    0.1100000000E+07    0.4588306129E-03    0.6957739735E+00    0.8180139249E-02    0.6253046438E+00    0.2716853715E-03
    0.1300000000E+07    0.3410775121E-03    0.6957719317E+00    0.7062057093E-02    0.6313573987E+00    0.2742191389E-03
    0.1500000000E+07    0.2636314697E-03    0.6957701208E+00    0.6210469419E-02    0.6358839840E+00    0.2764083725E-03
    0.1700000000E+07    0.2099656465E-03    0.6957684947E+00    0.5540615443E-02    0.6393963516E+00    0.2783375029E-03
    0.1900000000E+07    0.1712371599E-03    0.6957670190E+00    0.5000133355E-02    0.6422006396E+00    0.2800631061E-03
    0.2100000000E+07    0.1423653334E-03    0.6957656681E+00    0.4554965736E-02    0.6444911152E+00    0.2816249831E-03
    0.2300000000E+07    0.1202615010E-03    0.6957644223E+00    0.4182019335E-02    0.6463969787E+00    0.2830522181E-03
    0.2500000000E+07    0.1029597722E-03    0.6957632663E+00    0.3865088975E-02    0.6480074900E+00    0.2843667222E-03
    0.2700000000E+07    0.8916031126E-04    0.6957621878E+00    0.3592471460E-02    0.6493862887E+00    0.2855854213E-03
    0.2900000000E+07    0.7797562121E-04    0.6957611769E+00    0.3355505863E-02    0.6505799680E+00    0.2867216673E-03
    0.3100000000E+07    0.6878286984E-04    0.6957602254E+00    0.3147646542E-02    0.6516234211E+00    0.2877861817E-03
    0.3300000000E+07    0.6113445656E-04    0.6957593266E+00    0.2963855286E-02    0.6525432959E+00    0.2887877067E-03
    0.3500000000E+07    0.5470196695E-04    0.6957584748E+00    0.2800191482E-02    0.6533602933E+00    0.2897334657E-03
    0.3700000000E+07    0.4923998905E-04    0.6957576653E+00    0.2653528974E-02    0.6540907380E+00    0.2906294971E-03
    0.3900000000E+07    0.4456213321E-04    0.6957568940E+00    0.2521356200E-02    0.6547476766E+00    0.2914809016E-03
    0.4100000000E+07    0.4052476679E-04    0.6957561573E+00    0.2401632384E-02    0.6553416603E+00    0.2922920267E-03
    0.4300000000E+07    0.3701575115E-04    0.6957554523E+00    0.2292682267E-02    0.6558813147E+00    0.2930666094E-03
    0.4500000000E+07    0.3394649609E-04    0.6957547761E+00    0.2193117861E-02    0.6563737592E+00    0.2938078853E-03
    0.4700000000E+07    0.3124625985E-04    0.6957541266E+00    0.2101779456E-02    0.6568249222E+00    0.2945186751E-03
    0.4900000000E+07    0.2885799722E-04    0.6957535016E+00    0.2017690589E-02    0.6572397798E+00    0.2952014528E-03
    0.1000000000E+07    0.5422155451E-03    0.6957751003E+00    0.8881082754E-02    0.6214432821E+00    0.2702502665E-03
    0.3000000000E+07    0.7316155670E-04    0.6957606941E+00    0.3248282580E-02    0.6511186454E+00    0.2872623043E-03
    0.5000000000E+07    0.2776600299E-04    0.6957531977E+00    0.1978100967E-02    0.6574349350E+00    0.2955330291E-03
    0.7000000000E+07    0.1457149509E-04    0.6957480551E+00    0.1419431585E-02    0.6601782949E+00    0.3011104246E-03
    0.9000000000E+07    0.8982485155E-05    0.6957441187E+00    0.1105723555E-02    0.6617108604E+00    0.3053447698E-03
    0.1100000000E+08    0.6098415576E-05    0.6957409202E+00    0.9050063082E-03    0.6626889217E+00    0.3087685270E-03
    0.1300000000E+08    0.4415891488E-05    0.6957382213E+00    0.7656275513E-03    0.6633671510E+00    0.3116479836E-03
    0.1500000000E+08    0.3348359685E-05    0.6957358838E+00    0.6632365716E-03    0.6638650131E+00    0.3141359009E-03
    0.1700000000E+08    0.2628297512E-05    0.6957338202E+00    0.5848572120E-03    0.6642459662E+00    0.3163282284E-03
    0.1900000000E+08    0.2119435477E-05    0.6957319715E+00    0.5229432775E-03    0.6645468342E+00    0.3182892604E-03
    0.2100000000E+08    0.1746381319E-05    0.6957302962E+00    0.4728084078E-03    0.6647904507E+00    0.3200642283E-03
    0.2300000000E+08    0.1464653817E-05    0.6957287638E+00    0.4313891422E-03    0.6649917254E+00    0.3216861840E-03
    0.2500000000E+08    0.1246621707E-05    0.6957273511E+00    0.3965986949E-03    0.6651608061E+00    0.3231800282E-03
    0.2700000000E+08    0.1074380070E-05    0.6957260404E+00    0.3669666507E-03    0.6653048391E+00    0.3245649961E-03
