  Pressure (Pa) 23mC5-500 (mol/kg) 24mC5-500 (mol/kg) 2mC6-500 (mol/kg) 3mC6-500 (mol/kg) C7-500 (mol/kg)
    0.1000000000E+01    0.5403497692E-05    0.3666041302E-01    0.1424362885E-04    0.5389885439E-05    0.4171288607E-02
    0.3000000000E+01    0.1423147640E-04    0.9948910730E-01    0.3667964139E-04    0.1356851287E-04    0.4211492876E-02
    0.5000000000E+01    0.2120238778E-04    0.1513746280E+00    0.5380335335E-04    0.2104867260E-04    0.4238950841E-02
    0.7000000000E+01    0.2681761255E-04    0.1949473744E+00    0.6717598430E-04    0.2819827969E-04    0.4261273693E-02
    0.9000000000E+01    0.3141259815E-04    0.2320572197E+00    0.7780940999E-04    0.3514018767E-04    0.4280054556E-02
    0.1100000000E+02    0.3522348191E-04    0.2640430312E+00    0.8640054541E-04    0.4193552073E-04    0.4296134506E-02
    0.1300000000E+02    0.3842139469E-04    0.2918977244E+00    0.9344430801E-04    0.4862051186E-04    0.4310071737E-02
    0.1500000000E+02    0.4113317808E-04    0.3163732240E+00    0.9930017706E-04    0.5521896095E-04    0.4322269178E-02
    0.1700000000E+02    0.4345462782E-04    0.3380493972E+00    0.1042340963E-03    0.6174760552E-04    0.4333030255E-02
    0.1900000000E+02    0.4545926993E-04    0.3573806056E+00    0.1084458989E-03    0.6821880671E-04    0.4342589664E-02
    0.2100000000E+02    0.4720433990E-04    0.3747279185E+00    0.1120877779E-03    0.7464203679E-04    0.4351132536E-02
    0.2300000000E+02    0.4873495145E-04    0.3903818896E+00    0.1152770190E-03    0.8102476702E-04    0.4358807193E-02
    0.2500000000E+02    0.5008706166E-04    0.4045789698E+00    0.1181049535E-03    0.8737302903E-04    0.4365734031E-02
    0.2700000000E+02    0.5128961708E-04    0.4175135413E+00    0.1206433632E-03    0.9369178640E-04    0.4372011886E-02
    0.2900000000E+02    0.5236613163E-04    0.4293468752E+00    0.1229491319E-03    0.9998518986E-04    0.4377722701E-02
    0.3100000000E+02    0.5333586307E-04    0.4402138941E+00    0.1250676718E-03    0.1062567583E-03    0.4382935023E-02
    0.3300000000E+02    0.5421470138E-04    0.4502283424E+00    0.1270354774E-03    0.1125095102E-03    0.4387706650E-02
    0.3500000000E+02    0.5501584735E-04    0.4594867846E+00    0.1288820508E-03    0.1187460618E-03    0.4392086673E-02
    0.3700000000E+02    0.5575033658E-04    0.4680717317E+00    0.1306313687E-03    0.1249687013E-03    0.4396117065E-02
    0.3900000000E+02    0.5642744784E-04    0.4760541074E+00    0.1323030095E-03    0.1311794458E-03    0.4399833935E-02
    0.4100000000E+02    0.5705502437E-04    0.4834952138E+00    0.1339130280E-03    0.1373800870E-03    0.4403268519E-02
    0.4300000000E+02    0.5763972864E-04    0.4904483097E+00    0.1354746386E-03    0.1435722261E-03    0.4406447983E-02
    0.4500000000E+02    0.5818724600E-04    0.4969598873E+00    0.1369987535E-03    0.1497573027E-03    0.4409396066E-02
    0.4700000000E+02    0.5870244860E-04    0.5030707146E+00    0.1384944093E-03    0.1559366185E-03    0.4412133605E-02
    0.4900000000E+02    0.5918952819E-04    0.5088166897E+00    0.1399691073E-03    0.1621113555E-03    0.4414678972E-02
    0.1000000000E+02    0.3340412282E-04    0.2486219142E+00    0.8232553223E-04    0.3855352695E-04    0.4288392683E-02
    0.3000000000E+02    0.5286328201E-04    0.4348936204E+00    0.1240293407E-03    0.1031235043E-03    0.4380387336E-02
    0.5000000000E+02    0.5942367282E-04    0.5115629205E+00    0.1407005897E-03    0.1651973477E-03    0.4415884745E-02
    0.7000000000E+02    0.6328874590E-04    0.5533805252E+00    0.1552815084E-03    0.2268965119E-03    0.4433016781E-02
    0.9000000000E+02    0.6650554111E-04    0.5797110478E+00    0.1709010897E-03    0.2889673489E-03    0.4441744906E-02
    0.1100000000E+03    0.6965577622E-04    0.5978142961E+00    0.1879825023E-03    0.3518098872E-03    0.4445850648E-02
    0.1300000000E+03    0.7293373979E-04    0.6110255479E+00    0.2064675137E-03    0.4156869200E-03    0.4447090957E-02
    0.1500000000E+03    0.7640841953E-04    0.6210918170E+00    0.2262292490E-03    0.4807949297E-03    0.4446394552E-02
    0.1700000000E+03    0.8010353820E-04    0.6290167194E+00    0.2471567822E-03    0.5472947332E-03    0.4444298297E-02
    0.1900000000E+03    0.8402573876E-04    0.6354178823E+00    0.2691684117E-03    0.6153268813E-03    0.4441133375E-02
    0.2100000000E+03    0.8817546815E-04    0.6406962364E+00    0.2922090402E-03    0.6850202736E-03    0.4437114200E-02
    0.2300000000E+03    0.9255141926E-04    0.6451233903E+00    0.3162449424E-03    0.7564974004E-03    0.4432384665E-02
    0.2500000000E+03    0.9715238333E-04    0.6488898830E+00    0.3412590637E-03    0.8298777642E-03    0.4427043874E-02
    0.2700000000E+03    0.1019780069E-03    0.6521333317E+00    0.3672473871E-03    0.9052802588E-03    0.4421161255E-02
    0.2900000000E+03    0.1070290724E-03    0.6549556124E+00    0.3942162686E-03    0.9828249232E-03    0.4414785838E-02
    0.3100000000E+03    0.1123075728E-03    0.6574337565E+00    0.4221805244E-03    0.1062634310E-02    0.4407952170E-02
    0.3300000000E+03    0.1178166999E-03    0.6596270889E+00    0.4511620735E-03    0.1144834611E-02    0.4400684202E-02
    0.3500000000E+03    0.1235608036E-03    0.6615820393E+00    0.4811889883E-03    0.1229556632E-02    0.4392997914E-02
    0.3700000000E+03    0.1295453457E-03    0.6633354656E+00    0.5122948420E-03    0.1316936671E-02    0.4384903122E-02
    0.3900000000E+03    0.1357768608E-03    0.6649169993E+00    0.5445182772E-03    0.1407117350E-02    0.4376404749E-02
    0.4100000000E+03    0.1422629280E-03    0.6663507342E+00    0.5779027405E-03    0.1500248418E-02    0.4367503728E-02
    0.4300000000E+03    0.1490121548E-03    0.6676564621E+00    0.6124963453E-03    0.1596487553E-02    0.4358197648E-02
    0.4500000000E+03    0.1560341736E-03    0.6688505918E+00    0.6483518358E-03    0.1696001181E-02    0.4348481220E-02
    0.4700000000E+03    0.1633396507E-03    0.6699468428E+00    0.6855266336E-03    0.1798965325E-02    0.4338346613E-02
    0.4900000000E+03    0.1709403064E-03    0.6709567741E+00    0.7240829531E-03    0.1905566488E-02    0.4327783692E-02
    0.1000000000E+03    0.6807229660E-04    0.5895296264E+00    0.1792590698E-03    0.3202736458E-03    0.4444238235E-02
    0.3000000000E+03    0.1096397214E-03    0.6562336440E+00    0.4080727584E-03    0.1022438737E-02    0.4411424576E-02
    0.5000000000E+03    0.1748552844E-03    0.6714324939E+00    0.7438999786E-03    0.1960292330E-02    0.4322337858E-02
    0.7000000000E+03    0.2725284024E-03    0.6781639475E+00    0.1232692225E-02    0.3302882648E-02    0.4186727872E-02
    0.9000000000E+03    0.4245313752E-03    0.6819618890E+00    0.1984882744E-02    0.5361085146E-02    0.3979489303E-02
    0.1100000000E+04    0.6775680656E-03    0.6844005973E+00    0.3232071939E-02    0.8773966159E-02    0.3644986034E-02
    0.1300000000E+04    0.1128946161E-02    0.6860988452E+00    0.5456714018E-02    0.1487418785E-01    0.3074363572E-02
    0.1500000000E+04    0.1919390880E-02    0.6873493185E+00    0.9364833755E-02    0.2563640606E-01    0.2143730988E-02
    0.1700000000E+04    0.2919269879E-02    0.6883084142E+00    0.1434931345E-01    0.3948404418E-01    0.1117706744E-02
    0.1900000000E+04    0.3620155370E-02    0.6890672959E+00    0.1791307384E-01    0.4958368336E-01    0.6024631288E-03
    0.2100000000E+04    0.4023147911E-02    0.6896826924E+00    0.2003494106E-01    0.5580200586E-01    0.4700106746E-03
    0.2300000000E+04    0.4321603802E-02    0.6901917532E+00    0.2165668767E-01    0.6069458794E-01    0.4450299706E-03
    0.2500000000E+04    0.4585421148E-02    0.6906198239E+00    0.2312115052E-01    0.6519890907E-01    0.4419715627E-03
    0.2700000000E+04    0.4831222643E-02    0.6909847895E+00    0.2450950135E-01    0.6953619855E-01    0.4430040864E-03
    0.2900000000E+04    0.5063070044E-02    0.6912996311E+00    0.2584085581E-01    0.7375674635E-01    0.4447072977E-03
    0.3100000000E+04    0.5282360966E-02    0.6915739984E+00    0.2712114872E-01    0.7787444994E-01    0.4464409405E-03
    0.3300000000E+04    0.5489911088E-02    0.6918152144E+00    0.2835347707E-01    0.8189546122E-01    0.4480937245E-03
    0.3500000000E+04    0.5686383172E-02    0.6920289363E+00    0.2954023958E-01    0.8582413918E-01    0.4496541940E-03
    0.3700000000E+04    0.5872377300E-02    0.6922196039E+00    0.3068358547E-01    0.8966429620E-01    0.4511286578E-03
    0.3900000000E+04    0.6048451699E-02    0.6923907501E+00    0.3178551487E-01    0.9341946977E-01    0.4525255695E-03
    0.4100000000E+04    0.6215129135E-02    0.6925452214E+00    0.3284790664E-01    0.9709299059E-01    0.4538527182E-03
    0.4300000000E+04    0.6372900155E-02    0.6926853367E+00    0.3387253060E-01    0.1006880071E+00    0.4551168783E-03
    0.4500000000E+04    0.6522225519E-02    0.6928130041E+00    0.3486105585E-01    0.1042075000E+00    0.4563238994E-03
    0.4700000000E+04    0.6663538329E-02    0.6929298081E+00    0.3581505784E-01    0.1076542937E+00    0.4574788522E-03
    0.4900000000E+04    0.6797245956E-02    0.6930370755E+00    0.3673602481E-01    0.1110310669E+00    0.4585861574E-03
    0.1000000000E+04    0.5339122816E-03    0.6833010779E+00    0.2524287151E-02    0.6836677290E-02    0.3833409594E-02
    0.3000000000E+04    0.5174228394E-02    0.6914413708E+00    0.2648716452E-01    0.7582799787E-01    0.4455816011E-03
    0.5000000000E+04    0.6861368536E-02    0.6930874896E+00    0.3718456283E-01    0.1126939953E+00    0.4591231723E-03
    0.7000000000E+04    0.7826533579E-02    0.6937928979E+00    0.4472481527E-01    0.1428303419E+00    0.4680949676E-03
    0.9000000000E+04    0.8352821695E-02    0.6941839706E+00    0.5016981233E-01    0.1681926432E+00    0.4748447282E-03
    0.1100000000E+05    0.8603638641E-02    0.6944321168E+00    0.5416435863E-01    0.1900173038E+00    0.4802736614E-03
    0.1300000000E+05    0.8677789106E-02    0.6946033418E+00    0.5712091375E-01    0.2091279851E+00    0.4848238552E-03
    0.1500000000E+05    0.8637240776E-02    0.6947284580E+00    0.5931459055E-01    0.2260970303E+00    0.4887458648E-03
    0.1700000000E+05    0.8521998716E-02    0.6948237751E+00    0.6093530356E-01    0.2413362551E+00    0.4921957527E-03
    0.1900000000E+05    0.8358486064E-02    0.6948987315E+00    0.6211796116E-01    0.2551507752E+00    0.4952774558E-03
    0.2100000000E+05    0.8164468379E-02    0.6949591667E+00    0.6296074159E-01    0.2677723546E+00    0.4980637527E-03
    0.2300000000E+05    0.7952051155E-02    0.6950088860E+00    0.6353658155E-01    0.2793808552E+00    0.5006076295E-03
    0.2500000000E+05    0.7729560114E-02    0.6950504750E+00    0.6390063601E-01    0.2901184831E+00    0.5029488857E-03
    0.2700000000E+05    0.7502751463E-02    0.6950857513E+00    0.6409526035E-01    0.3000995198E+00    0.5051181901E-03
    0.2900000000E+05    0.7275608415E-02    0.6951160299E+00    0.6415342051E-01    0.3094171352E+00    0.5071396858E-03
    0.3100000000E+05    0.7050875630E-02    0.6951422857E+00    0.6410107870E-01    0.3181482619E+00    0.5090327257E-03
    0.3300000000E+05    0.6830423884E-02    0.6951652561E+00    0.6395889477E-01    0.3263571510E+00    0.5108130660E-03
    0.3500000000E+05    0.6615502573E-02    0.6951855095E+00    0.6374346072E-01    0.3340980126E+00    0.5124937085E-03
    0.3700000000E+05    0.6406916788E-02    0.6952034910E+00    0.6346821050E-01    0.3414170058E+00    0.5140855101E-03
    0.3900000000E+05    0.6205152879E-02    0.6952195538E+00    0.6314409995E-01    0.3483537621E+00    0.5155976315E-03
    0.4100000000E+05    0.6010468339E-02    0.6952339819E+00    0.6278012133E-01    0.3549425653E+00    0.5170378747E-03
    0.4300000000E+05    0.5822956676E-02    0.6952470063E+00    0.6238369744E-01    0.3612132769E+00    0.5184129398E-03
    0.4500000000E+05    0.5642594537E-02    0.6952588166E+00    0.6196098645E-01    0.3671920698E+00    0.5197286243E-03
    0.4700000000E+05    0.5469276137E-02    0.6952695699E+00    0.6151712014E-01    0.3729020163E+00    0.5209899786E-03
    0.4900000000E+05    0.5302838502E-02    0.6952793976E+00    0.6105639167E-01    0.3783635622E+00    0.5222014299E-03
    0.1000000000E+05    0.8505385775E-02    0.6943205473E+00    0.5231856415E-01    0.1794883812E+00    0.4776903832E-03
    0.3000000000E+05    0.7162806735E-02    0.6951296099E+00    0.6413966317E-01    0.3138517314E+00    0.5081012049E-03
    0.5000000000E+05    0.5222138080E-02    0.6952839997E+00    0.6082085379E-01    0.3810069529E+00    0.5227896796E-03
    0.7000000000E+05    0.3912527342E-02    0.6953469290E+00    0.5584548086E-01    0.4243655463E+00    0.5326790236E-03
    0.9000000000E+05    0.3031062238E-02    0.6953800582E+00    0.5108825506E-01    0.4554495451E+00    0.5401814837E-03
    0.1100000000E+06    0.2416019550E-02    0.6953999569E+00    0.4687531822E-01    0.4790923608E+00    0.5462451938E-03
    0.1300000000E+06    0.1971208988E-02    0.6954129030E+00    0.4321132642E-01    0.4977912461E+00    0.5513435328E-03
    0.1500000000E+06    0.1639401294E-02    0.6954217816E+00    0.4003013371E-01    0.5130022584E+00    0.5557477878E-03
    0.1700000000E+06    0.1385342077E-02    0.6954280963E+00    0.3725746364E-01    0.5256448433E+00    0.5596282362E-03
    0.1900000000E+06    0.1186476212E-02    0.6954327036E+00    0.3482691612E-01    0.5363336638E+00    0.5630989218E-03
    0.2100000000E+06    0.1027862522E-02    0.6954361251E+00    0.3268291101E-01    0.5454977301E+00    0.5662400443E-03
    0.2300000000E+06    0.8992947785E-03    0.6954386953E+00    0.3077993472E-01    0.5534468044E+00    0.5691101912E-03
    0.2500000000E+06    0.7936112275E-03    0.6954406378E+00    0.2908092493E-01    0.5604107867E+00    0.5717534903E-03
    0.2700000000E+06    0.7056667273E-03    0.6954421070E+00    0.2755565832E-01    0.5665642479E+00    0.5742040230E-03
    0.2900000000E+06    0.6316875672E-03    0.6954432129E+00    0.2617937500E-01    0.5720423333E+00    0.5764886697E-03
    0.3100000000E+06    0.5688547435E-03    0.6954440355E+00    0.2493166833E-01    0.5769514183E+00    0.5786290124E-03
    0.3300000000E+06    0.5150278213E-03    0.6954446343E+00    0.2379560869E-01    0.5813764522E+00    0.5806426464E-03
    0.3500000000E+06    0.4685577126E-03    0.6954450543E+00    0.2275705680E-01    0.5853861402E+00    0.5825441090E-03
    0.3700000000E+06    0.4281570988E-03    0.6954453301E+00    0.2180412612E-01    0.5890366799E+00    0.5843455518E-03
    0.3900000000E+06    0.3928090681E-03    0.6954454887E+00    0.2092676047E-01    0.5923745033E+00    0.5860572377E-03
    0.4100000000E+06    0.3617016063E-03    0.6954455512E+00    0.2011640077E-01    0.5954383235E+00    0.5876879148E-03
    0.4300000000E+06    0.3341799003E-03    0.6954455347E+00    0.1936572031E-01    0.5982606838E+00    0.5892451011E-03
    0.4500000000E+06    0.3097111244E-03    0.6954454526E+00    0.1866841338E-01    0.6008691462E+00    0.5907353062E-03
    0.4700000000E+06    0.2878581072E-03    0.6954453160E+00    0.1801902525E-01    0.6032872140E+00    0.5921642044E-03
    0.4900000000E+06    0.2682594071E-03    0.6954451339E+00    0.1741281461E-01    0.6055350555E+00    0.5935367724E-03
    0.1000000000E+06    0.2697434902E-02    0.6953911492E+00    0.4891043031E-01    0.4680115136E+00    0.5433570029E-03
    0.3000000000E+06    0.5990250087E-03    0.6954436555E+00    0.2554058031E-01    0.5745622585E+00    0.5775756983E-03
    0.5000000000E+06    0.2592093571E-03    0.6954450283E+00    0.1712458628E-01    0.6066006758E+00    0.5942033247E-03
    0.7000000000E+06    0.1446758062E-03    0.6954417820E+00    0.1285464150E-01    0.6221657658E+00    0.6054147905E-03
    0.9000000000E+06    0.9247855375E-04    0.6954378300E+00    0.1027903532E-01    0.6313717414E+00    0.6139259846E-03
    0.1100000000E+07    0.6432733119E-04    0.6954339330E+00    0.8558106802E-02    0.6374547029E+00    0.6208076107E-03
    0.1300000000E+07    0.4740848889E-04    0.6954302687E+00    0.7327745142E-02    0.6417728635E+00    0.6265950661E-03
    0.1500000000E+07    0.3644049312E-04    0.6954268666E+00    0.6404739526E-02    0.6449965290E+00    0.6315954687E-03
    0.1700000000E+07    0.2892062371E-04    0.6954237138E+00    0.5686921755E-02    0.6474947275E+00    0.6360017086E-03
    0.1900000000E+07    0.2353748870E-04    0.6954207864E+00    0.5112845304E-02    0.6494873840E+00    0.6399430340E-03
    0.2100000000E+07    0.1954952664E-04    0.6954180596E+00    0.4643347794E-02    0.6511137140E+00    0.6435103685E-03
    0.2300000000E+07    0.1651153038E-04    0.6954155103E+00    0.4252294886E-02    0.6524661326E+00    0.6467701518E-03
    0.2500000000E+07    0.1414297532E-04    0.6954131183E+00    0.3921581990E-02    0.6536083931E+00    0.6497724365E-03
    0.2700000000E+07    0.1225991103E-04    0.6954108662E+00    0.3638272194E-02    0.6545858972E+00    0.6525558870E-03
    0.2900000000E+07    0.1073760669E-04    0.6954087389E+00    0.3392876390E-02    0.6554318533E+00    0.6551510029E-03
    0.3100000000E+07    0.9489038932E-05    0.6954067235E+00    0.3178277138E-02    0.6561711115E+00    0.6575822750E-03
    0.3300000000E+07    0.8451980321E-05    0.6954048091E+00    0.2989031736E-02    0.6568226368E+00    0.6598696724E-03
    0.3500000000E+07    0.7580969967E-05    0.6954029860E+00    0.2820907312E-02    0.6574011536E+00    0.6620296949E-03
    0.3700000000E+07    0.6842163925E-05    0.6954012458E+00    0.2670562569E-02    0.6579182677E+00    0.6640761358E-03
    0.3900000000E+07    0.6209942127E-05    0.6953995814E+00    0.2535324937E-02    0.6583832500E+00    0.6660206455E-03
    0.4100000000E+07    0.5664618633E-05    0.6953979863E+00    0.2413031350E-02    0.6588035959E+00    0.6678731551E-03
    0.4300000000E+07    0.5190863213E-05    0.6953964550E+00    0.2301912434E-02    0.6591854302E+00    0.6696422000E-03
    0.4500000000E+07    0.4776592328E-05    0.6953949824E+00    0.2200506890E-02    0.6595338071E+00    0.6713351710E-03
    0.4700000000E+07    0.4412176392E-05    0.6953935642E+00    0.2107597289E-02    0.6598529336E+00    0.6729585108E-03
    0.4900000000E+07    0.4089864218E-05    0.6953921965E+00    0.2022161264E-02    0.6601463407E+00    0.6745178704E-03
    0.1000000000E+07    0.7647295125E-04    0.6954358578E+00    0.9340638943E-02    0.6346951160E+00    0.6175295873E-03
    0.3000000000E+07    0.1008346431E-04    0.6954077179E+00    0.3282100290E-02    0.6558135188E+00    0.6563857794E-03
    0.5000000000E+07    0.3942481760E-05    0.6953915304E+00    0.1981970273E-02    0.6602843505E+00    0.6752751383E-03
    0.7000000000E+07    0.2158475370E-05    0.6953801667E+00    0.1417040405E-02    0.6622234590E+00    0.6880128718E-03
    0.9000000000E+07    0.1396726551E-05    0.6953713747E+00    0.1101619838E-02    0.6633058909E+00    0.6976831389E-03
    0.1100000000E+08    0.9989660989E-06    0.6953641853E+00    0.9004789811E-03    0.6639963149E+00    0.7055020943E-03
    0.1300000000E+08    0.7636078850E-06    0.6953580930E+00    0.7611125908E-03    0.6644748921E+00    0.7120779324E-03
    0.1500000000E+08    0.6118986167E-06    0.6953528001E+00    0.6588901322E-03    0.6648260857E+00    0.7177595519E-03
    0.1700000000E+08    0.5078102056E-06    0.6953481164E+00    0.5807307934E-03    0.6650947421E+00    0.7227660935E-03
    0.1900000000E+08    0.4329143668E-06    0.6953439127E+00    0.5190463635E-03    0.6653068754E+00    0.7272443991E-03
    0.2100000000E+08    0.3769647454E-06    0.6953400972E+00    0.4691333199E-03    0.6654786116E+00    0.7312977716E-03
    0.2300000000E+08    0.3338821457E-06    0.6953366026E+00    0.4279215897E-03    0.6656204778E+00    0.7350016974E-03
    0.2500000000E+08    0.2998671632E-06    0.6953333774E+00    0.3933224258E-03    0.6657396374E+00    0.7384130458E-03
    0.2700000000E+08    0.2724417195E-06    0.6953303821E+00    0.3638655121E-03    0.6658411337E+00    0.7415757470E-03
