  Pressure (Pa) 23mC5-500 (mol/kg) 24mC5-500 (mol/kg) 2mC6-500 (mol/kg) 3mC6-500 (mol/kg) C7-500 (mol/kg)
    0.1000000000E+01    0.4876255890E-05    0.9950109481E-01    0.1284503504E-04    0.5104915693E-05    0.4146804284E-02
    0.3000000000E+01    0.1075437749E-04    0.2321200071E+00    0.2725667419E-04    0.1260220422E-04    0.4175386122E-02
    0.5000000000E+01    0.1411785981E-04    0.3164861138E+00    0.3499138955E-04    0.1940328398E-04    0.4185228537E-02
    0.7000000000E+01    0.1625018179E-04    0.3748817476E+00    0.3975674315E-04    0.2587713961E-04    0.4190844354E-02
    0.9000000000E+01    0.1771023830E-04    0.4176996640E+00    0.4306362873E-04    0.3214561939E-04    0.4194486757E-02
    0.1100000000E+02    0.1877547011E-04    0.4504399051E+00    0.4561173528E-04    0.3826899786E-04    0.4196986687E-02
    0.1300000000E+02    0.1959647211E-04    0.4762858837E+00    0.4775332010E-04    0.4428286211E-04    0.4198750927E-02
    0.1500000000E+02    0.2026055723E-04    0.4972079088E+00    0.4967648593E-04    0.5021051629E-04    0.4200009042E-02
    0.1700000000E+02    0.2082097981E-04    0.5144907791E+00    0.5148598709E-04    0.5606830841E-04    0.4200902443E-02
    0.1900000000E+02    0.2131154789E-04    0.5290080601E+00    0.5324187215E-04    0.6186828630E-04    0.4201523689E-02
    0.2100000000E+02    0.2175442761E-04    0.5413744287E+00    0.5497916792E-04    0.6761966491E-04    0.4201936176E-02
    0.2300000000E+02    0.2216453951E-04    0.5520349643E+00    0.5671842407E-04    0.7332970030E-04    0.4202184898E-02
    0.2500000000E+02    0.2255214651E-04    0.5613198685E+00    0.5847159786E-04    0.7900424126E-04    0.4202302722E-02
    0.2700000000E+02    0.2292443465E-04    0.5694792822E+00    0.6024545011E-04    0.8464809385E-04    0.4202314242E-02
    0.2900000000E+02    0.2328650965E-04    0.5767061637E+00    0.6204355968E-04    0.9026527151E-04    0.4202238236E-02
    0.3100000000E+02    0.2364204221E-04    0.5831517461E+00    0.6386754573E-04    0.9585917207E-04    0.4202089295E-02
    0.3300000000E+02    0.2399369608E-04    0.5889362370E+00    0.6571782277E-04    0.1014327064E-03    0.4201878934E-02
    0.3500000000E+02    0.2434341769E-04    0.5941563868E+00    0.6759407378E-04    0.1069883942E-03    0.4201616358E-02
    0.3700000000E+02    0.2469263592E-04    0.5988909442E+00    0.6949554953E-04    0.1125284360E-03    0.4201309016E-02
    0.3900000000E+02    0.2504240200E-04    0.6032046573E+00    0.7142125919E-04    0.1180547696E-03    0.4200962999E-02
    0.4100000000E+02    0.2539348892E-04    0.6071512525E+00    0.7337009179E-04    0.1235691136E-03    0.4200583336E-02
    0.4300000000E+02    0.2574646300E-04    0.6107756841E+00    0.7534089326E-04    0.1290730020E-03    0.4200174215E-02
    0.4500000000E+02    0.2610173599E-04    0.6141158543E+00    0.7733251473E-04    0.1345678120E-03    0.4199739150E-02
    0.4700000000E+02    0.2645960340E-04    0.6172039441E+00    0.7934384201E-04    0.1400547870E-03    0.4199281113E-02
    0.4900000000E+02    0.2682027294E-04    0.6200674533E+00    0.8137381289E-04    0.1455350547E-03    0.4198802629E-02
    0.1000000000E+02    0.1828081085E-04    0.4350932097E+00    0.4440525348E-04    0.3522284169E-04    0.4195848311E-02
    0.3000000000E+02    0.2346490758E-04    0.5800184782E+00    0.6295227060E-04    0.9306493934E-04    0.4202172101E-02
    0.5000000000E+02    0.2700170475E-04    0.6214225097E+00    0.8239547433E-04    0.1482729979E-03    0.4198556408E-02
    0.7000000000E+02    0.3079123244E-04    0.6410354494E+00    0.1036001578E-03    0.2028883164E-03    0.4192948954E-02
    0.9000000000E+02    0.3486565276E-04    0.6524766747E+00    0.1259065216E-03    0.2576167774E-03    0.4186580035E-02
    0.1100000000E+03    0.3917841549E-04    0.6599728433E+00    0.1490214588E-03    0.3128290169E-03    0.4179809848E-02
    0.1300000000E+03    0.4369454884E-04    0.6652643680E+00    0.1728205008E-03    0.3687625263E-03    0.4172775062E-02
    0.1500000000E+03    0.4839236314E-04    0.6691991584E+00    0.1972538486E-03    0.4255899800E-03    0.4165534487E-02
    0.1700000000E+03    0.5325919717E-04    0.6722397197E+00    0.2223074706E-03    0.4834486620E-03    0.4158114415E-02
    0.1900000000E+03    0.5828823037E-04    0.6746597846E+00    0.2479859341E-03    0.5424551902E-03    0.4150525772E-02
    0.2100000000E+03    0.6347648789E-04    0.6766317061E+00    0.2743042723E-03    0.6027137008E-03    0.4142771518E-02
    0.2300000000E+03    0.6882361860E-04    0.6782694144E+00    0.3012839027E-03    0.6643207788E-03    0.4134850161E-02
    0.2500000000E+03    0.7433113780E-04    0.6796512375E+00    0.3289504879E-03    0.7273686299E-03    0.4126757547E-02
    0.2700000000E+03    0.8000194948E-04    0.6808328006E+00    0.3573327877E-03    0.7919472394E-03    0.4118487813E-02
    0.2900000000E+03    0.8584004011E-04    0.6818546952E+00    0.3864620407E-03    0.8581459206E-03    0.4110033928E-02
    0.3100000000E+03    0.9185028009E-04    0.6827472370E+00    0.4163716435E-03    0.9260544794E-03    0.4101387989E-02
    0.3300000000E+03    0.9803829518E-04    0.6835335240E+00    0.4470970030E-03    0.9957641320E-03    0.4092541398E-02
    0.3500000000E+03    0.1044103841E-03    0.6842314636E+00    0.4786754949E-03    0.1067368262E-02    0.4083484952E-02
    0.3700000000E+03    0.1109734680E-03    0.6848551534E+00    0.5111464891E-03    0.1140963072E-02    0.4074208901E-02
    0.3900000000E+03    0.1177350620E-03    0.6854158429E+00    0.5445514206E-03    0.1216648164E-02    0.4064702958E-02
    0.4100000000E+03    0.1247032635E-03    0.6859226186E+00    0.5789338922E-03    0.1294527077E-02    0.4054956303E-02
    0.4300000000E+03    0.1318867522E-03    0.6863828994E+00    0.6143398016E-03    0.1374707804E-02    0.4044957571E-02
    0.4500000000E+03    0.1392947998E-03    0.6868028030E+00    0.6508174886E-03    0.1457303294E-02    0.4034694827E-02
    0.4700000000E+03    0.1469372873E-03    0.6871874189E+00    0.6884179008E-03    0.1542431954E-02    0.4024155535E-02
    0.4900000000E+03    0.1548247294E-03    0.6875410156E+00    0.7271947742E-03    0.1630218161E-02    0.4013326525E-02
    0.1000000000E+03    0.3699478809E-04    0.6565783304E+00    0.1373731525E-03    0.2851455519E-03    0.4183233843E-02
    0.3000000000E+03    0.8882330637E-04    0.6823155501E+00    0.4013171317E-03    0.8918808068E-03    0.4105735488E-02
    0.5000000000E+03    0.1588637747E-03    0.6877073312E+00    0.7470419873E-03    0.1675148474E-02    0.4007799076E-02
    0.7000000000E+03    0.2557082058E-03    0.6900441566E+00    0.1221822940E-02    0.2750188294E-02    0.3878159297E-02
    0.9000000000E+03    0.3962551309E-03    0.6913491593E+00    0.1909756839E-02    0.4309646077E-02    0.3696894701E-02
    0.1100000000E+04    0.6125575752E-03    0.6921821025E+00    0.2968886041E-02    0.6714733550E-02    0.3428171325E-02
    0.1300000000E+04    0.9666257668E-03    0.6927598649E+00    0.4705281417E-02    0.1066682277E-01    0.3006713853E-02
    0.1500000000E+04    0.1564481063E-02    0.6931841169E+00    0.7645457265E-02    0.1738051436E-01    0.2334000839E-02
    0.1700000000E+04    0.2470450009E-02    0.6935088520E+00    0.1212317330E-01    0.2765968122E-01    0.1400535767E-02
    0.1900000000E+04    0.3407049807E-02    0.6937654008E+00    0.1679873996E-01    0.3850444429E-01    0.5858596990E-03
    0.2100000000E+04    0.4028327652E-02    0.6939731919E+00    0.1996488012E-01    0.4600217052E-01    0.2174057224E-03
    0.2300000000E+04    0.4419673940E-02    0.6941449135E+00    0.2202093612E-01    0.5101651758E-01    0.1116873731E-03
    0.2500000000E+04    0.4723995229E-02    0.6942892030E+00    0.2366251464E-01    0.5511952550E-01    0.8624825106E-04
    0.2700000000E+04    0.4995492306E-02    0.6944121443E+00    0.2515487750E-01    0.5891432371E-01    0.8055492975E-04
    0.2900000000E+04    0.5249431838E-02    0.6945181460E+00    0.2657248008E-01    0.6256979313E-01    0.7946561748E-04
    0.3100000000E+04    0.5490131018E-02    0.6946104813E+00    0.2793583211E-01    0.6613133638E-01    0.7943360790E-04
    0.3300000000E+04    0.5719105537E-02    0.6946916313E+00    0.2925161141E-01    0.6961260319E-01    0.7963638307E-04
    0.3500000000E+04    0.5937150768E-02    0.6947635107E+00    0.3052296393E-01    0.7301917446E-01    0.7988311510E-04
    0.3700000000E+04    0.6144859323E-02    0.6948276210E+00    0.3175207575E-01    0.7635450302E-01    0.8012998895E-04
    0.3900000000E+04    0.6342750464E-02    0.6948851560E+00    0.3294081655E-01    0.7962140237E-01    0.8036759887E-04
    0.4100000000E+04    0.6531303714E-02    0.6949370769E+00    0.3409090482E-01    0.8282242581E-01    0.8059457430E-04
    0.4300000000E+04    0.6710968668E-02    0.6949841665E+00    0.3520395398E-01    0.8595996809E-01    0.8081135403E-04
    0.4500000000E+04    0.6882168807E-02    0.6950270682E+00    0.3628148838E-01    0.8903629697E-01    0.8101871468E-04
    0.4700000000E+04    0.7045303682E-02    0.6950663163E+00    0.3732495134E-01    0.9205356668E-01    0.8121743080E-04
    0.4900000000E+04    0.7200750612E-02    0.6951023579E+00    0.3833571099E-01    0.9501382624E-01    0.8140820536E-04
    0.1000000000E+04    0.4919977969E-03    0.6918070412E+00    0.2378434860E-02    0.5373346121E-02    0.3576663391E-02
    0.3000000000E+04    0.5371313316E-02    0.6945658514E+00    0.2726037997E-01    0.6436113111E-01    0.7939472814E-04
    0.5000000000E+04    0.7275703300E-02    0.6951192964E+00    0.3882923526E-01    0.9647319047E-01    0.8150081278E-04
    0.7000000000E+04    0.8448044816E-02    0.6953563152E+00    0.4726515012E-01    0.1230951790E+00    0.8305530317E-04
    0.9000000000E+04    0.9156562333E-02    0.6954878055E+00    0.5356368373E-01    0.1457502844E+00    0.8423222127E-04
    0.1100000000E+05    0.9561763471E-02    0.6955713386E+00    0.5834655290E-01    0.1654235429E+00    0.8518233963E-04
    0.1300000000E+05    0.9764029300E-02    0.6956290615E+00    0.6202122968E-01    0.1827837941E+00    0.8598059792E-04
    0.1500000000E+05    0.9828342544E-02    0.6956713085E+00    0.6486518183E-01    0.1983028552E+00    0.8666982368E-04
    0.1700000000E+05    0.9797962295E-02    0.6957035492E+00    0.6707343920E-01    0.2123243228E+00    0.8727684725E-04
    0.1900000000E+05    0.9702349213E-02    0.6957289491E+00    0.6878679481E-01    0.2251052500E+00    0.8781961358E-04
    0.2100000000E+05    0.9561942653E-02    0.6957494669E+00    0.7010922540E-01    0.2368424359E+00    0.8831072898E-04
    0.2300000000E+05    0.9391137823E-02    0.6957663794E+00    0.7111903620E-01    0.2476895919E+00    0.8875939510E-04
    0.2500000000E+05    0.9200194986E-02    0.6957805545E+00    0.7187620977E-01    0.2577688913E+00    0.8917253796E-04
    0.2700000000E+05    0.8996494483E-02    0.6957926024E+00    0.7242738142E-01    0.2671789455E+00    0.8955550387E-04
    0.2900000000E+05    0.8785379715E-02    0.6958029650E+00    0.7280928691E-01    0.2760004408E+00    0.8991250763E-04
    0.3100000000E+05    0.8570734176E-02    0.6958119698E+00    0.7305120116E-01    0.2843002046E+00    0.9024693197E-04
    0.3300000000E+05    0.8355383093E-02    0.6958198647E+00    0.7317669526E-01    0.2921341925E+00    0.9056153382E-04
    0.3500000000E+05    0.8141377136E-02    0.6958268410E+00    0.7320492348E-01    0.2995497191E+00    0.9085859034E-04
    0.3700000000E+05    0.7930195467E-02    0.6958330484E+00    0.7315157995E-01    0.3065871491E+00    0.9114000450E-04
    0.3900000000E+05    0.7722892761E-02    0.6958386059E+00    0.7302961963E-01    0.3132811972E+00    0.9140738317E-04
    0.4100000000E+05    0.7520206767E-02    0.6958436091E+00    0.7284980827E-01    0.3196619390E+00    0.9166209571E-04
    0.4300000000E+05    0.7322637714E-02    0.6958481360E+00    0.7262114666E-01    0.3257556063E+00    0.9190531882E-04
    0.4500000000E+05    0.7130507425E-02    0.6958522504E+00    0.7235120131E-01    0.3315852198E+00    0.9213807115E-04
    0.4700000000E+05    0.6944003615E-02    0.6958560055E+00    0.7204636460E-01    0.3371710971E+00    0.9236124053E-04
    0.4900000000E+05    0.6763213321E-02    0.6958594455E+00    0.7171206130E-01    0.3425312636E+00    0.9257560553E-04
    0.1000000000E+05    0.9389756810E-02    0.6955337672E+00    0.5611531483E-01    0.1559121545E+00    0.8472989748E-04
    0.3000000000E+05    0.8678300705E-02    0.6958076201E+00    0.7294615304E-01    0.2802118163E+00    0.9008235720E-04
    0.5000000000E+05    0.6674966777E-02    0.6958610593E+00    0.7153533170E-01    0.3451317954E+00    0.9267970414E-04
    0.7000000000E+05    0.5190755605E-02    0.6958833856E+00    0.6727467179E-01    0.3884166231E+00    0.9443046958E-04
    0.9000000000E+05    0.4135633839E-02    0.6958954634E+00    0.6268894015E-01    0.4202763010E+00    0.9575939052E-04
    0.1100000000E+06    0.3370085163E-02    0.6959029387E+00    0.5837739653E-01    0.4450511287E+00    0.9683379971E-04
    0.1300000000E+06    0.2799426500E-02    0.6959079663E+00    0.5447624177E-01    0.4650179234E+00    0.9773734217E-04
    0.1500000000E+06    0.2363206549E-02    0.6959115436E+00    0.5098804036E-01    0.4815261153E+00    0.9851798914E-04
    0.1700000000E+06    0.2022340985E-02    0.6959141947E+00    0.4787624192E-01    0.4954420308E+00    0.9920586562E-04
    0.1900000000E+06    0.1750884989E-02    0.6959162204E+00    0.4509577125E-01    0.5073542276E+00    0.9982115531E-04
    0.2100000000E+06    0.1531132521E-02    0.6959178053E+00    0.4260324585E-01    0.5176798538E+00    0.1003780560E-03
    0.2300000000E+06    0.1350683829E-02    0.6959190689E+00    0.4036008422E-01    0.5267244981E+00    0.1008869418E-03
    0.2500000000E+06    0.1200650591E-02    0.6959200918E+00    0.3833303984E-01    0.5347180552E+00    0.1013556278E-03
    0.2700000000E+06    0.1074527756E-02    0.6959209300E+00    0.3649382992E-01    0.5418373109E+00    0.1017901506E-03
    0.2900000000E+06    0.9674655572E-03    0.6959216240E+00    0.3481849718E-01    0.5482207445E+00    0.1021952720E-03
    0.3100000000E+06    0.8757880445E-03    0.6959222033E+00    0.3328674781E-01    0.5539785555E+00    0.1025748156E-03
    0.3300000000E+06    0.7966674003E-03    0.6959226903E+00    0.3188135211E-01    0.5591996479E+00    0.1029318991E-03
    0.3500000000E+06    0.7278990545E-03    0.6959231019E+00    0.3058763114E-01    0.5639566125E+00    0.1032690983E-03
    0.3700000000E+06    0.6677434778E-03    0.6959234515E+00    0.2939302826E-01    0.5683093531E+00    0.1035885665E-03
    0.3900000000E+06    0.6148129789E-03    0.6959237492E+00    0.2828675565E-01    0.5723077756E+00    0.1038921226E-03
    0.4100000000E+06    0.5679894386E-03    0.6959240036E+00    0.2725950431E-01    0.5759938131E+00    0.1041813170E-03
    0.4300000000E+06    0.5263636777E-03    0.6959242212E+00    0.2630320617E-01    0.5794029727E+00    0.1044574820E-03
    0.4500000000E+06    0.4891901837E-03    0.6959244075E+00    0.2541083885E-01    0.5825655320E+00    0.1047217715E-03
    0.4700000000E+06    0.4558529030E-03    0.6959245669E+00    0.2457626488E-01    0.5855074760E+00    0.1049751912E-03
    0.4900000000E+06    0.4258391077E-03    0.6959247032E+00    0.2379409895E-01    0.5882512375E+00    0.1052186234E-03
    0.1000000000E+06    0.3723564814E-02    0.6958996009E+00    0.6048530893E-01    0.4333772825E+00    0.9632201784E-04
    0.3000000000E+06    0.9198973042E-03    0.6959219264E+00    0.3403581680E-01    0.5511718635E+00    0.1023880318E-03
    0.5000000000E+06    0.4119414827E-03    0.6959247637E+00    0.2342116426E-01    0.5895549867E+00    0.1053368409E-03
    0.7000000000E+06    0.2337029046E-03    0.6959252946E+00    0.1781650780E-01    0.6088272708E+00    0.1073253510E-03
    0.9000000000E+06    0.1507295493E-03    0.6959252051E+00    0.1436234360E-01    0.6204358614E+00    0.1088350181E-03
    0.1100000000E+07    0.1053903624E-03    0.6959249007E+00    0.1202292565E-01    0.6281961646E+00    0.1100556872E-03
    0.1300000000E+07    0.7790075661E-04    0.6959245167E+00    0.1033469026E-01    0.6337496769E+00    0.1110822988E-03
    0.1500000000E+07    0.5996846936E-04    0.6959241068E+00    0.9059505510E-02    0.6379202194E+00    0.1119693168E-03
    0.1700000000E+07    0.4761723812E-04    0.6959236944E+00    0.8062606315E-02    0.6411668925E+00    0.1127509497E-03
    0.1900000000E+07    0.3874501204E-04    0.6959232901E+00    0.7262040772E-02    0.6437658455E+00    0.1134501201E-03
    0.2100000000E+07    0.3215494076E-04    0.6959228986E+00    0.6605125427E-02    0.6458931624E+00    0.1140829540E-03
    0.2300000000E+07    0.2712453873E-04    0.6959225219E+00    0.6056458795E-02    0.6476664225E+00    0.1146612353E-03
    0.2500000000E+07    0.2319654091E-04    0.6959221603E+00    0.5591376752E-02    0.6491671335E+00    0.1151938417E-03
    0.2700000000E+07    0.2006999844E-04    0.6959218137E+00    0.5192171256E-02    0.6504535775E+00    0.1156876309E-03
    0.2900000000E+07    0.1754021937E-04    0.6959214814E+00    0.4845801148E-02    0.6515685324E+00    0.1161480126E-03
    0.3100000000E+07    0.1546402041E-04    0.6959211627E+00    0.4542450753E-02    0.6525441045E+00    0.1165793310E-03
    0.3300000000E+07    0.1373878860E-04    0.6959208568E+00    0.4274591390E-02    0.6534048608E+00    0.1169851279E-03
    0.3500000000E+07    0.1228941595E-04    0.6959205629E+00    0.4036352397E-02    0.6541699181E+00    0.1173683300E-03
    0.3700000000E+07    0.1105989514E-04    0.6959202801E+00    0.3823088817E-02    0.6548543750E+00    0.1177313841E-03
    0.3900000000E+07    0.1000776765E-04    0.6959200078E+00    0.3631077592E-02    0.6554703143E+00    0.1180763566E-03
    0.4100000000E+07    0.9100368615E-05    0.6959197453E+00    0.3457299810E-02    0.6560275204E+00    0.1184050090E-03
    0.4300000000E+07    0.8312232954E-05    0.6959194919E+00    0.3299281858E-02    0.6565340003E+00    0.1187188555E-03
    0.4500000000E+07    0.7623269625E-05    0.6959192470E+00    0.3154977707E-02    0.6569963698E+00    0.1190192070E-03
    0.4700000000E+07    0.7017454445E-05    0.6959190102E+00    0.3022680407E-02    0.6574201430E+00    0.1193072064E-03
    0.4900000000E+07    0.6481879649E-05    0.6959187809E+00    0.2900954690E-02    0.6578099521E+00    0.1195838560E-03
    0.1000000000E+07    0.1250089112E-03    0.6959250683E+00    0.1308984915E-01    0.6246666159E+00    0.1094742237E-03
    0.3000000000E+07    0.1645260482E-04    0.6959213204E+00    0.4689264085E-02    0.6520720576E+00    0.1163670670E-03
    0.5000000000E+07    0.6237074515E-05    0.6959186689E+00    0.2843668907E-02    0.6579933692E+00    0.1197182051E-03
    0.7000000000E+07    0.3282905882E-05    0.6959167321E+00    0.2036869018E-02    0.6605746787E+00    0.1219780796E-03
    0.9000000000E+07    0.2033336262E-05    0.6959152066E+00    0.1585112461E-02    0.6620189504E+00    0.1236937826E-03
    0.1100000000E+08    0.1388546354E-05    0.6959139460E+00    0.1296545783E-02    0.6629413812E+00    0.1250810532E-03
    0.1300000000E+08    0.1012122545E-05    0.6959128702E+00    0.1096381314E-02    0.6635813037E+00    0.1262477841E-03
    0.1500000000E+08    0.7730121363E-06    0.6959119308E+00    0.9494486042E-03    0.6640511558E+00    0.1272558705E-03
    0.1700000000E+08    0.6114909906E-06    0.6959110961E+00    0.8370373966E-03    0.6644107211E+00    0.1281441890E-03
    0.1900000000E+08    0.4971484709E-06    0.6959103445E+00    0.7482802364E-03    0.6646947140E+00    0.1289387902E-03
    0.2100000000E+08    0.4131611378E-06    0.6959096606E+00    0.6764345128E-03    0.6649246700E+00    0.1296580010E-03
    0.2300000000E+08    0.3496020912E-06    0.6959090327E+00    0.6170958621E-03    0.6651146562E+00    0.1303152133E-03
    0.2500000000E+08    0.3003032137E-06    0.6959084520E+00    0.5672658946E-03    0.6652742493E+00    0.1309205166E-03
    0.2700000000E+08    0.2612660635E-06    0.6959079118E+00    0.5248328976E-03    0.6654101945E+00    0.1314817044E-03
