  Pressure (Pa) 23mC5-500 (mol/kg) 24mC5-500 (mol/kg) 2mC6-500 (mol/kg) 3mC6-500 (mol/kg) C7-500 (mol/kg)
    0.1000000000E+01    0.5217035995E-05    0.1266316362E+00    0.1481518153E-04    0.8977568546E-06    0.4169475807E-02
    0.3000000000E+01    0.1075296022E-04    0.2785210266E+00    0.2923383564E-04    0.2257610837E-05    0.4197997499E-02
    0.5000000000E+01    0.1354732475E-04    0.3664250001E+00    0.3600354634E-04    0.3498722422E-05    0.4211022795E-02
    0.7000000000E+01    0.1518658614E-04    0.4237422463E+00    0.3996257145E-04    0.4682638653E-05    0.4219107568E-02
    0.9000000000E+01    0.1626207553E-04    0.4640717625E+00    0.4275401457E-04    0.5829954489E-05    0.4224664504E-02
    0.1100000000E+02    0.1703596207E-04    0.4939913681E+00    0.4503523835E-04    0.6950933787E-05    0.4228716202E-02
    0.1300000000E+02    0.1763840867E-04    0.5170710321E+00    0.4709683882E-04    0.8051669356E-05    0.4231790044E-02
    0.1500000000E+02    0.1813942309E-04    0.5354157695E+00    0.4907544454E-04    0.9136168150E-05    0.4234189592E-02
    0.1700000000E+02    0.1857895296E-04    0.5503471733E+00    0.5103739609E-04    0.1020725097E-04    0.4236103092E-02
    0.1900000000E+02    0.1898083902E-04    0.5627368531E+00    0.5301498384E-04    0.1126700277E-04    0.4237653918E-02
    0.2100000000E+02    0.1935980765E-04    0.5731829305E+00    0.5502331424E-04    0.1231702227E-04    0.4238926488E-02
    0.2300000000E+02    0.1972519781E-04    0.5821095053E+00    0.5706860304E-04    0.1335857100E-04    0.4239980618E-02
    0.2500000000E+02    0.2008304919E-04    0.5898256538E+00    0.5915242686E-04    0.1439266764E-04    0.4240859928E-02
    0.2700000000E+02    0.2043732136E-04    0.5965619490E+00    0.6127397113E-04    0.1542015051E-04    0.4241597009E-02
    0.2900000000E+02    0.2079063070E-04    0.6024938968E+00    0.6343124379E-04    0.1644172053E-04    0.4242216725E-02
    0.3100000000E+02    0.2114470907E-04    0.6077574497E+00    0.6562173763E-04    0.1745797168E-04    0.4242738388E-02
    0.3300000000E+02    0.2150069637E-04    0.6124595548E+00    0.6784279138E-04    0.1846941316E-04    0.4243177234E-02
    0.3500000000E+02    0.2185933134E-04    0.6166854979E+00    0.7009178318E-04    0.1947648593E-04    0.4243545454E-02
    0.3700000000E+02    0.2222107824E-04    0.6205041234E+00    0.7236622950E-04    0.2047957525E-04    0.4243852922E-02
    0.3900000000E+02    0.2258621227E-04    0.6239716142E+00    0.7466383081E-04    0.2147902032E-04    0.4244107725E-02
    0.4100000000E+02    0.2295487799E-04    0.6271342742E+00    0.7698248724E-04    0.2247512193E-04    0.4244316552E-02
    0.4300000000E+02    0.2332712973E-04    0.6300306088E+00    0.7932029759E-04    0.2346814844E-04    0.4244484985E-02
    0.4500000000E+02    0.2370295977E-04    0.6326928999E+00    0.8167554984E-04    0.2445834064E-04    0.4244617722E-02
    0.4700000000E+02    0.2408231820E-04    0.6351484150E+00    0.8404670720E-04    0.2544591573E-04    0.4244718747E-02
    0.4900000000E+02    0.2446512697E-04    0.6374203437E+00    0.8643239279E-04    0.2643107048E-04    0.4244791459E-02
    0.1000000000E+02    0.1667663871E-04    0.4800635025E+00    0.4393510202E-04    0.6393290918E-05    0.4226838358E-02
    0.3000000000E+02    0.2096749126E-04    0.6052019571E+00    0.6452250364E-04    0.1695047737E-04    0.4242488779E-02
    0.5000000000E+02    0.2465779564E-04    0.6384937792E+00    0.8763029327E-04    0.2692279682E-04    0.4244818126E-02
    0.7000000000E+02    0.2866574666E-04    0.6539110178E+00    0.1121139882E-03    0.3666646666E-04    0.4244396561E-02
    0.9000000000E+02    0.3290014772E-04    0.6628025489E+00    0.1372314678E-03    0.4630325016E-04    0.4242910485E-02
    0.1100000000E+03    0.3729133465E-04    0.6685879038E+00    0.1627203531E-03    0.5589483205E-04    0.4240887104E-02
    0.1300000000E+03    0.4179958122E-04    0.6726527107E+00    0.1884812719E-03    0.6547854033E-04    0.4238546521E-02
    0.1500000000E+03    0.4640210085E-04    0.6756651304E+00    0.2144770109E-03    0.7507952776E-04    0.4235997356E-02
    0.1700000000E+03    0.5108545998E-04    0.6779870086E+00    0.2406966080E-03    0.8471604762E-04    0.4233299412E-02
    0.1900000000E+03    0.5584158918E-04    0.6798313623E+00    0.2671409800E-03    0.9440209944E-04    0.4230488235E-02
    0.2100000000E+03    0.6066563405E-04    0.6813317631E+00    0.2938166351E-03    0.1041488967E-03    0.4227586166E-02
    0.2300000000E+03    0.6555474708E-04    0.6825762151E+00    0.3207327384E-03    0.1139657437E-03    0.4224607839E-02
    0.2500000000E+03    0.7050737961E-04    0.6836250594E+00    0.3478996818E-03    0.1238605907E-03    0.4221563134E-02
    0.2700000000E+03    0.7552285084E-04    0.6845210517E+00    0.3753283699E-03    0.1338404014E-03    0.4218458866E-02
    0.2900000000E+03    0.8060107700E-04    0.6852953335E+00    0.4030298624E-03    0.1439114058E-03    0.4215299802E-02
    0.3100000000E+03    0.8574239612E-04    0.6859711247E+00    0.4310152014E-03    0.1540792798E-03    0.4212089290E-02
    0.3300000000E+03    0.9094745211E-04    0.6865660918E+00    0.4592953343E-03    0.1643492761E-03    0.4208829677E-02
    0.3500000000E+03    0.9621711636E-04    0.6870939149E+00    0.4878810892E-03    0.1747263219E-03    0.4205522581E-02
    0.3700000000E+03    0.1015524338E-03    0.6875653516E+00    0.5167831774E-03    0.1852150935E-03    0.4202169076E-02
    0.3900000000E+03    0.1069545855E-03    0.6879889778E+00    0.5460122100E-03    0.1958200743E-03    0.4198769829E-02
    0.4100000000E+03    0.1124248620E-03    0.6883717146E+00    0.5755787213E-03    0.2065456003E-03    0.4195325190E-02
    0.4300000000E+03    0.1179646447E-03    0.6887192085E+00    0.6054931950E-03    0.2173958972E-03    0.4191835261E-02
    0.4500000000E+03    0.1235753923E-03    0.6890361122E+00    0.6357660912E-03    0.2283751102E-03    0.4188299946E-02
    0.4700000000E+03    0.1292586314E-03    0.6893262940E+00    0.6664078728E-03    0.2394873287E-03    0.4184718991E-02
    0.4900000000E+03    0.1350159497E-03    0.6895929964E+00    0.6974290311E-03    0.2507366072E-03    0.4181092008E-02
    0.1000000000E+03    0.3507914748E-04    0.6659720353E+00    0.1499378342E-03    0.5110198159E-04    0.4241948374E-02
    0.3000000000E+03    0.8316381580E-04    0.6856443275E+00    0.4169863642E-03    0.1489828972E-03    0.4213700810E-02
    0.5000000000E+03    0.1379229003E-03    0.6897184154E+00    0.7130851685E-03    0.2564139059E-03    0.4179261105E-02
    0.7000000000E+03    0.2003845236E-03    0.6914788669E+00    0.1048773460E-02    0.3781551910E-03    0.4140058446E-02
    0.9000000000E+03    0.2724998238E-03    0.6924605016E+00    0.1435558471E-02    0.5185117363E-03    0.4095237507E-02
    0.1100000000E+04    0.3568180175E-03    0.6930864373E+00    0.1887510417E-02    0.6826504269E-03    0.4043446524E-02
    0.1300000000E+04    0.4567079767E-03    0.6935203002E+00    0.2422927339E-02    0.8772722001E-03    0.3982860208E-02
    0.1500000000E+04    0.5767184580E-03    0.6938387049E+00    0.3066402992E-02    0.1111383704E-02    0.3911024813E-02
    0.1700000000E+04    0.7231150189E-03    0.6940823043E+00    0.3851775858E-02    0.1397385847E-02    0.3824599444E-02
    0.1900000000E+04    0.9046840994E-03    0.6942746726E+00    0.4826508324E-02    0.1752689461E-02    0.3718970399E-02
    0.2100000000E+04    0.1133930079E-02    0.6944304217E+00    0.6058203823E-02    0.2202124370E-02    0.3587696338E-02
    0.2300000000E+04    0.1428790919E-02    0.6945590897E+00    0.7643974311E-02    0.2781414769E-02    0.3421762170E-02
    0.2500000000E+04    0.1814819536E-02    0.6946671678E+00    0.9722436077E-02    0.3541663101E-02    0.3208757174E-02
    0.2700000000E+04    0.2326952894E-02    0.6947592264E+00    0.1248371366E-01    0.4553193254E-02    0.2932599588E-02
    0.2900000000E+04    0.3007328646E-02    0.6948385769E+00    0.1615851615E-01    0.5901874366E-02    0.2575874670E-02
    0.3100000000E+04    0.3889721053E-02    0.6949076769E+00    0.2093539821E-01    0.7659263053E-02    0.2129613058E-02
    0.3300000000E+04    0.4958162737E-02    0.6949683892E+00    0.2673801650E-01    0.9801143162E-02    0.1615244844E-02
    0.3500000000E+04    0.6098722297E-02    0.6950221509E+00    0.3296168823E-01    0.1210970394E-01    0.1104385498E-02
    0.3700000000E+04    0.7132289773E-02    0.6950700888E+00    0.3864277395E-01    0.1423276417E-01    0.6906833498E-03
    0.3900000000E+04    0.7945386091E-02    0.6951130986E+00    0.4316182680E-01    0.1594053614E-01    0.4190862686E-03
    0.4100000000E+04    0.8547533212E-02    0.6951519015E+00    0.4656019940E-01    0.1724438784E-01    0.2677482999E-03
    0.4300000000E+04    0.9005411935E-02    0.6951870846E+00    0.4919108779E-01    0.1827131810E-01    0.1916112369E-03
    0.4500000000E+04    0.9379058238E-02    0.6952191305E+00    0.5137555909E-01    0.1913796406E-01    0.1553498037E-03
    0.4700000000E+04    0.9705800007E-02    0.6952484399E+00    0.5331406499E-01    0.1991746942E-01    0.1385642970E-03
    0.4900000000E+04    0.1000563480E-01    0.6952753479E+00    0.5511420832E-01    0.2064918761E-01    0.1309401100E-03
    0.1000000000E+04    0.3129457414E-03    0.6928046508E+00    0.1652365124E-02    0.5972334116E-03    0.4070314939E-02
    0.3000000000E+04    0.3422427320E-02    0.6948742802E+00    0.1840409377E-01    0.6727401028E-02    0.2363640557E-02
    0.5000000000E+04    0.1014885098E-01    0.6952879915E+00    0.5598063030E-01    0.2100379859E-01    0.1289024388E-03
    0.7000000000E+04    0.1256516783E-01    0.6954647066E+00    0.7119819309E-01    0.2745987739E-01    0.1266016423E-03
    0.9000000000E+04    0.1441451243E-01    0.6955624995E+00    0.8377966107E-01    0.3315563167E-01    0.1283889475E-03
    0.1100000000E+05    0.1585229298E-01    0.6956244726E+00    0.9438516580E-01    0.3826821377E-01    0.1298347425E-03
    0.1300000000E+05    0.1697899350E-01    0.6956671915E+00    0.1034413495E+00    0.4290991732E-01    0.1310497959E-03
    0.1500000000E+05    0.1786638667E-01    0.6956983794E+00    0.1112599440E+00    0.4716447455E-01    0.1320990936E-03
    0.1700000000E+05    0.1856691097E-01    0.6957221205E+00    0.1180740620E+00    0.5109575758E-01    0.1330233779E-03
    0.1900000000E+05    0.1911963082E-01    0.6957407768E+00    0.1240615348E+00    0.5475344918E-01    0.1338499124E-03
    0.2100000000E+05    0.1955414369E-01    0.6957558085E+00    0.1293604029E+00    0.5817685877E-01    0.1345978572E-03
    0.2300000000E+05    0.1989320938E-01    0.6957681668E+00    0.1340794729E+00    0.6139755797E-01    0.1352812019E-03
    0.2500000000E+05    0.2015456048E-01    0.6957784976E+00    0.1383056821E+00    0.6444124303E-01    0.1359104792E-03
    0.2700000000E+05    0.2035217460E-01    0.6957872549E+00    0.1421093416E+00    0.6732907788E-01    0.1364938208E-03
    0.2900000000E+05    0.2049718482E-01    0.6957947669E+00    0.1455479394E+00    0.7007868035E-01    0.1370376388E-03
    0.3100000000E+05    0.2059854177E-01    0.6958012769E+00    0.1486689439E+00    0.7270485808E-01    0.1375470799E-03
    0.3300000000E+05    0.2066350237E-01    0.6958069690E+00    0.1515119023E+00    0.7522016595E-01    0.1380263393E-03
    0.3500000000E+05    0.2069799537E-01    0.6958119848E+00    0.1541100319E+00    0.7763533379E-01    0.1384788825E-03
    0.3700000000E+05    0.2070689798E-01    0.6958164353E+00    0.1564914417E+00    0.7995959861E-01    0.1389076060E-03
    0.3900000000E+05    0.2069424776E-01    0.6958204086E+00    0.1586800819E+00    0.8220096564E-01    0.1393149554E-03
    0.4100000000E+05    0.2066340635E-01    0.6958239754E+00    0.1606964884E+00    0.8436641538E-01    0.1397030153E-03
    0.4300000000E+05    0.2061718735E-01    0.6958271933E+00    0.1625583723E+00    0.8646206946E-01    0.1400735770E-03
    0.4500000000E+05    0.2055795691E-01    0.6958301095E+00    0.1642810918E+00    0.8849332467E-01    0.1404281914E-03
    0.4700000000E+05    0.2048771365E-01    0.6958327632E+00    0.1658780315E+00    0.9046496213E-01    0.1407682102E-03
    0.4900000000E+05    0.2040815250E-01    0.6958351869E+00    0.1673609114E+00    0.9238123686E-01    0.1410948188E-03
    0.1000000000E+05    0.1517775298E-01    0.6955966172E+00    0.8929950358E-01    0.3577700113E-01    0.1291461993E-03
    0.3000000000E+05    0.2055283148E-01    0.6957981345E+00    0.1471455042E+00    0.7140636537E-01    0.1372963749E-03
    0.5000000000E+05    0.2036533719E-01    0.6958363214E+00    0.1680628490E+00    0.9331981751E-01    0.1412534258E-03
    0.7000000000E+05    0.1927522542E-01    0.6958517902E+00    0.1780613301E+00    0.1099264697E+00    0.1439210476E-03
    0.9000000000E+05    0.1806542531E-01    0.6958598803E+00    0.1833643200E+00    0.1236471339E+00    0.1459460236E-03
    0.1100000000E+06    0.1691791756E-01    0.6958647042E+00    0.1862347417E+00    0.1355156321E+00    0.1475832326E-03
    0.1300000000E+06    0.1587384147E-01    0.6958678170E+00    0.1876963823E+00    0.1460738421E+00    0.1489600983E-03
    0.1500000000E+06    0.1493510962E-01    0.6958699317E+00    0.1882801383E+00    0.1556441880E+00    0.1501497054E-03
    0.1700000000E+06    0.1409254877E-01    0.6958714194E+00    0.1882883399E+00    0.1644357975E+00    0.1511979522E-03
    0.1900000000E+06    0.1333465425E-01    0.6958724910E+00    0.1879053104E+00    0.1725930430E+00    0.1521355917E-03
    0.2100000000E+06    0.1265039200E-01    0.6958732746E+00    0.1872493994E+00    0.1802204014E+00    0.1529842570E-03
    0.2300000000E+06    0.1203000471E-01    0.6958738522E+00    0.1863997358E+00    0.1873963124E+00    0.1537597554E-03
    0.2500000000E+06    0.1146512598E-01    0.6958742785E+00    0.1854109657E+00    0.1941814304E+00    0.1544739952E-03
    0.2700000000E+06    0.1094866449E-01    0.6958745913E+00    0.1843218330E+00    0.2006238032E+00    0.1551361750E-03
    0.2900000000E+06    0.1047462711E-01    0.6958748174E+00    0.1831604067E+00    0.2067622653E+00    0.1557535509E-03
    0.3100000000E+06    0.1003794239E-01    0.6958749760E+00    0.1819473897E+00    0.2126287432E+00    0.1563319492E-03
    0.3300000000E+06    0.9634304323E-02    0.6958750818E+00    0.1806982801E+00    0.2182498684E+00    0.1568761206E-03
    0.3500000000E+06    0.9260040690E-02    0.6958751456E+00    0.1794248236E+00    0.2236481376E+00    0.1573899904E-03
    0.3700000000E+06    0.8912004574E-02    0.6958751757E+00    0.1781360130E+00    0.2288427645E+00    0.1578768401E-03
    0.3900000000E+06    0.8587485706E-02    0.6958751785E+00    0.1768387898E+00    0.2338503187E+00    0.1583394411E-03
    0.4100000000E+06    0.8284138277E-02    0.6958751593E+00    0.1755385466E+00    0.2386852129E+00    0.1587801561E-03
    0.4300000000E+06    0.7999922111E-02    0.6958751220E+00    0.1742394931E+00    0.2433600799E+00    0.1592010155E-03
    0.4500000000E+06    0.7733054578E-02    0.6958750698E+00    0.1729449253E+00    0.2478860692E+00    0.1596037776E-03
    0.4700000000E+06    0.7481971167E-02    0.6958750055E+00    0.1716574273E+00    0.2522730825E+00    0.1599899751E-03
    0.4900000000E+06    0.7245292989E-02    0.6958749310E+00    0.1703790246E+00    0.2565299631E+00    0.1603609522E-03
    0.1000000000E+06    0.1747980802E-01    0.6958625736E+00    0.1850230977E+00    0.1297719736E+00    0.1468033629E-03
    0.3000000000E+06    0.1025190107E-01    0.6958749041E+00    0.1825592761E+00    0.2097277291E+00    0.1560473034E-03
    0.5000000000E+06    0.7131969001E-02    0.6958748906E+00    0.1697437433E+00    0.2586121160E+00    0.1605411091E-03
    0.7000000000E+06    0.5388662956E-02    0.6958738465E+00    0.1577485083E+00    0.2949896066E+00    0.1635714944E-03
    0.9000000000E+06    0.4273541569E-02    0.6958726855E+00    0.1472185096E+00    0.3240474566E+00    0.1658721516E-03
    0.1100000000E+07    0.3500595949E-02    0.6958715734E+00    0.1380140884E+00    0.3481681757E+00    0.1677323911E-03
    0.1300000000E+07    0.2935350695E-02    0.6958705427E+00    0.1299224114E+00    0.3686926973E+00    0.1692968964E-03
    0.1500000000E+07    0.2505759981E-02    0.6958695940E+00    0.1227559182E+00    0.3864672896E+00    0.1706486675E-03
    0.1700000000E+07    0.2169595012E-02    0.6958687199E+00    0.1163625399E+00    0.4020669643E+00    0.1718398366E-03
    0.1900000000E+07    0.1900419657E-02    0.6958679118E+00    0.1106208158E+00    0.4159031186E+00    0.1729053365E-03
    0.2100000000E+07    0.1680828680E-02    0.6958671614E+00    0.1054334304E+00    0.4282815324E+00    0.1738697427E-03
    0.2300000000E+07    0.1498896021E-02    0.6958664617E+00    0.1007217422E+00    0.4394362552E+00    0.1747510131E-03
    0.2500000000E+07    0.1346180487E-02    0.6958658065E+00    0.9642156263E-01    0.4495506641E+00    0.1755626769E-03
    0.2700000000E+07    0.1216544394E-02    0.6958651906E+00    0.9247997505E-01    0.4587711950E+00    0.1763151851E-03
    0.2900000000E+07    0.1105422336E-02    0.6958646097E+00    0.8885294240E-01    0.4672166535E+00    0.1770167818E-03
    0.3100000000E+07    0.1009351635E-02    0.6958640601E+00    0.8550349618E-01    0.4749847321E+00    0.1776740873E-03
    0.3300000000E+07    0.9256612626E-03    0.6958635385E+00    0.8240035253E-01    0.4821566958E+00    0.1782924992E-03
    0.3500000000E+07    0.8522601397E-03    0.6958630423E+00    0.7951684335E-01    0.4888008286E+00    0.1788764778E-03
    0.3700000000E+07    0.7874896618E-03    0.6958625690E+00    0.7683008234E-01    0.4949750170E+00    0.1794297517E-03
    0.3900000000E+07    0.7300188297E-03    0.6958621167E+00    0.7432030742E-01    0.5007287215E+00    0.1799554700E-03
    0.4100000000E+07    0.6787683103E-03    0.6958616836E+00    0.7197035737E-01    0.5061045020E+00    0.1804563174E-03
    0.4300000000E+07    0.6328545456E-03    0.6958612680E+00    0.6976525163E-01    0.5111392141E+00    0.1809346013E-03
    0.4500000000E+07    0.5915480130E-03    0.6958608686E+00    0.6769184984E-01    0.5158649585E+00    0.1813923194E-03
    0.4700000000E+07    0.5542416401E-03    0.6958604841E+00    0.6573857413E-01    0.5203098422E+00    0.1818312135E-03
    0.4900000000E+07    0.5204266155E-03    0.6958601135E+00    0.6389518073E-01    0.5244985948E+00    0.1822528111E-03
    0.1000000000E+07    0.3854769853E-02    0.6958721200E+00    0.1424641302E+00    0.3366256052E+00    0.1668462695E-03
    0.3000000000E+07    0.1055688198E-02    0.6958643312E+00    0.8714559562E-01    0.4711799465E+00    0.1773506088E-03
    0.5000000000E+07    0.5046915262E-03    0.6958599330E+00    0.6301180634E-01    0.5265038520E+00    0.1824575510E-03
    0.7000000000E+07    0.2976490128E-03    0.6958568604E+00    0.4936350576E-01    0.5573317274E+00    0.1859014607E-03
    0.9000000000E+07    0.1968956974E-03    0.6958544892E+00    0.4056785208E-01    0.5770634263E+00    0.1885160813E-03
    0.1100000000E+08    0.1401317070E-03    0.6958525536E+00    0.3442409600E-01    0.5907918335E+00    0.1906301887E-03
    0.1300000000E+08    0.1049404090E-03    0.6958509155E+00    0.2988957489E-01    0.6008985238E+00    0.1924082060E-03
    0.1500000000E+08    0.8159282469E-04    0.6958494938E+00    0.2640539219E-01    0.6086503532E+00    0.1939444586E-03
    0.1700000000E+08    0.6529718044E-04    0.6958482368E+00    0.2364473169E-01    0.6147844001E+00    0.1952981919E-03
    0.1900000000E+08    0.5346613676E-04    0.6958471095E+00    0.2140364392E-01    0.6197590033E+00    0.1965091058E-03
    0.2100000000E+08    0.4460107949E-04    0.6958460870E+00    0.1954824306E-01    0.6238742506E+00    0.1976051295E-03
    0.2300000000E+08    0.3778447189E-04    0.6958451510E+00    0.1798699315E-01    0.6273348890E+00    0.1986066716E-03
    0.2500000000E+08    0.3242866079E-04    0.6958442878E+00    0.1665518904E-01    0.6302854157E+00    0.1995291075E-03
    0.2700000000E+08    0.2814295148E-04    0.6958434864E+00    0.1550579718E-01    0.6328307253E+00    0.2003843145E-03
