  Pressure (Pa) 23mC5-500 (mol/kg) 24mC5-500 (mol/kg) 2mC6-500 (mol/kg) 3mC6-500 (mol/kg) C7-500 (mol/kg)
    0.1000000000E+01    0.4722364316E-05    0.1741127293E+00    0.2660524641E-05    0.2693160007E-05    0.4168203676E-02
    0.3000000000E+01    0.8734496730E-05    0.3481411539E+00    0.4697695794E-05    0.6772127275E-05    0.4192246939E-02
    0.5000000000E+01    0.1043404428E-04    0.4351244783E+00    0.5537487825E-05    0.1049449888E-04    0.4201482545E-02
    0.7000000000E+01    0.1137403388E-04    0.4873049111E+00    0.6067488681E-05    0.1404496161E-04    0.4206678136E-02
    0.9000000000E+01    0.1200595499E-04    0.5220880100E+00    0.6507653879E-05    0.1748532120E-04    0.4210012156E-02
    0.1100000000E+02    0.1249822041E-04    0.5469312496E+00    0.6925753354E-05    0.2084638243E-04    0.4212313174E-02
    0.1300000000E+02    0.1292363983E-04    0.5655627064E+00    0.7344668610E-05    0.2414643334E-04    0.4213976007E-02
    0.1500000000E+02    0.1331685140E-04    0.5800532782E+00    0.7771981726E-05    0.2739750228E-04    0.4215214962E-02
    0.1700000000E+02    0.1369541655E-04    0.5916453905E+00    0.8209637152E-05    0.3060805773E-04    0.4216157106E-02
    0.1900000000E+02    0.1406860733E-04    0.6011296226E+00    0.8657459666E-05    0.3378435965E-04    0.4216882827E-02
    0.2100000000E+02    0.1444142219E-04    0.6090329988E+00    0.9114525483E-05    0.3693120846E-04    0.4217445591E-02
    0.2300000000E+02    0.1481655553E-04    0.6157203656E+00    0.9579714373E-05    0.4005239245E-04    0.4217882407E-02
    0.2500000000E+02    0.1519541862E-04    0.6214523186E+00    0.1005192995E-04    0.4315097090E-04    0.4218219745E-02
    0.2700000000E+02    0.1557869233E-04    0.6264199552E+00    0.1053018056E-04    0.4622946158E-04    0.4218477056E-02
    0.2900000000E+02    0.1596663713E-04    0.6307665949E+00    0.1101360087E-04    0.4928996974E-04    0.4218668975E-02
    0.3100000000E+02    0.1635927149E-04    0.6346018325E+00    0.1150144901E-04    0.5233427949E-04    0.4218806727E-02
    0.3300000000E+02    0.1675647692E-04    0.6380109070E+00    0.1199309437E-04    0.5536392043E-04    0.4218899077E-02
    0.3500000000E+02    0.1715806056E-04    0.6410611111E+00    0.1248800294E-04    0.5838021722E-04    0.4218952970E-02
    0.3700000000E+02    0.1756379276E-04    0.6438062781E+00    0.1298572299E-04    0.6138432718E-04    0.4218973986E-02
    0.3900000000E+02    0.1797342978E-04    0.6462899869E+00    0.1348587214E-04    0.6437726939E-04    0.4218966659E-02
    0.4100000000E+02    0.1838672726E-04    0.6485478927E+00    0.1398812632E-04    0.6735994747E-04    0.4218934716E-02
    0.4300000000E+02    0.1880344805E-04    0.6506094493E+00    0.1449221028E-04    0.7033316768E-04    0.4218881246E-02
    0.4500000000E+02    0.1922336658E-04    0.6524992013E+00    0.1499788979E-04    0.7329765347E-04    0.4218808836E-02
    0.4700000000E+02    0.1964627108E-04    0.6542377661E+00    0.1550496503E-04    0.7625405734E-04    0.4218719667E-02
    0.4900000000E+02    0.2007196439E-04    0.6558425890E+00    0.1601326518E-04    0.7920297051E-04    0.4218615592E-02
    0.1000000000E+02    0.1226370509E-04    0.5354653255E+00    0.6717483218E-05    0.1917442759E-04    0.4211261161E-02
    0.3000000000E+02    0.1616237319E-04    0.6327423272E+00    0.1125701331E-04    0.5081404850E-04    0.4218744025E-02
    0.5000000000E+02    0.2028579926E-04    0.6565995789E+00    0.1626782802E-04    0.8067478809E-04    0.4218558470E-02
    0.7000000000E+02    0.2467187567E-04    0.6673839344E+00    0.2139732691E-04    0.1098266626E-03    0.4216919878E-02
    0.9000000000E+02    0.2920198119E-04    0.6735296947E+00    0.2656653270E-04    0.1386354263E-03    0.4214736183E-02
    0.1100000000E+03    0.3382417304E-04    0.6774998722E+00    0.3175821901E-04    0.1672862207E-03    0.4212282031E-02
    0.1300000000E+03    0.3851465831E-04    0.6802759484E+00    0.3697054976E-04    0.1958909074E-03    0.4209669341E-02
    0.1500000000E+03    0.4326197206E-04    0.6823262060E+00    0.4220605759E-04    0.2245246861E-03    0.4206952057E-02
    0.1700000000E+03    0.4806054639E-04    0.6839023786E+00    0.4746845702E-04    0.2532419600E-03    0.4204159116E-02
    0.1900000000E+03    0.5290785029E-04    0.6851518532E+00    0.5276162384E-04    0.2820842952E-03    0.4201307201E-02
    0.2100000000E+03    0.5780300940E-04    0.6861666595E+00    0.5808926602E-04    0.3110848369E-03    0.4198406419E-02
    0.2300000000E+03    0.6274609437E-04    0.6870072287E+00    0.6345483452E-04    0.3402709492E-03    0.4195463091E-02
    0.2500000000E+03    0.6773773419E-04    0.6877148832E+00    0.6886151989E-04    0.3696658857E-03    0.4192481238E-02
    0.2700000000E+03    0.7277889720E-04    0.6883188361E+00    0.7431227780E-04    0.3992898963E-03    0.4189463426E-02
    0.2900000000E+03    0.7787076294E-04    0.6888403239E+00    0.7980986224E-04    0.4291609881E-03    0.4186411258E-02
    0.3100000000E+03    0.8301464533E-04    0.6892951553E+00    0.8535685806E-04    0.4592954660E-03    0.4183325691E-02
    0.3300000000E+03    0.8821194586E-04    0.6896953411E+00    0.9095571032E-04    0.4897083263E-03    0.4180207225E-02
    0.3500000000E+03    0.9346412473E-04    0.6900501700E+00    0.9660874962E-04    0.5204135503E-03    0.4177056038E-02
    0.3700000000E+03    0.9877268315E-04    0.6903669384E+00    0.1023182137E-03    0.5514243288E-03    0.4173872073E-02
    0.3900000000E+03    0.1041391525E-03    0.6906514574E+00    0.1080862658E-03    0.5827532351E-03    0.4170655097E-02
    0.4100000000E+03    0.1095650882E-03    0.6909084125E+00    0.1139150099E-03    0.6144123621E-03    0.4167404746E-02
    0.4300000000E+03    0.1150520658E-03    0.6911416234E+00    0.1198065044E-03    0.6464134323E-03    0.4164120550E-02
    0.4500000000E+03    0.1206016798E-03    0.6913542353E+00    0.1257627729E-03    0.6787678867E-03    0.4160801962E-02
    0.4700000000E+03    0.1262155430E-03    0.6915488614E+00    0.1317858140E-03    0.7114869584E-03    0.4157448365E-02
    0.4900000000E+03    0.1318952872E-03    0.6917276908E+00    0.1378776096E-03    0.7445817340E-03    0.4154059091E-02
    0.1000000000E+03    0.3150345881E-04    0.6757075217E+00    0.2915984846E-04    0.1529724443E-03    0.4213533918E-02
    0.3000000000E+03    0.8043611610E-04    0.6890752466E+00    0.8257702795E-04    0.4441943397E-03    0.4184872609E-02
    0.5000000000E+03    0.1347603799E-03    0.6918117707E+00    0.1409499071E-03    0.7612734481E-03    0.4152350854E-02
    0.7000000000E+03    0.1959398970E-03    0.6929908650E+00    0.2064922605E-03    0.1117528785E-02    0.4116118504E-02
    0.9000000000E+03    0.2658006632E-03    0.6936474377E+00    0.2812834698E-03    0.1524444203E-02    0.4075296497E-02
    0.1100000000E+04    0.3465793629E-03    0.6940657601E+00    0.3677684747E-03    0.1995432173E-02    0.4028733436E-02
    0.1300000000E+04    0.4411454996E-03    0.6943555601E+00    0.4690534304E-03    0.2547530697E-02    0.3974955429E-02
    0.1500000000E+04    0.5532905013E-03    0.6945681563E+00    0.5892318808E-03    0.3203211049E-02    0.3912037384E-02
    0.1700000000E+04    0.6881361687E-03    0.6947307570E+00    0.7338314374E-03    0.3992844158E-02    0.3837413503E-02
    0.1900000000E+04    0.8527341859E-03    0.6948591311E+00    0.9104655013E-03    0.4958301968E-02    0.3747603105E-02
    0.2100000000E+04    0.1056956298E-02    0.6949630478E+00    0.1129800832E-02    0.6158313684E-02    0.3637815012E-02
    0.2300000000E+04    0.1314801685E-02    0.6950488821E+00    0.1406981410E-02    0.7676368722E-02    0.3501391218E-02
    0.2500000000E+04    0.1646222858E-02    0.6951209710E+00    0.1763625050E-02    0.9631846619E-02    0.3329086206E-02
    0.2700000000E+04    0.2079311211E-02    0.6951823674E+00    0.2230235295E-02    0.1219358767E-01    0.3108350228E-02
    0.2900000000E+04    0.2651634081E-02    0.6952352828E+00    0.2847749738E-02    0.1558901464E-01    0.2823364102E-02
    0.3100000000E+04    0.3406405996E-02    0.6952813585E+00    0.3663595775E-02    0.2008352185E-01    0.2458101786E-02
    0.3300000000E+04    0.4373133550E-02    0.6953218377E+00    0.4711046480E-02    0.2586834606E-01    0.2007206272E-02
    0.3500000000E+04    0.5522302242E-02    0.6953576800E+00    0.5960339360E-02    0.3279186622E-01    0.1497741573E-02
    0.3700000000E+04    0.6722663112E-02    0.6953896375E+00    0.7271764201E-02    0.4009693215E-01    0.1003895764E-02
    0.3900000000E+04    0.7791050599E-02    0.6954183078E+00    0.8447923449E-02    0.4669964994E-01    0.6127563613E-03
    0.4100000000E+04    0.8625207191E-02    0.6954441723E+00    0.9376828453E-02    0.5197490841E-01    0.3594915225E-03
    0.4300000000E+04    0.9244859697E-02    0.6954676226E+00    0.1007776058E-01    0.5601735716E-01    0.2189808021E-03
    0.4500000000E+04    0.9720057763E-02    0.6954889808E+00    0.1062506607E-01    0.5922879517E-01    0.1481535334E-03
    0.4700000000E+04    0.1011117682E-01    0.6955085142E+00    0.1108337904E-01    0.6196176807E-01    0.1142551700E-03
    0.4900000000E+04    0.1045542217E-01    0.6955264464E+00    0.1149268796E-01    0.6443533162E-01    0.9846382355E-04
    0.1000000000E+04    0.3046637093E-03    0.6938774708E+00    0.3228890304E-03    0.1750968249E-02    0.4052815912E-02
    0.3000000000E+04    0.3003650560E-02    0.6952590901E+00    0.3228043186E-02    0.1768286061E-01    0.2651559948E-02
    0.5000000000E+04    0.1061665404E-01    0.6955348721E+00    0.1168616734E-01    0.6561437455E-01    0.9414277952E-04
    0.7000000000E+04    0.1328164070E-01    0.6956526146E+00    0.1502576414E-01    0.8677181038E-01    0.8634192181E-04
    0.9000000000E+04    0.1532608015E-01    0.6957177519E+00    0.1780474359E-01    0.1056246914E+00    0.8755547691E-04
    0.1100000000E+05    0.1690881238E-01    0.6957590201E+00    0.2015498367E-01    0.1226943213E+00    0.8853997840E-04
    0.1300000000E+05    0.1813034908E-01    0.6957874606E+00    0.2215692460E-01    0.1382722698E+00    0.8936758711E-04
    0.1500000000E+05    0.1906637227E-01    0.6958082200E+00    0.2387240063E-01    0.1525865592E+00    0.9008243189E-04
    0.1700000000E+05    0.1977470658E-01    0.6958240196E+00    0.2534969744E-01    0.1658183236E+00    0.9071219901E-04
    0.1900000000E+05    0.2030010054E-01    0.6958364329E+00    0.2662704603E-01    0.1781134313E+00    0.9127542462E-04
    0.2100000000E+05    0.2067757825E-01    0.6958464327E+00    0.2773509432E-01    0.1895908048E+00    0.9178514039E-04
    0.2300000000E+05    0.2093483070E-01    0.6958546525E+00    0.2869868738E-01    0.2003484846E+00    0.9225086413E-04
    0.2500000000E+05    0.2109394953E-01    0.6958615226E+00    0.2953817106E-01    0.2104681186E+00    0.9267976336E-04
    0.2700000000E+05    0.2117270223E-01    0.6958673452E+00    0.3027036072E-01    0.2200183345E+00    0.9307737301E-04
    0.2900000000E+05    0.2118548244E-01    0.6958723389E+00    0.3090927099E-01    0.2290573081E+00    0.9344805806E-04
    0.3100000000E+05    0.2114402672E-01    0.6958766658E+00    0.3146667233E-01    0.2376347412E+00    0.9379532273E-04
    0.3300000000E+05    0.2105796110E-01    0.6958804484E+00    0.3195252033E-01    0.2457934033E+00    0.9412202370E-04
    0.3500000000E+05    0.2093522202E-01    0.6958837809E+00    0.3237529039E-01    0.2535703447E+00    0.9443052097E-04
    0.3700000000E+05    0.2078238369E-01    0.6958867374E+00    0.3274224111E-01    0.2609978606E+00    0.9472278717E-04
    0.3900000000E+05    0.2060491462E-01    0.6958893763E+00    0.3305962349E-01    0.2681042640E+00    0.9500048820E-04
    0.4100000000E+05    0.2040738050E-01    0.6958917449E+00    0.3333284851E-01    0.2749145103E+00    0.9526504397E-04
    0.4300000000E+05    0.2019360567E-01    0.6958938813E+00    0.3356662233E-01    0.2814507057E+00    0.9551767477E-04
    0.4500000000E+05    0.1996680256E-01    0.6958958171E+00    0.3376505629E-01    0.2877325250E+00    0.9575943708E-04
    0.4700000000E+05    0.1972967618E-01    0.6958975783E+00    0.3393175687E-01    0.2937775557E+00    0.9599125184E-04
    0.4900000000E+05    0.1948450883E-01    0.6958991866E+00    0.3406989994E-01    0.2996015842E+00    0.9621392672E-04
    0.1000000000E+05    0.1616819428E-01    0.6957404723E+00    0.1902791903E-01    0.1143624589E+00    0.8807107973E-04
    0.3000000000E+05    0.2117088844E-01    0.6958745773E+00    0.3119749983E-01    0.2334008972E+00    0.9362442624E-04
    0.5000000000E+05    0.1935952472E-01    0.6958999393E+00    0.3412915244E-01    0.3024352233E+00    0.9632206261E-04
    0.7000000000E+05    0.1677155319E-01    0.6959101927E+00    0.3434862209E-01    0.3503213225E+00    0.9814088644E-04
    0.9000000000E+05    0.1439920549E-01    0.6959155435E+00    0.3355544536E-01    0.3863387983E+00    0.9952162420E-04
    0.1100000000E+06    0.1239666311E-01    0.6959187262E+00    0.3236326219E-01    0.4147139311E+00    0.1006379982E-03
    0.1300000000E+06    0.1074050846E-01    0.6959207741E+00    0.3103207485E-01    0.4377643971E+00    0.1015768702E-03
    0.1500000000E+06    0.9373649162E-02    0.6959221608E+00    0.2968123169E-01    0.4569113348E+00    0.1023880644E-03
    0.1700000000E+06    0.8240457699E-02    0.6959231325E+00    0.2836700159E-01    0.4730921283E+00    0.1031028727E-03
    0.1900000000E+06    0.7294452663E-02    0.6959238291E+00    0.2711516855E-01    0.4869574980E+00    0.1037422624E-03
    0.2100000000E+06    0.6498613254E-02    0.6959243355E+00    0.2593611022E-01    0.4989766025E+00    0.1043209831E-03
    0.2300000000E+06    0.5823901584E-02    0.6959247062E+00    0.2483225528E-01    0.5094977836E+00    0.1048498128E-03
    0.2500000000E+06    0.5247595223E-02    0.6959249771E+00    0.2380194773E-01    0.5187858649E+00    0.1053368712E-03
    0.2700000000E+06    0.4751853752E-02    0.6959251734E+00    0.2284151277E-01    0.5270461537E+00    0.1057884301E-03
    0.2900000000E+06    0.4322585531E-02    0.6959253128E+00    0.2194638138E-01    0.5344404744E+00    0.1062094374E-03
    0.3100000000E+06    0.3948579906E-02    0.6959254080E+00    0.2111170521E-01    0.5410982112E+00    0.1066038658E-03
    0.3300000000E+06    0.3620850242E-02    0.6959254686E+00    0.2033268868E-01    0.5471241100E+00    0.1069749548E-03
    0.3500000000E+06    0.3332137555E-02    0.6959255017E+00    0.1960476165E-01    0.5526039103E+00    0.1073253808E-03
    0.3700000000E+06    0.3076534486E-02    0.6959255130E+00    0.1892366150E-01    0.5576084884E+00    0.1076573814E-03
    0.3900000000E+06    0.2849198968E-02    0.6959255065E+00    0.1828546377E-01    0.5621969557E+00    0.1079728466E-03
    0.4100000000E+06    0.2646134804E-02    0.6959254857E+00    0.1768658401E-01    0.5664190083E+00    0.1082733873E-03
    0.4300000000E+06    0.2464022336E-02    0.6959254532E+00    0.1712376423E-01    0.5703167338E+00    0.1085603881E-03
    0.4500000000E+06    0.2300086841E-02    0.6959254112E+00    0.1659405139E-01    0.5739260154E+00    0.1088350480E-03
    0.4700000000E+06    0.2151995494E-02    0.6959253614E+00    0.1609477276E-01    0.5772776355E+00    0.1090984121E-03
    0.4900000000E+06    0.2017776149E-02    0.6959253051E+00    0.1562351053E-01    0.5803981517E+00    0.1093513971E-03
    0.1000000000E+06    0.1335159566E-01    0.6959173215E+00    0.3298823502E-01    0.4013084673E+00    0.1001062200E-03
    0.3000000000E+06    0.4129282192E-02    0.6959253652E+00    0.2152178995E-01    0.5378543663E+00    0.1064097566E-03
    0.5000000000E+06    0.1955334655E-02    0.6959252749E+00    0.1539769361E-01    0.5818790652E+00    0.1094742538E-03
    0.7000000000E+06    0.1136842108E-02    0.6959245245E+00    0.1192101059E-01    0.6036163974E+00    0.1115408117E-03
    0.9000000000E+06    0.7432352897E-03    0.6959237094E+00    0.9705974246E-02    0.6165531877E+00    0.1131097435E-03
    0.1100000000E+07    0.5241142010E-03    0.6959229347E+00    0.8177029425E-02    0.6251270874E+00    0.1143783372E-03
    0.1300000000E+07    0.3896508304E-03    0.6959222194E+00    0.7060053502E-02    0.6312236688E+00    0.1154452571E-03
    0.1500000000E+07    0.3011971373E-03    0.6959215626E+00    0.6209103570E-02    0.6357796105E+00    0.1163671040E-03
    0.1700000000E+07    0.2398955567E-03    0.6959209583E+00    0.5539642804E-02    0.6393126001E+00    0.1171794288E-03
    0.1900000000E+07    0.1956525615E-03    0.6959204002E+00    0.4999416244E-02    0.6421319285E+00    0.1179060538E-03
    0.2100000000E+07    0.1626674923E-03    0.6959198824E+00    0.4554421844E-02    0.6444337117E+00    0.1185637378E-03
    0.2300000000E+07    0.1374133590E-03    0.6959193997E+00    0.4181597013E-02    0.6463482921E+00    0.1191647275E-03
    0.2500000000E+07    0.1176449842E-03    0.6959189480E+00    0.3864754484E-02    0.6479656656E+00    0.1197182488E-03
    0.2700000000E+07    0.1018777169E-03    0.6959185235E+00    0.3592202007E-02    0.6493499641E+00    0.1202314287E-03
    0.2900000000E+07    0.8909779085E-04    0.6959181232E+00    0.3355285598E-02    0.6505481194E+00    0.1207098896E-03
    0.3100000000E+07    0.7859371411E-04    0.6959177445E+00    0.3147464168E-02    0.6515952646E+00    0.1211581458E-03
    0.3300000000E+07    0.6985414368E-04    0.6959173853E+00    0.2963702573E-02    0.6525182208E+00    0.1215798784E-03
    0.3500000000E+07    0.6250387980E-04    0.6959170435E+00    0.2800062321E-02    0.6533378168E+00    0.1219781291E-03
    0.3700000000E+07    0.5626253953E-04    0.6959167176E+00    0.2653418753E-02    0.6540704735E+00    0.1223554405E-03
    0.3900000000E+07    0.5091716645E-04    0.6959164061E+00    0.2521261383E-02    0.6547293105E+00    0.1227139603E-03
    0.4100000000E+07    0.4630365133E-04    0.6959161079E+00    0.2401550225E-02    0.6553249360E+00    0.1230555192E-03
    0.4300000000E+07    0.4229386598E-04    0.6959158217E+00    0.2292610605E-02    0.6558660198E+00    0.1233816907E-03
    0.4500000000E+07    0.3878658650E-04    0.6959155467E+00    0.2193054977E-02    0.6563597165E+00    0.1236938374E-03
    0.4700000000E+07    0.3570098145E-04    0.6959152820E+00    0.2101723971E-02    0.6568119827E+00    0.1239931469E-03
    0.4900000000E+07    0.3297186854E-04    0.6959150268E+00    0.2017641384E-02    0.6572278174E+00    0.1242806609E-03
    0.1000000000E+07    0.6193130540E-03    0.6959233150E+00    0.8877102943E-02    0.6212352200E+00    0.1137740445E-03
    0.3000000000E+07    0.8359703218E-04    0.6959179313E+00    0.3248082453E-02    0.6510887287E+00    0.1209375462E-03
    0.5000000000E+07    0.3172402476E-04    0.6959149026E+00    0.1978054549E-02    0.6574234197E+00    0.1244202860E-03
    0.7000000000E+07    0.1664641275E-04    0.6959127869E+00    0.1419414080E-02    0.6601722047E+00    0.1267689095E-03
    0.9000000000E+07    0.1025987908E-04    0.6959111538E+00    0.1105715144E-02    0.6617070816E+00    0.1285519919E-03
    0.1100000000E+08    0.6964386805E-05    0.6959098201E+00    0.9050016324E-03    0.6626863388E+00    0.1299937439E-03
    0.1300000000E+08    0.5041930470E-05    0.6959086910E+00    0.7656246863E-03    0.6633652664E+00    0.1312062954E-03
    0.1500000000E+08    0.3822227317E-05    0.6959077106E+00    0.6632346894E-03    0.6638635714E+00    0.1322539722E-03
    0.1700000000E+08    0.2999569046E-05    0.6959068435E+00    0.5848559090E-03    0.6642448230E+00    0.1331771776E-03
    0.1900000000E+08    0.2418237389E-05    0.6959060655E+00    0.5229423378E-03    0.6645459015E+00    0.1340029853E-03
    0.2100000000E+08    0.1992081249E-05    0.6959053596E+00    0.4728077076E-03    0.6647896720E+00    0.1347504418E-03
    0.2300000000E+08    0.1670272633E-05    0.6959047132E+00    0.4313886062E-03    0.6649910625E+00    0.1354334652E-03
    0.2500000000E+08    0.1421238340E-05    0.6959041167E+00    0.3965982754E-03    0.6651602325E+00    0.1360625408E-03
    0.2700000000E+08    0.1224519522E-05    0.6959035629E+00    0.3669663160E-03    0.6653043358E+00    0.1366457685E-03
