  Pressure (Pa) 23mC5-500 (mol/kg) 24mC5-500 (mol/kg) 2mC6-500 (mol/kg) 3mC6-500 (mol/kg) C7-500 (mol/kg)
    0.1000000000E+01    0.5503614361E-05    0.9950148074E-01    0.3140362933E-05    0.5388624349E-05    0.4169806773E-02
    0.3000000000E+01    0.1214407133E-04    0.2321212774E+00    0.6663954904E-05    0.1355992081E-04    0.4200980965E-02
    0.5000000000E+01    0.1592298940E-04    0.3164871742E+00    0.8530961374E-05    0.2102754313E-04    0.4216722943E-02
    0.7000000000E+01    0.1830024232E-04    0.3748816840E+00    0.9661144873E-05    0.2815994021E-04    0.4227072326E-02
    0.9000000000E+01    0.1991242204E-04    0.4176979325E+00    0.1043002284E-04    0.3508023958E-04    0.4234451470E-02
    0.1100000000E+02    0.2107558092E-04    0.4504362265E+00    0.1101146303E-04    0.4184973646E-04    0.4239965676E-02
    0.1300000000E+02    0.2196123734E-04    0.4762801432E+00    0.1149292104E-04    0.4850478142E-04    0.4244219959E-02
    0.1500000000E+02    0.2266879720E-04    0.4972000891E+00    0.1192103054E-04    0.5506925997E-04    0.4247579092E-02
    0.1700000000E+02    0.2325885899E-04    0.5144809191E+00    0.1232170881E-04    0.6155997427E-04    0.4250277693E-02
    0.1900000000E+02    0.2376986815E-04    0.5289962294E+00    0.1270977036E-04    0.6798933546E-04    0.4252474096E-02
    0.2100000000E+02    0.2422701153E-04    0.5413607128E+00    0.1309382229E-04    0.7436685502E-04    0.4254279261E-02
    0.2300000000E+02    0.2464722721E-04    0.5520194557E+00    0.1347888531E-04    0.8070003523E-04    0.4255773379E-02
    0.2500000000E+02    0.2504215298E-04    0.5613026607E+00    0.1386785548E-04    0.8699493226E-04    0.4257015906E-02
    0.2700000000E+02    0.2541992702E-04    0.5694604670E+00    0.1426234695E-04    0.9325652898E-04    0.4258051895E-02
    0.2900000000E+02    0.2578632257E-04    0.5766858296E+00    0.1466319138E-04    0.9948899119E-04    0.4258916133E-02
    0.3100000000E+02    0.2614548272E-04    0.5831299767E+00    0.1507074052E-04    0.1056958492E-03    0.4259635916E-02
    0.3300000000E+02    0.2650040735E-04    0.5889131112E+00    0.1548505283E-04    0.1118801300E-03    0.4260232980E-02
    0.3500000000E+02    0.2685328275E-04    0.5941319783E+00    0.1590601015E-04    0.1180444554E-03    0.4260724849E-02
    0.3700000000E+02    0.2720570869E-04    0.5988653220E+00    0.1633339136E-04    0.1241911172E-03    0.4261125816E-02
    0.3900000000E+02    0.2755885741E-04    0.6031778855E+00    0.1676691908E-04    0.1303221342E-03    0.4261447655E-02
    0.4100000000E+02    0.2791358655E-04    0.6071233908E+00    0.1720628938E-04    0.1364392976E-03    0.4261700162E-02
    0.4300000000E+02    0.2827052041E-04    0.6107467880E+00    0.1765119039E-04    0.1425442067E-03    0.4261891546E-02
    0.4500000000E+02    0.2863010900E-04    0.6140859755E+00    0.1810131401E-04    0.1486382982E-03    0.4262028749E-02
    0.4700000000E+02    0.2899267155E-04    0.6171731306E+00    0.1855636285E-04    0.1547228688E-03    0.4262117675E-02
    0.4900000000E+02    0.2935842864E-04    0.6200357498E+00    0.1901605430E-04    0.1607990950E-03    0.4262163381E-02
    0.1000000000E+02    0.2053714801E-04    0.4350905273E+00    0.1073739849E-04    0.3848118094E-04    0.4237396322E-02
    0.3000000000E+02    0.2596659725E-04    0.5799974163E+00    0.1486611896E-04    0.1025954210E-03    0.4259292610E-02
    0.5000000000E+02    0.2954255318E-04    0.6213903770E+00    0.1924755726E-04    0.1638344177E-03    0.4262171414E-02
    0.7000000000E+02    0.3340540820E-04    0.6409964631E+00    0.2406636360E-04    0.2243203083E-03    0.4260859414E-02
    0.9000000000E+02    0.3758137219E-04    0.6524330337E+00    0.2914683021E-04    0.2847882503E-03    0.4257881670E-02
    0.1100000000E+03    0.4201152336E-04    0.6599258169E+00    0.3440980756E-04    0.3456214755E-03    0.4254037887E-02
    0.1300000000E+03    0.4665197241E-04    0.6652147535E+00    0.3982012441E-04    0.4070622071E-03    0.4249661553E-02
    0.1500000000E+03    0.5147482111E-04    0.6691474901E+00    0.4536209450E-04    0.4692833026E-03    0.4244915694E-02
    0.1700000000E+03    0.5646288500E-04    0.6721863739E+00    0.5102936927E-04    0.5324191982E-03    0.4239888522E-02
    0.1900000000E+03    0.6160584451E-04    0.6746050370E+00    0.5682043693E-04    0.5965814087E-03    0.4234631060E-02
    0.2100000000E+03    0.6689785066E-04    0.6765757651E+00    0.6273647272E-04    0.6618671367E-03    0.4229174078E-02
    0.2300000000E+03    0.7233605807E-04    0.6782124418E+00    0.6878024645E-04    0.7283644390E-03    0.4223536508E-02
    0.2500000000E+03    0.7791971233E-04    0.6795933615E+00    0.7495553952E-04    0.7961555255E-03    0.4217729950E-02
    0.2700000000E+03    0.8364956976E-04    0.6807741248E+00    0.8126682242E-04    0.8653189777E-03    0.4211761242E-02
    0.2900000000E+03    0.8952752045E-04    0.6817953047E+00    0.8771907221E-04    0.9359313103E-03    0.4205633993E-02
    0.3100000000E+03    0.9555633878E-04    0.6826872026E+00    0.9431766864E-04    0.1008068117E-02    0.4199349533E-02
    0.3300000000E+03    0.1017395161E-03    0.6834729053E+00    0.1010683361E-03    0.1081804944E-02    0.4192907527E-02
    0.3500000000E+03    0.1080811479E-03    0.6841703113E+00    0.1079771129E-03    0.1157217984E-02    0.4186306377E-02
    0.3700000000E+03    0.1145858570E-03    0.6847935111E+00    0.1150503385E-03    0.1234384642E-02    0.4179543489E-02
    0.3900000000E+03    0.1212587431E-03    0.6853537484E+00    0.1222946511E-03    0.1313384023E-02    0.4172615462E-02
    0.4100000000E+03    0.1281053498E-03    0.6858601047E+00    0.1297169927E-03    0.1394297355E-02    0.4165518217E-02
    0.4300000000E+03    0.1351316449E-03    0.6863199953E+00    0.1373246204E-03    0.1477208373E-02    0.4158247076E-02
    0.4500000000E+03    0.1423440109E-03    0.6867395343E+00    0.1451251203E-03    0.1562203680E-02    0.4150796833E-02
    0.4700000000E+03    0.1497492421E-03    0.6871238084E+00    0.1531264250E-03    0.1649373094E-02    0.4143161784E-02
    0.4900000000E+03    0.1573545488E-03    0.6874770837E+00    0.1613368336E-03    0.1738809973E-02    0.4135335760E-02
    0.1000000000E+03    0.3976785636E-04    0.6565328743E+00    0.3175834346E-04    0.3151419014E-03    0.4256041345E-02
    0.3000000000E+03    0.9252286821E-04    0.6822558295E+00    0.9099972694E-04    0.9718044404E-03    0.4202511402E-02
    0.5000000000E+03    0.1612345993E-03    0.6876432456E+00    0.1655231508E-03    0.1784408940E-02    0.4131349080E-02
    0.7000000000E+03    0.2514918029E-03    0.6899776920E+00    0.2626318233E-03    0.2842140106E-02    0.4039691740E-02
    0.9000000000E+03    0.3742393462E-03    0.6912811038E+00    0.3943878555E-03    0.4278370891E-02    0.3917868496E-02
    0.1100000000E+04    0.5485949629E-03    0.6921128655E+00    0.5814851211E-03    0.6320543756E-02    0.3749102328E-02
    0.1300000000E+04    0.8092272345E-03    0.6926896930E+00    0.8613765185E-03    0.9380635640E-02    0.3503861674E-02
    0.1500000000E+04    0.1220267705E-02    0.6931131735E+00    0.1303476536E-02    0.1422428757E-01    0.3130071744E-02
    0.1700000000E+04    0.1889886128E-02    0.6934372529E+00    0.2025497451E-02    0.2215736378E-01    0.2548075367E-02
    0.1900000000E+04    0.2912637702E-02    0.6936932316E+00    0.3132886146E-02    0.3437878355E-01    0.1718031012E-02
    0.2100000000E+04    0.4088083137E-02    0.6939005188E+00    0.4415565502E-02    0.4864970271E-01    0.8746286215E-03
    0.2300000000E+04    0.4964871132E-02    0.6940717888E+00    0.5387707469E-02    0.5964175844E-01    0.3905514731E-03
    0.2500000000E+04    0.5504194955E-02    0.6942156693E+00    0.6002321471E-02    0.6678042037E-01    0.2208236070E-03
    0.2700000000E+04    0.5888456862E-02    0.6943382367E+00    0.6453275228E-02    0.7216454306E-01    0.1739915346E-03
    0.2900000000E+04    0.6215146815E-02    0.6944438941E+00    0.6845119715E-02    0.7693699587E-01    0.1622933425E-03
    0.3100000000E+04    0.6516151314E-02    0.6945359104E+00    0.7212114262E-02    0.8147324507E-01    0.1597351582E-03
    0.3300000000E+04    0.6800868559E-02    0.6946167629E+00    0.7564268655E-02    0.8588221565E-01    0.1594889634E-03
    0.3500000000E+04    0.7072257530E-02    0.6946883638E+00    0.7904619958E-02    0.9019583437E-01    0.1598114290E-03
    0.3700000000E+04    0.7331502879E-02    0.6947522122E+00    0.8234282027E-02    0.9442474917E-01    0.1602599840E-03
    0.3900000000E+04    0.7579291920E-02    0.6948095000E+00    0.8553834378E-02    0.9857373220E-01    0.1607231214E-03
    0.4100000000E+04    0.7816159811E-02    0.6948611869E+00    0.8863699034E-02    0.1026458766E+00    0.1611737667E-03
    0.4300000000E+04    0.8042583407E-02    0.6949080542E+00    0.9164243056E-02    0.1066437404E+00    0.1616063674E-03
    0.4500000000E+04    0.8259007538E-02    0.6949507442E+00    0.9455806996E-02    0.1105696622E+00    0.1620207645E-03
    0.4700000000E+04    0.8465853033E-02    0.6949897903E+00    0.9738713264E-02    0.1144258507E+00    0.1624180474E-03
    0.4900000000E+04    0.8663519770E-02    0.6950256386E+00    0.1001326901E-01    0.1182144137E+00    0.1627994974E-03
    0.1000000000E+04    0.4532890270E-03    0.6917383567E+00    0.4792073404E-03    0.5203804699E-02    0.3840805310E-02
    0.3000000000E+04    0.6368021348E-02    0.6944914371E+00    0.7030826050E-02    0.7922484242E-01    0.1605009069E-03
    0.5000000000E+04    0.8759030749E-02    0.6950424836E+00    0.1014750760E-01    0.1200839696E+00    0.1629846696E-03
    0.7000000000E+04    0.1027072038E-01    0.6952779517E+00    0.1245861435E-01    0.1543733028E+00    0.1660929819E-03
    0.9000000000E+04    0.1120130445E-01    0.6954082880E+00    0.1419909635E-01    0.1837497354E+00    0.1684463096E-03
    0.1100000000E+05    0.1173840885E-01    0.6954908988E+00    0.1552204279E-01    0.2093182274E+00    0.1703461320E-03
    0.1300000000E+05    0.1200511682E-01    0.6955478519E+00    0.1653236731E-01    0.2318611132E+00    0.1719422978E-03
    0.1500000000E+05    0.1208424824E-01    0.6955894372E+00    0.1730413562E-01    0.2519493493E+00    0.1733204442E-03
    0.1700000000E+05    0.1203270338E-01    0.6956210970E+00    0.1789096877E-01    0.2700105983E+00    0.1745342208E-03
    0.1900000000E+05    0.1189024678E-01    0.6956459788E+00    0.1833253160E-01    0.2863724823E+00    0.1756195103E-03
    0.2100000000E+05    0.1168505476E-01    0.6956660286E+00    0.1865871498E-01    0.3012909647E+00    0.1766015199E-03
    0.2300000000E+05    0.1143731343E-01    0.6956825143E+00    0.1889241005E-01    0.3149695054E+00    0.1774986490E-03
    0.2500000000E+05    0.1116160695E-01    0.6956962969E+00    0.1905139546E-01    0.3275723162E+00    0.1783247468E-03
    0.2700000000E+05    0.1086853530E-01    0.6957079814E+00    0.1914965032E-01    0.3392337390E+00    0.1790905038E-03
    0.2900000000E+05    0.1056582977E-01    0.6957180054E+00    0.1919828597E-01    0.3500650141E+00    0.1798043477E-03
    0.3100000000E+05    0.1025913434E-01    0.6957266933E+00    0.1920621918E-01    0.3601592534E+00    0.1804730425E-03
    0.3300000000E+05    0.9952560617E-02    0.6957342903E+00    0.1918066643E-01    0.3695951549E+00    0.1811021010E-03
    0.3500000000E+05    0.9649086951E-02    0.6957409854E+00    0.1912751214E-01    0.3784398180E+00    0.1816960765E-03
    0.3700000000E+05    0.9350848495E-02    0.6957469265E+00    0.1905158657E-01    0.3867509070E+00    0.1822587740E-03
    0.3900000000E+05    0.9059350166E-02    0.6957522311E+00    0.1895687823E-01    0.3945783339E+00    0.1827934068E-03
    0.4100000000E+05    0.8775624280E-02    0.6957569936E+00    0.1884669785E-01    0.4019655830E+00    0.1833027129E-03
    0.4300000000E+05    0.8500348136E-02    0.6957612906E+00    0.1872380638E-01    0.4089507647E+00    0.1837890452E-03
    0.4500000000E+05    0.8233932288E-02    0.6957651851E+00    0.1859051571E-01    0.4155674608E+00    0.1842544406E-03
    0.4700000000E+05    0.7976587191E-02    0.6957687294E+00    0.1844876871E-01    0.4218454109E+00    0.1847006743E-03
    0.4900000000E+05    0.7728373759E-02    0.6957719670E+00    0.1830020323E-01    0.4278110728E+00    0.1851293031E-03
    0.1000000000E+05    0.1151018405E-01    0.6954537658E+00    0.1490532234E-01    0.1969550925E+00    0.1694414454E-03
    0.3000000000E+05    0.1041269320E-01    0.6957224995E+00    0.1920685432E-01    0.3551990434E+00    0.1801439687E-03
    0.5000000000E+05    0.7607679234E-02    0.6957734824E+00    0.1822380489E-01    0.4306842815E+00    0.1853374512E-03
    0.7000000000E+05    0.5629492737E-02    0.6957941567E+00    0.1657867845E-01    0.4763564232E+00    0.1888381464E-03
    0.9000000000E+05    0.4294307830E-02    0.6958049815E+00    0.1499630291E-01    0.5071978324E+00    0.1914953437E-03
    0.1100000000E+06    0.3371158517E-02    0.6958114440E+00    0.1360803588E-01    0.5294681879E+00    0.1936436342E-03
    0.1300000000E+06    0.2712079388E-02    0.6958156200E+00    0.1241675141E-01    0.5463131462E+00    0.1954502707E-03
    0.1500000000E+06    0.2227138980E-02    0.6958184617E+00    0.1139698371E-01    0.5595007282E+00    0.1970111739E-03
    0.1700000000E+06    0.1860767169E-02    0.6958204644E+00    0.1052028370E-01    0.5701045234E+00    0.1983865799E-03
    0.1900000000E+06    0.1577580774E-02    0.6958219101E+00    0.9761575151E-02    0.5788150822E+00    0.1996168468E-03
    0.2100000000E+06    0.1354336582E-02    0.6958229701E+00    0.9100205697E-02    0.5860970152E+00    0.2007303638E-03
    0.2300000000E+06    0.1175314885E-02    0.6958237540E+00    0.8519540581E-02    0.5922744807E+00    0.2017478741E-03
    0.2500000000E+06    0.1029600840E-02    0.6958243350E+00    0.8006250206E-02    0.5975805406E+00    0.2026850041E-03
    0.2700000000E+06    0.9094355640E-03    0.6958247635E+00    0.7549630388E-02    0.6021870561E+00    0.2035538244E-03
    0.2900000000E+06    0.8091867876E-03    0.6958250755E+00    0.7141038191E-02    0.6062235317E+00    0.2043638563E-03
    0.3100000000E+06    0.7246887288E-03    0.6958252970E+00    0.6773446616E-02    0.6097893998E+00    0.2051227453E-03
    0.3300000000E+06    0.6528081546E-03    0.6958254472E+00    0.6441099780E-02    0.6129622654E+00    0.2058367249E-03
    0.3500000000E+06    0.5911526363E-03    0.6958255408E+00    0.6139247417E-02    0.6158035797E+00    0.2065109458E-03
    0.3700000000E+06    0.5378703468E-03    0.6958255890E+00    0.5863940300E-02    0.6183626323E+00    0.2071497136E-03
    0.3900000000E+06    0.4915100918E-03    0.6958256005E+00    0.5611871930E-02    0.6206794152E+00    0.2077566651E-03
    0.4100000000E+06    0.4509217788E-03    0.6958255820E+00    0.5380255319E-02    0.6227867154E+00    0.2083349001E-03
    0.4300000000E+06    0.4151845315E-03    0.6958255391E+00    0.5166726436E-02    0.6247116656E+00    0.2088870831E-03
    0.4500000000E+06    0.3835540293E-03    0.6958254760E+00    0.4969268011E-02    0.6264769120E+00    0.2094155209E-03
    0.4700000000E+06    0.3554234213E-03    0.6958253964E+00    0.4786148973E-02    0.6281015042E+00    0.2099222248E-03
    0.4900000000E+06    0.3302939643E-03    0.6958253030E+00    0.4615875982E-02    0.6296015812E+00    0.2104089584E-03
    0.1000000000E+06    0.3792187677E-02    0.6958085886E+00    0.1427650707E-01    0.5191631666E+00    0.1926203227E-03
    0.3000000000E+06    0.7651849826E-03    0.6958251962E+00    0.6952503411E-02    0.6080600062E+00    0.2047492754E-03
    0.5000000000E+06    0.3187227693E-03    0.6958252520E+00    0.4535145319E-02    0.6303093082E+00    0.2106453298E-03
    0.7000000000E+06    0.1742931731E-03    0.6958239060E+00    0.3356315214E-02    0.6404000601E+00    0.2146212702E-03
    0.9000000000E+06    0.1099515275E-03    0.6958223910E+00    0.2660765399E-02    0.6461547999E+00    0.2176397708E-03
    0.1100000000E+07    0.7575343930E-04    0.6958209334E+00    0.2202506744E-02    0.6498724776E+00    0.2200804264E-03
    0.1300000000E+07    0.5541034958E-04    0.6958195794E+00    0.1878051927E-02    0.6524714297E+00    0.2221330695E-03
    0.1500000000E+07    0.4232354375E-04    0.6958183311E+00    0.1636380775E-02    0.6543902829E+00    0.2239065999E-03
    0.1700000000E+07    0.3340499247E-04    0.6958171798E+00    0.1449457901E-02    0.6558649418E+00    0.2254694167E-03
    0.1900000000E+07    0.2705192395E-04    0.6958161143E+00    0.1300609319E-02    0.6570335503E+00    0.2268673532E-03
    0.2100000000E+07    0.2236478562E-04    0.6958151243E+00    0.1179300717E-02    0.6579823686E+00    0.2281326530E-03
    0.2300000000E+07    0.1880680035E-04    0.6958142005E+00    0.1078551688E-02    0.6587680349E+00    0.2292888775E-03
    0.2500000000E+07    0.1604145441E-04    0.6958133351E+00    0.9935546041E-03    0.6594292729E+00    0.2303537771E-03
    0.2700000000E+07    0.1384902768E-04    0.6958125212E+00    0.9208908168E-03    0.6599934544E+00    0.2313410640E-03
    0.2900000000E+07    0.1208108372E-04    0.6958117532E+00    0.8580631601E-03    0.6604804737E+00    0.2322615545E-03
    0.3100000000E+07    0.1063439264E-04    0.6958110262E+00    0.8032052771E-03    0.6609051378E+00    0.2331239345E-03
    0.3300000000E+07    0.9435347473E-05    0.6958103362E+00    0.7548943957E-03    0.6612786940E+00    0.2339352859E-03
    0.3500000000E+07    0.8430309748E-05    0.6958096794E+00    0.7120270194E-03    0.6616098390E+00    0.2347014605E-03
    0.3700000000E+07    0.7579438368E-05    0.6958090529E+00    0.6737341850E-03    0.6619054030E+00    0.2354273503E-03
    0.3900000000E+07    0.6852635563E-05    0.6958084539E+00    0.6393223382E-03    0.6621708246E+00    0.2361170871E-03
    0.4100000000E+07    0.6226818383E-05    0.6958078801E+00    0.6082312287E-03    0.6624104883E+00    0.2367741932E-03
    0.4300000000E+07    0.5684042356E-05    0.6958073295E+00    0.5800033724E-03    0.6626279677E+00    0.2374016958E-03
    0.4500000000E+07    0.5210186033E-05    0.6958068001E+00    0.5542615377E-03    0.6628262049E+00    0.2380022161E-03
    0.4700000000E+07    0.4794012581E-05    0.6958062904E+00    0.5306918983E-03    0.6630076439E+00    0.2385780393E-03
    0.4900000000E+07    0.4426489707E-05    0.6958057990E+00    0.5090312581E-03    0.6631743317E+00    0.2391311694E-03
    0.1000000000E+07    0.9045857752E-04    0.6958216504E+00    0.2410241323E-02    0.6481941855E+00    0.2189178256E-03
    0.3000000000E+07    0.1132274170E-04    0.6958113849E+00    0.8297356227E-03    0.6606998275E+00    0.2326995331E-03
    0.5000000000E+07    0.4258626623E-05    0.6958055597E+00    0.4988459468E-03    0.6632526945E+00    0.2393997853E-03
    0.7000000000E+07    0.2239723617E-05    0.6958014808E+00    0.3559729278E-03    0.6643509945E+00    0.2439181362E-03
    0.9000000000E+07    0.1389838312E-05    0.6957983278E+00    0.2764396113E-03    0.6649620161E+00    0.2473484630E-03
    0.1100000000E+08    0.9522459209E-06    0.6957957504E+00    0.2258108035E-03    0.6653510861E+00    0.2501221202E-03
    0.1300000000E+08    0.6970074372E-06    0.6957935667E+00    0.1907716980E-03    0.6656205173E+00    0.2524548307E-03
    0.1500000000E+08    0.5348942423E-06    0.6957916695E+00    0.1650923127E-03    0.6658181235E+00    0.2544703487E-03
    0.1700000000E+08    0.4253426874E-06    0.6957899905E+00    0.1454698829E-03    0.6659692391E+00    0.2562464041E-03
    0.1900000000E+08    0.3477321541E-06    0.6957884834E+00    0.1299909548E-03    0.6660885396E+00    0.2578350828E-03
    0.2100000000E+08    0.2906676593E-06    0.6957871154E+00    0.1174706620E-03    0.6661851128E+00    0.2592730274E-03
    0.2300000000E+08    0.2474303158E-06    0.6957858622E+00    0.1071362299E-03    0.6662648868E+00    0.2605870140E-03
    0.2500000000E+08    0.2138472112E-06    0.6957847055E+00    0.9846223179E-04    0.6663318935E+00    0.2617972148E-03
    0.2700000000E+08    0.1872139521E-06    0.6957836310E+00    0.9107900393E-04    0.6663889703E+00    0.2629192128E-03
