  Pressure (Pa) 23mC5-500 (mol/kg) 24mC5-500 (mol/kg) 2mC6-500 (mol/kg) 3mC6-500 (mol/kg) C7-500 (mol/kg)
    0.1000000000E+01    0.5286557866E-05    0.1266350873E+00    0.6068274957E-05    0.5104096098E-05    0.4146643443E-02
    0.3000000000E+01    0.1090098978E-04    0.2785366467E+00    0.1199616385E-04    0.1259672966E-04    0.4173891158E-02
    0.5000000000E+01    0.1376174592E-04    0.3664505540E+00    0.1483980403E-04    0.1938991832E-04    0.4182365923E-02
    0.7000000000E+01    0.1546222970E-04    0.4237748177E+00    0.1654875133E-04    0.2585297894E-04    0.4186839691E-02
    0.9000000000E+01    0.1659597214E-04    0.4641092500E+00    0.1778471971E-04    0.3210793045E-04    0.4189561086E-02
    0.1100000000E+02    0.1742620103E-04    0.4940323525E+00    0.1881279361E-04    0.3821515597E-04    0.4191319830E-02
    0.1300000000E+02    0.1808368798E-04    0.5171145526E+00    0.1975043789E-04    0.4421031893E-04    0.4192483957E-02
    0.1500000000E+02    0.1863882933E-04    0.5354611638E+00    0.2065308634E-04    0.5011678032E-04    0.4193252466E-02
    0.1700000000E+02    0.1913183903E-04    0.5503939754E+00    0.2154781148E-04    0.5595093195E-04    0.4193743603E-02
    0.1900000000E+02    0.1958674993E-04    0.5627847283E+00    0.2244791672E-04    0.6172485620E-04    0.4194032459E-02
    0.2100000000E+02    0.2001843264E-04    0.5732316341E+00    0.2335973564E-04    0.6744779572E-04    0.4194169168E-02
    0.2300000000E+02    0.2043633778E-04    0.5821588553E+00    0.2428598011E-04    0.7312702891E-04    0.4194188539E-02
    0.2500000000E+02    0.2084659367E-04    0.5898755129E+00    0.2522746018E-04    0.7876842275E-04    0.4194115522E-02
    0.2700000000E+02    0.2125323180E-04    0.5966122123E+00    0.2618399568E-04    0.8437679803E-04    0.4193968480E-02
    0.2900000000E+02    0.2165892793E-04    0.6025444832E+00    0.2715491017E-04    0.8995618014E-04    0.4193761231E-02
    0.3100000000E+02    0.2206546364E-04    0.6078082957E+00    0.2813930181E-04    0.9550997647E-04    0.4193504373E-02
    0.3300000000E+02    0.2247402111E-04    0.6125106105E+00    0.2913619200E-04    0.1010411055E-03    0.4193206170E-02
    0.3500000000E+02    0.2288537539E-04    0.6167367236E+00    0.3014460586E-04    0.1065520926E-03    0.4192873158E-02
    0.3700000000E+02    0.2330002225E-04    0.6205554873E+00    0.3116361418E-04    0.1120451429E-03    0.4192510577E-02
    0.3900000000E+02    0.2371826451E-04    0.6240230906E+00    0.3219235348E-04    0.1175221971E-03    0.4192122672E-02
    0.4100000000E+02    0.2414027111E-04    0.6271858424E+00    0.3323003356E-04    0.1229849755E-03    0.4191712920E-02
    0.4300000000E+02    0.2456611811E-04    0.6300822518E+00    0.3427593831E-04    0.1284350130E-03    0.4191284191E-02
    0.4500000000E+02    0.2499581724E-04    0.6327446041E+00    0.3532942270E-04    0.1338736869E-03    0.4190838878E-02
    0.4700000000E+02    0.2542933616E-04    0.6352001689E+00    0.3638990794E-04    0.1393022393E-03    0.4190378991E-02
    0.4900000000E+02    0.2586661271E-04    0.6374721380E+00    0.3745687586E-04    0.1447217964E-03    0.4189906227E-02
    0.1000000000E+02    0.1703890043E-04    0.4801028826E+00    0.1831533220E-04    0.3517739902E-04    0.4190532174E-02
    0.3000000000E+02    0.2186200554E-04    0.6052526803E+00    0.2764548190E-04    0.9273608392E-04    0.4193638440E-02
    0.5000000000E+02    0.2608663511E-04    0.6385455908E+00    0.3799264407E-04    0.1474285256E-03    0.4189665475E-02
    0.7000000000E+02    0.3066076171E-04    0.6539629527E+00    0.4895962286E-04    0.2012985115E-03    0.4184432174E-02
    0.9000000000E+02    0.3550340105E-04    0.6628544721E+00    0.6027057143E-04    0.2550467005E-03    0.4178749109E-02
    0.1100000000E+03    0.4055074083E-04    0.6686398119E+00    0.7183267765E-04    0.3090349956E-03    0.4172840286E-02
    0.1300000000E+03    0.4576735029E-04    0.6727046225E+00    0.8361517287E-04    0.3634898894E-03    0.4166786025E-02
    0.1500000000E+03    0.5113407760E-04    0.6757170650E+00    0.9561081866E-04    0.4185712909E-03    0.4160618470E-02
    0.1700000000E+03    0.5664083294E-04    0.6780389813E+00    0.1078222980E-03    0.4744021751E-03    0.4154350395E-02
    0.1900000000E+03    0.6228277907E-04    0.6798833846E+00    0.1202568331E-03    0.5310834002E-03    0.4147985801E-02
    0.2100000000E+03    0.6805828037E-04    0.6813838432E+00    0.1329238708E-03    0.5887019171E-03    0.4141524362E-02
    0.2300000000E+03    0.7396775416E-04    0.6826283588E+00    0.1458340307E-03    0.6473356831E-03    0.4134963476E-02
    0.2500000000E+03    0.8001300174E-04    0.6836772707E+00    0.1589986137E-03    0.7070567884E-03    0.4128299278E-02
    0.2700000000E+03    0.8619680569E-04    0.6845733335E+00    0.1724293747E-03    0.7679335498E-03    0.4121527158E-02
    0.2900000000E+03    0.9252268084E-04    0.6853476873E+00    0.1861384252E-03    0.8300319758E-03    0.4114642042E-02
    0.3100000000E+03    0.9899471739E-04    0.6860235515E+00    0.2001382018E-03    0.8934168334E-03    0.4107638541E-02
    0.3300000000E+03    0.1056174811E-03    0.6866185921E+00    0.2144414703E-03    0.9581524545E-03    0.4100511028E-02
    0.3500000000E+03    0.1123959499E-03    0.6871464886E+00    0.2290613468E-03    0.1024303368E-02    0.4093253682E-02
    0.3700000000E+03    0.1193354748E-03    0.6876179984E+00    0.2440113303E-03    0.1091934812E-02    0.4085860504E-02
    0.3900000000E+03    0.1264417564E-03    0.6880416973E+00    0.2593053397E-03    0.1161113160E-02    0.4078325317E-02
    0.4100000000E+03    0.1337208334E-03    0.6884245060E+00    0.2749577544E-03    0.1231906297E-02    0.4070641769E-02
    0.4300000000E+03    0.1411790787E-03    0.6887720710E+00    0.2909834576E-03    0.1304383944E-02    0.4062803312E-02
    0.4500000000E+03    0.1488232019E-03    0.6890890449E+00    0.3073978802E-03    0.1378617965E-02    0.4054803199E-02
    0.4700000000E+03    0.1566602559E-03    0.6893792960E+00    0.3242170466E-03    0.1454682649E-02    0.4046634459E-02
    0.4900000000E+03    0.1646976477E-03    0.6896460667E+00    0.3414576224E-03    0.1532654987E-02    0.4038289889E-02
    0.1000000000E+03    0.3800419745E-04    0.6660239491E+00    0.6602296380E-04    0.2819946040E-03    0.4175816196E-02
    0.3000000000E+03    0.9574015384E-04    0.6856967177E+00    0.1931011828E-03    0.8615595778E-03    0.4111155437E-02
    0.5000000000E+03    0.1687938851E-03    0.6897715195E+00    0.3502413341E-03    0.1572381388E-02    0.4034049345E-02
    0.7000000000E+03    0.2633922761E-03    0.6915325918E+00    0.5527917945E-03    0.2488867337E-02    0.3937991994E-02
    0.9000000000E+03    0.3902970253E-03    0.6925147557E+00    0.8242585582E-03    0.3718640851E-02    0.3813206535E-02
    0.1100000000E+04    0.5676181559E-03    0.6931411490E+00    0.1203710406E-02    0.5440111037E-02    0.3644079877E-02
    0.1300000000E+04    0.8270528901E-03    0.6935754139E+00    0.1759468321E-02    0.7965693209E-02    0.3404367491E-02
    0.1500000000E+04    0.1224891648E-02    0.6938941770E+00    0.2613118049E-02    0.1185291945E-01    0.3049826717E-02
    0.1700000000E+04    0.1852923723E-02    0.6941380996E+00    0.3963938446E-02    0.1802057695E-01    0.2515082335E-02
    0.1900000000E+04    0.2799646337E-02    0.6943307623E+00    0.6007837739E-02    0.2738986960E-01    0.1759921378E-02
    0.2100000000E+04    0.3945322364E-02    0.6944867817E+00    0.8497444904E-02    0.3888001319E-01    0.9406664815E-03
    0.2300000000E+04    0.4896765318E-02    0.6946156997E+00    0.1059111501E-01    0.4866765931E-01    0.3915025244E-03
    0.2500000000E+04    0.5513763366E-02    0.6947240103E+00    0.1197935995E-01    0.5530247731E-01    0.1625509606E-03
    0.2700000000E+04    0.5939705514E-02    0.6948162862E+00    0.1296413353E-01    0.6013294307E-01    0.8957266533E-04
    0.2900000000E+04    0.6287816066E-02    0.6948958408E+00    0.1378719107E-01    0.6425486125E-01    0.6859358845E-04
    0.3100000000E+04    0.6602636460E-02    0.6949651332E+00    0.1454400265E-01    0.6810288200E-01    0.6282987861E-04
    0.3300000000E+04    0.6898781405E-02    0.6950260275E+00    0.1526580710E-01    0.7181897730E-01    0.6135677409E-04
    0.3500000000E+04    0.7181028344E-02    0.6950799619E+00    0.1596263013E-01    0.7544796742E-01    0.6108123917E-04
    0.3700000000E+04    0.7451149962E-02    0.6951280641E+00    0.1663800052E-01    0.7900482010E-01    0.6113613856E-04
    0.3900000000E+04    0.7710008537E-02    0.6951712307E+00    0.1729348244E-01    0.8249548205E-01    0.6127828046E-04
    0.4100000000E+04    0.7958180406E-02    0.6952101835E+00    0.1793003244E-01    0.8592314311E-01    0.6143946401E-04
    0.4300000000E+04    0.8196141494E-02    0.6952455101E+00    0.1854840368E-01    0.8929010838E-01    0.6160078258E-04
    0.4500000000E+04    0.8424323048E-02    0.6952776938E+00    0.1914926721E-01    0.9259835987E-01    0.6175726961E-04
    0.4700000000E+04    0.8643129011E-02    0.6953071356E+00    0.1973324923E-01    0.9584972763E-01    0.6190789345E-04
    0.4900000000E+04    0.8852941976E-02    0.6953341712E+00    0.2030094341E-01    0.9904594391E-01    0.6205270987E-04
    0.1000000000E+04    0.4710954936E-03    0.6928591415E+00    0.9971251123E-03    0.4502557665E-02    0.3735502083E-02
    0.3000000000E+04    0.6448103589E-02    0.6949316416E+00    0.1417112712E-01    0.6620058545E-01    0.6479433626E-04
    0.5000000000E+04    0.8954590456E-02    0.6953468768E+00    0.2057886039E-01    0.1006238898E+00    0.6212304083E-04
    0.7000000000E+04    0.1059512061E-01    0.6955246446E+00    0.2540691790E-01    0.1296544549E+00    0.6330453716E-04
    0.9000000000E+04    0.1165861261E-01    0.6956232460E+00    0.2911598892E-01    0.1546823219E+00    0.6419975055E-04
    0.1100000000E+05    0.1232536021E-01    0.6956858775E+00    0.3200129451E-01    0.1766091654E+00    0.6492276600E-04
    0.1300000000E+05    0.1271438161E-01    0.6957291526E+00    0.3426540220E-01    0.1960724130E+00    0.6553039198E-04
    0.1500000000E+05    0.1290641191E-01    0.6957608227E+00    0.3605159679E-01    0.2135366335E+00    0.6605512752E-04
    0.1700000000E+05    0.1295746720E-01    0.6957849899E+00    0.3746387732E-01    0.2293493431E+00    0.6651734674E-04
    0.1900000000E+05    0.1290715095E-01    0.6958040280E+00    0.3857941531E-01    0.2437764102E+00    0.6693068346E-04
    0.2100000000E+05    0.1278390592E-01    0.6958194057E+00    0.3945658041E-01    0.2570252673E+00    0.6730471917E-04
    0.2300000000E+05    0.1260842773E-01    0.6958320806E+00    0.4014026301E-01    0.2692605697E+00    0.6764644974E-04
    0.2500000000E+05    0.1239593776E-01    0.6958427034E+00    0.4066549533E-01    0.2806150272E+00    0.6796114227E-04
    0.2700000000E+05    0.1215772866E-01    0.6958517315E+00    0.4105997132E-01    0.2911970652E+00    0.6825286331E-04
    0.2900000000E+05    0.1190223515E-01    0.6958594963E+00    0.4134583565E-01    0.3010963522E+00    0.6852481932E-04
    0.3100000000E+05    0.1163578826E-01    0.6958662433E+00    0.4154097696E-01    0.3103878594E+00    0.6877958411E-04
    0.3300000000E+05    0.1136315440E-01    0.6958721584E+00    0.4165997802E-01    0.3191348912E+00    0.6901925562E-04
    0.3500000000E+05    0.1108792587E-01    0.6958773850E+00    0.4171482413E-01    0.3273913797E+00    0.6924556686E-04
    0.3700000000E+05    0.1081280701E-01    0.6958820352E+00    0.4171543840E-01    0.3352036472E+00    0.6945996623E-04
    0.3900000000E+05    0.1053982614E-01    0.6958861984E+00    0.4167009112E-01    0.3426117746E+00    0.6966367684E-04
    0.4100000000E+05    0.1027049407E-01    0.6958899461E+00    0.4158571636E-01    0.3496506778E+00    0.6985774112E-04
    0.4300000000E+05    0.1000592362E-01    0.6958933369E+00    0.4146815942E-01    0.3563509620E+00    0.7004305485E-04
    0.4500000000E+05    0.9746920433E-02    0.6958964186E+00    0.4132237192E-01    0.3627396066E+00    0.7022039358E-04
    0.4700000000E+05    0.9494052512E-02    0.6958992309E+00    0.4115256708E-01    0.3688405199E+00    0.7039043327E-04
    0.4900000000E+05    0.9247703723E-02    0.6959018072E+00    0.4096234424E-01    0.3746749907E+00    0.7055376676E-04
    0.1000000000E+05    0.1203303432E-01    0.6956577081E+00    0.3064725648E-01    0.1659886348E+00    0.6457843864E-04
    0.3000000000E+05    0.1177005148E-01    0.6958629843E+00    0.4145376707E-01    0.3058138782E+00    0.6865420982E-04
    0.5000000000E+05    0.9127054003E-02    0.6959030157E+00    0.4086055819E-01    0.3774983397E+00    0.7063308448E-04
    0.7000000000E+05    0.7069166490E-02    0.6959197312E+00    0.3830639248E-01    0.4236978676E+00    0.7196713681E-04
    0.9000000000E+05    0.5588704416E-02    0.6959287686E+00    0.3549370954E-01    0.4565835898E+00    0.7297981122E-04
    0.1100000000E+06    0.4514587765E-02    0.6959343589E+00    0.3284439355E-01    0.4813894912E+00    0.7379856836E-04
    0.1300000000E+06    0.3717755782E-02    0.6959381163E+00    0.3045792953E-01    0.5008469290E+00    0.7448713096E-04
    0.1500000000E+06    0.3112763432E-02    0.6959407881E+00    0.2833852223E-01    0.5165527390E+00    0.7508204761E-04
    0.1700000000E+06    0.2643550973E-02    0.6959427667E+00    0.2646211580E-01    0.5295139339E+00    0.7560627142E-04
    0.1900000000E+06    0.2272718315E-02    0.6959442774E+00    0.2479839258E-01    0.5404013388E+00    0.7607518155E-04
    0.2100000000E+06    0.1974741145E-02    0.6959454584E+00    0.2331815452E-01    0.5496809528E+00    0.7649959651E-04
    0.2300000000E+06    0.1731792956E-02    0.6959463991E+00    0.2199555893E-01    0.5576874603E+00    0.7688742132E-04
    0.2500000000E+06    0.1531149715E-02    0.6959471598E+00    0.2080849005E-01    0.5646678838E+00    0.7724461119E-04
    0.2700000000E+06    0.1363546577E-02    0.6959477826E+00    0.1973828029E-01    0.5708087552E+00    0.7757576624E-04
    0.2900000000E+06    0.1222114436E-02    0.6959482976E+00    0.1876924501E-01    0.5762536949E+00    0.7788451515E-04
    0.3100000000E+06    0.1101676507E-02    0.6959487270E+00    0.1788820579E-01    0.5811151556E+00    0.7817377167E-04
    0.3300000000E+06    0.9982732770E-03    0.6959490875E+00    0.1708406317E-01    0.5854824875E+00    0.7844591154E-04
    0.3500000000E+06    0.9088354051E-03    0.6959493917E+00    0.1634743403E-01    0.5894276089E+00    0.7870289777E-04
    0.3700000000E+06    0.8309544221E-03    0.6959496496E+00    0.1567035168E-01    0.5930090777E+00    0.7894637137E-04
    0.3900000000E+06    0.7627193128E-03    0.6959498689E+00    0.1504602060E-01    0.5962750674E+00    0.7917771836E-04
    0.4100000000E+06    0.7025982722E-03    0.6959500558E+00    0.1446861685E-01    0.5992655789E+00    0.7939812024E-04
    0.4300000000E+06    0.6493519444E-03    0.6959502154E+00    0.1393312577E-01    0.6020141085E+00    0.7960859247E-04
    0.4500000000E+06    0.6019689355E-03    0.6959503516E+00    0.1343520975E-01    0.6045489213E+00    0.7981001430E-04
    0.4700000000E+06    0.5596173088E-03    0.6959504678E+00    0.1297110024E-01    0.6068940372E+00    0.8000315223E-04
    0.4900000000E+06    0.5216076969E-03    0.6959505669E+00    0.1253750917E-01    0.6090700003E+00    0.8018867853E-04
    0.1000000000E+06    0.5010109425E-02    0.6959318632E+00    0.3413881340E-01    0.4697894587E+00    0.7340856059E-04
    0.3000000000E+06    0.1159542786E-02    0.6959485219E+00    0.1831846376E-01    0.5787513101E+00    0.7803142053E-04
    0.5000000000E+06    0.5040475904E-03    0.6959506107E+00    0.1233124369E-01    0.6101001715E+00    0.8027877537E-04
    0.7000000000E+06    0.2813725863E-03    0.6959509827E+00    0.9268250902E-02    0.6250452441E+00    0.8179427989E-04
    0.9000000000E+06    0.1796491490E-03    0.6959508958E+00    0.7415331178E-02    0.6337928798E+00    0.8294484905E-04
    0.1100000000E+07    0.1247440555E-03    0.6959506515E+00    0.6175624594E-02    0.6395350097E+00    0.8387516566E-04
    0.1300000000E+07    0.9174173696E-04    0.6959503500E+00    0.5288668572E-02    0.6435927750E+00    0.8465758550E-04
    0.1500000000E+07    0.7035143947E-04    0.6959500309E+00    0.4622994868E-02    0.6466120548E+00    0.8533361674E-04
    0.1700000000E+07    0.5569149039E-04    0.6959497112E+00    0.4105158829E-02    0.6489460036E+00    0.8592933055E-04
    0.1900000000E+07    0.4520244716E-04    0.6959493987E+00    0.3690939726E-02    0.6508039964E+00    0.8646219688E-04
    0.2100000000E+07    0.3743655260E-04    0.6959490967E+00    0.3352132936E-02    0.6523180310E+00    0.8694450585E-04
    0.2300000000E+07    0.3152450223E-04    0.6959488064E+00    0.3069906809E-02    0.6535754438E+00    0.8738523831E-04
    0.2500000000E+07    0.2691853297E-04    0.6959485281E+00    0.2831210782E-02    0.6546363223E+00    0.8779116020E-04
    0.2700000000E+07    0.2325947445E-04    0.6959482615E+00    0.2626716741E-02    0.6555433607E+00    0.8816749807E-04
    0.2900000000E+07    0.2030381114E-04    0.6959480061E+00    0.2449581122E-02    0.6563277274E+00    0.8851837487E-04
    0.3100000000E+07    0.1788167056E-04    0.6959477612E+00    0.2294669939E-02    0.6570127078E+00    0.8884710132E-04
    0.3300000000E+07    0.1587160515E-04    0.6959475263E+00    0.2158056712E-02    0.6576160472E+00    0.8915637689E-04
    0.3500000000E+07    0.1418490896E-04    0.6959473006E+00    0.2036687419E-02    0.6581515057E+00    0.8944843213E-04
    0.3700000000E+07    0.1275555917E-04    0.6959470836E+00    0.1928151097E-02    0.6586299172E+00    0.8972513169E-04
    0.3900000000E+07    0.1153358881E-04    0.6959468746E+00    0.1830519170E-02    0.6590599279E+00    0.8998805056E-04
    0.4100000000E+07    0.1048061460E-04    0.6959466732E+00    0.1742230633E-02    0.6594485213E+00    0.9023853129E-04
    0.4300000000E+07    0.9566754460E-05    0.6959464789E+00    0.1662008522E-02    0.6598014001E+00    0.9047772779E-04
    0.4500000000E+07    0.8768461815E-05    0.6959462911E+00    0.1588798171E-02    0.6601232664E+00    0.9070663923E-04
    0.4700000000E+07    0.8066977788E-05    0.6959461095E+00    0.1521720884E-02    0.6604180320E+00    0.9092613660E-04
    0.4900000000E+07    0.7447207526E-05    0.6959459337E+00    0.1460038732E-02    0.6606889777E+00    0.9113698386E-04
    0.1000000000E+07    0.1484347697E-03    0.6959507849E+00    0.6739479447E-02    0.6369338059E+00    0.8343201080E-04
    0.3000000000E+07    0.1903455757E-04    0.6959478823E+00    0.2369616624E-02    0.6566814232E+00    0.8868532574E-04
    0.5000000000E+07    0.7164041590E-05    0.6959458478E+00    0.1431021923E-02    0.6608164015E+00    0.9123937739E-04
    0.7000000000E+07    0.3754009412E-05    0.6959443635E+00    0.1023148029E-02    0.6626054126E+00    0.9296173224E-04
    0.9000000000E+07    0.2316580872E-05    0.6959431948E+00    0.7954107082E-03    0.6636030343E+00    0.9426935080E-04
    0.1100000000E+08    0.1576572672E-05    0.6959422292E+00    0.6501826265E-03    0.6642390294E+00    0.9532665656E-04
    0.1300000000E+08    0.1145339329E-05    0.6959414051E+00    0.5495562251E-03    0.6646797472E+00    0.9621587918E-04
    0.1500000000E+08    0.8718326092E-06    0.6959406855E+00    0.4757483661E-03    0.6650031003E+00    0.9698419169E-04
    0.1700000000E+08    0.6873314474E-06    0.6959400460E+00    0.4193146171E-03    0.6652504308E+00    0.9766122354E-04
    0.1900000000E+08    0.5568898673E-06    0.6959394702E+00    0.3747761853E-03    0.6654457105E+00    0.9826682915E-04
    0.2100000000E+08    0.4611962240E-06    0.6959389461E+00    0.3387370389E-03    0.6656037944E+00    0.9881497618E-04
    0.2300000000E+08    0.3888659072E-06    0.6959384649E+00    0.3089805160E-03    0.6657343781E+00    0.9931587133E-04
    0.2500000000E+08    0.3328308001E-06    0.6959380199E+00    0.2839984879E-03    0.6658440580E+00    0.9977720406E-04
    0.2700000000E+08    0.2885124182E-06    0.6959376058E+00    0.2627293453E-03    0.6659374780E+00    0.1002049144E-03
