  Pressure (Pa) 23mC5-500 (mol/kg) 24mC5-500 (mol/kg) 2mC6-500 (mol/kg) 3mC6-500 (mol/kg) C7-500 (mol/kg)
    0.1000000000E+01    0.5738329198E-05    0.6964909810E-01    0.9760822646E-05    0.7516251408E-06    0.4216580060E-02
    0.3000000000E+01    0.1373757493E-04    0.1740744085E+00    0.2262962048E-04    0.1936872673E-05    0.4300466431E-02
    0.5000000000E+01    0.1898600998E-04    0.2486291420E+00    0.3055640166E-04    0.3029220506E-05    0.4359394716E-02
    0.7000000000E+01    0.2262127916E-04    0.3045267151E+00    0.3575625213E-04    0.4075946739E-05    0.4403848338E-02
    0.9000000000E+01    0.2524559851E-04    0.3479919850E+00    0.3935344340E-04    0.5093122510E-05    0.4438717176E-02
    0.1100000000E+02    0.2720517093E-04    0.3827577172E+00    0.4196760931E-04    0.6088826975E-05    0.4466867969E-02
    0.1300000000E+02    0.2871121504E-04    0.4111982543E+00    0.4396029930E-04    0.7067885747E-05    0.4490115411E-02
    0.1500000000E+02    0.2989869686E-04    0.4348959354E+00    0.4555184035E-04    0.8033487715E-05    0.4509668811E-02
    0.1700000000E+02    0.3085712641E-04    0.4549459148E+00    0.4688116117E-04    0.8987886665E-05    0.4526366622E-02
    0.1900000000E+02    0.3164771042E-04    0.4721302632E+00    0.4803827914E-04    0.9932754050E-05    0.4540809156E-02
    0.2100000000E+02    0.3231338540E-04    0.4870223869E+00    0.4908280078E-04    0.1086937523E-04    0.4553437896E-02
    0.2300000000E+02    0.3288493020E-04    0.5000522703E+00    0.5005487958E-04    0.1179876707E-04    0.4564584989E-02
    0.2500000000E+02    0.3338482082E-04    0.5115486787E+00    0.5098192491E-04    0.1272175258E-04    0.4574505269E-02
    0.2700000000E+02    0.3382973431E-04    0.5217672876E+00    0.5188282692E-04    0.1363901041E-04    0.4583397620E-02
    0.2900000000E+02    0.3423221759E-04    0.5309099252E+00    0.5277068272E-04    0.1455110907E-04    0.4591419601E-02
    0.3100000000E+02    0.3460182508E-04    0.5391380391E+00    0.5365459294E-04    0.1545853111E-04    0.4598697712E-02
    0.3300000000E+02    0.3494590961E-04    0.5465823147E+00    0.5454086767E-04    0.1636169088E-04    0.4605334722E-02
    0.3500000000E+02    0.3527018234E-04    0.5533496688E+00    0.5543384907E-04    0.1726094769E-04    0.4611415021E-02
    0.3700000000E+02    0.3557911529E-04    0.5595284184E+00    0.5633648054E-04    0.1815661587E-04    0.4617008575E-02
    0.3900000000E+02    0.3587623501E-04    0.5651921569E+00    0.5725070530E-04    0.1904897252E-04    0.4622173903E-02
    0.4100000000E+02    0.3616433946E-04    0.5704026996E+00    0.5817774876E-04    0.1993826363E-04    0.4626960339E-02
    0.4300000000E+02    0.3644566028E-04    0.5752123497E+00    0.5911832023E-04    0.2082470886E-04    0.4631409782E-02
    0.4500000000E+02    0.3672198524E-04    0.5796656595E+00    0.6007275828E-04    0.2170850553E-04    0.4635558054E-02
    0.4700000000E+02    0.3699475179E-04    0.5838008158E+00    0.6104113623E-04    0.2258983174E-04    0.4639435972E-02
    0.4900000000E+02    0.3726511903E-04    0.5876507367E+00    0.6202333908E-04    0.2346884898E-04    0.4643070199E-02
    0.1000000000E+02    0.2629298981E-04    0.3662904450E+00    0.4075651536E-04    0.5593306556E-05    0.4453500933E-02
    0.3000000000E+02    0.3442062714E-04    0.5351295013E+00    0.5321268238E-04    0.1500537734E-04    0.4595144732E-02
    0.5000000000E+02    0.3739970302E-04    0.5894778002E+00    0.6251955159E-04    0.2390753821E-04    0.4644803296E-02
    0.7000000000E+02    0.4011540036E-04    0.6163042085E+00    0.7307770202E-04    0.3258987461E-04    0.4670977848E-02
    0.9000000000E+02    0.4301272468E-04    0.6322902920E+00    0.8455310444E-04    0.4115252937E-04    0.4687377614E-02
    0.1100000000E+03    0.4611861762E-04    0.6429021425E+00    0.9662419750E-04    0.4964630746E-04    0.4698672253E-02
    0.1300000000E+03    0.4940386715E-04    0.6504597072E+00    0.1090991266E-03    0.5810182890E-04    0.4706917387E-02
    0.1500000000E+03    0.5283708834E-04    0.6561156102E+00    0.1218653647E-03    0.6653954389E-04    0.4713170514E-02
    0.1700000000E+03    0.5639299062E-04    0.6605073165E+00    0.1348550772E-03    0.7497409497E-04    0.4718036372E-02
    0.1900000000E+03    0.6005238964E-04    0.6640160150E+00    0.1480261273E-03    0.8341651483E-04    0.4721888397E-02
    0.2100000000E+03    0.6380090482E-04    0.6668836428E+00    0.1613516999E-03    0.9187545029E-04    0.4724971070E-02
    0.2300000000E+03    0.6762772636E-04    0.6692711513E+00    0.1748144511E-03    0.1003578961E-03    0.4727451974E-02
    0.2500000000E+03    0.7152466889E-04    0.6712897753E+00    0.1884030858E-03    0.1088696607E-03    0.4729450316E-02
    0.2700000000E+03    0.7548548403E-04    0.6730188532E+00    0.2021102848E-03    0.1174156748E-03    0.4731053527E-02
    0.2900000000E+03    0.7950536722E-04    0.6745164946E+00    0.2159314074E-03    0.1260002049E-03    0.4732327387E-02
    0.3100000000E+03    0.8358060319E-04    0.6758262356E+00    0.2298636581E-03    0.1346270039E-03    0.4733322476E-02
    0.3300000000E+03    0.8770830875E-04    0.6769813378E+00    0.2439055361E-03    0.1432994217E-03    0.4734078417E-02
    0.3500000000E+03    0.9188624424E-04    0.6780076501E+00    0.2580564658E-03    0.1520204871E-03    0.4734626754E-02
    0.3700000000E+03    0.9611267361E-04    0.6789255651E+00    0.2723165419E-03    0.1607929703E-03    0.4734992956E-02
    0.3900000000E+03    0.1003862594E-03    0.6797513862E+00    0.2866863527E-03    0.1696194313E-03    0.4735197847E-02
    0.4100000000E+03    0.1047059831E-03    0.6804983038E+00    0.3011668535E-03    0.1785022576E-03    0.4735258636E-02
    0.4300000000E+03    0.1090710837E-03    0.6811771042E+00    0.3157592776E-03    0.1874436947E-03    0.4735189690E-02
    0.4500000000E+03    0.1134810108E-03    0.6817966939E+00    0.3304650703E-03    0.1964458701E-03    0.4735003105E-02
    0.4700000000E+03    0.1179353871E-03    0.6823644914E+00    0.3452858413E-03    0.2055108132E-03    0.4734709147E-02
    0.4900000000E+03    0.1224339792E-03    0.6828867260E+00    0.3602233293E-03    0.2146404719E-03    0.4734316589E-02
    0.1000000000E+03    0.4454114842E-04    0.6380830895E+00    0.9052859004E-04    0.4540580052E-04    0.4693500806E-02
    0.3000000000E+03    0.8153626332E-04    0.6751925719E+00    0.2228837609E-03    0.1303081031E-03    0.4732857084E-02
    0.5000000000E+03    0.1246998170E-03    0.6831324361E+00    0.3677364145E-03    0.2192301592E-03    0.4734085736E-02
    0.7000000000E+03    0.1723592185E-03    0.6865895452E+00    0.5246161236E-03    0.3148562306E-03    0.4725666958E-02
    0.9000000000E+03    0.2247523561E-03    0.6885234420E+00    0.6956471276E-03    0.4189108624E-03    0.4711942850E-02
    0.1100000000E+04    0.2824989146E-03    0.6897585333E+00    0.8833558994E-03    0.5330611159E-03    0.4694184816E-02
    0.1300000000E+04    0.3464264996E-03    0.6906153001E+00    0.1090670897E-02    0.6591456687E-03    0.4672765824E-02
    0.1500000000E+04    0.4175616665E-03    0.6912442772E+00    0.1321054346E-02    0.7993052586E-03    0.4647665913E-02
    0.1700000000E+04    0.4971639855E-03    0.6917255089E+00    0.1578671946E-02    0.9561019872E-03    0.4618629458E-02
    0.1900000000E+04    0.5867837635E-03    0.6921054819E+00    0.1868606200E-02    0.1132656098E-02    0.4585214683E-02
    0.2100000000E+04    0.6883428749E-03    0.6924130399E+00    0.2197132147E-02    0.1332818051E-02    0.4546798298E-02
    0.2300000000E+04    0.8042443027E-03    0.6926670276E+00    0.2572081157E-02    0.1561393717E-02    0.4502554469E-02
    0.2500000000E+04    0.9375199800E-03    0.6928802767E+00    0.3003327293E-02    0.1824444801E-02    0.4451413388E-02
    0.2700000000E+04    0.1092030601E-02    0.6930618267E+00    0.3503442572E-02    0.2129693547E-02    0.4391998890E-02
    0.2900000000E+04    0.1272735661E-02    0.6932182290E+00    0.4088582080E-02    0.2487069920E-02    0.4322541627E-02
    0.3100000000E+04    0.1486056329E-02    0.6933543476E+00    0.4779674440E-02    0.2909448677E-02    0.4240762850E-02
    0.3300000000E+04    0.1740354889E-02    0.6934738694E+00    0.5603997729E-02    0.3413627329E-02    0.4143724789E-02
    0.3500000000E+04    0.2046543793E-02    0.6935796395E+00    0.6597188231E-02    0.4021577176E-02    0.4027650214E-02
    0.3700000000E+04    0.2418793521E-02    0.6936738889E+00    0.7805589815E-02    0.4761915924E-02    0.3887734362E-02
    0.3900000000E+04    0.2875181605E-02    0.6937583913E+00    0.9288444098E-02    0.5671303185E-02    0.3718025149E-02
    0.4100000000E+04    0.3437814847E-02    0.6938345745E+00    0.1111841699E-01    0.6794846485E-02    0.3511566752E-02
    0.4300000000E+04    0.4131308157E-02    0.6939036009E+00    0.1337684592E-01    0.8183307956E-02    0.3261232127E-02
    0.4500000000E+04    0.4977470964E-02    0.6939664263E+00    0.1613670347E-01    0.9882801792E-02    0.2961994202E-02
    0.4700000000E+04    0.5983429469E-02    0.6940238438E+00    0.1942414371E-01    0.1191129865E-01    0.2615448212E-02
    0.4900000000E+04    0.7123310603E-02    0.6940765170E+00    0.2315872199E-01    0.1422178885E-01    0.2236046387E-02
    0.1000000000E+04    0.2529091928E-03    0.6892023510E+00    0.7872445241E-03    0.4746148264E-03    0.4703532412E-02
    0.3000000000E+04    0.1374848401E-02    0.6932885704E+00    0.4419349503E-02    0.2689189405E-02    0.4283358605E-02
    0.5000000000E+04    0.7722477723E-02    0.6941012529E+00    0.2512653218E-01    0.1544227474E-01    0.2043090640E-02
    0.7000000000E+04    0.1405907353E-01    0.6944456887E+00    0.4665514643E-01    0.2925866716E-01    0.7387827521E-03
    0.9000000000E+04    0.1652326229E-01    0.6946346845E+00    0.5594672890E-01    0.3581584406E-01    0.7404713459E-03
    0.1100000000E+05    0.1852557231E-01    0.6947533906E+00    0.6394916328E-01    0.4174969108E-01    0.7488099360E-03
    0.1300000000E+05    0.2018171934E-01    0.6948344618E+00    0.7097184501E-01    0.4721041161E-01    0.7558401710E-03
    0.1500000000E+05    0.2155834181E-01    0.6948930856E+00    0.7718209864E-01    0.5227037193E-01    0.7619077377E-03
    0.1700000000E+05    0.2270675908E-01    0.6949372737E+00    0.8271079328E-01    0.5698694434E-01    0.7672499575E-03
    0.1900000000E+05    0.2366711668E-01    0.6949716469E+00    0.8766200323E-01    0.6140642065E-01    0.7720255068E-03
    0.2100000000E+05    0.2447120591E-01    0.6949990545E+00    0.9211953930E-01    0.6556661394E-01    0.7763457667E-03
    0.2300000000E+05    0.2514447974E-01    0.6950213473E+00    0.9615165790E-01    0.6949875343E-01    0.7802919844E-03
    0.2500000000E+05    0.2570751863E-01    0.6950397787E+00    0.9981451552E-01    0.7322888842E-01    0.7839252831E-03
    0.2700000000E+05    0.2617711258E-01    0.6950552271E+00    0.1031547417E+00    0.7677894439E-01    0.7872928244E-03
    0.2900000000E+05    0.2656707094E-01    0.6950683259E+00    0.1062113819E+00    0.8016752814E-01    0.7904317752E-03
    0.3100000000E+05    0.2688883595E-01    0.6950795430E+00    0.1090173839E+00    0.8341054936E-01    0.7933719558E-03
    0.3300000000E+05    0.2715195295E-01    0.6950892314E+00    0.1116007465E+00    0.8652170594E-01    0.7961376637E-03
    0.3500000000E+05    0.2736443459E-01    0.6950976623E+00    0.1139854190E+00    0.8951286681E-01    0.7987489632E-03
    0.3700000000E+05    0.2753304553E-01    0.6951050470E+00    0.1161920102E+00    0.9239437685E-01    0.8012226184E-03
    0.3900000000E+05    0.2766352713E-01    0.6951115531E+00    0.1182383538E+00    0.9517530201E-01    0.8035727822E-03
    0.4100000000E+05    0.2776077613E-01    0.6951173146E+00    0.1201399624E+00    0.9786362780E-01    0.8058115141E-03
    0.4300000000E+05    0.2782898784E-01    0.6951224402E+00    0.1219103948E+00    0.1004664214E+00    0.8079491747E-03
    0.4500000000E+05    0.2787177183E-01    0.6951270189E+00    0.1235615560E+00    0.1029899651E+00    0.8099947325E-03
    0.4700000000E+05    0.2789224583E-01    0.6951311241E+00    0.1251039433E+00    0.1054398664E+00    0.8119560031E-03
    0.4900000000E+05    0.2789311263E-01    0.6951348170E+00    0.1265468492E+00    0.1078211500E+00    0.8138398395E-03
    0.1000000000E+05    0.1757262185E-01    0.6947001684E+00    0.6008271694E-01    0.3884720383E-01    0.7448257712E-03
    0.3000000000E+05    0.2673584128E-01    0.6950741453E+00    0.1076438584E+00    0.8180633102E-01    0.7919250809E-03
    0.5000000000E+05    0.2788694027E-01    0.6951365253E+00    0.1272336135E+00    0.1089874903E+00    0.8147546364E-03
    0.7000000000E+05    0.2716734919E-01    0.6951580324E+00    0.1373344676E+00    0.1296021164E+00    0.8301382654E-03
    0.9000000000E+05    0.2592852661E-01    0.6951670525E+00    0.1430579830E+00    0.1465669830E+00    0.8418134289E-03
    0.1100000000E+06    0.2457688882E-01    0.6951709100E+00    0.1464035174E+00    0.1611697666E+00    0.8512517032E-03
    0.1300000000E+06    0.2325225558E-01    0.6951722647E+00    0.1483200425E+00    0.1740949566E+00    0.8591884639E-03
    0.1500000000E+06    0.2200341959E-01    0.6951722850E+00    0.1493177875E+00    0.1857525610E+00    0.8660453750E-03
    0.1700000000E+06    0.2084455812E-01    0.6951715507E+00    0.1496960538E+00    0.1964094697E+00    0.8720871980E-03
    0.1900000000E+06    0.1977602152E-01    0.6951703750E+00    0.1496420441E+00    0.2062503473E+00    0.8774913055E-03
    0.2100000000E+06    0.1879270966E-01    0.6951689379E+00    0.1492787321E+00    0.2154090571E+00    0.8823824569E-03
    0.2300000000E+06    0.1788763547E-01    0.6951673475E+00    0.1486900733E+00    0.2239862529E+00    0.8868518060E-03
    0.2500000000E+06    0.1705347477E-01    0.6951656711E+00    0.1479351851E+00    0.2320598789E+00    0.8909680180E-03
    0.2700000000E+06    0.1628322789E-01    0.6951639518E+00    0.1470567583E+00    0.2396917689E+00    0.8947841307E-03
    0.2900000000E+06    0.1557047674E-01    0.6951622173E+00    0.1460862699E+00    0.2469319734E+00    0.8983419792E-03
    0.3100000000E+06    0.1490945560E-01    0.6951604861E+00    0.1450473341E+00    0.2538217005E+00    0.9016751551E-03
    0.3300000000E+06    0.1429503763E-01    0.6951587701E+00    0.1439579251E+00    0.2603953751E+00    0.9048110464E-03
    0.3500000000E+06    0.1372268596E-01    0.6951570773E+00    0.1428318916E+00    0.2666821195E+00    0.9077722821E-03
    0.3700000000E+06    0.1318839261E-01    0.6951554128E+00    0.1416800126E+00    0.2727068419E+00    0.9105777790E-03
    0.3900000000E+06    0.1268861644E-01    0.6951537796E+00    0.1405107487E+00    0.2784910524E+00    0.9132435140E-03
    0.4100000000E+06    0.1222022493E-01    0.6951521796E+00    0.1393307870E+00    0.2840534858E+00    0.9157831062E-03
    0.4300000000E+06    0.1178044187E-01    0.6951506138E+00    0.1381454419E+00    0.2894105843E+00    0.9182082603E-03
    0.4500000000E+06    0.1136680121E-01    0.6951490824E+00    0.1369589543E+00    0.2945768767E+00    0.9205291112E-03
    0.4700000000E+06    0.1097710699E-01    0.6951475852E+00    0.1357747185E+00    0.2995652799E+00    0.9227544936E-03
    0.4900000000E+06    0.1060939866E-01    0.6951461217E+00    0.1345954549E+00    0.3043873419E+00    0.9248921562E-03
    0.1000000000E+06    0.2525482869E-01    0.6951694071E+00    0.1449541976E+00    0.1541120645E+00    0.8467559842E-03
    0.3000000000E+06    0.1523383484E-01    0.6951613504E+00    0.1455741228E+00    0.2504183558E+00    0.9000348134E-03
    0.5000000000E+06    0.1043323348E-01    0.6951454024E+00    0.1340083873E+00    0.3067392787E+00    0.9259302600E-03
    0.7000000000E+06    0.7722849634E-02    0.6951325735E+00    0.1228680774E+00    0.3470955115E+00    0.9433914958E-03
    0.9000000000E+06    0.6002230495E-02    0.6951220954E+00    0.1131221678E+00    0.3782782220E+00    0.9566474078E-03
    0.1100000000E+07    0.4825303563E-02    0.6951132755E+00    0.1047033832E+00    0.4034106615E+00    0.9673653790E-03
    0.1300000000E+07    0.3977521148E-02    0.6951056663E+00    0.9740902809E-01    0.4242395903E+00    0.9763792187E-03
    0.1500000000E+07    0.3343041347E-02    0.6950989750E+00    0.9104589476E-01    0.4418549525E+00    0.9841672375E-03
    0.1700000000E+07    0.2853956333E-02    0.6950930024E+00    0.8545350516E-01    0.4569866772E+00    0.9910298516E-03
    0.1900000000E+07    0.2467932280E-02    0.6950876072E+00    0.8050290627E-01    0.4701485428E+00    0.9971683613E-03
    0.2100000000E+07    0.2157284343E-02    0.6950826859E+00    0.7609102542E-01    0.4817158823E+00    0.1002724378E-02
    0.2300000000E+07    0.1903198789E-02    0.6950781606E+00    0.7213513833E-01    0.4919709540E+00    0.1007801382E-02
    0.2500000000E+07    0.1692480386E-02    0.6950739711E+00    0.6856835427E-01    0.5011310372E+00    0.1012477330E-02
    0.2700000000E+07    0.1515626368E-02    0.6950700702E+00    0.6533612153E-01    0.5093666502E+00    0.1016812442E-02
    0.2900000000E+07    0.1365637188E-02    0.6950664197E+00    0.6239356453E-01    0.5168138098E+00    0.1020854221E-02
    0.3100000000E+07    0.1237255852E-02    0.6950629888E+00    0.5970345729E-01    0.5235825370E+00    0.1024640812E-02
    0.3300000000E+07    0.1126466488E-02    0.6950597520E+00    0.5723467408E-01    0.5297629118E+00    0.1028203317E-02
    0.3500000000E+07    0.1030155066E-02    0.6950566880E+00    0.5496099613E-01    0.5354294784E+00    0.1031567435E-02
    0.3700000000E+07    0.9458745326E-03    0.6950537789E+00    0.5286018508E-01    0.5406445118E+00    0.1034754649E-02
    0.3900000000E+07    0.8716789065E-03    0.6950510094E+00    0.5091325707E-01    0.5454604801E+00    0.1037783106E-02
    0.4100000000E+07    0.8060039760E-03    0.6950483663E+00    0.4910390942E-01    0.5499219282E+00    0.1040668272E-02
    0.4300000000E+07    0.7475801077E-03    0.6950458385E+00    0.4741806383E-01    0.5540669375E+00    0.1043423442E-02
    0.4500000000E+07    0.6953675954E-03    0.6950434159E+00    0.4584349977E-01    0.5579282704E+00    0.1046060127E-02
    0.4700000000E+07    0.6485080872E-03    0.6950410901E+00    0.4436955786E-01    0.5615342772E+00    0.1048588361E-02
    0.4900000000E+07    0.6062876501E-03    0.6950388532E+00    0.4298689833E-01    0.5649096216E+00    0.1051016947E-02
    0.1000000000E+07    0.5362458138E-02    0.6951175107E+00    0.1087591349E+00    0.3914709289E+00    0.9622599306E-03
    0.3000000000E+07    0.1299021024E-02    0.6950646785E+00    0.6101902755E-01    0.5202769383E+00    0.1022777327E-02
    0.5000000000E+07    0.5867263431E-03    0.6950377661E+00    0.4232719210E-01    0.5665176412E+00    0.1052196334E-02
    0.7000000000E+07    0.3349845647E-03    0.6950194037E+00    0.3237144117E-01    0.5906046435E+00    0.1072034225E-02
    0.9000000000E+07    0.2170003967E-03    0.6950053861E+00    0.2619018691E-01    0.6054047933E+00    0.1087094612E-02
    0.1100000000E+08    0.1521993089E-03    0.6949940154E+00    0.2198077973E-01    0.6154229683E+00    0.1099271655E-02
    0.1300000000E+08    0.1127571470E-03    0.6949844320E+00    0.1893054905E-01    0.6226538721E+00    0.1109512608E-02
    0.1500000000E+08    0.8695057493E-04    0.6949761393E+00    0.1661927857E-01    0.6281179127E+00    0.1118360874E-02
    0.1700000000E+08    0.6913353671E-04    0.6949688236E+00    0.1480785728E-01    0.6323915781E+00    0.1126157756E-02
    0.1900000000E+08    0.5631052748E-04    0.6949622739E+00    0.1335022612E-01    0.6358252118E+00    0.1133131955E-02
    0.2100000000E+08    0.4677091181E-04    0.6949563414E+00    0.1215214021E-01    0.6386440056E+00    0.1139444360E-02
    0.2300000000E+08    0.3947947817E-04    0.6949509173E+00    0.1115007264E-01    0.6409992991E+00    0.1145212536E-02
    0.2500000000E+08    0.3377964929E-04    0.6949459191E+00    0.1029964733E-01    0.6429965564E+00    0.1150525054E-02
    0.2700000000E+08    0.2923851556E-04    0.6949412833E+00    0.9568931466E-02    0.6447115207E+00    0.1155450332E-02
