  Pressure (Pa) 23mC5-500 (mol/kg) 24mC5-500 (mol/kg) 2mC6-500 (mol/kg) 3mC6-500 (mol/kg) C7-500 (mol/kg)
    0.1000000000E+01    0.5787173845E-05    0.6965044889E-01    0.1982145699E-04    0.8380990311E-06    0.4184709321E-02
    0.3000000000E+01    0.1384648797E-04    0.1740833985E+00    0.4592665122E-04    0.2128821861E-05    0.4230776543E-02
    0.5000000000E+01    0.1914687491E-04    0.2486484880E+00    0.6209736021E-04    0.3311924434E-05    0.4260692142E-02
    0.7000000000E+01    0.2283045619E-04    0.3045570900E+00    0.7279173093E-04    0.4442995158E-05    0.4282873812E-02
    0.9000000000E+01    0.2550086200E-04    0.3480332379E+00    0.8026720433E-04    0.5540741824E-05    0.4300109612E-02
    0.1100000000E+02    0.2750499116E-04    0.3828093607E+00    0.8576742007E-04    0.6614515813E-05    0.4313923142E-02
    0.1300000000E+02    0.2905447642E-04    0.4112596764E+00    0.9001806407E-04    0.7669879632E-05    0.4325254952E-02
    0.1500000000E+02    0.3028455795E-04    0.4349664962E+00    0.9346149006E-04    0.8710497109E-05    0.4334724398E-02
    0.1700000000E+02    0.3128493993E-04    0.4550249908E+00    0.9637674996E-04    0.9738950637E-05    0.4342758024E-02
    0.1900000000E+02    0.3211697324E-04    0.4722172662E+00    0.9894475825E-04    0.1075715089E-04    0.4349659929E-02
    0.2100000000E+02    0.3282370510E-04    0.4871167723E+00    0.1012853988E-03    0.1176656419E-04    0.4355653096E-02
    0.2300000000E+02    0.3343600169E-04    0.5001535380E+00    0.1034795042E-03    0.1276834847E-04    0.4360904924E-02
    0.2500000000E+02    0.3397640939E-04    0.5116563716E+00    0.1055823143E-03    0.1376343939E-04    0.4365543630E-02
    0.2700000000E+02    0.3446166295E-04    0.5218809891E+00    0.1076319527E-03    0.1475260738E-04    0.4369669142E-02
    0.2900000000E+02    0.3490435731E-04    0.5310292553E+00    0.1096548979E-03    0.1573649698E-04    0.4373360537E-02
    0.3100000000E+02    0.3531408732E-04    0.5392626514E+00    0.1116695900E-03    0.1671565464E-04    0.4376681238E-02
    0.3300000000E+02    0.3569824030E-04    0.5467118929E+00    0.1136888515E-03    0.1769054909E-04    0.4379682726E-02
    0.3500000000E+02    0.3606255704E-04    0.5534839239E+00    0.1157215408E-03    0.1866158639E-04    0.4382407240E-02
    0.3700000000E+02    0.3641153531E-04    0.5596670856E+00    0.1177736949E-03    0.1962912146E-04    0.4384889776E-02
    0.3900000000E+02    0.3674872411E-04    0.5653349933E+00    0.1198493316E-03    0.2059346697E-04    0.4387159581E-02
    0.4100000000E+02    0.3707694124E-04    0.5705494822E+00    0.1219510172E-03    0.2155490025E-04    0.4389241299E-02
    0.4300000000E+02    0.3739843588E-04    0.5753628729E+00    0.1240802725E-03    0.2251366887E-04    0.4391155843E-02
    0.4500000000E+02    0.3771501145E-04    0.5798197338E+00    0.1262378657E-03    0.2346999503E-04    0.4392921085E-02
    0.4700000000E+02    0.3802811944E-04    0.5839582658E+00    0.1284240249E-03    0.2442407926E-04    0.4394552389E-02
    0.4900000000E+02    0.3833893157E-04    0.5878114003E+00    0.1306385936E-03    0.2537610329E-04    0.4396063041E-02
    0.1000000000E+02    0.2657069267E-04    0.3663369650E+00    0.8321025196E-04    0.6080219087E-05    0.4307375732E-02
    0.3000000000E+02    0.3511283690E-04    0.5352515138E+00    0.1106623649E-03    0.1622663638E-04    0.4375063763E-02
    0.5000000000E+02    0.3849378042E-04    0.5896400134E+00    0.1317564061E-03    0.2585139502E-04    0.4396776793E-02
    0.7000000000E+02    0.4162249907E-04    0.6164912268E+00    0.1554336855E-03    0.3528255813E-04    0.4406860016E-02
    0.9000000000E+02    0.4495169470E-04    0.6324943042E+00    0.1810710727E-03    0.4463284271E-04    0.4412129824E-02
    0.1100000000E+03    0.4851219601E-04    0.6431186400E+00    0.2080484412E-03    0.5395966082E-04    0.4414894259E-02
    0.1300000000E+03    0.5227727050E-04    0.6506858413E+00    0.2359970093E-03    0.6329799295E-04    0.4416163208E-02
    0.1500000000E+03    0.5621737229E-04    0.6563494586E+00    0.2647029748E-03    0.7267161189E-04    0.4416452844E-02
    0.1700000000E+03    0.6030872211E-04    0.6607475159E+00    0.2940400367E-03    0.8209794740E-04    0.4416056264E-02
    0.1900000000E+03    0.6453346783E-04    0.6642615600E+00    0.3239322635E-03    0.9159052723E-04    0.4415153057E-02
    0.2100000000E+03    0.6887846095E-04    0.6671337689E+00    0.3543337974E-03    0.1011603319E-03    0.4413859785E-02
    0.2300000000E+03    0.7333406891E-04    0.6695252615E+00    0.3852174175E-03    0.1108166049E-03    0.4412255573E-02
    0.2500000000E+03    0.7789325675E-04    0.6715473938E+00    0.4165678599E-03    0.1205673654E-03    0.4410396094E-02
    0.2700000000E+03    0.8255091776E-04    0.6732795935E+00    0.4483777777E-03    0.1304197486E-03    0.4408321670E-02
    0.2900000000E+03    0.8730339280E-04    0.6747800382E+00    0.4806452213E-03    0.1403802398E-03    0.4406062208E-02
    0.3100000000E+03    0.9214812456E-04    0.6760923162E+00    0.5133720236E-03    0.1504548418E-03    0.4403640326E-02
    0.3300000000E+03    0.9708340701E-04    0.6772497302E+00    0.5465627402E-03    0.1606491957E-03    0.4401073404E-02
    0.3500000000E+03    0.1021082020E-03    0.6782781620E+00    0.5802239402E-03    0.1709686733E-03    0.4398374971E-02
    0.3700000000E+03    0.1072220035E-03    0.6791980304E+00    0.6143637230E-03    0.1814184461E-03    0.4395555668E-02
    0.3900000000E+03    0.1124247362E-03    0.6800256607E+00    0.6489913858E-03    0.1920035410E-03    0.4392623926E-02
    0.4100000000E+03    0.1177166785E-03    0.6807742609E+00    0.6841171902E-03    0.2027288828E-03    0.4389586463E-02
    0.4300000000E+03    0.1230984045E-03    0.6814546326E+00    0.7197522003E-03    0.2135993304E-03    0.4386448646E-02
    0.4500000000E+03    0.1285707389E-03    0.6820756946E+00    0.7559081671E-03    0.2246197053E-03    0.4383214761E-02
    0.4700000000E+03    0.1341347225E-03    0.6826448762E+00    0.7925974488E-03    0.2357948163E-03    0.4379888222E-02
    0.4900000000E+03    0.1397915851E-03    0.6831684156E+00    0.8298329547E-03    0.2471294800E-03    0.4376471725E-02
    0.1000000000E+03    0.4670440496E-04    0.6382937804E+00    0.1944200092E-03    0.4929665189E-04    0.4413745357E-02
    0.3000000000E+03    0.8971435075E-04    0.6754574146E+00    0.4969509721E-03    0.1454029171E-03    0.4404870379E-02
    0.5000000000E+03    0.1426552767E-03    0.6834147509E+00    0.8486597170E-03    0.2528581561E-03    0.4374730419E-02
    0.7000000000E+03    0.2052286530E-03    0.6868816402E+00    0.1257446149E-02    0.3770324152E-03    0.4335460904E-02
    0.9000000000E+03    0.2795475208E-03    0.6888221879E+00    0.1739660983E-02    0.5233357352E-03    0.4287488082E-02
    0.1100000000E+04    0.3688940647E-03    0.6900622763E+00    0.2317560293E-02    0.6986799453E-03    0.4229362123E-02
    0.1300000000E+04    0.4779459773E-03    0.6909230305E+00    0.3021901481E-02    0.9125028187E-03    0.4158497538E-02
    0.1500000000E+04    0.6133946474E-03    0.6915553191E+00    0.3896283496E-02    0.1178149186E-02    0.4071025654E-02
    0.1700000000E+04    0.7849787933E-03    0.6920393801E+00    0.5003994932E-02    0.1514990587E-02    0.3961295247E-02
    0.1900000000E+04    0.1007130821E-02    0.6924218219E+00    0.6438808933E-02    0.1951756135E-02    0.3821032075E-02
    0.2100000000E+04    0.1301492442E-02    0.6927315696E+00    0.8341483530E-02    0.2531636357E-02    0.3638104796E-02
    0.2300000000E+04    0.1700304113E-02    0.6929875244E+00    0.1092213784E-01    0.3319254490E-02    0.3395066865E-02
    0.2500000000E+04    0.2249084393E-02    0.6932025594E+00    0.1447850666E-01    0.4406532232E-02    0.3068733415E-02
    0.2700000000E+04    0.3001141705E-02    0.6933857448E+00    0.1936211341E-01    0.5902901275E-02    0.2635571186E-02
    0.2900000000E+04    0.3983734407E-02    0.6935436556E+00    0.2576120861E-01    0.7869643276E-02    0.2094022171E-02
    0.3100000000E+04    0.5121821533E-02    0.6936811743E+00    0.3320550300E-01    0.1016808246E-01    0.1506557661E-02
    0.3300000000E+04    0.6209058697E-02    0.6938020023E+00    0.4036746649E-01    0.1239540191E-01    0.1001560069E-02
    0.3500000000E+04    0.7064103370E-02    0.6939089970E+00    0.4606477146E-01    0.1418783299E-01    0.6697594435E-03
    0.3700000000E+04    0.7674169775E-02    0.6940043990E+00    0.5019928346E-01    0.1551054753E-01    0.4949131303E-03
    0.3900000000E+04    0.8121389544E-02    0.6940899900E+00    0.5329291552E-01    0.1651988591E-01    0.4145242537E-03
    0.4100000000E+04    0.8480169919E-02    0.6941672048E+00    0.5582379372E-01    0.1736078870E-01    0.3801652750E-03
    0.4300000000E+04    0.8793186561E-02    0.6942372115E+00    0.5806733655E-01    0.1811713801E-01    0.3661557526E-03
    0.4500000000E+04    0.9081157254E-02    0.6943009708E+00    0.6015748896E-01    0.1882981356E-01    0.3607837022E-03
    0.4700000000E+04    0.9353570592E-02    0.6943592801E+00    0.6215551991E-01    0.1951749890E-01    0.3590185383E-03
    0.4900000000E+04    0.9614751741E-02    0.6944128069E+00    0.6408917107E-01    0.2018860205E-01    0.3587462601E-03
    0.1000000000E+04    0.3220882250E-03    0.6895037514E+00    0.2014968334E-02    0.6068606076E-03    0.4259829492E-02
    0.3000000000E+04    0.4544052423E-02    0.6936147095E+00    0.2942117694E-01    0.8998035490E-02    0.1798779908E-02
    0.5000000000E+04    0.9741815946E-02    0.6944379562E+00    0.6503618967E-01    0.2051923121E-01    0.3588692260E-03
    0.7000000000E+04    0.1190985192E-01    0.6947892521E+00    0.8190757812E-01    0.2663573023E-01    0.3651980689E-03
    0.9000000000E+04    0.1352990308E-01    0.6949833606E+00    0.9567954888E-01    0.3200037737E-01    0.3703933867E-03
    0.1100000000E+05    0.1475618039E-01    0.6951061554E+00    0.1071321906E+00    0.3678354621E-01    0.3745838545E-03
    0.1300000000E+05    0.1569188666E-01    0.6951906401E+00    0.1167996726E+00    0.4110411814E-01    0.3781024609E-03
    0.1500000000E+05    0.1640881338E-01    0.6952521979E+00    0.1250634498E+00    0.4504895214E-01    0.3811392015E-03
    0.1700000000E+05    0.1695820830E-01    0.6952989613E+00    0.1322032357E+00    0.4868317880E-01    0.3838129325E-03
    0.1900000000E+05    0.1737746856E-01    0.6953356311E+00    0.1384288359E+00    0.5205673060E-01    0.3862030645E-03
    0.2100000000E+05    0.1769440677E-01    0.6953651124E+00    0.1439007322E+00    0.5520862900E-01    0.3883653387E-03
    0.2300000000E+05    0.1793005144E-01    0.6953892963E+00    0.1487437951E+00    0.5816988316E-01    0.3903404161E-03
    0.2500000000E+05    0.1810053321E-01    0.6954094665E+00    0.1530566611E+00    0.6096550075E-01    0.3921588861E-03
    0.2700000000E+05    0.1821838449E-01    0.6954265249E+00    0.1569182923E+00    0.6361591464E-01    0.3938443515E-03
    0.2900000000E+05    0.1829345285E-01    0.6954411228E+00    0.1603926606E+00    0.6613801574E-01    0.3954154128E-03
    0.3100000000E+05    0.1833355467E-01    0.6954537431E+00    0.1635321525E+00    0.6854591400E-01    0.3968869940E-03
    0.3300000000E+05    0.1834495036E-01    0.6954647504E+00    0.1663800853E+00    0.7085150831E-01    0.3982712553E-03
    0.3500000000E+05    0.1833269496E-01    0.6954744256E+00    0.1689725940E+00    0.7306491944E-01    0.3995782382E-03
    0.3700000000E+05    0.1830090011E-01    0.6954829885E+00    0.1713400654E+00    0.7519482327E-01    0.4008163325E-03
    0.3900000000E+05    0.1825293227E-01    0.6954906134E+00    0.1735082404E+00    0.7724871050E-01    0.4019926214E-03
    0.4100000000E+05    0.1819156422E-01    0.6954974401E+00    0.1754990727E+00    0.7923309104E-01    0.4031131403E-03
    0.4300000000E+05    0.1811909211E-01    0.6955035824E+00    0.1773314025E+00    0.8115365680E-01    0.4041830744E-03
    0.4500000000E+05    0.1803742665E-01    0.6955091337E+00    0.1790214918E+00    0.8301541226E-01    0.4052069122E-03
    0.4700000000E+05    0.1794816481E-01    0.6955141711E+00    0.1805834519E+00    0.8482278035E-01    0.4061885652E-03
    0.4900000000E+05    0.1785264667E-01    0.6955187591E+00    0.1820295891E+00    0.8657968878E-01    0.4071314632E-03
    0.1000000000E+05    0.1418490980E-01    0.6950509899E+00    0.1016580416E+00    0.3445630979E-01    0.3725887428E-03
    0.3000000000E+05    0.1831745145E-01    0.6954476551E+00    0.1620013709E+00    0.6735545036E-01    0.3961628222E-03
    0.5000000000E+05    0.1780290135E-01    0.6955209018E+00    0.1827126465E+00    0.8744033040E-01    0.4075893382E-03
    0.7000000000E+05    0.1667530954E-01    0.6955497082E+00    0.1923176606E+00    0.1026851630E+00    0.4152892459E-03
    0.9000000000E+05    0.1552990152E-01    0.6955642596E+00    0.1972703960E+00    0.1153116397E+00    0.4211330692E-03
    0.1100000000E+06    0.1448387553E-01    0.6955725845E+00    0.1998551335E+00    0.1262596458E+00    0.4258573150E-03
    0.1300000000E+06    0.1355286357E-01    0.6955776937E+00    0.2010873039E+00    0.1360202664E+00    0.4298300349E-03
    0.1500000000E+06    0.1272795814E-01    0.6955809563E+00    0.2014865430E+00    0.1448854184E+00    0.4332622719E-03
    0.1700000000E+06    0.1199529691E-01    0.6955830780E+00    0.2013455788E+00    0.1530444155E+00    0.4362865401E-03
    0.1900000000E+06    0.1134144058E-01    0.6955844561E+00    0.2008412191E+00    0.1606279727E+00    0.4389916158E-03
    0.2100000000E+06    0.1075471445E-01    0.6955853300E+00    0.2000860417E+00    0.1677307077E+00    0.4414399427E-03
    0.2300000000E+06    0.1022533891E-01    0.6955858509E+00    0.1991547393E+00    0.1744236764E+00    0.4436771445E-03
    0.2500000000E+06    0.9745215862E-02    0.6955861188E+00    0.1980985221E+00    0.1807618355E+00    0.4457375893E-03
    0.2700000000E+06    0.9307648681E-02    0.6955862017E+00    0.1969534475E+00    0.1867887264E+00    0.4476478236E-03
    0.2900000000E+06    0.8907081932E-02    0.6955861475E+00    0.1957454627E+00    0.1925395458E+00    0.4494287868E-03
    0.3100000000E+06    0.8538882547E-02    0.6955859901E+00    0.1944935780E+00    0.1980432310E+00    0.4510972923E-03
    0.3300000000E+06    0.8199162895E-02    0.6955857548E+00    0.1932119300E+00    0.2033239213E+00    0.4526670483E-03
    0.3500000000E+06    0.7884639856E-02    0.6955854601E+00    0.1919111597E+00    0.2084020074E+00    0.4541493816E-03
    0.3700000000E+06    0.7592523110E-02    0.6955851201E+00    0.1905993566E+00    0.2132949039E+00    0.4555537604E-03
    0.3900000000E+06    0.7320426481E-02    0.6955847453E+00    0.1892827195E+00    0.2180176281E+00    0.4568881817E-03
    0.4100000000E+06    0.7066297334E-02    0.6955843442E+00    0.1879660259E+00    0.2225832411E+00    0.4581594622E-03
    0.4300000000E+06    0.6828360062E-02    0.6955839232E+00    0.1866529735E+00    0.2270031900E+00    0.4593734607E-03
    0.4500000000E+06    0.6605070582E-02    0.6955834872E+00    0.1853464304E+00    0.2312875770E+00    0.4605352500E-03
    0.4700000000E+06    0.6395079468E-02    0.6955830404E+00    0.1840486212E+00    0.2354453723E+00    0.4616492521E-03
    0.4900000000E+06    0.6197201903E-02    0.6955825858E+00    0.1827612682E+00    0.2394845863E+00    0.4627193456E-03
    0.1000000000E+06    0.1499249087E-01    0.6955689541E+00    0.1987785976E+00    0.1209583413E+00    0.4236070150E-03
    0.3000000000E+06    0.8719194957E-02    0.6955860799E+00    0.1951240288E+00    0.1953206730E+00    0.4502761768E-03
    0.5000000000E+06    0.6102474299E-02    0.6955823565E+00    0.1821219404E+00    0.2414620010E+00    0.4632390115E-03
    0.7000000000E+06    0.4645336544E-02    0.6955777678E+00    0.1700725285E+00    0.2762031766E+00    0.4719800608E-03
    0.9000000000E+06    0.3710972564E-02    0.6955735442E+00    0.1594855199E+00    0.3042406906E+00    0.4786160660E-03
    0.1100000000E+07    0.3060475081E-02    0.6955697809E+00    0.1501957841E+00    0.3277304477E+00    0.4839816418E-03
    0.1300000000E+07    0.2582359897E-02    0.6955664240E+00    0.1419895077E+00    0.3478866265E+00    0.4884941609E-03
    0.1500000000E+07    0.2217077612E-02    0.6955634066E+00    0.1346839725E+00    0.3654769005E+00    0.4923930499E-03
    0.1700000000E+07    0.1929744712E-02    0.6955606711E+00    0.1281327692E+00    0.3810243371E+00    0.4958286889E-03
    0.1900000000E+07    0.1698505242E-02    0.6955581714E+00    0.1222195227E+00    0.3949044911E+00    0.4989018442E-03
    0.2100000000E+07    0.1508944723E-02    0.6955558707E+00    0.1168511238E+00    0.4073976363E+00    0.5016834038E-03
    0.2300000000E+07    0.1351163664E-02    0.6955537401E+00    0.1119522887E+00    0.4187192495E+00    0.5042251679E-03
    0.2500000000E+07    0.1218136551E-02    0.6955517561E+00    0.1074614604E+00    0.4290389431E+00    0.5065661608E-03
    0.2700000000E+07    0.1104740186E-02    0.6955498998E+00    0.1033277623E+00    0.4384928116E+00    0.5087365281E-03
    0.2900000000E+07    0.1007152123E-02    0.6955481557E+00    0.9950872566E-01    0.4471918064E+00    0.5107600497E-03
    0.3100000000E+07    0.9224640877E-03    0.6955465107E+00    0.9596857817E-01    0.4552276055E+00    0.5126558206E-03
    0.3300000000E+07    0.8484255891E-03    0.6955449541E+00    0.9267693947E-01    0.4626768386E+00    0.5144394105E-03
    0.3500000000E+07    0.7832691829E-03    0.6955434767E+00    0.8960781593E-01    0.4696042007E+00    0.5161236841E-03
    0.3700000000E+07    0.7255885467E-03    0.6955420708E+00    0.8673881619E-01    0.4760647920E+00    0.5177193961E-03
    0.3900000000E+07    0.6742516212E-03    0.6955407296E+00    0.8405053273E-01    0.4821059072E+00    0.5192356303E-03
    0.4100000000E+07    0.6283375890E-03    0.6955394472E+00    0.8152604908E-01    0.4877684230E+00    0.5206801298E-03
    0.4300000000E+07    0.5870903955E-03    0.6955382188E+00    0.7915054362E-01    0.4930878909E+00    0.5220595499E-03
    0.4500000000E+07    0.5498839634E-03    0.6955370397E+00    0.7691096803E-01    0.4980954059E+00    0.5233796532E-03
    0.4700000000E+07    0.5161958125E-03    0.6955359062E+00    0.7479578447E-01    0.5028183051E+00    0.5246454631E-03
    0.4900000000E+07    0.4855868108E-03    0.6955348147E+00    0.7279474888E-01    0.5072807360E+00    0.5258613858E-03
    0.1000000000E+07    0.3358933507E-02    0.6955716075E+00    0.1546923257E+00    0.3164641145E+00    0.4814257692E-03
    0.3000000000E+07    0.9633493135E-03    0.6955473215E+00    0.9770580290E-01    0.4512875043E+00    0.5117228592E-03
    0.5000000000E+07    0.4713186125E-03    0.6955342837E+00    0.7183414423E-01    0.5094210657E+00    0.5264518719E-03
    0.7000000000E+07    0.2818513694E-03    0.6955252767E+00    0.5684800413E-01    0.5426686727E+00    0.5363842858E-03
    0.9000000000E+07    0.1881830024E-03    0.6955183612E+00    0.4703787659E-01    0.5643057860E+00    0.5439248721E-03
    0.1100000000E+08    0.1348246153E-03    0.6955127327E+00    0.4010979436E-01    0.5795349149E+00    0.5500219027E-03
    0.1300000000E+08    0.1014735392E-03    0.6955079785E+00    0.3495461264E-01    0.5908422334E+00    0.5551496092E-03
    0.1500000000E+08    0.7920741586E-04    0.6955038581E+00    0.3096864217E-01    0.5995717409E+00    0.5595800427E-03
    0.1700000000E+08    0.6358890348E-04    0.6955002189E+00    0.2779465632E-01    0.6065152016E+00    0.5634840773E-03
    0.1900000000E+08    0.5220339058E-04    0.6954969578E+00    0.2520760326E-01    0.6121698638E+00    0.5669762131E-03
    0.2100000000E+08    0.4364341481E-04    0.6954940018E+00    0.2305859520E-01    0.6168639292E+00    0.5701370006E-03
    0.2300000000E+08    0.3704268503E-04    0.6954912975E+00    0.2124518136E-01    0.6208228326E+00    0.5730253010E-03
    0.2500000000E+08    0.3184388466E-04    0.6954888043E+00    0.1969454571E-01    0.6242065727E+00    0.5756854583E-03
    0.2700000000E+08    0.2767506615E-04    0.6954864908E+00    0.1835351175E-01    0.6271318601E+00    0.5781517275E-03
