  Pressure (Pa) 23mC5-500 (mol/kg) 24mC5-500 (mol/kg) 2mC6-500 (mol/kg) 3mC6-500 (mol/kg) C7-500 (mol/kg)
    0.1000000000E+01    0.5539651728E-05    0.1514037501E+00    0.5538843560E-05    0.8378441743E-06    0.4181612161E-02
    0.3000000000E+01    0.1076381377E-04    0.3164913546E+00    0.1026559054E-04    0.2127080433E-05    0.4213553554E-02
    0.5000000000E+01    0.1313845852E-04    0.4047608191E+00    0.1227437383E-04    0.3307639977E-05    0.4228825272E-02
    0.7000000000E+01    0.1446074894E-04    0.4597098978E+00    0.1344899216E-04    0.4435218596E-05    0.4238248113E-02
    0.9000000000E+01    0.1531726270E-04    0.4972101364E+00    0.1433220151E-04    0.5528580056E-05    0.4244706333E-02
    0.1100000000E+02    0.1594490403E-04    0.5244340602E+00    0.1511391927E-04    0.6597112143E-05    0.4249428629E-02
    0.1300000000E+02    0.1645289020E-04    0.5450967775E+00    0.1586787113E-04    0.7646403697E-05    0.4253039525E-02
    0.1500000000E+02    0.1689629679E-04    0.5613151883E+00    0.1662393038E-04    0.8680138802E-05    0.4255892787E-02
    0.1700000000E+02    0.1730471326E-04    0.5743839542E+00    0.1739391853E-04    0.9700916081E-05    0.4258204710E-02
    0.1900000000E+02    0.1769477136E-04    0.5851393798E+00    0.1818183444E-04    0.1071065956E-04    0.4260115380E-02
    0.2100000000E+02    0.1807611684E-04    0.5941457638E+00    0.1898822327E-04    0.1171084680E-04    0.4261719720E-02
    0.2300000000E+02    0.1845445362E-04    0.6017976702E+00    0.1981214014E-04    0.1270264529E-04    0.4263084451E-02
    0.2500000000E+02    0.1883318092E-04    0.6083792834E+00    0.2065206040E-04    0.1368699894E-04    0.4264257910E-02
    0.2700000000E+02    0.1921431270E-04    0.6141004837E+00    0.2150630557E-04    0.1466468541E-04    0.4265276023E-02
    0.2900000000E+02    0.1959901279E-04    0.6191196421E+00    0.2237323892E-04    0.1563635553E-04    0.4266166076E-02
    0.3100000000E+02    0.1998791561E-04    0.6235585091E+00    0.2325134914E-04    0.1660256136E-04    0.4266949190E-02
    0.3300000000E+02    0.2038132307E-04    0.6275122212E+00    0.2413927933E-04    0.1756377655E-04    0.4267641980E-02
    0.3500000000E+02    0.2077932789E-04    0.6310561956E+00    0.2503582973E-04    0.1852041158E-04    0.4268257712E-02
    0.3700000000E+02    0.2118189206E-04    0.6342509885E+00    0.2593994843E-04    0.1947282532E-04    0.4268807112E-02
    0.3900000000E+02    0.2158889735E-04    0.6371457829E+00    0.2685071723E-04    0.2042133397E-04    0.4269298953E-02
    0.4100000000E+02    0.2200017812E-04    0.6397809396E+00    0.2776733623E-04    0.2136621803E-04    0.4269740484E-02
    0.4300000000E+02    0.2241554273E-04    0.6421898898E+00    0.2868910901E-04    0.2230772790E-04    0.4270137755E-02
    0.4500000000E+02    0.2283478745E-04    0.6444005615E+00    0.2961542893E-04    0.2324608837E-04    0.4270495851E-02
    0.4700000000E+02    0.2325770555E-04    0.6464364671E+00    0.3054576703E-04    0.2418150224E-04    0.4270819088E-02
    0.4900000000E+02    0.2368409309E-04    0.6483175426E+00    0.3147966143E-04    0.2511415334E-04    0.4271111148E-02
    0.1000000000E+02    0.1565107338E-04    0.5118232102E+00    0.1472962089E-04    0.6065541635E-05    0.4247236698E-02
    0.3000000000E+02    0.1979291392E-04    0.6214051351E+00    0.2281098546E-04    0.1612011024E-04    0.4266569872E-02
    0.5000000000E+02    0.2389852583E-04    0.6492054355E+00    0.3194781398E-04    0.2557949572E-04    0.4271246492E-02
    0.7000000000E+02    0.2832661576E-04    0.6618962856E+00    0.4142277296E-04    0.3477513969E-04    0.4272893382E-02
    0.9000000000E+02    0.3293776529E-04    0.6691634456E+00    0.5100446396E-04    0.4382079172E-04    0.4273344740E-02
    0.1100000000E+03    0.3765922996E-04    0.6738715929E+00    0.6062438663E-04    0.5277392084E-04    0.4273182638E-02
    0.1300000000E+03    0.4245404349E-04    0.6771700059E+00    0.7026133221E-04    0.6166902009E-04    0.4272655505E-02
    0.1500000000E+03    0.4730237017E-04    0.6796093733E+00    0.7991016404E-04    0.7052902003E-04    0.4271889148E-02
    0.1700000000E+03    0.5219306597E-04    0.6814866076E+00    0.8957171348E-04    0.7937025204E-04    0.4270954870E-02
    0.1900000000E+03    0.5711968624E-04    0.6829759286E+00    0.9924905858E-04    0.8820494612E-04    0.4269896438E-02
    0.2100000000E+03    0.6207846768E-04    0.6841863044E+00    0.1089460361E-03    0.9704262073E-04    0.4268742374E-02
    0.2300000000E+03    0.6706724523E-04    0.6851893849E+00    0.1186666208E-03    0.1058909154E-03    0.4267512139E-02
    0.2500000000E+03    0.7208484053E-04    0.6860342169E+00    0.1284146682E-03    0.1147561187E-03    0.4266219511E-02
    0.2700000000E+03    0.7713070170E-04    0.6867555059E+00    0.1381938150E-03    0.1236435184E-03    0.4264874537E-02
    0.2900000000E+03    0.8220468365E-04    0.6873785005E+00    0.1480074523E-03    0.1325576429E-03    0.4263484726E-02
    0.3100000000E+03    0.8730691005E-04    0.6879220085E+00    0.1578587299E-03    0.1415024321E-03    0.4262055805E-02
    0.3300000000E+03    0.9243768446E-04    0.6884003269E+00    0.1677505734E-03    0.1504813623E-03    0.4260592219E-02
    0.3500000000E+03    0.9759743198E-04    0.6888245183E+00    0.1776857069E-03    0.1594975389E-03    0.4259097468E-02
    0.3700000000E+03    0.1027866603E-03    0.6892032762E+00    0.1876666759E-03    0.1685537671E-03    0.4257574340E-02
    0.3900000000E+03    0.1080059331E-03    0.6895435272E+00    0.1976958684E-03    0.1776526065E-03    0.4256025084E-02
    0.4100000000E+03    0.1132558525E-03    0.6898508578E+00    0.2077755353E-03    0.1867964138E-03    0.4254451522E-02
    0.4300000000E+03    0.1185370459E-03    0.6901298241E+00    0.2179078074E-03    0.1959873767E-03    0.4252855149E-02
    0.4500000000E+03    0.1238501583E-03    0.6903841784E+00    0.2280947106E-03    0.2052275413E-03    0.4251237194E-02
    0.4700000000E+03    0.1291958455E-03    0.6906170391E+00    0.2383381801E-03    0.2145188344E-03    0.4249598674E-02
    0.4900000000E+03    0.1345747706E-03    0.6908310193E+00    0.2486400716E-03    0.2238630818E-03    0.4247940430E-02
    0.1000000000E+03    0.3528756811E-04    0.6717447655E+00    0.5581154700E-04    0.4830640902E-04    0.4273320655E-02
    0.3000000000E+03    0.8475225074E-04    0.6876592085E+00    0.1529281983E-03    0.1370259775E-03    0.4262774851E-02
    0.5000000000E+03    0.1372769058E-03    0.6909316322E+00    0.2538134862E-03    0.2285556101E-03    0.4247104136E-02
    0.7000000000E+03    0.1932288959E-03    0.6923429787E+00    0.3607577018E-03    0.3255778999E-03    0.4229459598E-02
    0.9000000000E+03    0.2532796878E-03    0.6931291556E+00    0.4753465315E-03    0.4295977467E-03    0.4210170809E-02
    0.1100000000E+04    0.3181271544E-03    0.6936301163E+00    0.5990176647E-03    0.5419394950E-03    0.4189207318E-02
    0.1300000000E+04    0.3885289334E-03    0.6939771715E+00    0.7332669769E-03    0.6639731778E-03    0.4166422510E-02
    0.1500000000E+04    0.4653388689E-03    0.6942317583E+00    0.8797538388E-03    0.7972175462E-03    0.4141604217E-02
    0.1700000000E+04    0.5495422704E-03    0.6944264584E+00    0.1040380799E-02    0.9434147292E-03    0.4114485294E-02
    0.1900000000E+04    0.6422942497E-03    0.6945801582E+00    0.1217372189E-02    0.1104602879E-02    0.4084741329E-02
    0.2100000000E+04    0.7449648831E-03    0.6947045594E+00    0.1413363347E-02    0.1283198372E-02    0.4051982097E-02
    0.2300000000E+04    0.8591947799E-03    0.6948072989E+00    0.1631508878E-02    0.1482095532E-02    0.4015738389E-02
    0.2500000000E+04    0.9869650703E-03    0.6948935723E+00    0.1875618305E-02    0.1704791695E-02    0.3975444205E-02
    0.2700000000E+04    0.1130686714E-02    0.6949670374E+00    0.2150328888E-02    0.1955546665E-02    0.3930413546E-02
    0.2900000000E+04    0.1293315302E-02    0.6950303436E+00    0.2461327745E-02    0.2239587877E-02    0.3879810574E-02
    0.3100000000E+04    0.1478499078E-02    0.6950854572E+00    0.2815638406E-02    0.2563375392E-02    0.3822611514E-02
    0.3300000000E+04    0.1690769539E-02    0.6951338678E+00    0.3221990192E-02    0.2934943951E-02    0.3757556437E-02
    0.3500000000E+04    0.1935784969E-02    0.6951767250E+00    0.3691290950E-02    0.3364341504E-02    0.3683089193E-02
    0.3700000000E+04    0.2220636216E-02    0.6952149297E+00    0.4237221889E-02    0.3864182310E-02    0.3597284700E-02
    0.3900000000E+04    0.2554217182E-02    0.6952491981E+00    0.4876960761E-02    0.4450321692E-02    0.3497765723E-02
    0.4100000000E+04    0.2947642513E-02    0.6952801068E+00    0.5632001837E-02    0.5142625557E-02    0.3381618455E-02
    0.4300000000E+04    0.3414646434E-02    0.6953081250E+00    0.6528948870E-02    0.5965723990E-02    0.3245331789E-02
    0.4500000000E+04    0.3971791760E-02    0.6953336384E+00    0.7599956557E-02    0.6949454878E-02    0.3084816672E-02
    0.4700000000E+04    0.4638114221E-02    0.6953569673E+00    0.8882104054E-02    0.8128343568E-02    0.2895619108E-02
    0.4900000000E+04    0.5433486970E-02    0.6953783794E+00    0.1041432649E-01    0.9538857140E-02    0.2673528185E-02
    0.1000000000E+04    0.2850583286E-03    0.6934046274E+00    0.5359561339E-03    0.4846452764E-03    0.4199905754E-02
    0.3000000000E+04    0.1382827844E-02    0.6950588221E+00    0.2632568481E-02    0.2396052701E-02    0.3852108124E-02
    0.5000000000E+04    0.5885082352E-02    0.6953884387E+00    0.1128513436E-01    0.1034130684E-01    0.2549197498E-02
    0.7000000000E+04    0.1628105851E-01    0.6955288697E+00    0.3167022182E-01    0.2945342948E-01    0.2618547621E-03
    0.9000000000E+04    0.1979946733E-01    0.6956063869E+00    0.3918943609E-01    0.3710571655E-01    0.1568927843E-03
    0.1100000000E+05    0.2242454937E-01    0.6956553861E+00    0.4513969527E-01    0.4348344557E-01    0.1577556530E-03
    0.1300000000E+05    0.2464828540E-01    0.6956890750E+00    0.5043116369E-01    0.4939216895E-01    0.1592221211E-03
    0.1500000000E+05    0.2654328578E-01    0.6957136061E+00    0.5517224715E-01    0.5490360103E-01    0.1604960341E-03
    0.1700000000E+05    0.2816395445E-01    0.6957322302E+00    0.5944371879E-01    0.6007005546E-01    0.1616183562E-03
    0.1900000000E+05    0.2955386492E-01    0.6957468259E+00    0.6331112230E-01    0.6493447932E-01    0.1626220507E-03
    0.2100000000E+05    0.3074830089E-01    0.6957585536E+00    0.6682825512E-01    0.6953254514E-01    0.1635303569E-03
    0.2300000000E+05    0.3177609821E-01    0.6957681686E+00    0.7003969194E-01    0.7389415726E-01    0.1643602467E-03
    0.2500000000E+05    0.3266102148E-01    0.6957761832E+00    0.7298268397E-01    0.7804459538E-01    0.1651244999E-03
    0.2700000000E+05    0.3342280638E-01    0.6957829576E+00    0.7568860755E-01    0.8200539405E-01    0.1658329847E-03
    0.2900000000E+05    0.3407795804E-01    0.6957887515E+00    0.7818408188E-01    0.8579502705E-01    0.1664934826E-03
    0.3100000000E+05    0.3464036914E-01    0.6957937576E+00    0.8049184089E-01    0.8942944559E-01    0.1671122406E-03
    0.3300000000E+05    0.3512180312E-01    0.6957981215E+00    0.8263141999E-01    0.9292250554E-01    0.1676943508E-03
    0.3500000000E+05    0.3553227546E-01    0.6958019550E+00    0.8461970199E-01    0.9628630987E-01    0.1682440201E-03
    0.3700000000E+05    0.3588035696E-01    0.6958053457E+00    0.8647135481E-01    0.9953148515E-01    0.1687647643E-03
    0.3900000000E+05    0.3617341693E-01    0.6958083632E+00    0.8819918513E-01    0.1026674068E+00    0.1692595529E-03
    0.4100000000E+05    0.3641781966E-01    0.6958110633E+00    0.8981442629E-01    0.1057023836E+00    0.1697309165E-03
    0.4300000000E+05    0.3661908407E-01    0.6958134912E+00    0.9132697424E-01    0.1086438103E+00    0.1701810301E-03
    0.4500000000E+05    0.3678201450E-01    0.6958156841E+00    0.9274558217E-01    0.1114982944E+00    0.1706117765E-03
    0.4700000000E+05    0.3691080825E-01    0.6958176727E+00    0.9407802207E-01    0.1142717615E+00    0.1710247970E-03
    0.4900000000E+05    0.3700914471E-01    0.6958194828E+00    0.9533121946E-01    0.1169695448E+00    0.1714215311E-03
    0.1000000000E+05    0.2116830476E-01    0.6956333776E+00    0.4225642202E-01    0.4035994247E-01    0.1569975988E-03
    0.3000000000E+05    0.3436997594E-01    0.6957913431E+00    0.7936013687E-01    0.8763072740E-01    0.1668077373E-03
    0.5000000000E+05    0.3704791815E-01    0.6958203277E+00    0.9593006322E-01    0.1182915784E+00    0.1716141933E-03
    0.7000000000E+05    0.3683275625E-01    0.6958316510E+00    0.1049510631E+00    0.1417140016E+00    0.1748546725E-03
    0.9000000000E+05    0.3564209211E-01    0.6958373258E+00    0.1103207957E+00    0.1610370083E+00    0.1773145809E-03
    0.1100000000E+06    0.3411995832E-01    0.6958405409E+00    0.1136356378E+00    0.1776787301E+00    0.1793034720E-03
    0.1300000000E+06    0.3251755021E-01    0.6958424899E+00    0.1156785092E+00    0.1924017844E+00    0.1809761156E-03
    0.1500000000E+06    0.3094017502E-01    0.6958437142E+00    0.1168816695E+00    0.2056661818E+00    0.1824212849E-03
    0.1700000000E+06    0.2943225919E-01    0.6958444927E+00    0.1175046167E+00    0.2177728994E+00    0.1836947327E-03
    0.1900000000E+06    0.2801087493E-01    0.6958449817E+00    0.1177131121E+00    0.2289311115E+00    0.1848338153E-03
    0.2100000000E+06    0.2668028368E-01    0.6958452754E+00    0.1176182054E+00    0.2392930907E+00    0.1858648117E-03
    0.2300000000E+06    0.2543868751E-01    0.6958454331E+00    0.1172971351E+00    0.2489738178E+00    0.1868069241E-03
    0.2500000000E+06    0.2428151465E-01    0.6958454938E+00    0.1168052647E+00    0.2580627120E+00    0.1876746183E-03
    0.2700000000E+06    0.2320306634E-01    0.6958454842E+00    0.1161832642E+00    0.2666310160E+00    0.1884790686E-03
    0.2900000000E+06    0.2219735177E-01    0.6958454227E+00    0.1154616212E+00    0.2747366439E+00    0.1892290898E-03
    0.3100000000E+06    0.2125850701E-01    0.6958453227E+00    0.1146635794E+00    0.2824274805E+00    0.1899317598E-03
    0.3300000000E+06    0.2038099540E-01    0.6958451939E+00    0.1138071120E+00    0.2897436948E+00    0.1905928496E-03
    0.3500000000E+06    0.1955969207E-01    0.6958450433E+00    0.1129062834E+00    0.2967194046E+00    0.1912171279E-03
    0.3700000000E+06    0.1878990682E-01    0.6958448763E+00    0.1119722102E+00    0.3033839034E+00    0.1918085810E-03
    0.3900000000E+06    0.1806737508E-01    0.6958446972E+00    0.1110137531E+00    0.3097625811E+00    0.1923705757E-03
    0.4100000000E+06    0.1738823302E-01    0.6958445089E+00    0.1100380249E+00    0.3158776285E+00    0.1929059822E-03
    0.4300000000E+06    0.1674898596E-01    0.6958443140E+00    0.1090507678E+00    0.3217485842E+00    0.1934172673E-03
    0.4500000000E+06    0.1614647469E-01    0.6958441143E+00    0.1080566395E+00    0.3273927651E+00    0.1939065668E-03
    0.4700000000E+06    0.1557784254E-01    0.6958439113E+00    0.1070594312E+00    0.3328256106E+00    0.1943757427E-03
    0.4900000000E+06    0.1504050440E-01    0.6958437063E+00    0.1060622368E+00    0.3380609591E+00    0.1948264282E-03
    0.1000000000E+06    0.3490171298E-01    0.6958391431E+00    0.1121746786E+00    0.1696357125E+00    0.1783560783E-03
    0.3000000000E+06    0.2171992577E-01    0.6958453769E+00    0.1150709217E+00    0.2786312418E+00    0.1895859564E-03
    0.5000000000E+06    0.1478282992E-01    0.6958436033E+00    0.1055644539E+00    0.3406085152E+00    0.1950452938E-03
    0.7000000000E+06    0.1080804521E-01    0.6958415797E+00    0.9602004027E-01    0.3836631650E+00    0.1987267931E-03
    0.9000000000E+06    0.8290332466E-02    0.6958397488E+00    0.8762843779E-01    0.4159901927E+00    0.2015217754E-03
    0.1100000000E+07    0.6581827166E-02    0.6958381299E+00    0.8041486941E-01    0.4413853014E+00    0.2037817108E-03
    0.1300000000E+07    0.5363337301E-02    0.6958366920E+00    0.7421689189E-01    0.4619586229E+00    0.2056823693E-03
    0.1500000000E+07    0.4460924960E-02    0.6958354031E+00    0.6886156946E-01    0.4790101475E+00    0.2073245846E-03
    0.1700000000E+07    0.3772452845E-02    0.6958342369E+00    0.6420058252E-01    0.4933966302E+00    0.2087716901E-03
    0.1900000000E+07    0.3234403086E-02    0.6958331727E+00    0.6011353762E-01    0.5057107274E+00    0.2100661245E-03
    0.2100000000E+07    0.2805434738E-02    0.6958321944E+00    0.5650412233E-01    0.5163778073E+00    0.2112377435E-03
    0.2300000000E+07    0.2457624149E-02    0.6958312891E+00    0.5329532612E-01    0.5257122376E+00    0.2123083639E-03
    0.2500000000E+07    0.2171519189E-02    0.6958304467E+00    0.5042526005E-01    0.5339519818E+00    0.2132944216E-03
    0.2700000000E+07    0.1933210430E-02    0.6958296591E+00    0.4784382505E-01    0.5412808164E+00    0.2142086132E-03
    0.2900000000E+07    0.1732526112E-02    0.6958289193E+00    0.4551013932E-01    0.5478431164E+00    0.2150609544E-03
    0.3100000000E+07    0.1561881288E-02    0.6958282219E+00    0.4339057074E-01    0.5537539932E+00    0.2158594876E-03
    0.3300000000E+07    0.1415522289E-02    0.6958275623E+00    0.4145723218E-01    0.5591064217E+00    0.2166107704E-03
    0.3500000000E+07    0.1289017890E-02    0.6958269364E+00    0.3968682538E-01    0.5639763626E+00    0.2173202215E-03
    0.3700000000E+07    0.1178908851E-02    0.6958263409E+00    0.3805974709E-01    0.5684265126E+00    0.2179923704E-03
    0.3900000000E+07    0.1082461679E-02    0.6958257729E+00    0.3655939257E-01    0.5725090978E+00    0.2186310432E-03
    0.4100000000E+07    0.9974924935E-03    0.6958252301E+00    0.3517160872E-01    0.5762679846E+00    0.2192395012E-03
    0.4300000000E+07    0.9222390174E-03    0.6958247101E+00    0.3388426134E-01    0.5797402968E+00    0.2198205475E-03
    0.4500000000E+07    0.8552661632E-03    0.6958242111E+00    0.3268689000E-01    0.5829576695E+00    0.2203766093E-03
    0.4700000000E+07    0.7953954849E-03    0.6958237315E+00    0.3157043079E-01    0.5859472311E+00    0.2209098025E-03
    0.4900000000E+07    0.7416518139E-03    0.6958232697E+00    0.3052699208E-01    0.5887323820E+00    0.2214219829E-03
    0.1000000000E+07    0.7359609410E-02    0.6958389146E+00    0.8388343811E-01    0.4293969327E+00    0.2027051948E-03
    0.3000000000E+07    0.1643844383E-02    0.6958285656E+00    0.4442545296E-01    0.5508737209E+00    0.2154665069E-03
    0.5000000000E+07    0.7168182044E-03    0.6958230451E+00    0.3003046415E-01    0.5900547520E+00    0.2216707124E-03
    0.7000000000E+07    0.4014754437E-03    0.6958192369E+00    0.2264215891E-01    0.6095174845E+00    0.2258545618E-03
    0.9000000000E+07    0.2569505545E-03    0.6958163149E+00    0.1815484838E-01    0.6211562276E+00    0.2290309406E-03
    0.1100000000E+08    0.1787290491E-03    0.6958139375E+00    0.1514314927E-01    0.6288970441E+00    0.2315992664E-03
    0.1300000000E+08    0.1316103068E-03    0.6958119299E+00    0.1298322060E-01    0.6344156372E+00    0.2337592906E-03
    0.1500000000E+08    0.1010187976E-03    0.6958101901E+00    0.1135912545E-01    0.6385478129E+00    0.2356256051E-03
    0.1700000000E+08    0.8002448641E-04    0.6958086537E+00    0.1009384119E-01    0.6417570877E+00    0.2372701851E-03
    0.1900000000E+08    0.6498690042E-04    0.6958072771E+00    0.9080514603E-02    0.6443211749E+00    0.2387412604E-03
    0.2100000000E+08    0.5384339789E-04    0.6958060293E+00    0.8250848449E-02    0.6464165852E+00    0.2400727606E-03
    0.2300000000E+08    0.4535373424E-04    0.6958048877E+00    0.7559160130E-02    0.6481608642E+00    0.2412894796E-03
    0.2500000000E+08    0.3873547655E-04    0.6958038354E+00    0.6973742504E-02    0.6496353093E+00    0.2424100961E-03
    0.2700000000E+08    0.3347505234E-04    0.6958028589E+00    0.6471902445E-02    0.6508979371E+00    0.2434490395E-03
