  Pressure (Pa) 23mC5-500 (mol/kg) 24mC5-500 (mol/kg) 2mC6-500 (mol/kg) 3mC6-500 (mol/kg) C7-500 (mol/kg)
    0.1000000000E+01    0.6269206683E-05    0.9950030799E-01    0.1605516819E-04    0.2041268329E-05    0.4147258931E-02
    0.3000000000E+01    0.1382538678E-04    0.2321160589E+00    0.3406360416E-04    0.5036186841E-05    0.4176334005E-02
    0.5000000000E+01    0.1814765052E-04    0.3164792987E+00    0.4372206265E-04    0.7749795163E-05    0.4186586149E-02
    0.7000000000E+01    0.2088629022E-04    0.3748728138E+00    0.4966541654E-04    0.1032996566E-04    0.4192574933E-02
    0.9000000000E+01    0.2275991618E-04    0.4176892450E+00    0.5378244077E-04    0.1282558530E-04    0.4196567952E-02
    0.1100000000E+02    0.2412525346E-04    0.4504284687E+00    0.5694784026E-04    0.1526085953E-04    0.4199403007E-02
    0.1300000000E+02    0.2517593515E-04    0.4762737646E+00    0.5960200616E-04    0.1765009116E-04    0.4201490824E-02
    0.1500000000E+02    0.2602422992E-04    0.4971953453E+00    0.6198012288E-04    0.2000265280E-04    0.4203063498E-02
    0.1700000000E+02    0.2673861562E-04    0.5144779417E+00    0.6421317976E-04    0.2232512322E-04    0.4204264184E-02
    0.1900000000E+02    0.2736256671E-04    0.5289950713E+00    0.6637627645E-04    0.2462235297E-04    0.4205186709E-02
    0.2100000000E+02    0.2792458861E-04    0.5413613772E+00    0.6851322920E-04    0.2689805339E-04    0.4205895428E-02
    0.2300000000E+02    0.2844387012E-04    0.5520219145E+00    0.7064975269E-04    0.2915514760E-04    0.4206436080E-02
    0.2500000000E+02    0.2893361097E-04    0.5613068672E+00    0.7280081677E-04    0.3139599212E-04    0.4206842128E-02
    0.2700000000E+02    0.2940305429E-04    0.5694663634E+00    0.7497489199E-04    0.3362252336E-04    0.4207138650E-02
    0.2900000000E+02    0.2985876786E-04    0.5766933522E+00    0.7717646832E-04    0.3583635822E-04    0.4207344826E-02
    0.3100000000E+02    0.3030547401E-04    0.5831390595E+00    0.7940758337E-04    0.3803886530E-04    0.4207475587E-02
    0.3300000000E+02    0.3074659987E-04    0.5889236877E+00    0.8166876660E-04    0.4023121665E-04    0.4207542733E-02
    0.3500000000E+02    0.3118464999E-04    0.5941439831E+00    0.8395963092E-04    0.4241442627E-04    0.4207555717E-02
    0.3700000000E+02    0.3162146308E-04    0.5988786917E+00    0.8627924722E-04    0.4458937934E-04    0.4207522201E-02
    0.3900000000E+02    0.3205839199E-04    0.6031925593E+00    0.8862638278E-04    0.4675685468E-04    0.4207448466E-02
    0.4100000000E+02    0.3249643153E-04    0.6071393105E+00    0.9099965327E-04    0.4891754241E-04    0.4207339705E-02
    0.4300000000E+02    0.3293631056E-04    0.6107638984E+00    0.9339761921E-04    0.5107205795E-04    0.4207200252E-02
    0.4500000000E+02    0.3337855895E-04    0.6141042241E+00    0.9581884646E-04    0.5322095323E-04    0.4207033755E-02
    0.4700000000E+02    0.3382355690E-04    0.6171924679E+00    0.9826194321E-04    0.5536472585E-04    0.4206843301E-02
    0.4900000000E+02    0.3427157151E-04    0.6200561292E+00    0.1007255817E-03    0.5750382654E-04    0.4206631524E-02
    0.1000000000E+02    0.2349146759E-04    0.4350822327E+00    0.5544999400E-04    0.1404971902E-04    0.4198098714E-02
    0.3000000000E+02    0.3008300736E-04    0.5800057273E+00    0.7828827332E-04    0.3693895038E-04    0.4207418833E-02
    0.5000000000E+02    0.3449676949E-04    0.6214112607E+00    0.1019647097E-03    0.5857175449E-04    0.4206518358E-02
    0.7000000000E+02    0.3917670483E-04    0.6410255455E+00    0.1275659154E-03    0.7976794317E-04    0.4203545386E-02
    0.9000000000E+02    0.4416331619E-04    0.6524678216E+00    0.1542628472E-03    0.1008064995E-03    0.4199795514E-02
    0.1100000000E+03    0.4939500377E-04    0.6599648142E+00    0.1816806197E-03    0.1218293534E-03    0.4195661957E-02
    0.1300000000E+03    0.5482449290E-04    0.6652569987E+00    0.2096525303E-03    0.1429233257E-03    0.4191301932E-02
    0.1500000000E+03    0.6042116661E-04    0.6691923291E+00    0.2381032525E-03    0.1641479120E-03    0.4186788855E-02
    0.1700000000E+03    0.6616566325E-04    0.6722333408E+00    0.2670005126E-03    0.1855472634E-03    0.4182160427E-02
    0.1900000000E+03    0.7204580970E-04    0.6746537876E+00    0.2963337725E-03    0.2071561749E-03    0.4177437142E-02
    0.2100000000E+03    0.7805407017E-04    0.6766260375E+00    0.3261041250E-03    0.2290033994E-03    0.4172630430E-02
    0.2300000000E+03    0.8418597777E-04    0.6782640316E+00    0.3563192000E-03    0.2511136248E-03    0.4167746615E-02
    0.2500000000E+03    0.9043915668E-04    0.6796461061E+00    0.3869904699E-03    0.2735087252E-03    0.4162788980E-02
    0.2700000000E+03    0.9681269891E-04    0.6808278920E+00    0.4181317688E-03    0.2962085902E-03    0.4157758923E-02
    0.2900000000E+03    0.1033067575E-03    0.6818499860E+00    0.4497584570E-03    0.3192316977E-03    0.4152656614E-02
    0.3100000000E+03    0.1099222752E-03    0.6827427074E+00    0.4818869417E-03    0.3425955217E-03    0.4147481411E-02
    0.3300000000E+03    0.1166608005E-03    0.6835291570E+00    0.5145344021E-03    0.3663168336E-03    0.4142232103E-02
    0.3500000000E+03    0.1235243597E-03    0.6842272447E+00    0.5477186340E-03    0.3904119282E-03    0.4136907076E-02
    0.3700000000E+03    0.1305153685E-03    0.6848510701E+00    0.5814579665E-03    0.4148968003E-03    0.4131504415E-02
    0.3900000000E+03    0.1376365687E-03    0.6854118843E+00    0.6157712233E-03    0.4397872836E-03    0.4126021976E-02
    0.4100000000E+03    0.1448909837E-03    0.6859187750E+00    0.6506777109E-03    0.4650991639E-03    0.4120457431E-02
    0.4300000000E+03    0.1522818869E-03    0.6863791625E+00    0.6861972260E-03    0.4908482730E-03    0.4114808298E-02
    0.4500000000E+03    0.1598127794E-03    0.6867991652E+00    0.7223500721E-03    0.5170505683E-03    0.4109071965E-02
    0.4700000000E+03    0.1674873749E-03    0.6871838735E+00    0.7591570859E-03    0.5437222014E-03    0.4103245701E-02
    0.4900000000E+03    0.1753095893E-03    0.6875375567E+00    0.7966396674E-03    0.5708795789E-03    0.4097326662E-02
    0.1000000000E+03    0.4675193333E-04    0.6565699133E+00    0.1678950645E-03    0.1113136147E-03    0.4197763968E-02
    0.3000000000E+03    0.1065992497E-03    0.6823109329E+00    0.4657589169E-03    0.3308699584E-03    0.4150078189E-02
    0.5000000000E+03    0.1792773310E-03    0.6877039134E+00    0.8156411458E-03    0.5846456322E-03    0.4094331436E-02
    0.7000000000E+03    0.2675063020E-03    0.6900413571E+00    0.1236948433E-02    0.8898242948E-03    0.4028771470E-02
    0.9000000000E+03    0.3766460662E-03    0.6913467470E+00    0.1756688064E-02    0.1266477351E-02    0.3949766283E-02
    0.1100000000E+04    0.5146952446E-03    0.6921799597E+00    0.2413567571E-02    0.1742952113E-02    0.3852176229E-02
    0.1300000000E+04    0.6937444962E-03    0.6927579226E+00    0.3265611866E-02    0.2361676863E-02    0.3728483602E-02
    0.1500000000E+04    0.9325282574E-03    0.6931823308E+00    0.4402608142E-02    0.3188357765E-02    0.3567373772E-02
    0.1700000000E+04    0.1260579670E-02    0.6935071919E+00    0.5966226473E-02    0.4326846842E-02    0.3351603783E-02
    0.1900000000E+04    0.1724058914E-02    0.6937638448E+00    0.8178416212E-02    0.5940287414E-02    0.3055490498E-02
    0.2100000000E+04    0.2389417418E-02    0.6939717237E+00    0.1136017662E-01    0.8265784514E-02    0.2645163269E-02
    0.2300000000E+04    0.3325362306E-02    0.6941435207E+00    0.1584782182E-01    0.1155511701E-01    0.2094227419E-02
    0.2500000000E+04    0.4517943412E-02    0.6942878757E+00    0.2158910084E-01    0.1578118223E-01    0.1438107356E-02
    0.2700000000E+04    0.5754730650E-02    0.6944108746E+00    0.2758277897E-01    0.2022335541E-01    0.8280697769E-03
    0.2900000000E+04    0.6755671625E-02    0.6945169274E+00    0.3248858787E-01    0.2390127069E-01    0.4208475908E-03
    0.3100000000E+04    0.7458742237E-02    0.6946093086E+00    0.3599566116E-01    0.2657694060E-01    0.2176398466E-03
    0.3300000000E+04    0.7966294609E-02    0.6946904999E+00    0.3858254127E-01    0.2859194769E-01    0.1325913846E-03
    0.3500000000E+04    0.8374803104E-02    0.6947624168E+00    0.4070645991E-01    0.3027745942E-01    0.9979313643E-04
    0.3700000000E+04    0.8735192515E-02    0.6948265613E+00    0.4260986459E-01    0.3180994404E-01    0.8759248221E-04
    0.3900000000E+04    0.9069714783E-02    0.6948841276E+00    0.4439881197E-01    0.3326671499E-01    0.8317367922E-04
    0.4100000000E+04    0.9387579754E-02    0.6949360775E+00    0.4611703034E-01    0.3467954860E-01    0.8165581144E-04
    0.4300000000E+04    0.9692655223E-02    0.6949831938E+00    0.4778263370E-01    0.3606144000E-01    0.8121541996E-04
    0.4500000000E+04    0.9986692615E-02    0.6950261204E+00    0.4940356867E-01    0.3741791173E-01    0.8117365212E-04
    0.4700000000E+04    0.1027060774E-01    0.6950653917E+00    0.5098377022E-01    0.3875153782E-01    0.8127725217E-04
    0.4900000000E+04    0.1054498066E-01    0.6951014549E+00    0.5252557196E-01    0.4006372130E-01    0.8143144277E-04
    0.1000000000E+04    0.4414207065E-03    0.6918047745E+00    0.2064927220E-02    0.1490001019E-02    0.3903694974E-02
    0.3000000000E+04    0.7139276371E-02    0.6945646564E+00    0.3439314564E-01    0.2534763457E-01    0.2988554802E-03
    0.5000000000E+04    0.1067872897E-01    0.6951184037E+00    0.5328260942E-01    0.4071207157E-01    0.8151531953E-04
    0.7000000000E+04    0.1293809151E-01    0.6953555775E+00    0.6672254504E-01    0.5271847997E-01    0.8305521998E-04
    0.9000000000E+04    0.1457571765E-01    0.6954871655E+00    0.7754297962E-01    0.6320960580E-01    0.8423214645E-04
    0.1100000000E+05    0.1577163726E-01    0.6955707672E+00    0.8641310517E-01    0.7253008655E-01    0.8518227208E-04
    0.1300000000E+05    0.1664605305E-01    0.6956285417E+00    0.9379252268E-01    0.8092255711E-01    0.8598053588E-04
    0.1500000000E+05    0.1728177521E-01    0.6956708293E+00    0.1000073019E+00    0.8856338761E-01    0.8666976601E-04
    0.1700000000E+05    0.1773736203E-01    0.6957031030E+00    0.1052951399E+00    0.9558423781E-01    0.8727679317E-04
    0.1900000000E+05    0.1805515020E-01    0.6957285304E+00    0.1098333752E+00    0.1020856519E+00    0.8781956250E-04
    0.2100000000E+05    0.1826633592E-01    0.6957490716E+00    0.1137569912E+00    0.1081459365E+00    0.8831068049E-04
    0.2300000000E+05    0.1839428764E-01    0.6957660043E+00    0.1171705435E+00    0.1138271346E+00    0.8875934884E-04
    0.2500000000E+05    0.1845676282E-01    0.6957801971E+00    0.1201562740E+00    0.1191791517E+00    0.8917249367E-04
    0.2700000000E+05    0.1846742574E-01    0.6957922608E+00    0.1227797614E+00    0.1242426719E+00    0.8955546133E-04
    0.2900000000E+05    0.1843690783E-01    0.6958026374E+00    0.1250939374E+00    0.1290512613E+00    0.8991246667E-04
    0.3100000000E+05    0.1837356194E-01    0.6958116548E+00    0.1271419959E+00    0.1336329123E+00    0.9024689243E-04
    0.3300000000E+05    0.1828400768E-01    0.6958195613E+00    0.1289595330E+00    0.1380111969E+00    0.9056149559E-04
    0.3500000000E+05    0.1817353127E-01    0.6958265480E+00    0.1305761477E+00    0.1422061401E+00    0.9085855330E-04
    0.3700000000E+05    0.1804638287E-01    0.6958327651E+00    0.1320166532E+00    0.1462348905E+00    0.9113996855E-04
    0.3900000000E+05    0.1790600010E-01    0.6958383314E+00    0.1333020067E+00    0.1501122418E+00    0.9140734824E-04
    0.4100000000E+05    0.1775517804E-01    0.6958433429E+00    0.1344500295E+00    0.1538510420E+00    0.9166206173E-04
    0.4300000000E+05    0.1759619979E-01    0.6958478774E+00    0.1354759722E+00    0.1574625188E+00    0.9190528572E-04
    0.4500000000E+05    0.1743093765E-01    0.6958519990E+00    0.1363929619E+00    0.1609565400E+00    0.9213803887E-04
    0.4700000000E+05    0.1726093223E-01    0.6958557608E+00    0.1372123581E+00    0.1643418247E+00    0.9236120902E-04
    0.4900000000E+05    0.1708745474E-01    0.6958592071E+00    0.1379440406E+00    0.1676261146E+00    0.9257557475E-04
    0.1000000000E+05    0.1522029862E-01    0.6955331642E+00    0.8218928338E-01    0.6799913106E-01    0.8472982657E-04
    0.3000000000E+05    0.1840888931E-01    0.6958072990E+00    0.1261488495E+00    0.1313688887E+00    0.9008231697E-04
    0.5000000000E+05    0.1699974995E-01    0.6958608239E+00    0.1382797302E+00    0.1692325737E+00    0.9267967372E-04
    0.7000000000E+05    0.1523876542E-01    0.6958831965E+00    0.1420011915E+00    0.1974025040E+00    0.9443044459E-04
    0.9000000000E+05    0.1364638808E-01    0.6958953046E+00    0.1424374490E+00    0.2202642618E+00    0.9575936919E-04
    0.1100000000E+06    0.1228040380E-01    0.6959028021E+00    0.1413478020E+00    0.2396841502E+00    0.9683378107E-04
    0.1300000000E+06    0.1111781001E-01    0.6959078469E+00    0.1394876167E+00    0.2566465527E+00    0.9773732566E-04
    0.1500000000E+06    0.1012450599E-01    0.6959114382E+00    0.1372275563E+00    0.2717428589E+00    0.9851797438E-04
    0.1700000000E+06    0.9269729825E-02    0.6959141010E+00    0.1347659849E+00    0.2853607379E+00    0.9920585234E-04
    0.1900000000E+06    0.8528361325E-02    0.6959161367E+00    0.1322154151E+00    0.2977706551E+00    0.9982114331E-04
    0.2100000000E+06    0.7880430767E-02    0.6959177303E+00    0.1296421564E+00    0.3091703078E+00    0.1003780451E-03
    0.2300000000E+06    0.7310128130E-02    0.6959190017E+00    0.1270861795E+00    0.3197095085E+00    0.1008869320E-03
    0.2500000000E+06    0.6804881915E-02    0.6959200314E+00    0.1245717668E+00    0.3295050834E+00    0.1013556188E-03
    0.2700000000E+06    0.6354619025E-02    0.6959208760E+00    0.1221135368E+00    0.3386502806E+00    0.1017901424E-03
    0.2900000000E+06    0.5951197053E-02    0.6959215757E+00    0.1197200019E+00    0.3472209744E+00    0.1021952646E-03
    0.3100000000E+06    0.5587974992E-02    0.6959221603E+00    0.1173957439E+00    0.3552799074E+00    0.1025748090E-03
    0.3300000000E+06    0.5259489021E-02    0.6959226522E+00    0.1151427832E+00    0.3628796797E+00    0.1029318931E-03
    0.3500000000E+06    0.4961206520E-02    0.6959230683E+00    0.1129614615E+00    0.3700649122E+00    0.1032690929E-03
    0.3700000000E+06    0.4689338092E-02    0.6959234221E+00    0.1108510216E+00    0.3768738465E+00    0.1035885617E-03
    0.3900000000E+06    0.4440692698E-02    0.6959237239E+00    0.1088099942E+00    0.3833395517E+00    0.1038921184E-03
    0.4100000000E+06    0.4212565030E-02    0.6959239820E+00    0.1068364588E+00    0.3894908513E+00    0.1041813132E-03
    0.4300000000E+06    0.4002647187E-02    0.6959242032E+00    0.1049282226E+00    0.3953530450E+00    0.1044574787E-03
    0.4500000000E+06    0.3808958821E-02    0.6959243928E+00    0.1030829415E+00    0.4009484799E+00    0.1047217687E-03
    0.4700000000E+06    0.3629791426E-02    0.6959245555E+00    0.1012982044E+00    0.4062970063E+00    0.1049751889E-03
    0.4900000000E+06    0.3463663577E-02    0.6959246949E+00    0.9957158990E-01    0.4114163469E+00    0.1052186215E-03
    0.1000000000E+06    0.1293593024E-01    0.6958994540E+00    0.1420230996E+00    0.2303302790E+00    0.9632199795E-04
    0.3000000000E+06    0.5764926904E-02    0.6959218808E+00    0.1185490392E+00    0.3513109144E+00    0.1023880248E-03
    0.5000000000E+06    0.3385079566E-02    0.6959247569E+00    0.9872932917E-01    0.4138951045E+00    0.1053368392E-03
    0.7000000000E+06    0.2258191062E-02    0.6959253122E+00    0.8439310113E-01    0.4545625556E+00    0.1073253528E-03
    0.9000000000E+06    0.1624219992E-02    0.6959252410E+00    0.7366003086E-01    0.4835800543E+00    0.1088350225E-03
    0.1100000000E+07    0.1228693456E-02    0.6959249512E+00    0.6533897541E-01    0.5054696953E+00    0.1100556938E-03
    0.1300000000E+07    0.9640310247E-03    0.6959245796E+00    0.5870155071E-01    0.5226249739E+00    0.1110823073E-03
    0.1500000000E+07    0.7776680490E-03    0.6959241806E+00    0.5328408877E-01    0.5364556867E+00    0.1119693270E-03
    0.1700000000E+07    0.6412184180E-03    0.6959237779E+00    0.4877856032E-01    0.5478542681E+00    0.1127509614E-03
    0.1900000000E+07    0.5381765214E-03    0.6959233824E+00    0.4497255921E-01    0.5574162655E+00    0.1134501332E-03
    0.2100000000E+07    0.4583798548E-03    0.6959229990E+00    0.4171491244E-01    0.5655556403E+00    0.1140829684E-03
    0.2300000000E+07    0.3952784740E-03    0.6959226297E+00    0.3889510113E-01    0.5725696888E+00    0.1146612509E-03
    0.2500000000E+07    0.3444894031E-03    0.6959222751E+00    0.3643045112E-01    0.5786777421E+00    0.1151938584E-03
    0.2700000000E+07    0.3029861975E-03    0.6959219351E+00    0.3425787913E-01    0.5840453111E+00    0.1156876487E-03
    0.2900000000E+07    0.2686225786E-03    0.6959216091E+00    0.3232841122E-01    0.5887997289E+00    0.1161480315E-03
    0.3100000000E+07    0.2398410594E-03    0.6959212963E+00    0.3060344499E-01    0.5930406087E+00    0.1165793508E-03
    0.3300000000E+07    0.2154885532E-03    0.6959209960E+00    0.2905214079E-01    0.5968470272E+00    0.1169851486E-03
    0.3500000000E+07    0.1946961977E-03    0.6959207075E+00    0.2764956299E-01    0.6002825757E+00    0.1173683517E-03
    0.3700000000E+07    0.1767989860E-03    0.6959204299E+00    0.2637533123E-01    0.6033989846E+00    0.1177314066E-03
    0.3900000000E+07    0.1612807829E-03    0.6959201626E+00    0.2521262538E-01    0.6062387731E+00    0.1180763799E-03
    0.4100000000E+07    0.1477359396E-03    0.6959199049E+00    0.2414744049E-01    0.6088372163E+00    0.1184050332E-03
    0.4300000000E+07    0.1358420047E-03    0.6959196562E+00    0.2316802142E-01    0.6112238282E+00    0.1187188804E-03
    0.4500000000E+07    0.1253400046E-03    0.6959194159E+00    0.2226442847E-01    0.6134234936E+00    0.1190192327E-03
    0.4700000000E+07    0.1160199805E-03    0.6959191834E+00    0.2142819996E-01    0.6154573426E+00    0.1193072329E-03
    0.4900000000E+07    0.1077102370E-03    0.6959189584E+00    0.2065208735E-01    0.6173434346E+00    0.1195838832E-03
    0.1000000000E+07    0.1405255467E-02    0.6959251119E+00    0.6925149988E-01    0.4952349202E+00    0.1094742293E-03
    0.3000000000E+07    0.2536139541E-03    0.6959214511E+00    0.3144245007E-01    0.5909790050E+00    0.1163670864E-03
    0.5000000000E+07    0.1038889948E-03    0.6959188485E+00    0.2028458851E-01    0.6182360104E+00    0.1197182326E-03
    0.7000000000E+07    0.5646891914E-04    0.6959169486E+00    0.1495004244E-01    0.6311571133E+00    0.1219781135E-03
    0.9000000000E+07    0.3551582962E-04    0.6959154536E+00    0.1182679588E-01    0.6386934733E+00    0.1236938219E-03
    0.1100000000E+08    0.2442618370E-04    0.6959142195E+00    0.9777388645E-02    0.6436282825E+00    0.1250810973E-03
    0.1300000000E+08    0.1784629165E-04    0.6959131673E+00    0.8329953530E-02    0.6471090363E+00    0.1262478324E-03
    0.1500000000E+08    0.1362064557E-04    0.6959122494E+00    0.7253611511E-02    0.6496951381E+00    0.1272559228E-03
    0.1700000000E+08    0.1074440101E-04    0.6959114346E+00    0.6422091286E-02    0.6516917945E+00    0.1281442449E-03
    0.1900000000E+08    0.8697383059E-05    0.6959107016E+00    0.5760532767E-02    0.6532796374E+00    0.1289388496E-03
    0.2100000000E+08    0.7188198440E-05    0.6959100350E+00    0.5221749550E-02    0.6545723800E+00    0.1296580636E-03
    0.2300000000E+08    0.6043217633E-05    0.6959094235E+00    0.4774528495E-02    0.6556451688E+00    0.1303152791E-03
    0.2500000000E+08    0.5153711747E-05    0.6959088585E+00    0.4397401217E-02    0.6565496501E+00    0.1309205853E-03
    0.2700000000E+08    0.4448752258E-05    0.6959083332E+00    0.4075118354E-02    0.6573224867E+00    0.1314817760E-03
