  Pressure (Pa) 23mC5-500 (mol/kg) 24mC5-500 (mol/kg) 2mC6-500 (mol/kg) 3mC6-500 (mol/kg) C7-500 (mol/kg)
    0.1000000000E+01    0.6469019420E-05    0.6964988376E-01    0.9797325100E-05    0.7726372546E-06    0.4206663774E-02
    0.3000000000E+01    0.1548500197E-04    0.1740793537E+00    0.2271163188E-04    0.1983789660E-05    0.4277619021E-02
    0.5000000000E+01    0.2140403879E-04    0.2486393000E+00    0.3067755666E-04    0.3098315565E-05    0.4326871187E-02
    0.7000000000E+01    0.2550714508E-04    0.3045420498E+00    0.3591349398E-04    0.4165509950E-05    0.4363936795E-02
    0.9000000000E+01    0.2847219538E-04    0.3480121249E+00    0.3954480054E-04    0.5202090613E-05    0.4392975614E-02
    0.1100000000E+02    0.3068886560E-04    0.3827822118E+00    0.4219166284E-04    0.6216451128E-05    0.4416399159E-02
    0.1300000000E+02    0.3239489930E-04    0.4112266637E+00    0.4421596638E-04    0.7213600422E-05    0.4435728111E-02
    0.1500000000E+02    0.3374221671E-04    0.4349278598E+00    0.4583826290E-04    0.8196846229E-05    0.4451974043E-02
    0.1700000000E+02    0.3483157677E-04    0.4549810014E+00    0.4719764073E-04    0.9168525008E-05    0.4465837613E-02
    0.1900000000E+02    0.3573188214E-04    0.4721682036E+00    0.4838423547E-04    0.1013036869E-04    0.4477820168E-02
    0.2100000000E+02    0.3649147119E-04    0.4870629128E+00    0.4945774394E-04    0.1108370861E-04    0.4488290252E-02
    0.2300000000E+02    0.3714499762E-04    0.5000951483E+00    0.5045839048E-04    0.1202959760E-04    0.4497525054E-02
    0.2500000000E+02    0.3771776905E-04    0.5115937049E+00    0.5141364113E-04    0.1296888750E-04    0.4505737192E-02
    0.2700000000E+02    0.3822856527E-04    0.5218142835E+00    0.5234243216E-04    0.1390228056E-04    0.4513092569E-02
    0.2900000000E+02    0.3869151663E-04    0.5309587339E+00    0.5325789884E-04    0.1483036486E-04    0.4519722600E-02
    0.3100000000E+02    0.3911738442E-04    0.5391885220E+00    0.5416917374E-04    0.1575363947E-04    0.4525732777E-02
    0.3300000000E+02    0.3951445133E-04    0.5466343490E+00    0.5508259400E-04    0.1667253283E-04    0.4531208795E-02
    0.3500000000E+02    0.3988915158E-04    0.5534031449E+00    0.5600252495E-04    0.1758741636E-04    0.4536221014E-02
    0.3700000000E+02    0.4024652415E-04    0.5595832385E+00    0.5693192996E-04    0.1849861496E-04    0.4540827763E-02
    0.3900000000E+02    0.4059054330E-04    0.5652482332E+00    0.5787276971E-04    0.1940641497E-04    0.4545077825E-02
    0.4100000000E+02    0.4092436282E-04    0.5704599532E+00    0.5882628487E-04    0.2031107054E-04    0.4549012322E-02
    0.4300000000E+02    0.4125049865E-04    0.5752707089E+00    0.5979319823E-04    0.2121280860E-04    0.4552666176E-02
    0.4500000000E+02    0.4157096679E-04    0.5797250596E+00    0.6077386036E-04    0.2211183296E-04    0.4556069240E-02
    0.4700000000E+02    0.4188738865E-04    0.5838611978E+00    0.6176835530E-04    0.2300832754E-04    0.4559247198E-02
    0.4900000000E+02    0.4220107199E-04    0.5877120468E+00    0.6277657766E-04    0.2390245911E-04    0.4562222266E-02
    0.1000000000E+02    0.2965664483E-04    0.3663128190E+00    0.4096437365E-04    0.5711682828E-05    0.4405279109E-02
    0.3000000000E+02    0.3890851862E-04    0.5351791634E+00    0.5371360982E-04    0.1529257512E-04    0.4522799409E-02
    0.5000000000E+02    0.4235722543E-04    0.5895395556E+00    0.6328576613E-04    0.2434868675E-04    0.4563639857E-02
    0.7000000000E+02    0.4550593483E-04    0.6163729198E+00    0.7410004913E-04    0.3317991410E-04    0.4584927851E-02
    0.9000000000E+02    0.4885754680E-04    0.6323636229E+00    0.8582819805E-04    0.4188961582E-04    0.4598084470E-02
    0.1100000000E+03    0.5244344409E-04    0.6429788206E+00    0.9815142566E-04    0.5053018935E-04    0.4606997382E-02
    0.1300000000E+03    0.5623138585E-04    0.6505389557E+00    0.1108795111E-03    0.5913320542E-04    0.4613376853E-02
    0.1500000000E+03    0.6018647278E-04    0.6561969156E+00    0.1239010136E-03    0.6771975034E-04    0.4618102129E-02
    0.1700000000E+03    0.6428054514E-04    0.6605903192E+00    0.1371488824E-03    0.7630492754E-04    0.4621675657E-02
    0.1900000000E+03    0.6849224289E-04    0.6641004521E+00    0.1505815824E-03    0.8490012423E-04    0.4624407478E-02
    0.2100000000E+03    0.7280556569E-04    0.6669693151E+00    0.1641727829E-03    0.9351427314E-04    0.4626500416E-02
    0.2300000000E+03    0.7720850035E-04    0.6693579038E+00    0.1779055450E-03    0.1021546086E-03    0.4628093380E-02
    0.2500000000E+03    0.8169196536E-04    0.6713774844E+00    0.1917689238E-03    0.1108271460E-03    0.4629285101E-02
    0.2700000000E+03    0.8624904338E-04    0.6731074183E+00    0.2057559098E-03    0.1195370002E-03    0.4630147922E-02
    0.2900000000E+03    0.9087443053E-04    0.6746058329E+00    0.2198621437E-03    0.1282886046E-03    0.4630736221E-02
    0.3100000000E+03    0.9556404026E-04    0.6759162776E+00    0.2340850893E-03    0.1370858666E-03    0.4631091766E-02
    0.3300000000E+03    0.1003147161E-03    0.6770720247E+00    0.2484234893E-03    0.1459322810E-03    0.4631247241E-02
    0.3500000000E+03    0.1051240209E-03    0.6780989314E+00    0.2628769992E-03    0.1548310146E-03    0.4631228634E-02
    0.3700000000E+03    0.1099900807E-03    0.6790173971E+00    0.2774459362E-03    0.1637849706E-03    0.4631056904E-02
    0.3900000000E+03    0.1149114676E-03    0.6798437308E+00    0.2921311036E-03    0.1727968379E-03    0.4630749160E-02
    0.4100000000E+03    0.1198871102E-03    0.6805911275E+00    0.3069336677E-03    0.1818691304E-03    0.4630319522E-02
    0.4300000000E+03    0.1249162261E-03    0.6812703774E+00    0.3218550690E-03    0.1910042178E-03    0.4629779757E-02
    0.4500000000E+03    0.1299982684E-03    0.6818903901E+00    0.3368969577E-03    0.2002043508E-03    0.4629139756E-02
    0.4700000000E+03    0.1351328847E-03    0.6824585871E+00    0.3520611475E-03    0.2094716817E-03    0.4628407894E-02
    0.4900000000E+03    0.1403198844E-03    0.6829811999E+00    0.3673495808E-03    0.2188082806E-03    0.4627591317E-02
    0.1000000000E+03    0.5062290603E-04    0.6381582144E+00    0.9192970815E-04    0.4621624691E-04    0.4602936358E-02
    0.3000000000E+03    0.9321142387E-04    0.6752822701E+00    0.2269591311E-03    0.1326813014E-03    0.4630940864E-02
    0.5000000000E+03    0.1429330062E-03    0.6832270917E+00    0.3750410246E-03    0.2235031836E-03    0.4627153210E-02
    0.7000000000E+03    0.1979874837E-03    0.6866870932E+00    0.5359340292E-03    0.3215033513E-03    0.4615053839E-02
    0.9000000000E+03    0.2587199494E-03    0.6886230124E+00    0.7119829844E-03    0.4285397228E-03    0.4598126716E-02
    0.1100000000E+04    0.3259200465E-03    0.6898596533E+00    0.9059787711E-03    0.5464398113E-03    0.4577315069E-02
    0.1300000000E+04    0.4006351685E-03    0.6907176744E+00    0.1121183030E-02    0.6772448738E-03    0.4552807394E-02
    0.1500000000E+04    0.4841695875E-03    0.6913477047E+00    0.1361486402E-02    0.8233564807E-03    0.4524446599E-02
    0.1700000000E+04    0.5781346441E-03    0.6918298440E+00    0.1631612429E-02    0.9876767448E-03    0.4491851059E-02
    0.1900000000E+04    0.6845298179E-03    0.6922106142E+00    0.1937377469E-02    0.1173773666E-02    0.4454444937E-02
    0.2100000000E+04    0.8058560279E-03    0.6925188833E+00    0.2286031087E-02    0.1386092912E-02    0.4411448434E-02
    0.2300000000E+04    0.9452701326E-03    0.6927735127E+00    0.2686710380E-02    0.1630238684E-02    0.4361842443E-02
    0.2500000000E+04    0.1106795085E-02    0.6929873467E+00    0.3151053427E-02    0.1913352399E-02    0.4304310228E-02
    0.2700000000E+04    0.1295605929E-02    0.6931694340E+00    0.3694032335E-02    0.2244627103E-02    0.4237153589E-02
    0.2900000000E+04    0.1518417829E-02    0.6933263332E+00    0.4335083608E-02    0.2636006328E-02    0.4158178408E-02
    0.3100000000E+04    0.1784006281E-02    0.6934629142E+00    0.5099625744E-02    0.3103124206E-02    0.4064544083E-02
    0.3300000000E+04    0.2103884060E-02    0.6935828682E+00    0.6021039505E-02    0.3666535922E-02    0.3952575774E-02
    0.3500000000E+04    0.2493124276E-02    0.6936890442E+00    0.7143087641E-02    0.4353229011E-02    0.3817554667E-02
    0.3700000000E+04    0.2971205223E-02    0.6937836763E+00    0.8522427214E-02    0.5198210538E-02    0.3653546470E-02
    0.3900000000E+04    0.3562454470E-02    0.6938685407E+00    0.1023001190E-01    0.6245443892E-02    0.3453436054E-02
    0.4100000000E+04    0.4295000481E-02    0.6939450673E+00    0.1234825040E-01    0.7546225312E-02    0.3209559651E-02
    0.4300000000E+04    0.5195945742E-02    0.6940144204E+00    0.1495731571E-01    0.9150947043E-02    0.2915685584E-02
    0.4500000000E+04    0.6279322387E-02    0.6940775573E+00    0.1810058010E-01    0.1108803898E-01    0.2571329812E-02
    0.4700000000E+04    0.7525382613E-02    0.6941352726E+00    0.2172470051E-01    0.1332715581E-01    0.2188407191E-02
    0.4900000000E+04    0.8860833456E-02    0.6941882311E+00    0.2562164710E-01    0.1574305479E-01    0.1796297580E-02
    0.1000000000E+04    0.2914517577E-03    0.6893027413E+00    0.8065463267E-03    0.4860110908E-03    0.4588184079E-02
    0.3000000000E+04    0.1645218643E-02    0.6933969098E+00    0.4700045164E-02    0.2858945093E-02    0.4113401337E-02
    0.5000000000E+04    0.9525334017E-02    0.6942131052E+00    0.2756701535E-01    0.1695310521E-01    0.1609813479E-02
    0.7000000000E+04    0.1570310123E-01    0.6945598408E+00    0.4638528097E-01    0.2913124658E-01    0.6133194714E-03
    0.9000000000E+04    0.1841150208E-01    0.6947505561E+00    0.5550663955E-01    0.3559516693E-01    0.6171453651E-03
    0.1100000000E+05    0.2061676168E-01    0.6948706392E+00    0.6338237173E-01    0.4146060607E-01    0.6241073577E-03
    0.1300000000E+05    0.2243606976E-01    0.6949528607E+00    0.7028363710E-01    0.4685367250E-01    0.6299678461E-03
    0.1500000000E+05    0.2394482726E-01    0.6950124737E+00    0.7637932619E-01    0.5184772072E-01    0.6350258021E-03
    0.1700000000E+05    0.2520087336E-01    0.6950575301E+00    0.8180109726E-01    0.5650076207E-01    0.6394791148E-03
    0.1900000000E+05    0.2624925920E-01    0.6950926777E+00    0.8665323289E-01    0.6085942480E-01    0.6434600551E-03
    0.2100000000E+05    0.2712552461E-01    0.6951207843E+00    0.9101941498E-01    0.6496166816E-01    0.6470614685E-03
    0.2300000000E+05    0.2785802687E-01    0.6951437146E+00    0.9496758230E-01    0.6883874848E-01    0.6503510819E-03
    0.2500000000E+05    0.2846962496E-01    0.6951627321E+00    0.9855347521E-01    0.7251666867E-01    0.6533798470E-03
    0.2700000000E+05    0.2897891669E-01    0.6951787230E+00    0.1018232636E+00    0.7601726353E-01    0.6561870772E-03
    0.2900000000E+05    0.2940116048E-01    0.6951923270E+00    0.1048155232E+00    0.7935902387E-01    0.6588037545E-03
    0.3100000000E+05    0.2974897097E-01    0.6952040168E+00    0.1075627407E+00    0.8255773037E-01    0.6612547370E-03
    0.3300000000E+05    0.3003285021E-01    0.6952141495E+00    0.1100924751E+00    0.8562694679E-01    0.6635602789E-03
    0.3500000000E+05    0.3026159762E-01    0.6952229994E+00    0.1124282614E+00    0.8857840790E-01    0.6657371057E-03
    0.3700000000E+05    0.3044262958E-01    0.6952307809E+00    0.1145903234E+00    0.9142232761E-01    0.6677991917E-03
    0.3900000000E+05    0.3058223088E-01    0.6952376636E+00    0.1165961390E+00    0.9416764590E-01    0.6697583350E-03
    0.4100000000E+05    0.3068575416E-01    0.6952437838E+00    0.1184608936E+00    0.9682222853E-01    0.6716245880E-03
    0.4300000000E+05    0.3075777939E-01    0.6952492516E+00    0.1201978465E+00    0.9939302962E-01    0.6734065876E-03
    0.4500000000E+05    0.3080224241E-01    0.6952541576E+00    0.1218186286E+00    0.1018862252E+00    0.6751118097E-03
    0.4700000000E+05    0.3082253904E-01    0.6952585765E+00    0.1233334868E+00    0.1043073232E+00    0.6767467695E-03
    0.4900000000E+05    0.3082161016E-01    0.6952625706E+00    0.1247514852E+00    0.1066612558E+00    0.6783171796E-03
    0.1000000000E+05    0.1956795902E-01    0.6948167623E+00    0.5957871556E-01    0.3859228268E-01    0.6207854087E-03
    0.3000000000E+05    0.2958366930E-01    0.6951983866E+00    0.1062179359E+00    0.8097536414E-01    0.6600485982E-03
    0.5000000000E+05    0.3081399822E-01    0.6952644250E+00    0.1254267129E+00    0.1078144379E+00    0.6790797762E-03
    0.7000000000E+05    0.3001769204E-01    0.6952883864E+00    0.1353927471E+00    0.1282241273E+00    0.6919039795E-03
    0.9000000000E+05    0.2866152981E-01    0.6952992646E+00    0.1410926674E+00    0.1450611982E+00    0.7016367612E-03
    0.1100000000E+06    0.2718423956E-01    0.6953046217E+00    0.1444678426E+00    0.1595828436E+00    0.7095048363E-03
    0.1300000000E+06    0.2573645495E-01    0.6953072360E+00    0.1464400568E+00    0.1724569148E+00    0.7161212209E-03
    0.1500000000E+06    0.2437074369E-01    0.6953083436E+00    0.1475058343E+00    0.1840836376E+00    0.7218374194E-03
    0.1700000000E+06    0.2310242265E-01    0.6953085667E+00    0.1479572084E+00    0.1947237920E+00    0.7268741411E-03
    0.1900000000E+06    0.2193192447E-01    0.6953082469E+00    0.1479774059E+00    0.2045580385E+00    0.7313792465E-03
    0.2100000000E+06    0.2085380339E-01    0.6953075840E+00    0.1476872001E+00    0.2137175132E+00    0.7354567376E-03
    0.2300000000E+06    0.1986056767E-01    0.6953067007E+00    0.1471693420E+00    0.2223009543E+00    0.7391826020E-03
    0.2500000000E+06    0.1894434855E-01    0.6953056754E+00    0.1464823195E+00    0.2303849260E+00    0.7426140804E-03
    0.2700000000E+06    0.1809761472E-01    0.6953045595E+00    0.1456685327E+00    0.2380302465E+00    0.7457953864E-03
    0.2900000000E+06    0.1731345165E-01    0.6953033874E+00    0.1447593686E+00    0.2452862058E+00    0.7487613948E-03
    0.3100000000E+06    0.1658564018E-01    0.6953021830E+00    0.1437784704E+00    0.2521934344E+00    0.7515401083E-03
    0.3300000000E+06    0.1590864400E-01    0.6953009625E+00    0.1427439108E+00    0.2587859128E+00    0.7541543584E-03
    0.3500000000E+06    0.1527755854E-01    0.6952997375E+00    0.1416696751E+00    0.2650924182E+00    0.7566230093E-03
    0.3700000000E+06    0.1468804650E-01    0.6952985160E+00    0.1405666990E+00    0.2711375880E+00    0.7589618304E-03
    0.3900000000E+06    0.1413627189E-01    0.6952973038E+00    0.1394436071E+00    0.2769427190E+00    0.7611841406E-03
    0.4100000000E+06    0.1361883813E-01    0.6952961049E+00    0.1383072513E+00    0.2825263765E+00    0.7633012932E-03
    0.4300000000E+06    0.1313273212E-01    0.6952949219E+00    0.1371631062E+00    0.2879048675E+00    0.7653230457E-03
    0.4500000000E+06    0.1267527504E-01    0.6952937569E+00    0.1360155670E+00    0.2930926129E+00    0.7672578467E-03
    0.4700000000E+06    0.1224407934E-01    0.6952926109E+00    0.1348681737E+00    0.2981024430E+00    0.7691130612E-03
    0.4900000000E+06    0.1183701169E-01    0.6952914848E+00    0.1337237839E+00    0.3029458365E+00    0.7708951488E-03
    0.1000000000E+06    0.2792511607E-01    0.6953024048E+00    0.1429991904E+00    0.1525611341E+00    0.7057570441E-03
    0.3000000000E+06    0.1694286350E-01    0.6953027881E+00    0.1442766462E+00    0.2487811510E+00    0.7501726313E-03
    0.5000000000E+06    0.1164192075E-01    0.6952909293E+00    0.1331534555E+00    0.3053083854E+00    0.7717605768E-03
    0.7000000000E+06    0.8634550025E-02    0.6952808545E+00    0.1222712475E+00    0.3458632601E+00    0.7863174076E-03
    0.9000000000E+06    0.6719518587E-02    0.6952724659E+00    0.1126863809E+00    0.3772127417E+00    0.7973684762E-03
    0.1100000000E+07    0.5406859196E-02    0.6952653347E+00    0.1043740734E+00    0.4024823464E+00    0.8063037823E-03
    0.1300000000E+07    0.4459874955E-02    0.6952591452E+00    0.9715336537E-01    0.4234242875E+00    0.8138184277E-03
    0.1500000000E+07    0.3750351366E-02    0.6952536804E+00    0.9084301921E-01    0.4411334687E+00    0.8203111554E-03
    0.1700000000E+07    0.3202942576E-02    0.6952487882E+00    0.8528957265E-01    0.4563437801E+00    0.8260324080E-03
    0.1900000000E+07    0.2770587449E-02    0.6952443593E+00    0.8036839781E-01    0.4695720655E+00    0.8311500003E-03
    0.2100000000E+07    0.2422462292E-02    0.6952403125E+00    0.7597920107E-01    0.4811960196E+00    0.8357819878E-03
    0.2300000000E+07    0.2137594104E-02    0.6952365861E+00    0.7204110631E-01    0.4914997293E+00    0.8400146370E-03
    0.2500000000E+07    0.1901258031E-02    0.6952331325E+00    0.6848848809E-01    0.5007019007E+00    0.8439129377E-03
    0.2700000000E+07    0.1702840564E-02    0.6952299136E+00    0.6526768291E-01    0.5089741766E+00    0.8475270928E-03
    0.2900000000E+07    0.1534518305E-02    0.6952268991E+00    0.6233445224E-01    0.5164534681E+00    0.8508967043E-03
    0.3100000000E+07    0.1390411844E-02    0.6952240639E+00    0.5965203578E-01    0.5232505141E+00    0.8540535722E-03
    0.3300000000E+07    0.1266027434E-02    0.6952213875E+00    0.5718965399E-01    0.5294559761E+00    0.8570236250E-03
    0.3500000000E+07    0.1157878864E-02    0.6952188527E+00    0.5492134932E-01    0.5351448729E+00    0.8598282871E-03
    0.3700000000E+07    0.1063225503E-02    0.6952164449E+00    0.5282508320E-01    0.5403798703E+00    0.8624854685E-03
    0.3900000000E+07    0.9798871304E-03    0.6952141517E+00    0.5088202644E-01    0.5452137601E+00    0.8650102965E-03
    0.4100000000E+07    0.9061106955E-03    0.6952119624E+00    0.4907599743E-01    0.5496913575E+00    0.8674156662E-03
    0.4300000000E+07    0.8404728906E-03    0.6952098679E+00    0.4739301360E-01    0.5538509707E+00    0.8697126606E-03
    0.4500000000E+07    0.7818078744E-03    0.6952078600E+00    0.4582093084E-01    0.5577255538E+00    0.8719108762E-03
    0.4700000000E+07    0.7291529457E-03    0.6952059317E+00    0.4434915125E-01    0.5613436198E+00    0.8740186788E-03
    0.4900000000E+07    0.6817072179E-03    0.6952040768E+00    0.4296838495E-01    0.5647299716E+00    0.8760434057E-03
    0.1000000000E+07    0.6006245380E-02    0.6952687656E+00    0.1083817352E+00    0.3904773950E+00    0.8020474918E-03
    0.3000000000E+07    0.1459746314E-02    0.6952254604E+00    0.6096394113E-01    0.5199311935E+00    0.8524999913E-03
    0.5000000000E+07    0.6597237983E-03    0.6952031751E+00    0.4230953747E-01    0.5663431384E+00    0.8770266683E-03
    0.7000000000E+07    0.3767447231E-03    0.6951879317E+00    0.3236364484E-01    0.5904994091E+00    0.8935657255E-03
    0.9000000000E+07    0.2440778313E-03    0.6951762815E+00    0.2618607324E-01    0.6053343626E+00    0.9061218204E-03
    0.1100000000E+08    0.1712007346E-03    0.6951668246E+00    0.2197834742E-01    0.6153724888E+00    0.9162740818E-03
    0.1300000000E+08    0.1268388817E-03    0.6951588507E+00    0.1892899224E-01    0.6226158942E+00    0.9248122248E-03
    0.1500000000E+08    0.9781171922E-04    0.6951519484E+00    0.1661822219E-01    0.6280882885E+00    0.9321892787E-03
    0.1700000000E+08    0.7777037918E-04    0.6951458578E+00    0.1480710759E-01    0.6323678141E+00    0.9386897867E-03
    0.1900000000E+08    0.6334613169E-04    0.6951404039E+00    0.1334967484E-01    0.6358057184E+00    0.9445044160E-03
    0.2100000000E+08    0.5261506622E-04    0.6951354632E+00    0.1215172296E-01    0.6386277215E+00    0.9497672994E-03
    0.2300000000E+08    0.4441284463E-04    0.6951309453E+00    0.1114974920E-01    0.6409854884E+00    0.9545764520E-03
    0.2500000000E+08    0.3800096301E-04    0.6951267817E+00    0.1029939151E-01    0.6429846926E+00    0.9590057151E-03
    0.2700000000E+08    0.3289247941E-04    0.6951229196E+00    0.9568725633E-02    0.6447012171E+00    0.9631121292E-03
