  Pressure (Pa) 23mC5-500 (mol/kg) 24mC5-500 (mol/kg) 2mC6-500 (mol/kg) 3mC6-500 (mol/kg) C7-500 (mol/kg)
    0.1000000000E+01    0.6879343096E-05    0.9950125487E-01    0.3140222682E-05    0.3591479961E-05    0.4170098991E-02
    0.3000000000E+01    0.1517893288E-04    0.2321201069E+00    0.6663016352E-05    0.9033541744E-05    0.4201608601E-02
    0.5000000000E+01    0.1990095254E-04    0.3164850922E+00    0.8528678312E-05    0.1400253115E-04    0.4217633070E-02
    0.7000000000E+01    0.2287031622E-04    0.3748788784E+00    0.9657026485E-05    0.1874445267E-04    0.4228241216E-02
    0.9000000000E+01    0.2488279456E-04    0.4176945763E+00    0.1042360409E-04    0.2334159059E-04    0.4235864562E-02
    0.1100000000E+02    0.2633347130E-04    0.4504324553E+00    0.1100229503E-04    0.2783493843E-04    0.4241612813E-02
    0.1300000000E+02    0.2743675732E-04    0.4762760594E+00    0.1148056654E-04    0.3224882297E-04    0.4246093527E-02
    0.1500000000E+02    0.2831691990E-04    0.4971957698E+00    0.1190506125E-04    0.3659923813E-04    0.4249673119E-02
    0.1700000000E+02    0.2904971516E-04    0.5144764224E+00    0.1230170359E-04    0.4089744026E-04    0.4252587342E-02
    0.1900000000E+02    0.2968320646E-04    0.5289915996E+00    0.1268531393E-04    0.4515174739E-04    0.4254995358E-02
    0.2100000000E+02    0.3024888286E-04    0.5413559841E+00    0.1306450420E-04    0.4936853625E-04    0.4257008753E-02
    0.2300000000E+02    0.3076792157E-04    0.5520146545E+00    0.1344429917E-04    0.5355283779E-04    0.4258708208E-02
    0.2500000000E+02    0.3125487376E-04    0.5612978078E+00    0.1382759827E-04    0.5770871388E-04    0.4260153569E-02
    0.2700000000E+02    0.3171991545E-04    0.5694555787E+00    0.1421601851E-04    0.6183950678E-04    0.4261390211E-02
    0.2900000000E+02    0.3217026605E-04    0.5766809189E+00    0.1461039398E-04    0.6594801069E-04    0.4262453182E-02
    0.3100000000E+02    0.3261110678E-04    0.5831250541E+00    0.1501107844E-04    0.7003659332E-04    0.4263370004E-02
    0.3300000000E+02    0.3304618953E-04    0.5889081848E+00    0.1541813205E-04    0.7410728444E-04    0.4264162601E-02
    0.3500000000E+02    0.3347824886E-04    0.5941270550E+00    0.1583143809E-04    0.7816184175E-04    0.4264848660E-02
    0.3700000000E+02    0.3390928589E-04    0.5988604070E+00    0.1625077659E-04    0.8220180096E-04    0.4265442617E-02
    0.3900000000E+02    0.3434076708E-04    0.6031729833E+00    0.1667587115E-04    0.8622851434E-04    0.4265956372E-02
    0.4100000000E+02    0.3477376544E-04    0.6071185048E+00    0.1710641857E-04    0.9024318107E-04    0.4266399827E-02
    0.4300000000E+02    0.3520906206E-04    0.6107419211E+00    0.1754210760E-04    0.9424687121E-04    0.4266781292E-02
    0.4500000000E+02    0.3564722004E-04    0.6140811300E+00    0.1798263056E-04    0.9824054511E-04    0.4267107793E-02
    0.4700000000E+02    0.3608863879E-04    0.6171683082E+00    0.1842769035E-04    0.1022250690E-03    0.4267385315E-02
    0.4900000000E+02    0.3653359431E-04    0.6200309521E+00    0.1887700455E-04    0.1062012281E-03    0.4267618986E-02
    0.1000000000E+02    0.2566213090E-04    0.4350869488E+00    0.1072966042E-04    0.2559946020E-04    0.4238927520E-02
    0.3000000000E+02    0.3239161274E-04    0.5799924984E+00    0.1480993857E-04    0.6799465825E-04    0.4262928378E-02
    0.5000000000E+02    0.3675745844E-04    0.6213855921E+00    0.1910317333E-04    0.1081863967E-03    0.4267720783E-02
    0.7000000000E+02    0.4143619679E-04    0.6409919585E+00    0.2379487346E-04    0.1475952346E-03    0.4268263820E-02
    0.9000000000E+02    0.4646016280E-04    0.6524288005E+00    0.2870893052E-04    0.1867080493E-03    0.4267125965E-02
    0.1100000000E+03    0.5175461546E-04    0.6599218231E+00    0.3376523692E-04    0.2257731546E-03    0.4265128812E-02
    0.1300000000E+03    0.5726320144E-04    0.6652109675E+00    0.3892732431E-04    0.2649424484E-03    0.4262619352E-02
    0.1500000000E+03    0.6294926325E-04    0.6691438849E+00    0.4417796209E-04    0.3043198185E-03    0.4259770070E-02
    0.1700000000E+03    0.6878929607E-04    0.6721829270E+00    0.4950905465E-04    0.3439820823E-03    0.4256676438E-02
    0.1900000000E+03    0.7476816429E-04    0.6746017297E+00    0.5491716307E-04    0.3839894792E-03    0.4253395450E-02
    0.2100000000E+03    0.8087612248E-04    0.6765725821E+00    0.6040136683E-04    0.4243914872E-03    0.4249963051E-02
    0.2300000000E+03    0.8710698764E-04    0.6782093702E+00    0.6596217606E-04    0.4652302997E-03    0.4246402851E-02
    0.2500000000E+03    0.9345699942E-04    0.6795903906E+00    0.7160094908E-04    0.5065430256E-03    0.4242730818E-02
    0.2700000000E+03    0.9992409231E-04    0.6807712453E+00    0.7731956756E-04    0.5483631500E-03    0.4238957973E-02
    0.2900000000E+03    0.1065074194E-03    0.6817925086E+00    0.8312024952E-04    0.5907215414E-03    0.4235092010E-02
    0.3100000000E+03    0.1132070336E-03    0.6826844831E+00    0.8900543936E-04    0.6336471693E-03    0.4231138309E-02
    0.3300000000E+03    0.1200236698E-03    0.6834702564E+00    0.9497774212E-04    0.6771676316E-03    0.4227100600E-02
    0.3500000000E+03    0.1269585935E-03    0.6841677278E+00    0.1010398842E-03    0.7213095504E-03    0.4222981406E-02
    0.3700000000E+03    0.1340134939E-03    0.6847909883E+00    0.1071946904E-03    0.7660988788E-03    0.4218782338E-02
    0.3900000000E+03    0.1411904074E-03    0.6853512822E+00    0.1134450704E-03    0.8115611413E-03    0.4214504316E-02
    0.4100000000E+03    0.1484916627E-03    0.6858576915E+00    0.1197940121E-03    0.8577216282E-03    0.4210147714E-02
    0.4300000000E+03    0.1559198405E-03    0.6863176318E+00    0.1262445790E-03    0.9046055549E-03    0.4205712475E-02
    0.4500000000E+03    0.1634777453E-03    0.6867372175E+00    0.1327999102E-03    0.9522381954E-03    0.4201198188E-02
    0.4700000000E+03    0.1711683833E-03    0.6871215356E+00    0.1394632219E-03    0.1000644996E-02    0.4196604149E-02
    0.4900000000E+03    0.1789949483E-03    0.6874748525E+00    0.1462378104E-03    0.1049851677E-02    0.4191929409E-02
    0.1000000000E+03    0.4907764125E-04    0.6565287649E+00    0.3122221550E-04    0.2062355839E-03    0.4266207142E-02
    0.3000000000E+03    0.1098426586E-03    0.6822530725E+00    0.8605212135E-04    0.6121116989E-03    0.4233125860E-02
    0.5000000000E+03    0.1829602501E-03    0.6876410343E+00    0.1496678866E-03    0.1074763104E-02    0.4189561421E-02
    0.7000000000E+03    0.2703277635E-03    0.6899757924E+00    0.2249979363E-03    0.1621705875E-02    0.4137583787E-02
    0.9000000000E+03    0.3763351206E-03    0.6912794123E+00    0.3161092026E-03    0.2283425808E-02    0.4075214828E-02
    0.1100000000E+04    0.5074201068E-03    0.6921113256E+00    0.4286493176E-03    0.3101422229E-02    0.3999163467E-02
    0.1300000000E+04    0.6730422908E-03    0.6926882697E+00    0.5708182001E-03    0.4135782447E-02    0.3904560537E-02
    0.1500000000E+04    0.8874484832E-03    0.6931118438E+00    0.7549317448E-03    0.5476777757E-02    0.3784164355E-02
    0.1700000000E+04    0.1172638251E-02    0.6934360003E+00    0.1000008671E-02    0.7263970228E-02    0.3627019783E-02
    0.1900000000E+04    0.1563157260E-02    0.6936920441E+00    0.1335952774E-02    0.9717188497E-02    0.3416412521E-02
    0.2100000000E+04    0.2112804934E-02    0.6938993870E+00    0.1809448378E-02    0.1318054487E-01    0.3127417833E-02
    0.2300000000E+04    0.2898955739E-02    0.6940707056E+00    0.2487946540E-02    0.1815361711E-01    0.2726934679E-02
    0.2500000000E+04    0.4002567829E-02    0.6942146290E+00    0.3442931455E-02    0.2517277487E-01    0.2187979131E-02
    0.2700000000E+04    0.5411832370E-02    0.6943372344E+00    0.4667242536E-02    0.3420881869E-01    0.1540989492E-02
    0.2900000000E+04    0.6883126662E-02    0.6944429260E+00    0.5953788740E-02    0.4376818546E-01    0.9299731514E-03
    0.3100000000E+04    0.8079036484E-02    0.6945349732E+00    0.7011301459E-02    0.5171567801E-01    0.5142931055E-03
    0.3300000000E+04    0.8913453069E-02    0.6946158538E+00    0.7762442232E-02    0.5746160342E-01    0.3038217077E-03
    0.3500000000E+04    0.9506692403E-02    0.6946874805E+00    0.8308637983E-02    0.6173123032E-01    0.2151493271E-03
    0.3700000000E+04    0.9977782691E-02    0.6947513525E+00    0.8751697337E-02    0.6526398276E-01    0.1810051075E-03
    0.3900000000E+04    0.1039045779E-01    0.6948086622E+00    0.9146399225E-02    0.6845981509E-01    0.1684541129E-03
    0.4100000000E+04    0.1077260981E-01    0.6948603694E+00    0.9516757385E-02    0.7149443812E-01    0.1640570400E-03
    0.4300000000E+04    0.1113569284E-01    0.6949072555E+00    0.9872607524E-02    0.7443969112E-01    0.1626853734E-03
    0.4500000000E+04    0.1148442460E-01    0.6949499632E+00    0.1021795432E-01    0.7732452954E-01    0.1624263687E-03
    0.4700000000E+04    0.1182086577E-01    0.6949890258E+00    0.1055449676E-01    0.8016090261E-01    0.1625712411E-03
    0.4900000000E+04    0.1214603822E-01    0.6950248897E+00    0.1088303183E-01    0.8295409838E-01    0.1628576104E-03
    0.1000000000E+04    0.4382386925E-03    0.6917367463E+00    0.3692625613E-03    0.2669678438E-02    0.4039159744E-02
    0.3000000000E+04    0.7528632015E-02    0.6944904848E+00    0.6522670197E-02    0.4802893285E-01    0.6931426608E-03
    0.5000000000E+04    0.1230459796E-01    0.6950417420E+00    0.1104444177E-01    0.8433539160E-01    0.1630205059E-03
    0.7000000000E+04    0.1498543797E-01    0.6952773239E+00    0.1392019567E-01    0.1100619101E+00    0.1660928405E-03
    0.9000000000E+04    0.1691491439E-01    0.6954077342E+00    0.1623964168E-01    0.1327193126E+00    0.1684461803E-03
    0.1100000000E+05    0.1829347701E-01    0.6954903982E+00    0.1813075396E-01    0.1529224464E+00    0.1703460138E-03
    0.1300000000E+05    0.1926173883E-01    0.6955473918E+00    0.1968572874E-01    0.1711239547E+00    0.1719421881E-03
    0.1500000000E+05    0.1992056053E-01    0.6955890094E+00    0.2097262541E-01    0.1876653386E+00    0.1733203414E-03
    0.1700000000E+05    0.2034365185E-01    0.6956206958E+00    0.2204272789E-01    0.2028095563E+00    0.1745341238E-03
    0.1900000000E+05    0.2058575431E-01    0.6956455999E+00    0.2293538060E-01    0.2167627584E+00    0.1756194180E-03
    0.2100000000E+05    0.2068809292E-01    0.6956656689E+00    0.2368125056E-01    0.2296891597E+00    0.1766014317E-03
    0.2300000000E+05    0.2068209161E-01    0.6956821713E+00    0.2430457990E-01    0.2417214491E+00    0.1774985645E-03
    0.2500000000E+05    0.2059195665E-01    0.6956959685E+00    0.2482477398E-01    0.2529682254E+00    0.1783246656E-03
    0.2700000000E+05    0.2043650562E-01    0.6957076661E+00    0.2525754214E-01    0.2635194072E+00    0.1790904254E-03
    0.2900000000E+05    0.2023048327E-01    0.6957177019E+00    0.2561573108E-01    0.2734502329E+00    0.1798042719E-03
    0.3100000000E+05    0.1998552195E-01    0.6957264003E+00    0.2590994297E-01    0.2828242634E+00    0.1804729691E-03
    0.3300000000E+05    0.1971085200E-01    0.6957340070E+00    0.2614900041E-01    0.2916956668E+00    0.1811020298E-03
    0.3500000000E+05    0.1941383348E-01    0.6957407109E+00    0.2634030057E-01    0.3001109776E+00    0.1816960072E-03
    0.3700000000E+05    0.1910035845E-01    0.6957466602E+00    0.2649008814E-01    0.3081104686E+00    0.1822587066E-03
    0.3900000000E+05    0.1877515838E-01    0.6957519724E+00    0.2660366798E-01    0.3157292305E+00    0.1827933411E-03
    0.4100000000E+05    0.1844204129E-01    0.6957567418E+00    0.2668557242E-01    0.3229980306E+00    0.1833026488E-03
    0.4300000000E+05    0.1810407608E-01    0.6957610454E+00    0.2673969413E-01    0.3299440019E+00    0.1837889826E-03
    0.4500000000E+05    0.1776373694E-01    0.6957649460E+00    0.2676939248E-01    0.3365912006E+00    0.1842543793E-03
    0.4700000000E+05    0.1742301742E-01    0.6957684960E+00    0.2677757951E-01    0.3429610612E+00    0.1847006143E-03
    0.4900000000E+05    0.1708352086E-01    0.6957717389E+00    0.2676678971E-01    0.3490727706E+00    0.1851292444E-03
    0.1000000000E+05    0.1766315150E-01    0.6954532405E+00    0.1723230211E-01    0.1430962870E+00    0.1694413221E-03
    0.3000000000E+05    0.2011224375E-01    0.6957222014E+00    0.2577024564E-01    0.2782032647E+00    0.1801438942E-03
    0.5000000000E+05    0.1691464368E-01    0.6957732570E+00    0.2675498161E-01    0.3520372769E+00    0.1853373930E-03
    0.7000000000E+05    0.1379910020E-01    0.6957939711E+00    0.2593435743E-01    0.4011773274E+00    0.1888380976E-03
    0.9000000000E+05    0.1131017475E-01    0.6958048221E+00    0.2460138440E-01    0.4368295987E+00    0.1914953010E-03
    0.1100000000E+06    0.9381121988E-02    0.6958113039E+00    0.2316496049E-01    0.4640349318E+00    0.1936435963E-03
    0.1300000000E+06    0.7882126248E-02    0.6958154948E+00    0.2177115406E-01    0.4855223034E+00    0.1954502364E-03
    0.1500000000E+06    0.6704041938E-02    0.6958183486E+00    0.2047142136E-01    0.5029350350E+00    0.1970111425E-03
    0.1700000000E+06    0.5765637756E-02    0.6958203615E+00    0.1927975814E-01    0.5173337084E+00    0.1983865511E-03
    0.1900000000E+06    0.5008078113E-02    0.6958218158E+00    0.1819484926E-01    0.5294375086E+00    0.1996168202E-03
    0.2100000000E+06    0.4388762183E-02    0.6958228833E+00    0.1720935397E-01    0.5397528295E+00    0.2007303391E-03
    0.2300000000E+06    0.3876564768E-02    0.6958236738E+00    0.1631396376E-01    0.5486470998E+00    0.2017478510E-03
    0.2500000000E+06    0.3448463091E-02    0.6958242607E+00    0.1549918894E-01    0.5563935923E+00    0.2026849826E-03
    0.2700000000E+06    0.3087200856E-02    0.6958246947E+00    0.1475611510E-01    0.5631998368E+00    0.2035538043E-03
    0.2900000000E+06    0.2779673267E-02    0.6958250115E+00    0.1407668223E-01    0.5692262872E+00    0.2043638375E-03
    0.3100000000E+06    0.2515802590E-02    0.6958252374E+00    0.1345374280E-01    0.5745989521E+00    0.2051227277E-03
    0.3300000000E+06    0.2287746822E-02    0.6958253918E+00    0.1288102116E-01    0.5794181603E+00    0.2058367084E-03
    0.3500000000E+06    0.2089335988E-02    0.6958254892E+00    0.1235303320E-01    0.5837647770E+00    0.2065109303E-03
    0.3700000000E+06    0.1915665561E-02    0.6958255410E+00    0.1186499463E-01    0.5877046976E+00    0.2071496991E-03
    0.3900000000E+06    0.1762799574E-02    0.6958255558E+00    0.1141273110E-01    0.5912921524E+00    0.2077566514E-03
    0.4100000000E+06    0.1627551260E-02    0.6958255405E+00    0.1099259582E-01    0.5945721728E+00    0.2083348873E-03
    0.4300000000E+06    0.1507319127E-02    0.6958255005E+00    0.1060139659E-01    0.5975824582E+00    0.2088870711E-03
    0.4500000000E+06    0.1399963147E-02    0.6958254403E+00    0.1023633245E-01    0.6003548069E+00    0.2094155097E-03
    0.4700000000E+06    0.1303710302E-02    0.6958253633E+00    0.9894939195E-02    0.6029162245E+00    0.2099222143E-03
    0.4900000000E+06    0.1217081829E-02    0.6958252725E+00    0.9575042867E-02    0.6052897917E+00    0.2104089486E-03
    0.1000000000E+06    0.1028396050E-01    0.6958084396E+00    0.2388365796E-01    0.4512832327E+00    0.1926202825E-03
    0.3000000000E+06    0.2642815825E-02    0.6958251345E+00    0.1375856266E-01    0.5719875532E+00    0.2047492572E-03
    0.5000000000E+06    0.1176980904E-02    0.6958252226E+00    0.9422546169E-02    0.6064124430E+00    0.2106453203E-03
    0.7000000000E+06    0.6638314606E-03    0.6958238966E+00    0.7135240195E-02    0.6226138038E+00    0.2146212663E-03
    0.9000000000E+06    0.4262311752E-03    0.6958223960E+00    0.5732432139E-02    0.6320132310E+00    0.2176397711E-03
    0.1100000000E+07    0.2970074227E-03    0.6958209500E+00    0.4786580720E-02    0.6381451062E+00    0.2200804301E-03
    0.1300000000E+07    0.2189543665E-03    0.6958196055E+00    0.4106504280E-02    0.6424587036E+00    0.2221330760E-03
    0.1500000000E+07    0.1681933461E-03    0.6958183655E+00    0.3594339727E-02    0.6456573155E+00    0.2239066089E-03
    0.1700000000E+07    0.1333176605E-03    0.6958172214E+00    0.3194914732E-02    0.6481232361E+00    0.2254694280E-03
    0.1900000000E+07    0.1083171584E-03    0.6958161626E+00    0.2874796807E-02    0.6500820456E+00    0.2268673666E-03
    0.2100000000E+07    0.8977959979E-04    0.6958151786E+00    0.2612560871E-02    0.6516754071E+00    0.2281326682E-03
    0.2300000000E+07    0.7565023579E-04    0.6958142603E+00    0.2393849521E-02    0.6529967494E+00    0.2292888944E-03
    0.2500000000E+07    0.6463137625E-04    0.6958134000E+00    0.2208684039E-02    0.6541101758E+00    0.2303537958E-03
    0.2700000000E+07    0.5587053378E-04    0.6958125909E+00    0.2049915160E-02    0.6550611276E+00    0.2313410841E-03
    0.2900000000E+07    0.4878883055E-04    0.6958118275E+00    0.1912287590E-02    0.6558827118E+00    0.2322615762E-03
    0.3100000000E+07    0.4298192211E-04    0.6958111048E+00    0.1791852379E-02    0.6565996179E+00    0.2331239575E-03
    0.3300000000E+07    0.3816040530E-04    0.6958104188E+00    0.1685585122E-02    0.6572306327E+00    0.2339353103E-03
    0.3500000000E+07    0.3411269372E-04    0.6958097660E+00    0.1591130591E-02    0.6577903035E+00    0.2347014862E-03
    0.3700000000E+07    0.3068117285E-04    0.6958091432E+00    0.1506627515E-02    0.6582900702E+00    0.2354273771E-03
    0.3900000000E+07    0.2774646888E-04    0.6958085477E+00    0.1430585643E-02    0.6587390522E+00    0.2361171152E-03
    0.4100000000E+07    0.2521682156E-04    0.6958079774E+00    0.1361797762E-02    0.6591446082E+00    0.2367742224E-03
    0.4300000000E+07    0.2302075160E-04    0.6958074300E+00    0.1299275601E-02    0.6595127418E+00    0.2374017261E-03
    0.4500000000E+07    0.2110190471E-04    0.6958069039E+00    0.1242202388E-02    0.6598483991E+00    0.2380022475E-03
    0.4700000000E+07    0.1941536351E-04    0.6958063973E+00    0.1189897227E-02    0.6601556918E+00    0.2385780717E-03
    0.4900000000E+07    0.1792496827E-04    0.6958059089E+00    0.1141787990E-02    0.6604380662E+00    0.2391312029E-03
    0.1000000000E+07    0.3528572801E-03    0.6958216615E+00    0.5217477123E-02    0.6353712700E+00    0.2189178277E-03
    0.3000000000E+07    0.4574629197E-04    0.6958114613E+00    0.1850128162E-02    0.6562529598E+00    0.2326995554E-03
    0.5000000000E+07    0.1724392339E-04    0.6958056711E+00    0.1119152560E-02    0.6605708363E+00    0.2393998192E-03
    0.7000000000E+07    0.9037139135E-05    0.6958016179E+00    0.8007326990E-03    0.6624330206E+00    0.2439181790E-03
    0.9000000000E+07    0.5574592818E-05    0.6957984861E+00    0.6227447469E-03    0.6634699727E+00    0.2473485133E-03
    0.1100000000E+08    0.3791304188E-05    0.6957959270E+00    0.5091687517E-03    0.6641305333E+00    0.2501221770E-03
    0.1300000000E+08    0.2751945699E-05    0.6957937594E+00    0.4304404274E-03    0.6645880634E+00    0.2524548933E-03
    0.1500000000E+08    0.2092732647E-05    0.6957918769E+00    0.3726772431E-03    0.6649236536E+00    0.2544704167E-03
    0.1700000000E+08    0.1648080656E-05    0.6957902115E+00    0.3285014988E-03    0.6651802951E+00    0.2562464770E-03
    0.1900000000E+08    0.1333761319E-05    0.6957887170E+00    0.2936312876E-03    0.6653829004E+00    0.2578351604E-03
    0.2100000000E+08    0.1103219429E-05    0.6957873608E+00    0.2654115017E-03    0.6655469007E+00    0.2592731095E-03
    0.2300000000E+08    0.9290061253E-06    0.6957861187E+00    0.2421085991E-03    0.6656823640E+00    0.2605871002E-03
    0.2500000000E+08    0.7940784610E-06    0.6957849726E+00    0.2225428726E-03    0.6657961386E+00    0.2617973050E-03
    0.2700000000E+08    0.6873961365E-06    0.6957839082E+00    0.2058837375E-03    0.6658930442E+00    0.2629193068E-03
