  Pressure (Pa) 23mC5-500 (mol/kg) 24mC5-500 (mol/kg) 2mC6-500 (mol/kg) 3mC6-500 (mol/kg) C7-500 (mol/kg)
    0.1000000000E+01    0.7233966862E-05    0.6965111971E-01    0.1321419540E-04    0.8379871217E-06    0.4184849400E-02
    0.3000000000E+01    0.1730801165E-04    0.1740872961E+00    0.3061680416E-04    0.2128051551E-05    0.4231083092E-02
    0.5000000000E+01    0.2393308509E-04    0.2486559081E+00    0.4139531824E-04    0.3310016796E-05    0.4261140013E-02
    0.7000000000E+01    0.2853679038E-04    0.3045675122E+00    0.4852180657E-04    0.4439516667E-05    0.4283451307E-02
    0.9000000000E+01    0.3187367927E-04    0.3480460199E+00    0.5350129802E-04    0.5535283700E-05    0.4300809346E-02
    0.1100000000E+02    0.3437740072E-04    0.3828239263E+00    0.5716296042E-04    0.6606685702E-05    0.4314739866E-02
    0.1300000000E+02    0.3631251928E-04    0.4112755541E+00    0.5999064604E-04    0.7659297141E-05    0.4326184678E-02
    0.1500000000E+02    0.3784810428E-04    0.4349833130E+00    0.6227930471E-04    0.8696791042E-05    0.4335763968E-02
    0.1700000000E+02    0.3909630090E-04    0.4550424564E+00    0.6421500676E-04    0.9721757142E-05    0.4343904861E-02
    0.1900000000E+02    0.4013380919E-04    0.4722351560E+00    0.6591838884E-04    0.1073611212E-04    0.4350911883E-02
    0.2100000000E+02    0.4101444701E-04    0.4871349128E+00    0.6746939416E-04    0.1174132731E-04    0.4357008340E-02
    0.2300000000E+02    0.4177680400E-04    0.5001717955E+00    0.6892192717E-04    0.1273856490E-04    0.4362361886E-02
    0.2500000000E+02    0.4244906848E-04    0.5116746431E+00    0.7031282697E-04    0.1372876415E-04    0.4367100939E-02
    0.2700000000E+02    0.4305216317E-04    0.5218991954E+00    0.7166751942E-04    0.1471269866E-04    0.4371325594E-02
    0.2900000000E+02    0.4360183518E-04    0.5310473357E+00    0.7300366510E-04    0.1569101568E-04    0.4375115062E-02
    0.3100000000E+02    0.4411008085E-04    0.5392805597E+00    0.7433356403E-04    0.1666426405E-04    0.4378532883E-02
    0.3300000000E+02    0.4458613659E-04    0.5467295941E+00    0.7566577034E-04    0.1763291459E-04    0.4381630633E-02
    0.3500000000E+02    0.4503718028E-04    0.5535013917E+00    0.7700619417E-04    0.1859737519E-04    0.4384450637E-02
    0.3700000000E+02    0.4546883567E-04    0.5596843008E+00    0.7835886433E-04    0.1955800243E-04    0.4387027961E-02
    0.3900000000E+02    0.4588554036E-04    0.5653519423E+00    0.7972646278E-04    0.2051511039E-04    0.4389391916E-02
    0.4100000000E+02    0.4629081768E-04    0.5705661555E+00    0.8111070327E-04    0.2146897768E-04    0.4391567201E-02
    0.4300000000E+02    0.4668748003E-04    0.5753792644E+00    0.8251260221E-04    0.2241985298E-04    0.4393574779E-02
    0.4500000000E+02    0.4707778252E-04    0.5798358403E+00    0.8393267392E-04    0.2336795950E-04    0.4395432564E-02
    0.4700000000E+02    0.4746354017E-04    0.5839740862E+00    0.8537107246E-04    0.2431349861E-04    0.4397155962E-02
    0.4900000000E+02    0.4784621820E-04    0.5878269351E+00    0.8682769506E-04    0.2525665284E-04    0.4398758293E-02
    0.1000000000E+02    0.3321028624E-04    0.3663507045E+00    0.5546087534E-04    0.6073623188E-05    0.4308134524E-02
    0.3000000000E+02    0.4386050371E-04    0.5352695132E+00    0.7366878789E-04    0.1617824239E-04    0.4376866961E-02
    0.5000000000E+02    0.4803678219E-04    0.5896554060E+00    0.8756275720E-04    0.2572738812E-04    0.4399517738E-02
    0.7000000000E+02    0.5187680870E-04    0.6165039991E+00    0.1031073601E-03    0.3505049252E-04    0.4410499423E-02
    0.9000000000E+02    0.5594667229E-04    0.6325049895E+00    0.1198877691E-03    0.4426056113E-04    0.4416649749E-02
    0.1100000000E+03    0.6028480624E-04    0.6431276987E+00    0.1374901970E-03    0.5341484563E-04    0.4420287173E-02
    0.1300000000E+03    0.6485753410E-04    0.6506936182E+00    0.1556678859E-03    0.6254791311E-04    0.4422427759E-02
    0.1500000000E+03    0.6962755848E-04    0.6563562080E+00    0.1742770384E-03    0.7168295505E-04    0.4423591805E-02
    0.1700000000E+03    0.7456471236E-04    0.6607534273E+00    0.1932319217E-03    0.8083669592E-04    0.4424075392E-02
    0.1900000000E+03    0.7964617481E-04    0.6642667776E+00    0.2124801660E-03    0.9002185914E-04    0.4424060408E-02
    0.2100000000E+03    0.8485495075E-04    0.6671384040E+00    0.2319892655E-03    0.9924853695E-04    0.4423665269E-02
    0.2300000000E+03    0.9017839228E-04    0.6695294017E+00    0.2517389755E-03    0.1085250100E-03    0.4422970656E-02
    0.2500000000E+03    0.9560705460E-04    0.6715511090E+00    0.2717168717E-03    0.1178582664E-03    0.4422033591E-02
    0.2700000000E+03    0.1011338618E-03    0.6732829405E+00    0.2919156658E-03    0.1272543456E-03    0.4420895599E-02
    0.2900000000E+03    0.1067535075E-03    0.6747830634E+00    0.3123315309E-03    0.1367185755E-03    0.4419587680E-02
    0.3100000000E+03    0.1124620237E-03    0.6760950581E+00    0.3329630279E-03    0.1462557401E-03    0.4418133471E-02
    0.3300000000E+03    0.1182564679E-03    0.6772522211E+00    0.3538104004E-03    0.1558702018E-03    0.4416551310E-02
    0.3500000000E+03    0.1241346939E-03    0.6782804292E+00    0.3748751021E-03    0.1655659933E-03    0.4414855645E-02
    0.3700000000E+03    0.1300951817E-03    0.6792000973E+00    0.3961594732E-03    0.1753468864E-03    0.4413058007E-02
    0.3900000000E+03    0.1361369104E-03    0.6800275471E+00    0.4176665170E-03    0.1852164461E-03    0.4411167697E-02
    0.4100000000E+03    0.1422592612E-03    0.6807759842E+00    0.4393997422E-03    0.1951780729E-03    0.4409192291E-02
    0.4300000000E+03    0.1484619439E-03    0.6814562078E+00    0.4613630510E-03    0.2052350368E-03    0.4407138005E-02
    0.4500000000E+03    0.1547449395E-03    0.6820771348E+00    0.4835606594E-03    0.2153905043E-03    0.4405009977E-02
    0.4700000000E+03    0.1611084558E-03    0.6826461930E+00    0.5059970388E-03    0.2256475613E-03    0.4402812471E-02
    0.4900000000E+03    0.1675528924E-03    0.6831696192E+00    0.5286768749E-03    0.2360092313E-03    0.4400549044E-02
    0.1000000000E+03    0.5808393492E-04    0.6383036025E+00    0.1286047772E-03    0.4884216440E-04    0.4418702268E-02
    0.3000000000E+03    0.1095968617E-03    0.6754602937E+00    0.3226203432E-03    0.1414777596E-03    0.4418877611E-02
    0.5000000000E+03    0.1708056263E-03    0.6834159014E+00    0.5401096044E-03    0.2412302281E-03    0.4399393559E-02
    0.7000000000E+03    0.2403175761E-03    0.6868820581E+00    0.7828248058E-03    0.3518617430E-03    0.4373325203E-02
    0.9000000000E+03    0.3192495965E-03    0.6888222187E+00    0.1056411924E-02    0.4763787687E-03    0.4342103183E-02
    0.1100000000E+04    0.4094453387E-03    0.6900620765E+00    0.1367917234E-02    0.6181271990E-03    0.4305621410E-02
    0.1300000000E+04    0.5133688919E-03    0.6909226825E+00    0.1726169035E-02    0.7811960712E-03    0.4263198188E-02
    0.1500000000E+04    0.6342424368E-03    0.6915548709E+00    0.2142468279E-02    0.9707844260E-03    0.4213739584E-02
    0.1700000000E+04    0.7763022985E-03    0.6920388618E+00    0.2631554618E-02    0.1193660907E-02    0.4155718250E-02
    0.1900000000E+04    0.9451828521E-03    0.6924212531E+00    0.3212972759E-02    0.1458798944E-02    0.4087066973E-02
    0.2100000000E+04    0.1148475588E-02    0.6927309640E+00    0.3913032076E-02    0.1778283375E-02    0.4004999388E-02
    0.2300000000E+04    0.1396536356E-02    0.6929868916E+00    0.4767626076E-02    0.2168614921E-02    0.3905746301E-02
    0.2500000000E+04    0.1703631065E-02    0.6932019063E+00    0.5826236396E-02    0.2652566333E-02    0.3784190698E-02
    0.2700000000E+04    0.2089486708E-02    0.6933850766E+00    0.7157371056E-02    0.3261713134E-02    0.3633403418E-02
    0.2900000000E+04    0.2581140548E-02    0.6935429762E+00    0.8855098508E-02    0.4039498774E-02    0.3444167040E-02
    0.3100000000E+04    0.3214348617E-02    0.6936804867E+00    0.1104417711E-01    0.5043712677E-02    0.3204841295E-02
    0.3300000000E+04    0.4032037515E-02    0.6938013089E+00    0.1387515043E-01    0.6344454733E-02    0.2902598541E-02
    0.3500000000E+04    0.5073554797E-02    0.6939082996E+00    0.1748781765E-01    0.8007679172E-02    0.2528313025E-02
    0.3700000000E+04    0.6345145568E-02    0.6940036990E+00    0.2190960564E-01    0.1004877778E-01    0.2088006534E-02
    0.3900000000E+04    0.7774114181E-02    0.6940892886E+00    0.2689614233E-01    0.1235897642E-01    0.1618044017E-02
    0.4100000000E+04    0.9194875272E-02    0.6941665029E+00    0.3187954361E-01    0.1467993886E-01    0.1184660455E-02
    0.4300000000E+04    0.1042946928E-01    0.6942365099E+00    0.3624314639E-01    0.1672808252E-01    0.8488738038E-03
    0.4500000000E+04    0.1139896933E-01    0.6943002701E+00    0.3970783208E-01    0.1837238496E-01    0.6279750837E-03
    0.4700000000E+04    0.1213369605E-01    0.6943585808E+00    0.4237201793E-01    0.1965496592E-01    0.4995954298E-03
    0.4900000000E+04    0.1270548541E-01    0.6944121094E+00    0.4448012075E-01    0.2068610998E-01    0.4307004573E-03
    0.1000000000E+04    0.3628010188E-03    0.6895036533E+00    0.1206921758E-02    0.5448649668E-03    0.4324552175E-02
    0.3000000000E+04    0.2877476496E-02    0.6936140257E+00    0.9879217241E-02    0.4509122326E-02    0.3331571020E-02
    0.5000000000E+04    0.1295078231E-01    0.6944372597E+00    0.4539592711E-01    0.2113936125E-01    0.4100673785E-03
    0.7000000000E+04    0.1635981402E-01    0.6947885846E+00    0.5877661913E-01    0.2807123552E-01    0.3652564883E-03
    0.9000000000E+04    0.1891795984E-01    0.6949827256E+00    0.6957547407E-01    0.3402813005E-01    0.3703931630E-03
    0.1100000000E+05    0.2095100717E-01    0.6951055504E+00    0.7878615807E-01    0.3940682021E-01    0.3745835423E-03
    0.1300000000E+05    0.2257990185E-01    0.6951900617E+00    0.8673459341E-01    0.4431390383E-01    0.3781021593E-03
    0.1500000000E+05    0.2389258048E-01    0.6952516430E+00    0.9366234033E-01    0.4882974474E-01    0.3811389098E-03
    0.1700000000E+05    0.2495441932E-01    0.6952984273E+00    0.9975265504E-01    0.5301639878E-01    0.3838126496E-03
    0.1900000000E+05    0.2581489340E-01    0.6953351157E+00    0.1051471108E+00    0.5692264361E-01    0.3862027897E-03
    0.2100000000E+05    0.2651203160E-01    0.6953646136E+00    0.1099568378E+00    0.6058742258E-01    0.3883650714E-03
    0.2300000000E+05    0.2707546941E-01    0.6953888126E+00    0.1142703107E+00    0.6404225982E-01    0.3903401555E-03
    0.2500000000E+05    0.2752858547E-01    0.6954089966E+00    0.1181588598E+00    0.6731298973E-01    0.3921586317E-03
    0.2700000000E+05    0.2789002509E-01    0.6954260674E+00    0.1216806470E+00    0.7042101903E-01    0.3938441027E-03
    0.2900000000E+05    0.2817480541E-01    0.6954406770E+00    0.1248835828E+00    0.7338426312E-01    0.3954151693E-03
    0.3100000000E+05    0.2839512901E-01    0.6954533078E+00    0.1278074994E+00    0.7621785144E-01    0.3968867555E-03
    0.3300000000E+05    0.2856099143E-01    0.6954643250E+00    0.1304857931E+00    0.7893466615E-01    0.3982710214E-03
    0.3500000000E+05    0.2868064039E-01    0.6954740094E+00    0.1329466800E+00    0.8154575864E-01    0.3995780085E-03
    0.3700000000E+05    0.2876092694E-01    0.6954825809E+00    0.1352141690E+00    0.8406067531E-01    0.4008161068E-03
    0.3900000000E+05    0.2880757681E-01    0.6954902137E+00    0.1373088224E+00    0.8648771498E-01    0.4019923995E-03
    0.4100000000E+05    0.2882540207E-01    0.6954970480E+00    0.1392483567E+00    0.8883413437E-01    0.4031129219E-03
    0.4300000000E+05    0.2881846778E-01    0.6955031975E+00    0.1410481219E+00    0.9110631349E-01    0.4041828594E-03
    0.4500000000E+05    0.2879022428E-01    0.6955087554E+00    0.1427214863E+00    0.9330988987E-01    0.4052067004E-03
    0.4700000000E+05    0.2874361289E-01    0.6955137991E+00    0.1442801493E+00    0.9544986844E-01    0.4061883565E-03
    0.4900000000E+05    0.2868115120E-01    0.6955183931E+00    0.1457343952E+00    0.9753071199E-01    0.4071312574E-03
    0.1000000000E+05    0.1999162667E-01    0.6950503704E+00    0.7435658380E-01    0.3678234737E-01    0.3725884294E-03
    0.3000000000E+05    0.2829235384E-01    0.6954472146E+00    0.1263781967E+00    0.7481641183E-01    0.3961625813E-03
    0.5000000000E+05    0.2864466463E-01    0.6955205388E+00    0.1464252410E+00    0.9855022325E-01    0.4075891338E-03
    0.7000000000E+05    0.2747254330E-01    0.6955493910E+00    0.1564876451E+00    0.1166173370E+00    0.4152890638E-03
    0.9000000000E+05    0.2598097470E-01    0.6955639736E+00    0.1621021727E+00    0.1315718572E+00    0.4211329027E-03
    0.1100000000E+06    0.2448851947E-01    0.6955723217E+00    0.1653453815E+00    0.1445161800E+00    0.4258571603E-03
    0.1300000000E+06    0.2308787719E-01    0.6955774490E+00    0.1671797970E+00    0.1560315877E+00    0.4298298896E-03
    0.1500000000E+06    0.2180178878E-01    0.6955807263E+00    0.1681151479E+00    0.1664654290E+00    0.4332621341E-03
    0.1700000000E+06    0.2062939369E-01    0.6955828601E+00    0.1684473116E+00    0.1760437943E+00    0.4362864087E-03
    0.1900000000E+06    0.1956201978E-01    0.6955842487E+00    0.1683599264E+00    0.1849232587E+00    0.4389914899E-03
    0.2100000000E+06    0.1858897890E-01    0.6955851315E+00    0.1679729179E+00    0.1932174604E+00    0.4414398215E-03
    0.2300000000E+06    0.1769973528E-01    0.6955856602E+00    0.1673677870E+00    0.2010119521E+00    0.4436770275E-03
    0.2500000000E+06    0.1688466792E-01    0.6955859351E+00    0.1666017171E+00    0.2083730599E+00    0.4457374761E-03
    0.2700000000E+06    0.1613527075E-01    0.6955860242E+00    0.1657158864E+00    0.2153534541E+00    0.4476477137E-03
    0.2900000000E+06    0.1544412999E-01    0.6955859755E+00    0.1647405911E+00    0.2219958045E+00    0.4494286800E-03
    0.3100000000E+06    0.1480482068E-01    0.6955858233E+00    0.1636985236E+00    0.2283352680E+00    0.4510971882E-03
    0.3300000000E+06    0.1421178192E-01    0.6955855926E+00    0.1626069382E+00    0.2344012326E+00    0.4526669468E-03
    0.3500000000E+06    0.1366019529E-01    0.6955853022E+00    0.1614791211E+00    0.2402185718E+00    0.4541492824E-03
    0.3700000000E+06    0.1314587558E-01    0.6955849660E+00    0.1603254123E+00    0.2458085694E+00    0.4555536633E-03
    0.3900000000E+06    0.1266517613E-01    0.6955845949E+00    0.1591539312E+00    0.2511896120E+00    0.4568880867E-03
    0.4100000000E+06    0.1221490846E-01    0.6955841972E+00    0.1579711005E+00    0.2563777194E+00    0.4581593691E-03
    0.4300000000E+06    0.1179227448E-01    0.6955837793E+00    0.1567820318E+00    0.2613869548E+00    0.4593733693E-03
    0.4500000000E+06    0.1139480963E-01    0.6955833463E+00    0.1555908121E+00    0.2662297483E+00    0.4605351602E-03
    0.4700000000E+06    0.1102033531E-01    0.6955829022E+00    0.1544007206E+00    0.2709171540E+00    0.4616491639E-03
    0.4900000000E+06    0.1066691884E-01    0.6955824503E+00    0.1532143947E+00    0.2754590568E+00    0.4627192589E-03
    0.1000000000E+06    0.2522648644E-01    0.6955686805E+00    0.1639449658E+00    0.1382514477E+00    0.4236068548E-03
    0.3000000000E+06    0.1511836273E-01    0.6955859106E+00    0.1642267179E+00    0.2252014418E+00    0.4502760714E-03
    0.5000000000E+06    0.1049756219E-01    0.6955822222E+00    0.1526233244E+00    0.2776782561E+00    0.4632389255E-03
    0.7000000000E+06    0.7884147064E-02    0.6955776527E+00    0.1413343743E+00    0.3161799866E+00    0.4719799857E-03
    0.9000000000E+06    0.6209728211E-02    0.6955734419E+00    0.1313245133E+00    0.3465292451E+00    0.4786159982E-03
    0.1100000000E+07    0.5051835458E-02    0.6955696876E+00    0.1225609926E+00    0.3714173936E+00    0.4839815793E-03
    0.1300000000E+07    0.4208539939E-02    0.6955663377E+00    0.1148715535E+00    0.3923610419E+00    0.4884941026E-03
    0.1500000000E+07    0.3570732353E-02    0.6955633260E+00    0.1080851129E+00    0.4103154678E+00    0.4923929950E-03
    0.1700000000E+07    0.3074193495E-02    0.6955605951E+00    0.1020564607E+00    0.4259271758E+00    0.4958286368E-03
    0.1900000000E+07    0.2678660358E-02    0.6955580992E+00    0.9666695769E-01    0.4396562781E+00    0.4989017944E-03
    0.2100000000E+07    0.2357629554E-02    0.6955558019E+00    0.9182039441E-01    0.4518426867E+00    0.5016833560E-03
    0.2300000000E+07    0.2092965008E-02    0.6955536742E+00    0.8743853114E-01    0.4627448728E+00    0.5042251219E-03
    0.2500000000E+07    0.1871856781E-02    0.6955516928E+00    0.8345732501E-01    0.4725639706E+00    0.5065661164E-03
    0.2700000000E+07    0.1685014674E-02    0.6955498388E+00    0.7982394570E-01    0.4814594895E+00    0.5087364852E-03
    0.2900000000E+07    0.1525548497E-02    0.6955480966E+00    0.7649446378E-01    0.4895599522E+00    0.5107600080E-03
    0.3100000000E+07    0.1388248683E-02    0.6955464535E+00    0.7343206720E-01    0.4969703239E+00    0.5126557801E-03
    0.3300000000E+07    0.1269109801E-02    0.6955448986E+00    0.7060568094E-01    0.5037773391E+00    0.5144393710E-03
    0.3500000000E+07    0.1165006547E-02    0.6955434227E+00    0.6798889185E-01    0.5100534050E+00    0.5161236456E-03
    0.3700000000E+07    0.1073468300E-02    0.6955420182E+00    0.6555910491E-01    0.5158595178E+00    0.5177193585E-03
    0.3900000000E+07    0.9925190629E-03    0.6955406783E+00    0.6329687572E-01    0.5212474776E+00    0.5192355934E-03
    0.4100000000E+07    0.9205617733E-03    0.6955393972E+00    0.6118537810E-01    0.5262615955E+00    0.5206800937E-03
    0.4300000000E+07    0.8562933178E-03    0.6955381698E+00    0.5920997623E-01    0.5309400256E+00    0.5220595145E-03
    0.4500000000E+07    0.7986412091E-03    0.6955369918E+00    0.5735787806E-01    0.5353158182E+00    0.5233796185E-03
    0.4700000000E+07    0.7467157735E-03    0.6955358592E+00    0.5561785278E-01    0.5394177594E+00    0.5246454291E-03
    0.4900000000E+07    0.6997736222E-03    0.6955347687E+00    0.5397999874E-01    0.5432710478E+00    0.5258613523E-03
    0.1000000000E+07    0.5581894421E-02    0.6955715100E+00    0.1267971095E+00    0.3595435611E+00    0.4814257043E-03
    0.3000000000E+07    0.1454401974E-02    0.6955472634E+00    0.7493194259E-01    0.4933456027E+00    0.5117228181E-03
    0.5000000000E+07    0.6779718909E-03    0.6955342382E+00    0.5319660723E-01    0.5451114782E+00    0.5264518387E-03
    0.7000000000E+07    0.3939393197E-03    0.6955252379E+00    0.4121842579E-01    0.5730570027E+00    0.5363842570E-03
    0.9000000000E+07    0.2580605339E-03    0.6955183268E+00    0.3362766516E-01    0.5905960137E+00    0.5439248463E-03
    0.1100000000E+08    0.1824044513E-03    0.6955127015E+00    0.2838720701E-01    0.6026365163E+00    0.5500218790E-03
    0.1300000000E+08    0.1359035987E-03    0.6955079497E+00    0.2455250590E-01    0.6114148094E+00    0.5551495871E-03
    0.1500000000E+08    0.1052549516E-03    0.6955038313E+00    0.2162537331E-01    0.6180982281E+00    0.5595800219E-03
    0.1700000000E+08    0.8397395137E-04    0.6955001936E+00    0.1931810894E-01    0.6233562681E+00    0.5634840576E-03
    0.1900000000E+08    0.6858786832E-04    0.6954969338E+00    0.1745294762E-01    0.6276005692E+00    0.5669761943E-03
    0.2100000000E+08    0.5709863381E-04    0.6954939790E+00    0.1591413147E-01    0.6310981987E+00    0.5701369826E-03
    0.2300000000E+08    0.4828965797E-04    0.6954912756E+00    0.1462304648E-01    0.6340300093E+00    0.5730252837E-03
    0.2500000000E+08    0.4138537023E-04    0.6954887833E+00    0.1352443435E-01    0.6365228332E+00    0.5756854416E-03
    0.2700000000E+08    0.3587218437E-04    0.6954864706E+00    0.1257832126E-01    0.6386682492E+00    0.5781517114E-03
