  Pressure (Pa) 23mC5-500 (mol/kg) 24mC5-500 (mol/kg) 2mC6-500 (mol/kg) 3mC6-500 (mol/kg) C7-500 (mol/kg)
    0.1000000000E+01    0.7363001340E-05    0.6965327778E-01    0.1022742905E-04    0.4083117931E-05    0.4147490683E-02
    0.3000000000E+01    0.1758475316E-04    0.1741006547E+00    0.2364133469E-04    0.1007628235E-04    0.4178379879E-02
    0.5000000000E+01    0.2433513300E-04    0.2486829398E+00    0.3203190732E-04    0.1550915440E-04    0.4190785503E-02
    0.7000000000E+01    0.2905427253E-04    0.3046077732E+00    0.3765931700E-04    0.2067723671E-04    0.4198788605E-02
    0.9000000000E+01    0.3250065714E-04    0.3480982576E+00    0.4166210207E-04    0.2567817813E-04    0.4204558068E-02
    0.1100000000E+02    0.3510985590E-04    0.3828867624E+00    0.4466687739E-04    0.3056030992E-04    0.4208933610E-02
    0.1300000000E+02    0.3714756154E-04    0.4113477054E+00    0.4703929714E-04    0.3535218154E-04    0.4212353481E-02
    0.1500000000E+02    0.3878357910E-04    0.4350636521E+00    0.4900236528E-04    0.4007249619E-04    0.4215080785E-02
    0.1700000000E+02    0.4013056694E-04    0.4551300139E+00    0.5069687764E-04    0.4473437864E-04    0.4217286772E-02
    0.1900000000E+02    0.4126560059E-04    0.4723291056E+00    0.5221421735E-04    0.4934750384E-04    0.4219089050E-02
    0.2100000000E+02    0.4224278264E-04    0.4872345506E+00    0.5361502634E-04    0.5391927318E-04    0.4220571605E-02
    0.2300000000E+02    0.4310092482E-04    0.5002765208E+00    0.5494026560E-04    0.5845551534E-04    0.4221796254E-02
    0.2500000000E+02    0.4386839270E-04    0.5117839412E+00    0.5621798880E-04    0.6296092872E-04    0.4222809629E-02
    0.2700000000E+02    0.4456625319E-04    0.5220126233E+00    0.5746761011E-04    0.6743937395E-04    0.4223647624E-02
    0.2900000000E+02    0.4521037261E-04    0.5311645103E+00    0.5870265978E-04    0.7189407457E-04    0.4224338354E-02
    0.3100000000E+02    0.4581284725E-04    0.5394011479E+00    0.5993260155E-04    0.7632775917E-04    0.4224904171E-02
    0.3300000000E+02    0.4638299833E-04    0.5468533049E+00    0.6116405358E-04    0.8074276466E-04    0.4225363081E-02
    0.3500000000E+02    0.4692807651E-04    0.5536279697E+00    0.6240162233E-04    0.8514111307E-04    0.4225729758E-02
    0.3700000000E+02    0.4745376858E-04    0.5598135207E+00    0.6364847999E-04    0.8952456978E-04    0.4226016284E-02
    0.3900000000E+02    0.4796456719E-04    0.5654836045E+00    0.6490676971E-04    0.9389468841E-04    0.4226232700E-02
    0.4100000000E+02    0.4846404417E-04    0.5707000825E+00    0.6617789282E-04    0.9825284597E-04    0.4226387422E-02
    0.4300000000E+02    0.4895505494E-04    0.5755152977E+00    0.6746271459E-04    0.1026002708E-03    0.4226487557E-02
    0.4500000000E+02    0.4943989297E-04    0.5799738378E+00    0.6876171273E-04    0.1069380649E-03    0.4226539151E-02
    0.4700000000E+02    0.4992040774E-04    0.5841139200E+00    0.7007508546E-04    0.1112672221E-03    0.4226547378E-02
    0.4900000000E+02    0.5039809562E-04    0.5879684897E+00    0.7140283044E-04    0.1155886432E-03    0.4226516693E-02
    0.1000000000E+02    0.3389042240E-04    0.3664084102E+00    0.4326205103E-04    0.2813200599E-04    0.4206887068E-02
    0.3000000000E+02    0.4551617732E-04    0.5353884334E+00    0.5931780010E-04    0.7411338965E-04    0.4224635663E-02
    0.5000000000E+02    0.5063626822E-04    0.5897977812E+00    0.7207205158E-04    0.1177467118E-03    0.4226487984E-02
    0.7000000000E+02    0.5544743611E-04    0.6166587666E+00    0.8613970383E-04    0.1606679066E-03    0.4224580911E-02
    0.9000000000E+02    0.6053511031E-04    0.6326675615E+00    0.1012563562E-03    0.2034365414E-03    0.4221165594E-02
    0.1100000000E+03    0.6594801716E-04    0.6432957332E+00    0.1171368491E-03    0.2463403784E-03    0.4216973198E-02
    0.1300000000E+03    0.7165946117E-04    0.6508657515E+00    0.1336133883E-03    0.2895583568E-03    0.4212310480E-02
    0.1500000000E+03    0.7763764056E-04    0.6565315709E+00    0.1505918513E-03    0.3332157773E-03    0.4207327006E-02
    0.1700000000E+03    0.8385715015E-04    0.6609314282E+00    0.1680199168E-03    0.3774080783E-03    0.4202103108E-02
    0.1900000000E+03    0.9029955992E-04    0.6644469929E+00    0.1858694114E-03    0.4222127159E-03    0.4196684770E-02
    0.2100000000E+03    0.9695209117E-04    0.6673205184E+00    0.2041266607E-03    0.4676957428E-03    0.4191099377E-02
    0.2300000000E+03    0.1038062541E-03    0.6697131732E+00    0.2227870680E-03    0.5139157411E-03    0.4185363528E-02
    0.2500000000E+03    0.1108567780E-03    0.6717363468E+00    0.2418519651E-03    0.5609263189E-03    0.4179487223E-02
    0.2700000000E+03    0.1181008278E-03    0.6734694908E+00    0.2613267233E-03    0.6087777771E-03    0.4173476221E-02
    0.2900000000E+03    0.1255374415E-03    0.6749708002E+00    0.2812195886E-03    0.6575182694E-03    0.4167333456E-02
    0.3100000000E+03    0.1331671282E-03    0.6762838766E+00    0.3015409476E-03    0.7071946417E-03    0.4161059898E-02
    0.3300000000E+03    0.1409915784E-03    0.6774420327E+00    0.3223028572E-03    0.7578530608E-03    0.4154655114E-02
    0.3500000000E+03    0.1490134552E-03    0.6784711582E+00    0.3435187411E-03    0.8095395003E-03    0.4148117621E-02
    0.3700000000E+03    0.1572362428E-03    0.6793916783E+00    0.3652031938E-03    0.8623001294E-03    0.4141445139E-02
    0.3900000000E+03    0.1656641362E-03    0.6802199234E+00    0.3873718564E-03    0.9161816325E-03    0.4134634746E-02
    0.4100000000E+03    0.1743019615E-03    0.6809691059E+00    0.4100413410E-03    0.9712314810E-03    0.4127682998E-02
    0.4300000000E+03    0.1831551183E-03    0.6816500307E+00    0.4332291886E-03    0.1027498170E-02    0.4120586003E-02
    0.4500000000E+03    0.1922295391E-03    0.6822716197E+00    0.4569538518E-03    0.1085031429E-02    0.4113339477E-02
    0.4700000000E+03    0.2015316622E-03    0.6828413046E+00    0.4812346947E-03    0.1143882420E-02    0.4105938778E-02
    0.4900000000E+03    0.2110684133E-03    0.6833653260E+00    0.5060920068E-03    0.1204103919E-02    0.4098378933E-02
    0.1000000000E+03    0.6320215471E-04    0.6384691209E+00    0.1091138380E-03    0.2248587062E-03    0.4219141981E-02
    0.3000000000E+03    0.1293280700E-03    0.6756485834E+00    0.2913259878E-03    0.6822365755E-03    0.4164213025E-02
    0.5000000000E+03    0.2159270698E-03    0.6836118948E+00    0.5187434381E-03    0.1234745587E-02    0.4094537691E-02
    0.7000000000E+03    0.3275242492E-03    0.6870826749E+00    0.8078756364E-03    0.1934249743E-02    0.4007874880E-02
    0.9000000000E+03    0.4747328403E-03    0.6890261487E+00    0.1187400031E-02    0.2852135689E-02    0.3896915777E-02
    0.1100000000E+04    0.6753848366E-03    0.6902685952E+00    0.1703820001E-02    0.4102054566E-02    0.3749854521E-02
    0.1300000000E+04    0.9597190595E-03    0.6911313300E+00    0.2435490329E-02    0.5875187865E-02    0.3547367113E-02
    0.1500000000E+04    0.1379937019E-02    0.6917653287E+00    0.3517692264E-02    0.8502156422E-02    0.3257498107E-02
    0.1700000000E+04    0.2023149042E-02    0.6922508963E+00    0.5176893306E-02    0.1253852707E-01    0.2830530805E-02
    0.1900000000E+04    0.3004274598E-02    0.6926346854E+00    0.7714589486E-02    0.1873095463E-01    0.2211828678E-02
    0.2100000000E+04    0.4341133977E-02    0.6929456525E+00    0.1118803374E-01    0.2724760641E-01    0.1431983040E-02
    0.2300000000E+04    0.5713178225E-02    0.6932027214E+00    0.1478224958E-01    0.3613546875E-01    0.7341117084E-03
    0.2500000000E+04    0.6724677035E-02    0.6934187825E+00    0.1747290843E-01    0.4289288527E-01    0.3416444018E-03
    0.2700000000E+04    0.7388856994E-02    0.6936029190E+00    0.1928217541E-01    0.4754375101E-01    0.1882910627E-03
    0.2900000000E+04    0.7878782946E-02    0.6937617165E+00    0.2065065245E-01    0.5114587711E-01    0.1382592327E-03
    0.3100000000E+04    0.8295403428E-02    0.6939000658E+00    0.2183744640E-01    0.5432681506E-01    0.1231018476E-03
    0.3300000000E+04    0.8677690133E-02    0.6940216753E+00    0.2294281891E-01    0.5733009102E-01    0.1187711713E-03
    0.3500000000E+04    0.9039146559E-02    0.6941294078E+00    0.2400135532E-01    0.6023941347E-01    0.1177189020E-03
    0.3700000000E+04    0.9384545949E-02    0.6942255086E+00    0.2502503599E-01    0.6308324010E-01    0.1176484071E-03
    0.3900000000E+04    0.9715810700E-02    0.6943117636E+00    0.2601844438E-01    0.6587190178E-01    0.1178650219E-03
    0.4100000000E+04    0.1003393264E-01    0.6943896109E+00    0.2698375599E-01    0.6860983691E-01    0.1181586055E-03
    0.4300000000E+04    0.1033958809E-01    0.6944602216E+00    0.2792234221E-01    0.7129954038E-01    0.1184658342E-03
    0.4500000000E+04    0.1063333471E-01    0.6945245588E+00    0.2883528478E-01    0.7394283396E-01    0.1187680611E-03
    0.4700000000E+04    0.1091567524E-01    0.6945834222E+00    0.2972354232E-01    0.7654127714E-01    0.1190602654E-03
    0.4900000000E+04    0.1118707891E-01    0.6946374811E+00    0.3058800541E-01    0.7909630206E-01    0.1193415564E-03
    0.1000000000E+04    0.5668662028E-03    0.6897089476E+00    0.1424576048E-02    0.3426023663E-02    0.3828880063E-02
    0.3000000000E+04    0.8092904002E-02    0.6938331923E+00    0.2125813345E-01    0.5276804117E-01    0.1284339587E-03
    0.5000000000E+04    0.1131881893E-01    0.6946628888E+00    0.3101157880E-01    0.8035795743E-01    0.1194781925E-03
    0.7000000000E+04    0.1347619803E-01    0.6950185284E+00    0.3841858979E-01    0.1036093663E+00    0.1217704625E-03
    0.9000000000E+04    0.1492996789E-01    0.6952159306E+00    0.4419753151E-01    0.1237395411E+00    0.1235033635E-03
    0.1100000000E+05    0.1589674096E-01    0.6953413858E+00    0.4877888500E-01    0.1414669472E+00    0.1249010664E-03
    0.1300000000E+05    0.1651898071E-01    0.6954281060E+00    0.5245578613E-01    0.1572945855E+00    0.1260746835E-03
    0.1500000000E+05    0.1689327371E-01    0.6954915939E+00    0.5543448110E-01    0.1715861749E+00    0.1270875827E-03
    0.1700000000E+05    0.1708678095E-01    0.6955400569E+00    0.5786414135E-01    0.1846120160E+00    0.1279794056E-03
    0.1900000000E+05    0.1714720568E-01    0.6955782460E+00    0.5985523147E-01    0.1965777562E+00    0.1287766379E-03
    0.2100000000E+05    0.1710904512E-01    0.6956091017E+00    0.6149123493E-01    0.2076430735E+00    0.1294978709E-03
    0.2300000000E+05    0.1699762990E-01    0.6956345410E+00    0.6283637318E-01    0.2179341819E+00    0.1301566664E-03
    0.2500000000E+05    0.1683180254E-01    0.6956558670E+00    0.6394082530E-01    0.2275524279E+00    0.1307632269E-03
    0.2700000000E+05    0.1662573413E-01    0.6956739963E+00    0.6484434188E-01    0.2365803352E+00    0.1313254248E-03
    0.2900000000E+05    0.1639018158E-01    0.6956895925E+00    0.6557880024E-01    0.2450859465E+00    0.1318494640E-03
    0.3100000000E+05    0.1613337314E-01    0.6957031476E+00    0.6617004507E-01    0.2531259987E+00    0.1323403223E-03
    0.3300000000E+05    0.1586164221E-01    0.6957150342E+00    0.6663923704E-01    0.2607482833E+00    0.1328020554E-03
    0.3500000000E+05    0.1557988747E-01    0.6957255395E+00    0.6700385589E-01    0.2679934295E+00    0.1332380126E-03
    0.3700000000E+05    0.1529191114E-01    0.6957348886E+00    0.6727845698E-01    0.2748962676E+00    0.1336509922E-03
    0.3900000000E+05    0.1500067067E-01    0.6957432603E+00    0.6747524915E-01    0.2814868859E+00    0.1340433569E-03
    0.4100000000E+05    0.1470846795E-01    0.6957507984E+00    0.6760454110E-01    0.2877914592E+00    0.1344171195E-03
    0.4300000000E+05    0.1441709285E-01    0.6957576199E+00    0.6767508998E-01    0.2938329044E+00    0.1347740097E-03
    0.4500000000E+05    0.1412793311E-01    0.6957638209E+00    0.6769437627E-01    0.2996314053E+00    0.1351155245E-03
    0.4700000000E+05    0.1384205919E-01    0.6957694813E+00    0.6766882242E-01    0.3052048360E+00    0.1354429686E-03
    0.4900000000E+05    0.1356029011E-01    0.6957746675E+00    0.6760396834E-01    0.3105691058E+00    0.1357574859E-03
    0.1000000000E+05    0.1546399451E-01    0.6952849534E+00    0.4661709022E-01    0.1328681884E+00    0.1242356086E-03
    0.3000000000E+05    0.1626400019E-01    0.6956965996E+00    0.6589090518E-01    0.2491609941E+00    0.1320987685E-03
    0.5000000000E+05    0.1342114502E-01    0.6957771008E+00    0.6755832908E-01    0.3131773102E+00    0.1359102170E-03
    0.7000000000E+05    0.1093582086E-01    0.6958107898E+00    0.6546255262E-01    0.3571421724E+00    0.1384786541E-03
    0.9000000000E+05    0.9013240918E-02    0.6958290434E+00    0.6235934492E-01    0.3901807940E+00    0.1404279849E-03
    0.1100000000E+06    0.7537844399E-02    0.6958403591E+00    0.5907283246E-01    0.4162786433E+00    0.1420038711E-03
    0.1300000000E+06    0.6391788448E-02    0.6958479818E+00    0.5588908088E-01    0.4375741417E+00    0.1433290775E-03
    0.1500000000E+06    0.5487239133E-02    0.6958534149E+00    0.5290747890E-01    0.4553597677E+00    0.1444739986E-03
    0.1700000000E+06    0.4761970606E-02    0.6958574483E+00    0.5015487657E-01    0.4704795131E+00    0.1454828354E-03
    0.1900000000E+06    0.4171962167E-02    0.6958605358E+00    0.4762862379E-01    0.4835152925E+00    0.1463852003E-03
    0.2100000000E+06    0.3685690533E-02    0.6958629563E+00    0.4531435977E-01    0.4948848913E+00    0.1472019218E-03
    0.2300000000E+06    0.3280218668E-02    0.6958648900E+00    0.4319376373E-01    0.5048978416E+00    0.1479482185E-03
    0.2500000000E+06    0.2938580122E-02    0.6958664588E+00    0.4124799328E-01    0.5137893395E+00    0.1486355542E-03
    0.2700000000E+06    0.2648025252E-02    0.6958677474E+00    0.3945917230E-01    0.5217418584E+00    0.1492727838E-03
    0.2900000000E+06    0.2398831238E-02    0.6958688171E+00    0.3781096946E-01    0.5288994708E+00    0.1498668921E-03
    0.3100000000E+06    0.2183482398E-02    0.6958697125E+00    0.3628874933E-01    0.5353776487E+00    0.1504234875E-03
    0.3300000000E+06    0.1996096568E-02    0.6958704674E+00    0.3487952689E-01    0.5412701536E+00    0.1509471425E-03
    0.3500000000E+06    0.1832017403E-02    0.6958711076E+00    0.3357183804E-01    0.5466539933E+00    0.1514416354E-03
    0.3700000000E+06    0.1687520294E-02    0.6958716532E+00    0.3235558141E-01    0.5515930587E+00    0.1519101246E-03
    0.3900000000E+06    0.1559597266E-02    0.6958721198E+00    0.3122185798E-01    0.5561408401E+00    0.1523552775E-03
    0.4100000000E+06    0.1445797590E-02    0.6958725202E+00    0.3016282071E-01    0.5603424865E+00    0.1527793681E-03
    0.4300000000E+06    0.1344108252E-02    0.6958728644E+00    0.2917153909E-01    0.5642363885E+00    0.1531843506E-03
    0.4500000000E+06    0.1252863287E-02    0.6958731607E+00    0.2824187953E-01    0.5678554101E+00    0.1535719172E-03
    0.4700000000E+06    0.1170674303E-02    0.6958734159E+00    0.2736840132E-01    0.5712278580E+00    0.1539435430E-03
    0.4900000000E+06    0.1096376702E-02    0.6958736356E+00    0.2654626658E-01    0.5743782516E+00    0.1543005217E-03
    0.1000000000E+06    0.8227684971E-02    0.6958353043E+00    0.6071452162E-01    0.4039367236E+00    0.1412532277E-03
    0.3000000000E+06    0.2287326655E-02    0.6958692842E+00    0.3703496052E-01    0.5322171859E+00    0.1501495721E-03
    0.5000000000E+06    0.1061873902E-02    0.6958737337E+00    0.2615308669E-01    0.5758769594E+00    0.1544738803E-03
    0.7000000000E+06    0.6131524550E-03    0.6958746498E+00    0.2015336404E-01    0.5981631518E+00    0.1573898843E-03
    0.9000000000E+06    0.3996330708E-03    0.6958746022E+00    0.1637270956E-01    0.6117080788E+00    0.1596036764E-03
    0.1100000000E+07    0.2813754442E-03    0.6958742133E+00    0.1377701149E-01    0.6208143201E+00    0.1613936672E-03
    0.1300000000E+07    0.2090146763E-03    0.6958736930E+00    0.1188641043E-01    0.6273566067E+00    0.1628990851E-03
    0.1500000000E+07    0.1614970865E-03    0.6958731255E+00    0.1044876308E-01    0.6322838096E+00    0.1641997996E-03
    0.1700000000E+07    0.1286030760E-03    0.6958725481E+00    0.9319125897E-02    0.6361279427E+00    0.1653459754E-03
    0.1900000000E+07    0.1048808009E-03    0.6958719782E+00    0.8408337329E-02    0.6392104858E+00    0.1663712273E-03
    0.2100000000E+07    0.8720424466E-04    0.6958714238E+00    0.7658570084E-02    0.6417371661E+00    0.1672992030E-03
    0.2300000000E+07    0.7367575797E-04    0.6958708884E+00    0.7030692553E-02    0.6438457546E+00    0.1681471825E-03
    0.2500000000E+07    0.6308879073E-04    0.6958703733E+00    0.6497285734E-02    0.6456319838E+00    0.1689281842E-03
    0.2700000000E+07    0.5464621430E-04    0.6958698786E+00    0.6038570155E-02    0.6471644437E+00    0.1696522645E-03
    0.2900000000E+07    0.4780410246E-04    0.6958694036E+00    0.5639920779E-02    0.6484935630E+00    0.1703273564E-03
    0.3100000000E+07    0.4218091966E-04    0.6958689474E+00    0.5290292085E-02    0.6496572456E+00    0.1709598298E-03
    0.3300000000E+07    0.3750257900E-04    0.6958685091E+00    0.4981186991E-02    0.6506845309E+00    0.1715548788E-03
    0.3500000000E+07    0.3356803880E-04    0.6958680876E+00    0.4705962545E-02    0.6515980413E+00    0.1721167952E-03
    0.3700000000E+07    0.3022710559E-04    0.6958676818E+00    0.4459350752E-02    0.6524156615E+00    0.1726491666E-03
    0.3900000000E+07    0.2736573115E-04    0.6958672907E+00    0.4237120616E-02    0.6531517165E+00    0.1731550233E-03
    0.4100000000E+07    0.2489604418E-04    0.6958669135E+00    0.4035835137E-02    0.6538178152E+00    0.1736369487E-03
    0.4300000000E+07    0.2274945020E-04    0.6958665492E+00    0.3852673548E-02    0.6544234646E+00    0.1740971628E-03
    0.4500000000E+07    0.2087176531E-04    0.6958661971E+00    0.3685299232E-02    0.6549765249E+00    0.1745375881E-03
    0.4700000000E+07    0.1921972622E-04    0.6958658564E+00    0.3531760203E-02    0.6554835509E+00    0.1749599005E-03
    0.4900000000E+07    0.1775844865E-04    0.6958655263E+00    0.3390413150E-02    0.6559500525E+00    0.1753655698E-03
    0.1000000000E+07    0.3327010924E-03    0.6958744327E+00    0.1496430826E-01    0.6166674618E+00    0.1605410095E-03
    0.3000000000E+07    0.4485931569E-04    0.6958691732E+00    0.5459560225E-02    0.6490940945E+00    0.1706485719E-03
    0.5000000000E+07    0.1709026304E-04    0.6958653651E+00    0.3323867770E-02    0.6561695929E+00    0.1755625744E-03
    0.7000000000E+07    0.9013115610E-05    0.6958625742E+00    0.2384922583E-02    0.6592618016E+00    0.1788763676E-03
    0.9000000000E+07    0.5587560110E-05    0.6958603734E+00    0.1857757894E-02    0.6609939832E+00    0.1813922015E-03
    0.1100000000E+08    0.3817296311E-05    0.6958585541E+00    0.1520491107E-02    0.6621010713E+00    0.1834264316E-03
    0.1300000000E+08    0.2782856211E-05    0.6958570012E+00    0.1286302011E-02    0.6628694529E+00    0.1851372695E-03
    0.1500000000E+08    0.2125350791E-05    0.6958556452E+00    0.1114266013E-02    0.6634338100E+00    0.1866154767E-03
    0.1700000000E+08    0.1681008215E-05    0.6958544406E+00    0.9825767271E-03    0.6638658044E+00    0.1879180605E-03
    0.1900000000E+08    0.1366358739E-05    0.6958533562E+00    0.8785534766E-03    0.6642070691E+00    0.1890832211E-03
    0.2100000000E+08    0.1135193023E-05    0.6958523695E+00    0.7943215692E-03    0.6644834422E+00    0.1901378321E-03
    0.2300000000E+08    0.9602294580E-06    0.6958514638E+00    0.7247334865E-03    0.6647118063E+00    0.1911015313E-03
    0.2500000000E+08    0.8245090479E-06    0.6958506265E+00    0.6662828898E-03    0.6649036579E+00    0.1919891131E-03
    0.2700000000E+08    0.7170343340E-06    0.6958498477E+00    0.6164991453E-03    0.6650670962E+00    0.1928120061E-03
