  Pressure (Pa) 23mC5-500 (mol/kg) 24mC5-500 (mol/kg) 2mC6-500 (mol/kg) 3mC6-500 (mol/kg) C7-500 (mol/kg)
    0.1000000000E+01    0.6965767145E-05    0.9950075602E-01    0.1284402649E-04    0.2041117516E-05    0.4147359892E-02
    0.3000000000E+01    0.1536135294E-04    0.2321182513E+00    0.2725001756E-04    0.5035176865E-05    0.4176544414E-02
    0.5000000000E+01    0.2016346946E-04    0.3164829909E+00    0.3497528308E-04    0.7747323389E-05    0.4186887348E-02
    0.7000000000E+01    0.2320578713E-04    0.3748775393E+00    0.3972778731E-04    0.1032549105E-04    0.4192958624E-02
    0.9000000000E+01    0.2528678406E-04    0.4176946297E+00    0.4301861432E-04    0.1281859983E-04    0.4197029050E-02
    0.1100000000E+02    0.2680283842E-04    0.4504342483E+00    0.4554757259E-04    0.1525087681E-04    0.4199937968E-02
    0.1300000000E+02    0.2796910992E-04    0.4762797580E+00    0.4766700493E-04    0.1763664037E-04    0.4202096990E-02
    0.1500000000E+02    0.2891034971E-04    0.4972014297E+00    0.4956507947E-04    0.1998527500E-04    0.4203738783E-02
    0.1700000000E+02    0.2970265008E-04    0.5144840338E+00    0.5134660233E-04    0.2230336882E-04    0.4205006894E-02
    0.1900000000E+02    0.3039432023E-04    0.5290011152E+00    0.5307166417E-04    0.2459577996E-04    0.4205995437E-02
    0.2100000000E+02    0.3101703596E-04    0.5413673353E+00    0.5477532631E-04    0.2686622604E-04    0.4206768983E-02
    0.2300000000E+02    0.3159212063E-04    0.5520277622E+00    0.5647816715E-04    0.2911763539E-04    0.4207373438E-02
    0.2500000000E+02    0.3213424251E-04    0.5613125888E+00    0.5819216789E-04    0.3135236895E-04    0.4207842400E-02
    0.2700000000E+02    0.3265367327E-04    0.5694719493E+00    0.5992410939E-04    0.3357236692E-04    0.4208201057E-02
    0.2900000000E+02    0.3315771173E-04    0.5766987972E+00    0.6167758733E-04    0.3577924942E-04    0.4208468678E-02
    0.3100000000E+02    0.3365160593E-04    0.5831443616E+00    0.6345423489E-04    0.3797438782E-04    0.4208660270E-02
    0.3300000000E+02    0.3413916469E-04    0.5889288469E+00    0.6525447830E-04    0.4015895657E-04    0.4208787697E-02
    0.3500000000E+02    0.3462317156E-04    0.5941490011E+00    0.6707801015E-04    0.4233397174E-04    0.4208860467E-02
    0.3700000000E+02    0.3510567018E-04    0.5988835710E+00    0.6892408910E-04    0.4450032028E-04    0.4208886293E-02
    0.3900000000E+02    0.3558816422E-04    0.6031973032E+00    0.7079173063E-04    0.4665878254E-04    0.4208871494E-02
    0.4100000000E+02    0.3607175950E-04    0.6071439228E+00    0.7267982870E-04    0.4881004996E-04    0.4208821302E-02
    0.4300000000E+02    0.3655726623E-04    0.6107683830E+00    0.7458723294E-04    0.5095473907E-04    0.4208740085E-02
    0.4500000000E+02    0.3704527346E-04    0.6141085853E+00    0.7651279706E-04    0.5309340275E-04    0.4208631517E-02
    0.4700000000E+02    0.3753620391E-04    0.6171967099E+00    0.7845540847E-04    0.5522653939E-04    0.4208498714E-02
    0.4900000000E+02    0.3803035458E-04    0.6200602561E+00    0.8041400565E-04    0.5735460036E-04    0.4208344333E-02
    0.1000000000E+02    0.2609914676E-04    0.4350878421E+00    0.4435104522E-04    0.1404129464E-04    0.4198597122E-02
    0.3000000000E+02    0.3340566069E-04    0.5800111010E+00    0.6256296658E-04    0.3687820912E-04    0.4208573173E-02
    0.5000000000E+02    0.3827870358E-04    0.6214153316E+00    0.8139898355E-04    0.5841685722E-04    0.4208259776E-02
    0.7000000000E+02    0.4343432480E-04    0.6410286917E+00    0.1017300328E-03    0.7947849454E-04    0.4205849880E-02
    0.9000000000E+02    0.4891754318E-04    0.6524703240E+00    0.1228929109E-03    0.1003421262E-03    0.4202653476E-02
    0.1100000000E+03    0.5465973848E-04    0.6599668517E+00    0.1445870931E-03    0.1211491072E-03    0.4199070877E-02
    0.1300000000E+03    0.6060809582E-04    0.6652586882E+00    0.1666782200E-03    0.1419853379E-03    0.4195263561E-02
    0.1500000000E+03    0.6672823139E-04    0.6691937496E+00    0.1891047689E-03    0.1629091542E-03    0.4191307832E-02
    0.1700000000E+03    0.7299820691E-04    0.6722345483E+00    0.2118394538E-03    0.1839633630E-03    0.4187243523E-02
    0.1900000000E+03    0.7940402071E-04    0.6746548227E+00    0.2348722049E-03    0.2051812598E-03    0.4183092809E-02
    0.2100000000E+03    0.8593677852E-04    0.6766269307E+00    0.2582021028E-03    0.2265899592E-03    0.4178868518E-02
    0.2300000000E+03    0.9259095404E-04    0.6782648062E+00    0.2818333155E-03    0.2482123820E-03    0.4174578179E-02
    0.2500000000E+03    0.9936330428E-04    0.6796467803E+00    0.3057729477E-03    0.2700685111E-03    0.4170226159E-02
    0.2700000000E+03    0.1062521778E-03    0.6808284804E+00    0.3300298593E-03    0.2921762236E-03    0.4165814847E-02
    0.2900000000E+03    0.1132570630E-03    0.6818505002E+00    0.3546139971E-03    0.3145518631E-03    0.4161345354E-02
    0.3100000000E+03    0.1203782861E-03    0.6827431569E+00    0.3795360104E-03    0.3372106470E-03    0.4156817934E-02
    0.3300000000E+03    0.1276168060E-03    0.6835295498E+00    0.4048070281E-03    0.3601669645E-03    0.4152232252E-02
    0.3500000000E+03    0.1349740718E-03    0.6842275875E+00    0.4304385311E-03    0.3834346000E-03    0.4147587553E-02
    0.3700000000E+03    0.1424519219E-03    0.6848513684E+00    0.4564422808E-03    0.4070269050E-03    0.4142882780E-02
    0.3900000000E+03    0.1500525136E-03    0.6854121429E+00    0.4828302834E-03    0.4309569322E-03    0.4138116649E-02
    0.4100000000E+03    0.1577782710E-03    0.6859189979E+00    0.5096147742E-03    0.4552375438E-03    0.4133287700E-02
    0.4300000000E+03    0.1656318484E-03    0.6863793533E+00    0.5368082169E-03    0.4798814986E-03    0.4128394332E-02
    0.4500000000E+03    0.1736161035E-03    0.6867993270E+00    0.5644233101E-03    0.5049015256E-03    0.4123434831E-02
    0.4700000000E+03    0.1817340778E-03    0.6871840089E+00    0.5924730001E-03    0.5303103848E-03    0.4118407385E-02
    0.4900000000E+03    0.1899889835E-03    0.6875376680E+00    0.6209704965E-03    0.5561209210E-03    0.4113310097E-02
    0.1000000000E+03    0.5176007112E-04    0.6565721655E+00    0.1336843931E-03    0.1107464745E-03    0.4200897413E-02
    0.3000000000E+03    0.1168030852E-03    0.6823114137E+00    0.3670320832E-03    0.3258449462E-03    0.4159088895E-02
    0.5000000000E+03    0.1941688334E-03    0.6877040135E+00    0.6353913768E-03    0.5691808666E-03    0.4110734648E-02
    0.7000000000E+03    0.2858716202E-03    0.6900413066E+00    0.9508266602E-03    0.8547846431E-03    0.4055033571E-02
    0.9000000000E+03    0.3962115292E-03    0.6913466214E+00    0.1329257520E-02    0.1197544320E-02    0.3989590554E-02
    0.1100000000E+04    0.5313406260E-03    0.6921797920E+00    0.1792244267E-02    0.1617223897E-02    0.3911147007E-02
    0.1300000000E+04    0.7000928319E-03    0.6927577295E+00    0.2370367200E-02    0.2141776624E-02    0.3815171177E-02
    0.1500000000E+04    0.9154318605E-03    0.6931821218E+00    0.3108371765E-02    0.2812113386E-02    0.3695180296E-02
    0.1700000000E+04    0.1196772706E-02    0.6935069727E+00    0.4073266738E-02    0.3689570162E-02    0.3541715171E-02
    0.1900000000E+04    0.1573530006E-02    0.6937636190E+00    0.5366697685E-02    0.4867349330E-02    0.3340892966E-02
    0.2100000000E+04    0.2089762378E-02    0.6939714938E+00    0.7141267287E-02    0.6485740862E-02    0.3072837442E-02
    0.2300000000E+04    0.2806936469E-02    0.6941432883E+00    0.9610775509E-02    0.8742168495E-02    0.2711919434E-02
    0.2500000000E+04    0.3791800263E-02    0.6942876421E+00    0.1300984098E-01    0.1185560961E-01    0.2235689641E-02
    0.2700000000E+04    0.5058503145E-02    0.6944106405E+00    0.1739605835E-01    0.1588720504E-01    0.1656023001E-02
    0.2900000000E+04    0.6464837990E-02    0.6945166935E+00    0.2229059759E-01    0.2040981882E-01    0.1063824001E-02
    0.3100000000E+04    0.7732139880E-02    0.6946090752E+00    0.2673783402E-01    0.2455404647E-01    0.5982631806E-03
    0.3300000000E+04    0.8690513728E-02    0.6946902673E+00    0.3014548034E-01    0.2777182850E-01    0.3194549823E-03
    0.3500000000E+04    0.9378992099E-02    0.6947621854E+00    0.3263829202E-01    0.3016806164E-01    0.1827650830E-03
    0.3700000000E+04    0.9904885455E-02    0.6948263311E+00    0.3458047571E-01    0.3207057755E-01    0.1228213747E-03
    0.3900000000E+04    0.1034593702E-01    0.6948838989E+00    0.3623790701E-01    0.3372065803E-01    0.9788069528E-04
    0.4100000000E+04    0.1074274950E-01    0.6949358503E+00    0.3774990131E-01    0.3524519209E-01    0.8776808289E-04
    0.4300000000E+04    0.1111412009E-01    0.6949829682E+00    0.3918098947E-01    0.3670301021E-01    0.8375793204E-04
    0.4500000000E+04    0.1146844979E-01    0.6950258964E+00    0.4055990376E-01    0.3812022449E-01    0.8223469240E-04
    0.4700000000E+04    0.1180954332E-01    0.6950651693E+00    0.4189950235E-01    0.3950839159E-01    0.8172197252E-04
    0.4900000000E+04    0.1213922633E-01    0.6951012341E+00    0.4320579529E-01    0.4087277480E-01    0.8161875519E-04
    0.1000000000E+04    0.4602017240E-03    0.6918046251E+00    0.1548530697E-02    0.1396259841E-02    0.3952240706E-02
    0.3000000000E+04    0.7132030558E-02    0.6945644226E+00    0.2462603918E-01    0.2258055997E-01    0.8083361542E-03
    0.5000000000E+04    0.1230011182E-01    0.6951181838E+00    0.4384747345E-01    0.4154690427E-01    0.8163711841E-04
    0.7000000000E+04    0.1505180862E-01    0.6953553732E+00    0.5532303413E-01    0.5407956067E-01    0.8305522666E-04
    0.9000000000E+04    0.1709922821E-01    0.6954869745E+00    0.6469508692E-01    0.6511286362E-01    0.8423212429E-04
    0.1100000000E+05    0.1863465235E-01    0.6955705873E+00    0.7247286065E-01    0.7497155975E-01    0.8518225095E-04
    0.1300000000E+05    0.1978953926E-01    0.6956283711E+00    0.7901305046E-01    0.8388796800E-01    0.8598051565E-04
    0.1500000000E+05    0.2065647829E-01    0.6956706667E+00    0.8457347050E-01    0.9203370667E-01    0.8666974657E-04
    0.1700000000E+05    0.2130223451E-01    0.6957029472E+00    0.8934506696E-01    0.9953861978E-01    0.8727677441E-04
    0.1900000000E+05    0.2177593201E-01    0.6957283807E+00    0.9347226584E-01    0.1065029908E+00    0.8781954436E-04
    0.2100000000E+05    0.2211435132E-01    0.6957489272E+00    0.9706632467E-01    0.1130056753E+00    0.8831066289E-04
    0.2300000000E+05    0.2234545333E-01    0.6957658647E+00    0.1002143391E+00    0.1191096660E+00    0.8875933174E-04
    0.2500000000E+05    0.2249078005E-01    0.6957800618E+00    0.1029854674E+00    0.1248659918E+00    0.8917247701E-04
    0.2700000000E+05    0.2256712511E-01    0.6957921294E+00    0.1054353260E+00    0.1303165084E+00    0.8955544508E-04
    0.2900000000E+05    0.2258771813E-01    0.6958025095E+00    0.1076091528E+00    0.1354959340E+00    0.8991245080E-04
    0.3100000000E+05    0.2256307855E-01    0.6958115302E+00    0.1095441231E+00    0.1404333580E+00    0.9024687690E-04
    0.3300000000E+05    0.2250164071E-01    0.6958194396E+00    0.1112710718E+00    0.1451533779E+00    0.9056148038E-04
    0.3500000000E+05    0.2241021758E-01    0.6958264292E+00    0.1128157920E+00    0.1496769668E+00    0.9085853838E-04
    0.3700000000E+05    0.2229434917E-01    0.6958326488E+00    0.1142000266E+00    0.1540221438E+00    0.9113995392E-04
    0.3900000000E+05    0.2215856736E-01    0.6958382176E+00    0.1154422347E+00    0.1582044993E+00    0.9140733387E-04
    0.4100000000E+05    0.2200659910E-01    0.6958432313E+00    0.1165581899E+00    0.1622376086E+00    0.9166204760E-04
    0.4300000000E+05    0.2184152398E-01    0.6958477680E+00    0.1175614522E+00    0.1661333632E+00    0.9190527183E-04
    0.4500000000E+05    0.2166589748E-01    0.6958518916E+00    0.1184637440E+00    0.1699022369E+00    0.9213802520E-04
    0.4700000000E+05    0.2148184800E-01    0.6958556553E+00    0.1192752513E+00    0.1735535021E+00    0.9236119556E-04
    0.4900000000E+05    0.2129115411E-01    0.6958591033E+00    0.1200048676E+00    0.1770954065E+00    0.9257556148E-04
    0.1000000000E+05    0.1792161378E-01    0.6955329790E+00    0.6875816289E-01    0.7017281052E-01    0.8472980494E-04
    0.3000000000E+05    0.2258048249E-01    0.6958071727E+00    0.1086044362E+00    0.1379932649E+00    0.9008230127E-04
    0.5000000000E+05    0.2119379106E-01    0.6958607210E+00    0.1203414423E+00    0.1788276821E+00    0.9267966054E-04
    0.7000000000E+05    0.1915303662E-01    0.6958831070E+00    0.1242403795E+00    0.2091687811E+00    0.9443043292E-04
    0.9000000000E+05    0.1722511589E-01    0.6958952243E+00    0.1249745270E+00    0.2337145540E+00    0.9575935856E-04
    0.1100000000E+06    0.1553430634E-01    0.6959027285E+00    0.1241980575E+00    0.2544849960E+00    0.9683377122E-04
    0.1300000000E+06    0.1407582955E-01    0.6959077784E+00    0.1226381020E+00    0.2725524550E+00    0.9773731642E-04
    0.1500000000E+06    0.1281873059E-01    0.6959113740E+00    0.1206587346E+00    0.2885644079E+00    0.9851796563E-04
    0.1700000000E+06    0.1173047378E-01    0.6959140402E+00    0.1184583970E+00    0.3029470703E+00    0.9920584401E-04
    0.1900000000E+06    0.1078272373E-01    0.6959160788E+00    0.1161516295E+00    0.3159988498E+00    0.9982113533E-04
    0.2100000000E+06    0.9952105020E-02    0.6959176750E+00    0.1138071309E+00    0.3279385039E+00    0.1003780375E-03
    0.2300000000E+06    0.9219650780E-02    0.6959189486E+00    0.1114670931E+00    0.3389321935E+00    0.1008869246E-03
    0.2500000000E+06    0.8570010365E-02    0.6959199803E+00    0.1091577045E+00    0.3491097282E+00    0.1013556117E-03
    0.2700000000E+06    0.7990718569E-02    0.6959208266E+00    0.1068951640E+00    0.3585748562E+00    0.1017901355E-03
    0.2900000000E+06    0.7471593961E-02    0.6959215279E+00    0.1046892746E+00    0.3674120688E+00    0.1021952579E-03
    0.3100000000E+06    0.7004263363E-02    0.6959221139E+00    0.1025456657E+00    0.3756912670E+00    0.1025748024E-03
    0.3300000000E+06    0.6581791504E-02    0.6959226071E+00    0.1004672072E+00    0.3834710585E+00    0.1029318867E-03
    0.3500000000E+06    0.6198393539E-02    0.6959230245E+00    0.9845493093E-01    0.3908011500E+00    0.1032690866E-03
    0.3700000000E+06    0.5849211395E-02    0.6959233794E+00    0.9650864241E-01    0.3977241199E+00    0.1035885556E-03
    0.3900000000E+06    0.5530138930E-02    0.6959236822E+00    0.9462733338E-01    0.4042767605E+00    0.1038921124E-03
    0.4100000000E+06    0.5237684392E-02    0.6959239412E+00    0.9280946373E-01    0.4104911093E+00    0.1041813073E-03
    0.4300000000E+06    0.4968861481E-02    0.6959241633E+00    0.9105315586E-01    0.4163952548E+00    0.1044574730E-03
    0.4500000000E+06    0.4721102460E-02    0.6959243538E+00    0.8935632949E-01    0.4220139740E+00    0.1047217631E-03
    0.4700000000E+06    0.4492188372E-02    0.6959245172E+00    0.8771679556E-01    0.4273692440E+00    0.1049751834E-03
    0.4900000000E+06    0.4280192612E-02    0.6959246574E+00    0.8613232158E-01    0.4324806548E+00    0.1052186160E-03
    0.1000000000E+06    0.1634920891E-01    0.6958993773E+00    0.1247174398E+00    0.2444910337E+00    0.9632198773E-04
    0.3000000000E+06    0.7231917843E-02    0.6959218338E+00    0.1036094537E+00    0.3716175236E+00    0.1023880182E-03
    0.5000000000E+06    0.4180005500E-02    0.6959247197E+00    0.8536003400E-01    0.4349504669E+00    0.1053368337E-03
    0.7000000000E+06    0.2751982824E-02    0.6959252804E+00    0.7229225679E-01    0.4749789190E+00    0.1073253481E-03
    0.9000000000E+06    0.1958635682E-02    0.6959252127E+00    0.6262514971E-01    0.5029470593E+00    0.1088350183E-03
    0.1100000000E+07    0.1469145337E-02    0.6959249255E+00    0.5521130802E-01    0.5237017116E+00    0.1100556899E-03
    0.1300000000E+07    0.1144707289E-02    0.6959245558E+00    0.4935270150E-01    0.5397546943E+00    0.1110823036E-03
    0.1500000000E+07    0.9180982017E-03    0.6959241584E+00    0.4460918736E-01    0.5525577563E+00    0.1119693235E-03
    0.1700000000E+07    0.7533308324E-03    0.6959237569E+00    0.4069133160E-01    0.5630147606E+00    0.1127509581E-03
    0.1900000000E+07    0.6296490518E-03    0.6959233625E+00    0.3740149722E-01    0.5717202056E+00    0.1134501301E-03
    0.2100000000E+07    0.5343677813E-03    0.6959229800E+00    0.3460029250E-01    0.5790821202E+00    0.1140829654E-03
    0.2300000000E+07    0.4593660201E-03    0.6959226116E+00    0.3218665070E-01    0.5853902956E+00    0.1146612481E-03
    0.2500000000E+07    0.3992424518E-03    0.6959222577E+00    0.3008553319E-01    0.5908564333E+00    0.1151938556E-03
    0.2700000000E+07    0.3502879393E-03    0.6959219183E+00    0.2824007047E-01    0.5956388970E+00    0.1156876460E-03
    0.2900000000E+07    0.3098851525E-03    0.6959215928E+00    0.2660638378E-01    0.5998585736E+00    0.1161480288E-03
    0.3100000000E+07    0.2761433778E-03    0.6959212806E+00    0.2515008002E-01    0.6036093725E+00    0.1165793482E-03
    0.3300000000E+07    0.2476686058E-03    0.6959209808E+00    0.2384382222E-01    0.6069653723E+00    0.1169851461E-03
    0.3500000000E+07    0.2234144060E-03    0.6959206927E+00    0.2266560980E-01    0.6099858041E+00    0.1173683493E-03
    0.3700000000E+07    0.2025826425E-03    0.6959204155E+00    0.2159753797E-01    0.6127186006E+00    0.1177314042E-03
    0.3900000000E+07    0.1845558319E-03    0.6959201485E+00    0.2062488775E-01    0.6152029715E+00    0.1180763776E-03
    0.4100000000E+07    0.1688501021E-03    0.6959198912E+00    0.1973544802E-01    0.6174713041E+00    0.1184050309E-03
    0.4300000000E+07    0.1550818707E-03    0.6959196427E+00    0.1891900363E-01    0.6195505873E+00    0.1187188782E-03
    0.4500000000E+07    0.1429438473E-03    0.6959194027E+00    0.1816694384E-01    0.6214634922E+00    0.1190192306E-03
    0.4700000000E+07    0.1321874873E-03    0.6959191705E+00    0.1747195949E-01    0.6232292030E+00    0.1193072307E-03
    0.4900000000E+07    0.1226099878E-03    0.6959189457E+00    0.1682780613E-01    0.6248640634E+00    0.1195838811E-03
    0.1000000000E+07    0.1687036053E-02    0.6959250850E+00    0.5868797809E-01    0.5140350761E+00    0.1094742252E-03
    0.3000000000E+07    0.2922783569E-03    0.6959214351E+00    0.2585791003E-01    0.6017875549E+00    0.1163670838E-03
    0.5000000000E+07    0.1182099889E-03    0.6959188359E+00    0.1652308400E-01    0.6256368824E+00    0.1197182306E-03
    0.7000000000E+07    0.6385672397E-04    0.6959169379E+00    0.1212107439E-01    0.6367621001E+00    0.1219781117E-03
    0.9000000000E+07    0.4001607404E-04    0.6959154441E+00    0.9562419955E-02    0.6431971310E+00    0.1236938203E-03
    0.1100000000E+08    0.2745515371E-04    0.6959142109E+00    0.7891016348E-02    0.6473892821E+00    0.1250810958E-03
    0.1300000000E+08    0.2002518675E-04    0.6959131594E+00    0.6714166287E-02    0.6503359809E+00    0.1262478311E-03
    0.1500000000E+08    0.1526423568E-04    0.6959122420E+00    0.5840981541E-02    0.6525198318E+00    0.1272559215E-03
    0.1700000000E+08    0.1202909684E-04    0.6959114277E+00    0.5167547251E-02    0.6542027441E+00    0.1281442437E-03
    0.1900000000E+08    0.9729702702E-05    0.6959106950E+00    0.4632471978E-02    0.6555391117E+00    0.1289388484E-03
    0.2100000000E+08    0.8036259158E-05    0.6959100287E+00    0.4197164002E-02    0.6566258309E+00    0.1296580625E-03
    0.2300000000E+08    0.6752613122E-05    0.6959094175E+00    0.3836150987E-02    0.6575267779E+00    0.1303152780E-03
    0.2500000000E+08    0.5756114494E-05    0.6959088527E+00    0.3531944333E-02    0.6582857648E+00    0.1309205842E-03
    0.2700000000E+08    0.4966853030E-05    0.6959083276E+00    0.3272140098E-02    0.6589338411E+00    0.1314817750E-03
