  Pressure (Pa) 23mC5-500 (mol/kg) 24mC5-500 (mol/kg) 2mC6-500 (mol/kg) 3mC6-500 (mol/kg) C7-500 (mol/kg)
    0.1000000000E+01    0.6810097446E-05    0.9949832595E-01    0.6167148789E-05    0.7998658092E-06    0.4194685038E-02
    0.3000000000E+01    0.1502682439E-04    0.2321043745E+00    0.1307751789E-04    0.2043842378E-05    0.4245057048E-02
    0.5000000000E+01    0.1967772455E-04    0.3164561645E+00    0.1669284529E-04    0.3186060283E-05    0.4275496737E-02
    0.7000000000E+01    0.2258113630E-04    0.3748386624E+00    0.1884187041E-04    0.4278484689E-05    0.4296612781E-02
    0.9000000000E+01    0.2453069643E-04    0.4176450342E+00    0.2027217601E-04    0.5338691975E-05    0.4312232149E-02
    0.1100000000E+02    0.2592043439E-04    0.4503752193E+00    0.2132981790E-04    0.6375494609E-05    0.4324299844E-02
    0.1300000000E+02    0.2696414207E-04    0.4762124235E+00    0.2218873398E-04    0.7394146654E-05    0.4333929157E-02
    0.1500000000E+02    0.2778568571E-04    0.4971267518E+00    0.2294156769E-04    0.8398115396E-05    0.4341807380E-02
    0.1700000000E+02    0.2846054398E-04    0.5144028270E+00    0.2363972565E-04    0.9389848729E-05    0.4348383089E-02
    0.1900000000E+02    0.2903657894E-04    0.5289140694E+00    0.2431252851E-04    0.1037116045E-04    0.4353962081E-02
    0.2100000000E+02    0.2954512817E-04    0.5412750377E+00    0.2497695961E-04    0.1134344432E-04    0.4358760286E-02
    0.2300000000E+02    0.3000725153E-04    0.5519307152E+00    0.2564288220E-04    0.1230780227E-04    0.4362934696E-02
    0.2500000000E+02    0.3043740705E-04    0.5612112251E+00    0.2631594738E-04    0.1326512564E-04    0.4366602295E-02
    0.2700000000E+02    0.3084569539E-04    0.5693666438E+00    0.2699926951E-04    0.1421614907E-04    0.4369852121E-02
    0.2900000000E+02    0.3123927388E-04    0.5765898768E+00    0.2769441815E-04    0.1516148766E-04    0.4372753182E-02
    0.3100000000E+02    0.3162327191E-04    0.5830321127E+00    0.2840201840E-04    0.1610166334E-04    0.4375359834E-02
    0.3300000000E+02    0.3200139750E-04    0.5888135221E+00    0.2912212077E-04    0.1703712407E-04    0.4377715494E-02
    0.3500000000E+02    0.3237634769E-04    0.5940308241E+00    0.2985443197E-04    0.1796825818E-04    0.4379855284E-02
    0.3700000000E+02    0.3275009116E-04    0.5987627410E+00    0.3059846034E-04    0.1889540528E-04    0.4381807934E-02
    0.3900000000E+02    0.3312406609E-04    0.6030739982E+00    0.3135360788E-04    0.1981886466E-04    0.4383597187E-02
    0.4100000000E+02    0.3349932063E-04    0.6070183026E+00    0.3211922845E-04    0.2073890190E-04    0.4385242846E-02
    0.4300000000E+02    0.3387661387E-04    0.6106405917E+00    0.3289466427E-04    0.2165575416E-04    0.4386761562E-02
    0.4500000000E+02    0.3425648930E-04    0.6139787532E+00    0.3367926853E-04    0.2256963435E-04    0.4388167447E-02
    0.4700000000E+02    0.3463932873E-04    0.6170649552E+00    0.3447241881E-04    0.2348073462E-04    0.4389472544E-02
    0.4900000000E+02    0.3502539230E-04    0.6199266866E+00    0.3527352472E-04    0.2438922917E-04    0.4390687196E-02
    0.1000000000E+02    0.2527936137E-04    0.4350333782E+00    0.2083410326E-04    0.5859635332E-05    0.4318627204E-02
    0.3000000000E+02    0.3143221095E-04    0.5799004827E+00    0.2804664842E-04    0.1563219132E-04    0.4374090375E-02
    0.5000000000E+02    0.3521968867E-04    0.6212808921E+00    0.3567688627E-04    0.2484254942E-04    0.4391263446E-02
    0.7000000000E+02    0.3928776100E-04    0.6408807282E+00    0.4404704532E-04    0.3380424254E-04    0.4399681862E-02
    0.9000000000E+02    0.4365894303E-04    0.6523134480E+00    0.5278901378E-04    0.4262515539E-04    0.4404566357E-02
    0.1100000000E+03    0.4825329646E-04    0.6598035534E+00    0.6173405474E-04    0.5135987742E-04    0.4407624979E-02
    0.1300000000E+03    0.5301094580E-04    0.6650904788E+00    0.7080339253E-04    0.6004121267E-04    0.4409596102E-02
    0.1500000000E+03    0.5789245599E-04    0.6690216233E+00    0.7995792006E-04    0.6869099206E-04    0.4410856181E-02
    0.1700000000E+03    0.6287191024E-04    0.6720591979E+00    0.8917738367E-04    0.7732477957E-04    0.4411619529E-02
    0.1900000000E+03    0.6793194589E-04    0.6744767534E+00    0.9845113536E-04    0.8595424221E-04    0.4412018216E-02
    0.2100000000E+03    0.7306067945E-04    0.6764465238E+00    0.1077737008E-03    0.9458846960E-04    0.4412138640E-02
    0.2300000000E+03    0.7824982326E-04    0.6780823580E+00    0.1171425142E-03    0.1032347648E-03    0.4412040020E-02
    0.2500000000E+03    0.8349351132E-04    0.6794625262E+00    0.1265566969E-03    0.1118991459E-03    0.4411764498E-02
    0.2700000000E+03    0.8878754885E-04    0.6806426113E+00    0.1360163715E-03    0.1205866793E-03    0.4411342991E-02
    0.2900000000E+03    0.9412892023E-04    0.6816631735E+00    0.1455222618E-03    0.1293017087E-03    0.4410798773E-02
    0.3100000000E+03    0.9951545861E-04    0.6825545042E+00    0.1550754535E-03    0.1380480179E-03    0.4410149744E-02
    0.3300000000E+03    0.1049456191E-03    0.6833396824E+00    0.1646772483E-03    0.1468289499E-03    0.4409409926E-02
    0.3500000000E+03    0.1104183200E-03    0.6840366007E+00    0.1743290732E-03    0.1556474947E-03    0.4408590482E-02
    0.3700000000E+03    0.1159328295E-03    0.6846593446E+00    0.1840324232E-03    0.1645063570E-03    0.4407700420E-02
    0.3900000000E+03    0.1214886839E-03    0.6852191539E+00    0.1937888262E-03    0.1734080078E-03    0.4406747096E-02
    0.4100000000E+03    0.1270856274E-03    0.6857251068E+00    0.2035998203E-03    0.1823547251E-03    0.4405736586E-02
    0.4300000000E+03    0.1327235668E-03    0.6861846157E+00    0.2134669403E-03    0.1913486266E-03    0.4404673952E-02
    0.4500000000E+03    0.1384025383E-03    0.6866037926E+00    0.2233917092E-03    0.2003916956E-03    0.4403563446E-02
    0.4700000000E+03    0.1441226818E-03    0.6869877221E+00    0.2333756342E-03    0.2094858021E-03    0.4402408670E-02
    0.4900000000E+03    0.1498842205E-03    0.6873406687E+00    0.2434202039E-03    0.2186327203E-03    0.4401212690E-02
    0.1000000000E+03    0.4593253058E-04    0.6564118436E+00    0.5724237979E-04    0.4700090148E-04    0.4406265433E-02
    0.3000000000E+03    0.9681665255E-04    0.6821234089E+00    0.1502928674E-03    0.1336707352E-03    0.4410486406E-02
    0.5000000000E+03    0.1527806020E-03    0.6875066717E+00    0.2484656906E-03    0.2232265156E-03    0.4400600085E-02
    0.7000000000E+03    0.2129793401E-03    0.6898385067E+00    0.3529097144E-03    0.3182571120E-03    0.4386658981E-02
    0.9000000000E+03    0.2778866042E-03    0.6911399913E+00    0.4650233151E-03    0.4202351104E-03    0.4370140764E-02
    0.1100000000E+04    0.3481768497E-03    0.6919702163E+00    0.5861796163E-03    0.5304681579E-03    0.4351416109E-02
    0.1300000000E+04    0.4246436258E-03    0.6925457611E+00    0.7178442607E-03    0.6503166118E-03    0.4330524567E-02
    0.1500000000E+04    0.5082092448E-03    0.6929681383E+00    0.8616607806E-03    0.7812942475E-03    0.4307354569E-02
    0.1700000000E+04    0.5999535291E-03    0.6932912479E+00    0.1019524505E-02    0.9251426260E-03    0.4281698260E-02
    0.1900000000E+04    0.7011525767E-03    0.6935463605E+00    0.1193659879E-02    0.1083904522E-02    0.4253267559E-02
    0.2100000000E+04    0.8133278967E-03    0.6937528644E+00    0.1386710523E-02    0.1260007807E-02    0.4221694123E-02
    0.2300000000E+04    0.9383087003E-03    0.6939234191E+00    0.1601849897E-02    0.1456367893E-02    0.4186520299E-02
    0.2500000000E+04    0.1078311505E-02    0.6940666408E+00    0.1842921040E-02    0.1676516890E-02    0.4147183125E-02
    0.2700000000E+04    0.1236042616E-02    0.6941885974E+00    0.2114615647E-02    0.1924769109E-02    0.4102991516E-02
    0.2900000000E+04    0.1414830750E-02    0.6942936853E+00    0.2422705478E-02    0.2206435053E-02    0.4053095699E-02
    0.3100000000E+04    0.1618799085E-02    0.6943851678E+00    0.2774342536E-02    0.2528099288E-02    0.3996447335E-02
    0.3300000000E+04    0.1853088140E-02    0.6944655181E+00    0.3178448253E-02    0.2897981156E-02    0.3931748337E-02
    0.3500000000E+04    0.2124142417E-02    0.6945366445E+00    0.3646214693E-02    0.3326400099E-02    0.3857386380E-02
    0.3700000000E+04    0.2440072757E-02    0.6946000432E+00    0.4191739511E-02    0.3826366526E-02    0.3771356042E-02
    0.3900000000E+04    0.2811098667E-02    0.6946569036E+00    0.4832803567E-02    0.4414307880E-02    0.3671167583E-02
    0.4100000000E+04    0.3250050853E-02    0.6947081831E+00    0.5591759382E-02    0.5110902959E-02    0.3553753209E-02
    0.4300000000E+04    0.3772854608E-02    0.6947546612E+00    0.6496396526E-02    0.5941904746E-02    0.3415398158E-02
    0.4500000000E+04    0.4398783299E-02    0.6947969786E+00    0.7580423643E-02    0.6938624995E-02    0.3251759883E-02
    0.4700000000E+04    0.5150011995E-02    0.6948356673E+00    0.8882757992E-02    0.8137341234E-02    0.3058104896E-02
    0.4900000000E+04    0.6049564981E-02    0.6948711722E+00    0.1044405369E-01    0.9576184368E-02    0.2829995450E-02
    0.1000000000E+04    0.3123120199E-03    0.6915964376E+00    0.5243827994E-03    0.4742373742E-03    0.4361047117E-02
    0.3000000000E+04    0.1513372969E-02    0.6943409572E+00    0.2592569753E-02    0.2361796877E-02    0.4025690176E-02
    0.5000000000E+04    0.6561227174E-02    0.6948878503E+00    0.1133299915E-01    0.1039626592E-01    0.2702054643E-02
    0.7000000000E+04    0.1799522647E-01    0.6951205071E+00    0.3154759283E-01    0.2938308733E-01    0.4267044902E-03
    0.9000000000E+04    0.2177955269E-01    0.6952487026E+00    0.3886432852E-01    0.3686441680E-01    0.3375406296E-03
    0.1100000000E+05    0.2463084236E-01    0.6953295784E+00    0.4471204157E-01    0.4316090390E-01    0.3406243747E-03
    0.1300000000E+05    0.2703986972E-01    0.6953850696E+00    0.4990414298E-01    0.4898899538E-01    0.3438088986E-03
    0.1500000000E+05    0.2908744621E-01    0.6954253898E+00    0.5454924941E-01    0.5442041841E-01    0.3465639261E-03
    0.1700000000E+05    0.3083450480E-01    0.6954559335E+00    0.5872915228E-01    0.5950844060E-01    0.3489904178E-03
    0.1900000000E+05    0.3232961859E-01    0.6954798158E+00    0.6250993359E-01    0.6429661759E-01    0.3511600409E-03
    0.2100000000E+05    0.3361194607E-01    0.6954989603E+00    0.6594560905E-01    0.6882098505E-01    0.3531231894E-03
    0.2300000000E+05    0.3471336222E-01    0.6955146180E+00    0.6908076869E-01    0.7311164523E-01    0.3549166473E-03
    0.2500000000E+05    0.3566004151E-01    0.6955276373E+00    0.7195255268E-01    0.7719396443E-01    0.3565681020E-03
    0.2700000000E+05    0.3647364960E-01    0.6955386138E+00    0.7459214997E-01    0.8108948924E-01    0.3580989256E-03
    0.2900000000E+05    0.3717225149E-01    0.6955479774E+00    0.7702594904E-01    0.8481665604E-01    0.3595259668E-03
    0.3100000000E+05    0.3777101122E-01    0.6955560462E+00    0.7927643132E-01    0.8839134639E-01    0.3608627482E-03
    0.3300000000E+05    0.3828273659E-01    0.6955630605E+00    0.8136287204E-01    0.9182732635E-01    0.3621202907E-03
    0.3500000000E+05    0.3871830705E-01    0.6955692051E+00    0.8330189527E-01    0.9513659702E-01    0.3633076971E-03
    0.3700000000E+05    0.3908701303E-01    0.6955746245E+00    0.8510791727E-01    0.9832967691E-01    0.3644325747E-03
    0.3900000000E+05    0.3939682692E-01    0.6955794332E+00    0.8679350369E-01    0.1014158310E+00    0.3655013468E-03
    0.4100000000E+05    0.3965462133E-01    0.6955837231E+00    0.8836965931E-01    0.1044032581E+00    0.3665194875E-03
    0.4300000000E+05    0.3986634602E-01    0.6955875686E+00    0.8984606499E-01    0.1072992451E+00    0.3674917005E-03
    0.4500000000E+05    0.4003717226E-01    0.6955910310E+00    0.9123127252E-01    0.1101102949E+00    0.3684220579E-03
    0.4700000000E+05    0.4017161143E-01    0.6955941608E+00    0.9253286599E-01    0.1128422327E+00    0.3693141086E-03
    0.4900000000E+05    0.4027361288E-01    0.6955970001E+00    0.9375759614E-01    0.1155002956E+00    0.3701709651E-03
    0.1000000000E+05    0.2326712839E-01    0.6952932723E+00    0.4187934877E-01    0.4007764822E-01    0.3388759614E-03
    0.3000000000E+05    0.3748326142E-01    0.6955521571E+00    0.7817283205E-01    0.8662215530E-01    0.3602049003E-03
    0.5000000000E+05    0.4031355026E-01    0.6955983221E+00    0.9434304727E-01    0.1168031187E+00    0.3705870660E-03
    0.7000000000E+05    0.4006017329E-01    0.6956157397E+00    0.1031876109E+00    0.1399166552E+00    0.3775851384E-03
    0.9000000000E+05    0.3877353806E-01    0.6956240886E+00    0.1084938300E+00    0.1590349733E+00    0.3828969703E-03
    0.1100000000E+06    0.3713696335E-01    0.6956285477E+00    0.1118050145E+00    0.1755386625E+00    0.3871914522E-03
    0.1300000000E+06    0.3541599118E-01    0.6956310376E+00    0.1138770583E+00    0.1901685664E+00    0.3908029410E-03
    0.1500000000E+06    0.3372179123E-01    0.6956324219E+00    0.1151275596E+00    0.2033712942E+00    0.3939231919E-03
    0.1700000000E+06    0.3210128250E-01    0.6956331400E+00    0.1158076540E+00    0.2154391236E+00    0.3966726228E-03
    0.1900000000E+06    0.3057254703E-01    0.6956334363E+00    0.1160781564E+00    0.2265753282E+00    0.3991319130E-03
    0.2100000000E+06    0.2914015943E-01    0.6956334557E+00    0.1160471177E+00    0.2369280339E+00    0.4013578145E-03
    0.2300000000E+06    0.2780229608E-01    0.6956332885E+00    0.1157899349E+00    0.2466092209E+00    0.4033917946E-03
    0.2500000000E+06    0.2655419444E-01    0.6956329935E+00    0.1153608391E+00    0.2557060865E+00    0.4052650917E-03
    0.2700000000E+06    0.2538988825E-01    0.6956326098E+00    0.1147998141E+00    0.2642881943E+00    0.4070018355E-03
    0.2900000000E+06    0.2430308888E-01    0.6956321644E+00    0.1141369469E+00    0.2724121697E+00    0.4086210598E-03
    0.3100000000E+06    0.2328762892E-01    0.6956316762E+00    0.1133952654E+00    0.2801248947E+00    0.4101380480E-03
    0.3300000000E+06    0.2233767558E-01    0.6956311588E+00    0.1125926483E+00    0.2874657489E+00    0.4115652616E-03
    0.3500000000E+06    0.2144782185E-01    0.6956306219E+00    0.1117431444E+00    0.2944682231E+00    0.4129129968E-03
    0.3700000000E+06    0.2061311244E-01    0.6956300727E+00    0.1108579057E+00    0.3011611086E+00    0.4141898609E-03
    0.3900000000E+06    0.1982903580E-01    0.6956295165E+00    0.1099458615E+00    0.3075693904E+00    0.4154031238E-03
    0.4100000000E+06    0.1909149920E-01    0.6956289573E+00    0.1090142127E+00    0.3137149313E+00    0.4165589824E-03
    0.4300000000E+06    0.1839679637E-01    0.6956283979E+00    0.1080688019E+00    0.3196170027E+00    0.4176627628E-03
    0.4500000000E+06    0.1774157295E-01    0.6956278406E+00    0.1071143924E+00    0.3252927036E+00    0.4187190767E-03
    0.4700000000E+06    0.1712279234E-01    0.6956272870E+00    0.1061548833E+00    0.3307572946E+00    0.4197319443E-03
    0.4900000000E+06    0.1653770361E-01    0.6956267384E+00    0.1051934754E+00    0.3360244679E+00    0.4207048916E-03
    0.1000000000E+06    0.3797705058E-01    0.6956266468E+00    0.1103404874E+00    0.1675579479E+00    0.3851458321E-03
    0.3000000000E+06    0.2378681536E-01    0.6956319247E+00    0.1137747376E+00    0.2763173228E+00    0.4093914972E-03
    0.5000000000E+06    0.1625700479E-01    0.6956264663E+00    0.1047129014E+00    0.3385879279E+00    0.4211773815E-03
    0.7000000000E+06    0.1191633303E-01    0.6956214016E+00    0.9543531422E-01    0.3819453015E+00    0.4291249648E-03
    0.9000000000E+06    0.9155936738E-02    0.6956170639E+00    0.8720984528E-01    0.4145284561E+00    0.4351586501E-03
    0.1100000000E+07    0.7277647061E-02    0.6956133245E+00    0.8010476363E-01    0.4401324525E+00    0.4400372467E-03
    0.1300000000E+07    0.5935453692E-02    0.6956100518E+00    0.7398062346E-01    0.4608754637E+00    0.4441402266E-03
    0.1500000000E+07    0.4939984927E-02    0.6956071462E+00    0.6867732475E-01    0.4780656159E+00    0.4476852778E-03
    0.1700000000E+07    0.4179675451E-02    0.6956045348E+00    0.6405407035E-01    0.4925663352E+00    0.4508091277E-03
    0.1900000000E+07    0.3584967858E-02    0.6956021637E+00    0.5999507277E-01    0.5049754560E+00    0.4536033948E-03
    0.2100000000E+07    0.3110499406E-02    0.6955999923E+00    0.5640694857E-01    0.5157223100E+00    0.4561325325E-03
    0.2300000000E+07    0.2725580425E-02    0.6955979891E+00    0.5321461168E-01    0.5251242992E+00    0.4584436386E-03
    0.2500000000E+07    0.2408803724E-02    0.6955961297E+00    0.5035747388E-01    0.5334217243E+00    0.4605721953E-03
    0.2700000000E+07    0.2144845182E-02    0.6955943946E+00    0.4778633720E-01    0.5408001771E+00    0.4625456120E-03
    0.2900000000E+07    0.1922488251E-02    0.6955927679E+00    0.4546095782E-01    0.5474054561E+00    0.4643855100E-03
    0.3100000000E+07    0.1733362439E-02    0.6955912366E+00    0.4334816417E-01    0.5533537989E+00    0.4661092514E-03
    0.3300000000E+07    0.1571113999E-02    0.6955897899E+00    0.4142040725E-01    0.5587390800E+00    0.4677309927E-03
    0.3500000000E+07    0.1430846776E-02    0.6955884189E+00    0.3965464101E-01    0.5636379846E+00    0.4692624309E-03
    0.3700000000E+07    0.1308736704E-02    0.6955871157E+00    0.3803145289E-01    0.5681137982E+00    0.4707133447E-03
    0.3900000000E+07    0.1201760702E-02    0.6955858739E+00    0.3653438424E-01    0.5722192287E+00    0.4720919933E-03
    0.4100000000E+07    0.1107502624E-02    0.6955846879E+00    0.3514939513E-01    0.5759985400E+00    0.4734054174E-03
    0.4300000000E+07    0.1024012111E-02    0.6955835526E+00    0.3386443999E-01    0.5794891858E+00    0.4746596679E-03
    0.4500000000E+07    0.9497004485E-03    0.6955824639E+00    0.3266912844E-01    0.5827230770E+00    0.4758599846E-03
    0.4700000000E+07    0.8832626933E-03    0.6955814180E+00    0.3155445250E-01    0.5857275739E+00    0.4770109351E-03
    0.4900000000E+07    0.8236187447E-03    0.6955804115E+00    0.3051256550E-01    0.5885262729E+00    0.4781165255E-03
    0.1000000000E+07    0.8133245602E-02    0.6956151283E+00    0.8352453650E-01    0.4280450853E+00    0.4377133420E-03
    0.3000000000E+07    0.1824208246E-02    0.6955919910E+00    0.4437982686E-01    0.5504554219E+00    0.4652609503E-03
    0.5000000000E+07    0.7960570789E-03    0.6955799222E+00    0.3001673826E-01    0.5898549498E+00    0.4786534312E-03
    0.7000000000E+07    0.4459792813E-03    0.6955716401E+00    0.2263630637E-01    0.6094006524E+00    0.4876845990E-03
    0.9000000000E+07    0.2854759331E-03    0.6955653006E+00    0.1815182804E-01    0.6210795585E+00    0.4945409856E-03
    0.1100000000E+08    0.1985903005E-03    0.6955601500E+00    0.1514139045E-01    0.6288428411E+00    0.5000848084E-03
    0.1300000000E+08    0.1462467714E-03    0.6955558045E+00    0.1298210733E-01    0.6343752701E+00    0.5047472645E-03
    0.1500000000E+08    0.1122606434E-03    0.6955520415E+00    0.1135837642E-01    0.6385165729E+00    0.5087757180E-03
    0.1700000000E+08    0.8893545501E-04    0.6955487198E+00    0.1009331316E-01    0.6417321872E+00    0.5123255372E-03
    0.1900000000E+08    0.7222765470E-04    0.6955457447E+00    0.9080128405E-02    0.6443008583E+00    0.5155008324E-03
    0.2100000000E+08    0.5984603915E-04    0.6955430490E+00    0.8250557446E-02    0.6463996913E+00    0.5183748448E-03
    0.2300000000E+08    0.5041285124E-04    0.6955405835E+00    0.7558935394E-02    0.6481465944E+00    0.5210010945E-03
    0.2500000000E+08    0.4305886655E-04    0.6955383110E+00    0.6973565321E-02    0.6496230960E+00    0.5234199018E-03
    0.2700000000E+08    0.3721352424E-04    0.6955362029E+00    0.6471760271E-02    0.6508873658E+00    0.5256624134E-03
