     Pressure (Pa)     C7-500 (mol/kg)        3mC6-500 (mol/kg)
    0.1000000000E+01    0.5002353165E-02    0.5381660125E-03
    0.3000000000E+01    0.1476588798E-01    0.1588609462E-02
    0.5000000000E+01    0.2422057386E-01    0.2605898495E-02
    0.7000000000E+01    0.3338083528E-01    0.3591580403E-02
    0.9000000000E+01    0.4226021227E-01    0.4547107639E-02
    0.1100000000E+02    0.5087142720E-01    0.5473844979E-02
    0.1300000000E+02    0.5922644554E-01    0.6373076034E-02
    0.1500000000E+02    0.6733653138E-01    0.7246009203E-02
    0.1700000000E+02    0.7521229802E-01    0.8093783097E-02
    0.1900000000E+02    0.8286375433E-01    0.8917471510E-02
    0.2100000000E+02    0.9030034719E-01    0.9718087964E-02
    0.2300000000E+02    0.9753100034E-01    0.1049658988E-01
    0.2500000000E+02    0.1045641502E+00    0.1125388242E-01
    0.2700000000E+02    0.1114077784E+00    0.1199082198E-01
    0.2900000000E+02    0.1180694425E+00    0.1270821945E-01
    0.3100000000E+02    0.1245563034E+00    0.1340684320E-01
    0.3300000000E+02    0.1308751511E+00    0.1408742180E-01
    0.3500000000E+02    0.1370324285E+00    0.1475064662E-01
    0.3700000000E+02    0.1430342531E+00    0.1539717412E-01
    0.3900000000E+02    0.1488864378E+00    0.1602762806E-01
    0.4100000000E+02    0.1545945088E+00    0.1664260149E-01
    0.4300000000E+02    0.1601637238E+00    0.1724265864E-01
    0.4500000000E+02    0.1655990877E+00    0.1782833663E-01
    0.4700000000E+02    0.1709053679E+00    0.1840014708E-01
    0.4900000000E+02    0.1760871079E+00    0.1895857764E-01
    0.5100000000E+02    0.1811486405E+00    0.1950409331E-01
    0.5300000000E+02    0.1860940999E+00    0.2003713781E-01
    0.5500000000E+02    0.1909274327E+00    0.2055813475E-01
    0.5700000000E+02    0.1956524088E+00    0.2106748875E-01
    0.5900000000E+02    0.2002726309E+00    0.2156558652E-01
    0.6100000000E+02    0.2047915438E+00    0.2205279781E-01
    0.6300000000E+02    0.2092124427E+00    0.2252947634E-01
    0.6500000000E+02    0.2135384816E+00    0.2299596067E-01
    0.6700000000E+02    0.2177726806E+00    0.2345257501E-01
    0.6900000000E+02    0.2219179331E+00    0.2389962994E-01
    0.7100000000E+02    0.2259770119E+00    0.2433742315E-01
    0.7300000000E+02    0.2299525759E+00    0.2476624008E-01
    0.7500000000E+02    0.2338471759E+00    0.2518635456E-01
    0.7700000000E+02    0.2376632596E+00    0.2559802938E-01
    0.7900000000E+02    0.2414031772E+00    0.2600151688E-01
    0.8100000000E+02    0.2450691859E+00    0.2639705939E-01
    0.8300000000E+02    0.2486634548E+00    0.2678488980E-01
    0.8500000000E+02    0.2521880687E+00    0.2716523196E-01
    0.8700000000E+02    0.2556450325E+00    0.2753830114E-01
    0.8900000000E+02    0.2590362750E+00    0.2790430445E-01
    0.9100000000E+02    0.2623636523E+00    0.2826344118E-01
    0.9300000000E+02    0.2656289511E+00    0.2861590320E-01
    0.9500000000E+02    0.2688338922E+00    0.2896187531E-01
    0.9700000000E+02    0.2719801336E+00    0.2930153552E-01
    0.9900000000E+02    0.2750692728E+00    0.2963505540E-01
    0.1000000000E+02    0.4659857509E-01    0.5013992990E-02
    0.3000000000E+02    0.1213342906E+00    0.1305983160E-01
    0.5000000000E+02    0.1786326372E+00    0.1923292161E-01
    0.7000000000E+02    0.2239580754E+00    0.2411966614E-01
    0.9000000000E+02    0.2607078336E+00    0.2808471897E-01
    0.1100000000E+03    0.2911049872E+00    0.3136676056E-01
    0.1300000000E+03    0.3166653724E+00    0.3412857850E-01
    0.1500000000E+03    0.3384581086E+00    0.3648501499E-01
    0.1700000000E+03    0.3572588626E+00    0.3851941064E-01
    0.1900000000E+03    0.3736440655E+00    0.4029371452E-01
    0.2100000000E+03    0.3880510202E+00    0.4185493503E-01
    0.2300000000E+03    0.4008174868E+00    0.4323938898E-01
    0.2500000000E+03    0.4122084806E+00    0.4447557841E-01
    0.2700000000E+03    0.4224348552E+00    0.4558618584E-01
    0.2900000000E+03    0.4316664656E+00    0.4658948783E-01
    0.3100000000E+03    0.4400416710E+00    0.4750037559E-01
    0.3300000000E+03    0.4476743110E+00    0.4833110434E-01
    0.3500000000E+03    0.4546589070E+00    0.4909185209E-01
    0.3700000000E+03    0.4610745928E+00    0.4979114200E-01
    0.3900000000E+03    0.4669881234E+00    0.5043616569E-01
    0.4100000000E+03    0.4724562042E+00    0.5103303363E-01
    0.4300000000E+03    0.4775273134E+00    0.5158697101E-01
    0.4500000000E+03    0.4822431421E+00    0.5210247254E-01
    0.4700000000E+03    0.4866397415E+00    0.5258342586E-01
    0.4900000000E+03    0.4907484455E+00    0.5303321073E-01
    0.5100000000E+03    0.4945966176E+00    0.5345477937E-01
    0.5300000000E+03    0.4982082608E+00    0.5385072206E-01
    0.5500000000E+03    0.5016045178E+00    0.5422332095E-01
    0.5700000000E+03    0.5048040848E+00    0.5457459463E-01
    0.5900000000E+03    0.5078235552E+00    0.5490633509E-01
    0.6100000000E+03    0.5106777075E+00    0.5522013868E-01
    0.6300000000E+03    0.5133797464E+00    0.5551743213E-01
    0.6500000000E+03    0.5159415073E+00    0.5579949449E-01
    0.6700000000E+03    0.5183736287E+00    0.5606747579E-01
    0.6900000000E+03    0.5206857005E+00    0.5632241291E-01
    0.7100000000E+03    0.5228863894E+00    0.5656524317E-01
    0.7300000000E+03    0.5249835478E+00    0.5679681600E-01
    0.7500000000E+03    0.5269843069E+00    0.5701790304E-01
    0.7700000000E+03    0.5288951580E+00    0.5722920684E-01
    0.7900000000E+03    0.5307220225E+00    0.5743136840E-01
    0.8100000000E+03    0.5324703131E+00    0.5762497382E-01
    0.8300000000E+03    0.5341449871E+00    0.5781056003E-01
    0.8500000000E+03    0.5357505938E+00    0.5798861985E-01
    0.8700000000E+03    0.5372913150E+00    0.5815960645E-01
    0.8900000000E+03    0.5387710019E+00    0.5832393722E-01
    0.9100000000E+03    0.5401932069E+00    0.5848199729E-01
    0.9300000000E+03    0.5415612118E+00    0.5863414255E-01
    0.9500000000E+03    0.5428780536E+00    0.5878070240E-01
    0.9700000000E+03    0.5441465466E+00    0.5892198215E-01
    0.9900000000E+03    0.5453693022E+00    0.5905826520E-01
    0.1000000000E+03    0.2765929125E+00    0.2979956464E-01
    0.3000000000E+03    0.4359534974E+00    0.4705566308E-01
    0.5000000000E+03    0.4927035254E+00    0.5324735238E-01
    0.7000000000E+03    0.5217994591E+00    0.5644528637E-01
    0.9000000000E+03    0.5394890785E+00    0.5840372820E-01
    0.1100000000E+04    0.5513773620E+00    0.5972941292E-01
    0.1300000000E+04    0.5599142359E+00    0.6068821237E-01
    0.1500000000E+04    0.5663405882E+00    0.6141512552E-01
    0.1700000000E+04    0.5713521370E+00    0.6198602750E-01
    0.1900000000E+04    0.5753691692E+00    0.6244686707E-01
    0.2100000000E+04    0.5786605532E+00    0.6282711050E-01
    0.2300000000E+04    0.5814062871E+00    0.6314653221E-01
    0.2500000000E+04    0.5837314084E+00    0.6341890200E-01
    0.2700000000E+04    0.5857254807E+00    0.6365410684E-01
    0.2900000000E+04    0.5874543378E+00    0.6385943162E-01
    0.3100000000E+04    0.5889674531E+00    0.6404036403E-01
    0.3300000000E+04    0.5903027233E+00    0.6420111768E-01
    0.3500000000E+04    0.5914896664E+00    0.6434498242E-01
    0.3700000000E+04    0.5925516156E+00    0.6447456501E-01
    0.3900000000E+04    0.5935072579E+00    0.6459195808E-01
    0.4100000000E+04    0.5943717354E+00    0.6469886132E-01
    0.4300000000E+04    0.5951574475E+00    0.6479666986E-01
    0.4500000000E+04    0.5958746447E+00    0.6488653977E-01
    0.4700000000E+04    0.5965318746E+00    0.6496943735E-01
    0.4900000000E+04    0.5971363217E+00    0.6504617667E-01
    0.5100000000E+04    0.5976940678E+00    0.6511744854E-01
    0.5300000000E+04    0.5982102963E+00    0.6518384306E-01
    0.5500000000E+04    0.5986894519E+00    0.6524586743E-01
    0.5700000000E+04    0.5991353674E+00    0.6530396005E-01
    0.5900000000E+04    0.5995513659E+00    0.6535850190E-01
    0.6100000000E+04    0.5999403421E+00    0.6540982563E-01
    0.6300000000E+04    0.6003048298E+00    0.6545822309E-01
    0.6500000000E+04    0.6006470561E+00    0.6550395137E-01
    0.6700000000E+04    0.6009689862E+00    0.6554723791E-01
    0.6900000000E+04    0.6012723612E+00    0.6558828464E-01
    0.7100000000E+04    0.6015587289E+00    0.6562727149E-01
    0.7300000000E+04    0.6018294699E+00    0.6566435933E-01
    0.7500000000E+04    0.6020858196E+00    0.6569969245E-01
    0.7700000000E+04    0.6023288868E+00    0.6573340063E-01
    0.7900000000E+04    0.6025596695E+00    0.6576560095E-01
    0.8100000000E+04    0.6027790683E+00    0.6579639933E-01
    0.8300000000E+04    0.6029878980E+00    0.6582589182E-01
    0.8500000000E+04    0.6031868978E+00    0.6585416571E-01
    0.8700000000E+04    0.6033767395E+00    0.6588130056E-01
    0.8900000000E+04    0.6035580354E+00    0.6590736903E-01
    0.9100000000E+04    0.6037313443E+00    0.6593243758E-01
    0.9300000000E+04    0.6038971777E+00    0.6595656718E-01
    0.9500000000E+04    0.6040560042E+00    0.6597981383E-01
    0.9700000000E+04    0.6042082543E+00    0.6600222907E-01
    0.9900000000E+04    0.6043543239E+00    0.6602386042E-01
    0.1000000000E+04    0.5459642936E+00    0.5912461602E-01
    0.3000000000E+04    0.5882352668E+00    0.6395265842E-01
    0.5000000000E+04    0.5974206894E+00    0.6508245702E-01
    0.7000000000E+04    0.6014175810E+00    0.6560802508E-01
    0.9000000000E+04    0.6036456552E+00    0.6592002436E-01
    0.1100000000E+05    0.6050622150E+00    0.6613062734E-01
    0.1300000000E+05    0.6060399655E+00    0.6628456347E-01
    0.1500000000E+05    0.6067539967E+00    0.6640333629E-01
    0.1700000000E+05    0.6072973577E+00    0.6649863307E-01
    0.1900000000E+05    0.6077240351E+00    0.6657738509E-01
    0.2100000000E+05    0.6080674850E+00    0.6664398111E-01
    0.2300000000E+05    0.6083495338E+00    0.6670134538E-01
    0.2500000000E+05    0.6085850209E+00    0.6675150767E-01
    0.2700000000E+05    0.6087843828E+00    0.6679592490E-01
    0.2900000000E+05    0.6089551701E+00    0.6683567251E-01
    0.3100000000E+05    0.6091029788E+00    0.6687156343E-01
    0.3300000000E+05    0.6092320426E+00    0.6690422476E-01
    0.3500000000E+05    0.6093456229E+00    0.6693414893E-01
    0.3700000000E+05    0.6094462719E+00    0.6696172864E-01
    0.3900000000E+05    0.6095360145E+00    0.6698728135E-01
    0.4100000000E+05    0.6096164781E+00    0.6701106687E-01
    0.4300000000E+05    0.6096889844E+00    0.6703330013E-01
    0.4500000000E+05    0.6097546184E+00    0.6705416071E-01
    0.4700000000E+05    0.6098142783E+00    0.6707379996E-01
    0.4900000000E+05    0.6098687144E+00    0.6709234650E-01
    0.5100000000E+05    0.6099185578E+00    0.6710991044E-01
    0.5300000000E+05    0.6099643434E+00    0.6712658664E-01
    0.5500000000E+05    0.6100065270E+00    0.6714245740E-01
    0.5700000000E+05    0.6100454999E+00    0.6715759446E-01
    0.5900000000E+05    0.6100815993E+00    0.6717206074E-01
    0.6100000000E+05    0.6101151177E+00    0.6718591169E-01
    0.6300000000E+05    0.6101463098E+00    0.6719919637E-01
    0.6500000000E+05    0.6101753984E+00    0.6721195840E-01
    0.6700000000E+05    0.6102025794E+00    0.6722423671E-01
    0.6900000000E+05    0.6102280254E+00    0.6723606617E-01
    0.7100000000E+05    0.6102518893E+00    0.6724747814E-01
    0.7300000000E+05    0.6102743068E+00    0.6725850088E-01
    0.7500000000E+05    0.6102953990E+00    0.6726916000E-01
    0.7700000000E+05    0.6103152739E+00    0.6727947869E-01
    0.7900000000E+05    0.6103340286E+00    0.6728947809E-01
    0.8100000000E+05    0.6103517503E+00    0.6729917746E-01
    0.8300000000E+05    0.6103685175E+00    0.6730859443E-01
    0.8500000000E+05    0.6103844013E+00    0.6731774517E-01
    0.8700000000E+05    0.6103994659E+00    0.6732664450E-01
    0.8900000000E+05    0.6104137698E+00    0.6733530611E-01
    0.9100000000E+05    0.6104273661E+00    0.6734374261E-01
    0.9300000000E+05    0.6104403031E+00    0.6735196566E-01
    0.9500000000E+05    0.6104526252E+00    0.6735998605E-01
    0.9700000000E+05    0.6104643727E+00    0.6736781381E-01
    0.9900000000E+05    0.6104755829E+00    0.6737545824E-01
    0.1000000000E+05    0.6044251563E+00    0.6603439599E-01
    0.3000000000E+05    0.6090316556E+00    0.6685405720E-01
    0.5000000000E+05    0.6098941747E+00    0.6710124504E-01
    0.7000000000E+05    0.6102401463E+00    0.6724182250E-01
    0.9000000000E+05    0.6104206533E+00    0.6733955175E-01
    0.1100000000E+06    0.6105290283E+00    0.6741458515E-01
    0.1300000000E+06    0.6106002252E+00    0.6747568675E-01
    0.1500000000E+06    0.6106501137E+00    0.6752740941E-01
    0.1700000000E+06    0.6106868610E+00    0.6757240590E-01
    0.1900000000E+06    0.6107150596E+00    0.6761235143E-01
    0.2100000000E+06    0.6107374683E+00    0.6764836898E-01
    0.2300000000E+06    0.6107558314E+00    0.6768124682E-01
    0.2500000000E+06    0.6107712976E+00    0.6771155893E-01
    0.2700000000E+06    0.6107846490E+00    0.6773973585E-01
    0.2900000000E+06    0.6107964328E+00    0.6776610864E-01
    0.3100000000E+06    0.6108070410E+00    0.6779093723E-01
    0.3300000000E+06    0.6108167597E+00    0.6781442936E-01
    0.3500000000E+06    0.6108258015E+00    0.6783675363E-01
    0.3700000000E+06    0.6108343263E+00    0.6785804872E-01
    0.3900000000E+06    0.6108424562E+00    0.6787843006E-01
    0.4100000000E+06    0.6108502855E+00    0.6789799476E-01
    0.4300000000E+06    0.6108578872E+00    0.6791682524E-01
    0.4500000000E+06    0.6108653188E+00    0.6793499208E-01
    0.4700000000E+06    0.6108726257E+00    0.6795255617E-01
    0.4900000000E+06    0.6108798438E+00    0.6796957039E-01
    0.5100000000E+06    0.6108870019E+00    0.6798608097E-01
    0.5300000000E+06    0.6108941230E+00    0.6800212856E-01
    0.5500000000E+06    0.6109012257E+00    0.6801774907E-01
    0.5700000000E+06    0.6109083247E+00    0.6803297440E-01
    0.5900000000E+06    0.6109154320E+00    0.6804783301E-01
    0.6100000000E+06    0.6109225574E+00    0.6806235039E-01
    0.6300000000E+06    0.6109297085E+00    0.6807654946E-01
    0.6500000000E+06    0.6109368916E+00    0.6809045093E-01
    0.6700000000E+06    0.6109441117E+00    0.6810407351E-01
    0.6900000000E+06    0.6109513726E+00    0.6811743425E-01
    0.7100000000E+06    0.6109586775E+00    0.6813054864E-01
    0.7300000000E+06    0.6109660287E+00    0.6814343086E-01
    0.7500000000E+06    0.6109734281E+00    0.6815609389E-01
    0.7700000000E+06    0.6109808770E+00    0.6816854966E-01
    0.7900000000E+06    0.6109883763E+00    0.6818080914E-01
    0.8100000000E+06    0.6109959267E+00    0.6819288245E-01
    0.8300000000E+06    0.6110035284E+00    0.6820477897E-01
    0.8500000000E+06    0.6110111817E+00    0.6821650736E-01
    0.8700000000E+06    0.6110188864E+00    0.6822807568E-01
    0.8900000000E+06    0.6110266423E+00    0.6823949140E-01
    0.9100000000E+06    0.6110344492E+00    0.6825076150E-01
    0.9300000000E+06    0.6110423065E+00    0.6826189249E-01
    0.9500000000E+06    0.6110502137E+00    0.6827289043E-01
    0.9700000000E+06    0.6110581703E+00    0.6828376103E-01
    0.9900000000E+06    0.6110661755E+00    0.6829450960E-01
    0.1000000000E+06    0.6104809973E+00    0.6737921443E-01
    0.3000000000E+06    0.6108018639E+00    0.6777870193E-01
    0.5000000000E+06    0.6108834288E+00    0.6797788597E-01
    0.7000000000E+06    0.6109550194E+00    0.6812402132E-01
    0.9000000000E+06    0.6110305394E+00    0.6824514424E-01
    0.1100000000E+07    0.6111110426E+00    0.6835165473E-01
    0.1300000000E+07    0.6111959241E+00    0.6844856809E-01
    0.1500000000E+07    0.6112844390E+00    0.6853868983E-01
    0.1700000000E+07    0.6113759503E+00    0.6862374896E-01
    0.1900000000E+07    0.6114699496E+00    0.6870488679E-01
    0.2100000000E+07    0.6115660359E+00    0.6878289638E-01
    0.2300000000E+07    0.6116638919E+00    0.6885835122E-01
    0.2500000000E+07    0.6117632636E+00    0.6893167949E-01
    0.2700000000E+07    0.6118639457E+00    0.6900320937E-01
    0.2900000000E+07    0.6119657700E+00    0.6907319794E-01
    0.3100000000E+07    0.6120685976E+00    0.6914185034E-01
    0.3300000000E+07    0.6121723123E+00    0.6920933288E-01
    0.3500000000E+07    0.6122768161E+00    0.6927578228E-01
    0.3700000000E+07    0.6123820255E+00    0.6934131230E-01
    0.3900000000E+07    0.6124878692E+00    0.6940601859E-01
    0.4100000000E+07    0.6125942854E+00    0.6946998235E-01
    0.4300000000E+07    0.6127012205E+00    0.6953327312E-01
    0.4500000000E+07    0.6128086275E+00    0.6959595090E-01
    0.4700000000E+07    0.6129164652E+00    0.6965806780E-01
    0.4900000000E+07    0.6130246971E+00    0.6971966940E-01
    0.5100000000E+07    0.6131332908E+00    0.6978079577E-01
    0.5300000000E+07    0.6132422175E+00    0.6984148235E-01
    0.5500000000E+07    0.6133514512E+00    0.6990176061E-01
    0.5700000000E+07    0.6134609687E+00    0.6996165864E-01
    0.5900000000E+07    0.6135707490E+00    0.7002120161E-01
    0.6100000000E+07    0.6136807730E+00    0.7008041216E-01
    0.6300000000E+07    0.6137910236E+00    0.7013931075E-01
    0.6500000000E+07    0.6139014849E+00    0.7019791590E-01
    0.6700000000E+07    0.6140121427E+00    0.7025624443E-01
    0.6900000000E+07    0.6141229836E+00    0.7031431170E-01
    0.7100000000E+07    0.6142339958E+00    0.7037213172E-01
    0.7300000000E+07    0.6143451680E+00    0.7042971735E-01
    0.7500000000E+07    0.6144564900E+00    0.7048708041E-01
    0.7700000000E+07    0.6145679523E+00    0.7054423176E-01
    0.7900000000E+07    0.6146795461E+00    0.7060118143E-01
    0.8100000000E+07    0.6147912633E+00    0.7065793872E-01
    0.8300000000E+07    0.6149030964E+00    0.7071451223E-01
    0.8500000000E+07    0.6150150382E+00    0.7077090993E-01
    0.8700000000E+07    0.6151270822E+00    0.7082713926E-01
    0.8900000000E+07    0.6152392223E+00    0.7088320714E-01
    0.9100000000E+07    0.6153514527E+00    0.7093912002E-01
    0.9300000000E+07    0.6154637681E+00    0.7099488396E-01
    0.9500000000E+07    0.6155761633E+00    0.7105050459E-01
    0.9700000000E+07    0.6156886337E+00    0.7110598722E-01
    0.9900000000E+07    0.6158011747E+00    0.7116133681E-01
    0.1000000000E+07    0.6110701962E+00    0.6829983970E-01
    0.3000000000E+07    0.6120170662E+00    0.6910767998E-01
    0.5000000000E+07    0.6130789506E+00    0.6975028967E-01
    0.7000000000E+07    0.6141784690E+00    0.7034325178E-01
    0.9000000000E+07    0.6152953266E+00    0.7091118257E-01
    0.1100000000E+08    0.6164212380E+00    0.7146357751E-01
    0.1300000000E+08    0.6175520092E+00    0.7200511724E-01
    0.1500000000E+08    0.6186852256E+00    0.7253845915E-01
    0.1700000000E+08    0.6198193732E+00    0.7306525956E-01
    0.1900000000E+08    0.6209534420E+00    0.7358662215E-01
    0.2100000000E+08    0.6220867267E+00    0.7410332036E-01
    0.2300000000E+08    0.6232187172E+00    0.7461591804E-01
    0.2500000000E+08    0.6243490338E+00    0.7512483958E-01
    0.2700000000E+08    0.6254773874E+00    0.7563041297E-01
    0.2900000000E+08    0.6266035540E+00    0.7613289739E-01
    0.3100000000E+08    0.6277273576E+00    0.7663250159E-01
    0.3300000000E+08    0.6288486577E+00    0.7712939651E-01
    0.3500000000E+08    0.6299673416E+00    0.7762372419E-01
    0.3700000000E+08    0.6310833178E+00    0.7811560418E-01
    0.3900000000E+08    0.6321965118E+00    0.7860513829E-01
    0.4100000000E+08    0.6333068626E+00    0.7909241410E-01
    0.4300000000E+08    0.6344143202E+00    0.7957750770E-01
    0.4500000000E+08    0.6355188436E+00    0.8006048575E-01
    0.4700000000E+08    0.6366203989E+00    0.8054140712E-01
    0.4900000000E+08    0.6377189587E+00    0.8102032419E-01
    0.5100000000E+08    0.6388145006E+00    0.8149728385E-01
