     Pressure (Pa)     C7-500 (mol/kg)        3mC6-500 (mol/kg)
    0.1000000000E+01    0.1560045138E-01    0.6240281003E-03
    0.3000000000E+01    0.4465530118E-01    0.1786552291E-02
    0.5000000000E+01    0.7116235876E-01    0.2847517886E-02
    0.7000000000E+01    0.9544263958E-01    0.3819705020E-02
    0.9000000000E+01    0.1177654044E+00    0.4713834682E-02
    0.1100000000E+02    0.1383581851E+00    0.5538967457E-02
    0.1300000000E+02    0.1574145669E+00    0.6302813055E-02
    0.1500000000E+02    0.1751002911E+00    0.7011973087E-02
    0.1700000000E+02    0.1915580880E+00    0.7672133282E-02
    0.1900000000E+02    0.2069115358E+00    0.8288217039E-02
    0.2100000000E+02    0.2212681689E+00    0.8864509080E-02
    0.2300000000E+02    0.2347219999E+00    0.9404755791E-02
    0.2500000000E+02    0.2473555797E+00    0.9912247215E-02
    0.2700000000E+02    0.2592416928E+00    0.1038988451E-01
    0.2900000000E+02    0.2704447602E+00    0.1084023575E-01
    0.3100000000E+02    0.2810220067E+00    0.1126558246E-01
    0.3300000000E+02    0.2910244390E+00    0.1166795845E-01
    0.3500000000E+02    0.3004976675E+00    0.1204918261E-01
    0.3700000000E+02    0.3094826015E+00    0.1241088655E-01
    0.3900000000E+02    0.3180160400E+00    0.1275453810E-01
    0.4100000000E+02    0.3261311751E+00    0.1308146139E-01
    0.4300000000E+02    0.3338580231E+00    0.1339285402E-01
    0.4500000000E+02    0.3412237959E+00    0.1368980179E-01
    0.4700000000E+02    0.3482532207E+00    0.1397329152E-01
    0.4900000000E+02    0.3549688173E+00    0.1424422201E-01
    0.5100000000E+02    0.3613911393E+00    0.1450341369E-01
    0.5300000000E+02    0.3675389837E+00    0.1475161698E-01
    0.5500000000E+02    0.3734295748E+00    0.1498951958E-01
    0.5700000000E+02    0.3790787255E+00    0.1521775292E-01
    0.5900000000E+02    0.3845009787E+00    0.1543689779E-01
    0.6100000000E+02    0.3897097323E+00    0.1564748930E-01
    0.6300000000E+02    0.3947173501E+00    0.1585002134E-01
    0.6500000000E+02    0.3995352589E+00    0.1604495041E-01
    0.6700000000E+02    0.4041740365E+00    0.1623269915E-01
    0.6900000000E+02    0.4086434884E+00    0.1641365939E-01
    0.7100000000E+02    0.4129527175E+00    0.1658819493E-01
    0.7300000000E+02    0.4171101857E+00    0.1675664397E-01
    0.7500000000E+02    0.4211237692E+00    0.1691932137E-01
    0.7700000000E+02    0.4250008087E+00    0.1707652060E-01
    0.7900000000E+02    0.4287481539E+00    0.1722851554E-01
    0.8100000000E+02    0.4323722037E+00    0.1737556207E-01
    0.8300000000E+02    0.4358789432E+00    0.1751789956E-01
    0.8500000000E+02    0.4392739761E+00    0.1765575215E-01
    0.8700000000E+02    0.4425625549E+00    0.1778932994E-01
    0.8900000000E+02    0.4457496078E+00    0.1791883012E-01
    0.9100000000E+02    0.4488397637E+00    0.1804443789E-01
    0.9300000000E+02    0.4518373740E+00    0.1816632738E-01
    0.9500000000E+02    0.4547465337E+00    0.1828466249E-01
    0.9700000000E+02    0.4575710995E+00    0.1839959758E-01
    0.9900000000E+02    0.4603147073E+00    0.1851127821E-01
    0.1000000000E+02    0.1282652267E+00    0.5134515288E-02
    0.3000000000E+02    0.2758082877E+00    0.1105590216E-01
    0.5000000000E+02    0.3582154240E+00    0.1437523675E-01
    0.7000000000E+02    0.4108175876E+00    0.1650170854E-01
    0.9000000000E+02    0.4473065197E+00    0.1798210942E-01
    0.1100000000E+03    0.4741015620E+00    0.1907311964E-01
    0.1300000000E+03    0.4946120467E+00    0.1991123013E-01
    0.1500000000E+03    0.5108163913E+00    0.2057574239E-01
    0.1700000000E+03    0.5239415001E+00    0.2111589443E-01
    0.1900000000E+03    0.5347886424E+00    0.2156388159E-01
    0.2100000000E+03    0.5439032926E+00    0.2194164765E-01
    0.2300000000E+03    0.5516696571E+00    0.2226466739E-01
    0.2500000000E+03    0.5583661682E+00    0.2254416874E-01
    0.2700000000E+03    0.5641995393E+00    0.2278849753E-01
    0.2900000000E+03    0.5693264585E+00    0.2300398744E-01
    0.3100000000E+03    0.5738678573E+00    0.2319553263E-01
    0.3300000000E+03    0.5779185597E+00    0.2336697526E-01
    0.3500000000E+03    0.5815539657E+00    0.2352137409E-01
    0.3700000000E+03    0.5848347831E+00    0.2366119479E-01
    0.3900000000E+03    0.5878104389E+00    0.2378844726E-01
    0.4100000000E+03    0.5905215835E+00    0.2390478645E-01
    0.4300000000E+03    0.5930019556E+00    0.2401158758E-01
    0.4500000000E+03    0.5952797912E+00    0.2411000292E-01
    0.4700000000E+03    0.5973789016E+00    0.2420100534E-01
    0.4900000000E+03    0.5993195071E+00    0.2428542194E-01
    0.5100000000E+03    0.6011188893E+00    0.2436396050E-01
    0.5300000000E+03    0.6027919065E+00    0.2443723022E-01
    0.5500000000E+03    0.6043514036E+00    0.2450575841E-01
    0.5700000000E+03    0.6058085423E+00    0.2457000379E-01
    0.5900000000E+03    0.6071730679E+00    0.2463036737E-01
    0.6100000000E+03    0.6084535269E+00    0.2468720122E-01
    0.6300000000E+03    0.6096574459E+00    0.2474081579E-01
    0.6500000000E+03    0.6107914796E+00    0.2479148585E-01
    0.6700000000E+03    0.6118615329E+00    0.2483945553E-01
    0.6900000000E+03    0.6128728642E+00    0.2488494247E-01
    0.7100000000E+03    0.6138301711E+00    0.2492814133E-01
    0.7300000000E+03    0.6147376633E+00    0.2496922676E-01
    0.7500000000E+03    0.6155991244E+00    0.2500835592E-01
    0.7700000000E+03    0.6164179646E+00    0.2504567061E-01
    0.7900000000E+03    0.6171972652E+00    0.2508129912E-01
    0.8100000000E+03    0.6179398180E+00    0.2511535781E-01
    0.8300000000E+03    0.6186481576E+00    0.2514795245E-01
    0.8500000000E+03    0.6193245913E+00    0.2517917943E-01
    0.8700000000E+03    0.6199712235E+00    0.2520912678E-01
    0.8900000000E+03    0.6205899773E+00    0.2523787503E-01
    0.9100000000E+03    0.6211826143E+00    0.2526549802E-01
    0.9300000000E+03    0.6217507506E+00    0.2529206360E-01
    0.9500000000E+03    0.6222958717E+00    0.2531763418E-01
    0.9700000000E+03    0.6228193456E+00    0.2534226732E-01
    0.9900000000E+03    0.6233224339E+00    0.2536601616E-01
    0.1000000000E+03    0.4616572316E+00    0.1856594133E-01
    0.3000000000E+03    0.5716638994E+00    0.2310249194E-01
    0.5000000000E+03    0.6002358709E+00    0.2432538580E-01
    0.7000000000E+03    0.6133579969E+00    0.2490681656E-01
    0.9000000000E+03    0.6208894562E+00    0.2525182281E-01
    0.1100000000E+04    0.6257730005E+00    0.2548285310E-01
    0.1300000000E+04    0.6291947537E+00    0.2564986808E-01
    0.1500000000E+04    0.6317246473E+00    0.2577716066E-01
    0.1700000000E+04    0.6336705227E+00    0.2587800623E-01
    0.1900000000E+04    0.6352132315E+00    0.2596029387E-01
    0.2100000000E+04    0.6364659835E+00    0.2602901826E-01
    0.2300000000E+04    0.6375032594E+00    0.2608750236E-01
    0.2500000000E+04    0.6383760630E+00    0.2613804704E-01
    0.2700000000E+04    0.6391204932E+00    0.2618229868E-01
    0.2900000000E+04    0.6397628153E+00    0.2622146824E-01
    0.3100000000E+04    0.6403225954E+00    0.2625646751E-01
    0.3300000000E+04    0.6408147067E+00    0.2628799699E-01
    0.3500000000E+04    0.6412506563E+00    0.2631660440E-01
    0.3700000000E+04    0.6416394863E+00    0.2634272460E-01
    0.3900000000E+04    0.6419883996E+00    0.2636670759E-01
    0.4100000000E+04    0.6423032047E+00    0.2638883854E-01
    0.4300000000E+04    0.6425886372E+00    0.2640935229E-01
    0.4500000000E+04    0.6428485968E+00    0.2642844417E-01
    0.4700000000E+04    0.6430863232E+00    0.2644627811E-01
    0.4900000000E+04    0.6433045307E+00    0.2646299278E-01
    0.5100000000E+04    0.6435055096E+00    0.2647870635E-01
    0.5300000000E+04    0.6436912066E+00    0.2649352025E-01
    0.5500000000E+04    0.6438632864E+00    0.2650752202E-01
    0.5700000000E+04    0.6440231808E+00    0.2652078773E-01
    0.5900000000E+04    0.6441721287E+00    0.2653338377E-01
    0.6100000000E+04    0.6443112065E+00    0.2654536841E-01
    0.6300000000E+04    0.6444413548E+00    0.2655679300E-01
    0.6500000000E+04    0.6445633986E+00    0.2656770303E-01
    0.6700000000E+04    0.6446780646E+00    0.2657813893E-01
    0.6900000000E+04    0.6447859954E+00    0.2658813677E-01
    0.7100000000E+04    0.6448877614E+00    0.2659772887E-01
    0.7300000000E+04    0.6449838708E+00    0.2660694425E-01
    0.7500000000E+04    0.6450747772E+00    0.2661580909E-01
    0.7700000000E+04    0.6451608875E+00    0.2662434706E-01
    0.7900000000E+04    0.6452425673E+00    0.2663257960E-01
    0.8100000000E+04    0.6453201461E+00    0.2664052622E-01
    0.8300000000E+04    0.6453939218E+00    0.2664820470E-01
    0.8500000000E+04    0.6454641640E+00    0.2665563128E-01
    0.8700000000E+04    0.6455311177E+00    0.2666282084E-01
    0.8900000000E+04    0.6455950059E+00    0.2666978703E-01
    0.9100000000E+04    0.6456560318E+00    0.2667654241E-01
    0.9300000000E+04    0.6457143814E+00    0.2668309854E-01
    0.9500000000E+04    0.6457702246E+00    0.2668946610E-01
    0.9700000000E+04    0.6458237177E+00    0.2669565498E-01
    0.9900000000E+04    0.6458750041E+00    0.2670167434E-01
    0.1000000000E+04    0.6235667011E+00    0.2537757447E-01
    0.3000000000E+04    0.6400520017E+00    0.2623944122E-01
    0.5000000000E+04    0.6434070448E+00    0.2647096801E-01
    0.7000000000E+04    0.6448376159E+00    0.2659298165E-01
    0.9000000000E+04    0.6456258647E+00    0.2667319033E-01
    0.1100000000E+05    0.6461230533E+00    0.2673210187E-01
    0.1300000000E+05    0.6464642707E+00    0.2677833405E-01
    0.1500000000E+05    0.6467124376E+00    0.2681623865E-01
    0.1700000000E+05    0.6469007700E+00    0.2684829147E-01
    0.1900000000E+05    0.6470484323E+00    0.2687602442E-01
    0.2100000000E+05    0.6471672433E+00    0.2690044647E-01
    0.2300000000E+05    0.6472648797E+00    0.2692225503E-01
    0.2500000000E+05    0.6473465394E+00    0.2694195107E-01
    0.2700000000E+05    0.6474158641E+00    0.2695990585E-01
    0.2900000000E+05    0.6474754791E+00    0.2697640180E-01
    0.3100000000E+05    0.6475273232E+00    0.2699165852E-01
    0.3300000000E+05    0.6475728582E+00    0.2700584997E-01
    0.3500000000E+05    0.6476132063E+00    0.2701911623E-01
    0.3700000000E+05    0.6476492430E+00    0.2703157169E-01
    0.3900000000E+05    0.6476816606E+00    0.2704331091E-01
    0.4100000000E+05    0.6477110138E+00    0.2705441296E-01
    0.4300000000E+05    0.6477377516E+00    0.2706494459E-01
    0.4500000000E+05    0.6477622413E+00    0.2707496264E-01
    0.4700000000E+05    0.6477847864E+00    0.2708451592E-01
    0.4900000000E+05    0.6478056392E+00    0.2709364661E-01
    0.5100000000E+05    0.6478250116E+00    0.2710239147E-01
    0.5300000000E+05    0.6478430824E+00    0.2711078265E-01
    0.5500000000E+05    0.6478600036E+00    0.2711884848E-01
    0.5700000000E+05    0.6478759052E+00    0.2712661402E-01
    0.5900000000E+05    0.6478908990E+00    0.2713410156E-01
    0.6100000000E+05    0.6479050815E+00    0.2714133101E-01
    0.6300000000E+05    0.6479185368E+00    0.2714832021E-01
    0.6500000000E+05    0.6479313378E+00    0.2715508523E-01
    0.6700000000E+05    0.6479435487E+00    0.2716164058E-01
    0.6900000000E+05    0.6479552258E+00    0.2716799942E-01
    0.7100000000E+05    0.6479664187E+00    0.2717417369E-01
    0.7300000000E+05    0.6479771714E+00    0.2718017429E-01
    0.7500000000E+05    0.6479875231E+00    0.2718601119E-01
    0.7700000000E+05    0.6479975085E+00    0.2719169351E-01
    0.7900000000E+05    0.6480071588E+00    0.2719722965E-01
    0.8100000000E+05    0.6480165018E+00    0.2720262734E-01
    0.8300000000E+05    0.6480255626E+00    0.2720789370E-01
    0.8500000000E+05    0.6480343637E+00    0.2721303533E-01
    0.8700000000E+05    0.6480429256E+00    0.2721805833E-01
    0.8900000000E+05    0.6480512666E+00    0.2722296839E-01
    0.9100000000E+05    0.6480594034E+00    0.2722777078E-01
    0.9300000000E+05    0.6480673512E+00    0.2723247041E-01
    0.9500000000E+05    0.6480751238E+00    0.2723707187E-01
    0.9700000000E+05    0.6480827339E+00    0.2724157944E-01
    0.9900000000E+05    0.6480901928E+00    0.2724599715E-01
    0.1000000000E+05    0.6458998615E+00    0.2670462312E-01
    0.3000000000E+05    0.6475022719E+00    0.2698417328E-01
    0.5000000000E+05    0.6478154986E+00    0.2709806516E-01
    0.7000000000E+05    0.6479608799E+00    0.2717110892E-01
    0.9000000000E+05    0.6480553595E+00    0.2722538273E-01
    0.1100000000E+06    0.6481289459E+00    0.2726884515E-01
    0.1300000000E+06    0.6481924784E+00    0.2730527194E-01
    0.1500000000E+06    0.6482506925E+00    0.2733675265E-01
    0.1700000000E+06    0.6483059253E+00    0.2736456534E-01
    0.1900000000E+06    0.6483594323E+00    0.2738954883E-01
    0.2100000000E+06    0.6484119299E+00    0.2741228344E-01
    0.2300000000E+06    0.6484638463E+00    0.2743318735E-01
    0.2500000000E+06    0.6485154457E+00    0.2745257189E-01
    0.2700000000E+06    0.6485668954E+00    0.2747067510E-01
    0.2900000000E+06    0.6486183028E+00    0.2748768308E-01
    0.3100000000E+06    0.6486697377E+00    0.2750374409E-01
    0.3300000000E+06    0.6487212452E+00    0.2751897814E-01
    0.3500000000E+06    0.6487728541E+00    0.2753348377E-01
    0.3700000000E+06    0.6488245825E+00    0.2754734285E-01
    0.3900000000E+06    0.6488764410E+00    0.2756062419E-01
    0.4100000000E+06    0.6489284354E+00    0.2757338612E-01
    0.4300000000E+06    0.6489805677E+00    0.2758567857E-01
    0.4500000000E+06    0.6490328379E+00    0.2759754459E-01
    0.4700000000E+06    0.6490852440E+00    0.2760902154E-01
    0.4900000000E+06    0.6491377832E+00    0.2762014207E-01
    0.5100000000E+06    0.6491904519E+00    0.2763093489E-01
    0.5300000000E+06    0.6492432461E+00    0.2764142536E-01
    0.5500000000E+06    0.6492961615E+00    0.2765163599E-01
    0.5700000000E+06    0.6493491937E+00    0.2766158689E-01
    0.5900000000E+06    0.6494023382E+00    0.2767129603E-01
    0.6100000000E+06    0.6494555907E+00    0.2768077961E-01
    0.6300000000E+06    0.6495089468E+00    0.2769005222E-01
    0.6500000000E+06    0.6495624024E+00    0.2769912711E-01
    0.6700000000E+06    0.6496159533E+00    0.2770801628E-01
    0.6900000000E+06    0.6496695957E+00    0.2771673068E-01
    0.7100000000E+06    0.6497233258E+00    0.2772528033E-01
    0.7300000000E+06    0.6497771400E+00    0.2773367438E-01
    0.7500000000E+06    0.6498310348E+00    0.2774192127E-01
    0.7700000000E+06    0.6498850070E+00    0.2775002875E-01
    0.7900000000E+06    0.6499390534E+00    0.2775800396E-01
    0.8100000000E+06    0.6499931710E+00    0.2776585353E-01
    0.8300000000E+06    0.6500473569E+00    0.2777358358E-01
    0.8500000000E+06    0.6501016084E+00    0.2778119980E-01
    0.8700000000E+06    0.6501559229E+00    0.2778870747E-01
    0.8900000000E+06    0.6502102979E+00    0.2779611154E-01
    0.9100000000E+06    0.6502647311E+00    0.2780341660E-01
    0.9300000000E+06    0.6503192202E+00    0.2781062694E-01
    0.9500000000E+06    0.6503737630E+00    0.2781774658E-01
    0.9700000000E+06    0.6504283575E+00    0.2782477930E-01
    0.9900000000E+06    0.6504830018E+00    0.2783172863E-01
    0.1000000000E+06    0.6480938690E+00    0.2724817348E-01
    0.3000000000E+06    0.6486440136E+00    0.2749582389E-01
    0.5000000000E+06    0.6491641016E+00    0.2762557779E-01
    0.7000000000E+06    0.6496964500E+00    0.2772102551E-01
    0.9000000000E+06    0.6502375074E+00    0.2779977617E-01
    0.1100000000E+07    0.6507843548E+00    0.2786859867E-01
    0.1300000000E+07    0.6513351507E+00    0.2793082219E-01
    0.1500000000E+07    0.6518887062E+00    0.2798833303E-01
    0.1700000000E+07    0.6524442200E+00    0.2804230433E-01
    0.1900000000E+07    0.6530011289E+00    0.2809351575E-01
    0.2100000000E+07    0.6535590236E+00    0.2814251199E-01
    0.2300000000E+07    0.6541175978E+00    0.2818968862E-01
    0.2500000000E+07    0.6546766165E+00    0.2823534208E-01
    0.2700000000E+07    0.6552358959E+00    0.2827970024E-01
    0.2900000000E+07    0.6557952894E+00    0.2832294208E-01
    0.3100000000E+07    0.6563546787E+00    0.2836521075E-01
    0.3300000000E+07    0.6569139665E+00    0.2840662255E-01
    0.3500000000E+07    0.6574730725E+00    0.2844727324E-01
    0.3700000000E+07    0.6580319292E+00    0.2848724266E-01
    0.3900000000E+07    0.6585904797E+00    0.2852659801E-01
    0.4100000000E+07    0.6591486757E+00    0.2856539646E-01
    0.4300000000E+07    0.6597064754E+00    0.2860368701E-01
    0.4500000000E+07    0.6602638431E+00    0.2864151199E-01
    0.4700000000E+07    0.6608207475E+00    0.2867890822E-01
    0.4900000000E+07    0.6613771616E+00    0.2871590794E-01
    0.5100000000E+07    0.6619330615E+00    0.2875253953E-01
    0.5300000000E+07    0.6624884263E+00    0.2878882810E-01
    0.5500000000E+07    0.6630432375E+00    0.2882479600E-01
    0.5700000000E+07    0.6635974787E+00    0.2886046317E-01
    0.5900000000E+07    0.6641511354E+00    0.2889584752E-01
    0.6100000000E+07    0.6647041944E+00    0.2893096518E-01
    0.6300000000E+07    0.6652566443E+00    0.2896583071E-01
    0.6500000000E+07    0.6658084747E+00    0.2900045732E-01
    0.6700000000E+07    0.6663596762E+00    0.2903485705E-01
    0.6900000000E+07    0.6669102405E+00    0.2906904087E-01
    0.7100000000E+07    0.6674601600E+00    0.2910301880E-01
    0.7300000000E+07    0.6680094281E+00    0.2913680007E-01
    0.7500000000E+07    0.6685580385E+00    0.2917039315E-01
    0.7700000000E+07    0.6691059858E+00    0.2920380584E-01
    0.7900000000E+07    0.6696532650E+00    0.2923704536E-01
    0.8100000000E+07    0.6701998716E+00    0.2927011840E-01
    0.8300000000E+07    0.6707458016E+00    0.2930303116E-01
    0.8500000000E+07    0.6712910514E+00    0.2933578940E-01
    0.8700000000E+07    0.6718356177E+00    0.2936839849E-01
    0.8900000000E+07    0.6723794974E+00    0.2940086343E-01
    0.9100000000E+07    0.6729226881E+00    0.2943318892E-01
    0.9300000000E+07    0.6734651872E+00    0.2946537933E-01
    0.9500000000E+07    0.6740069927E+00    0.2949743876E-01
    0.9700000000E+07    0.6745481026E+00    0.2952937109E-01
    0.9900000000E+07    0.6750885153E+00    0.2956117992E-01
    0.1000000000E+07    0.6505103420E+00    0.2783517308E-01
    0.3000000000E+07    0.6560749911E+00    0.2834419025E-01
    0.5000000000E+07    0.6616551772E+00    0.2873426811E-01
    0.7000000000E+07    0.6671852813E+00    0.2908605498E-01
    0.9000000000E+07    0.6726511790E+00    0.2941704333E-01
    0.1100000000E+08    0.6780482637E+00    0.2973406436E-01
    0.1300000000E+08    0.6833750341E+00    0.3004053430E-01
    0.1500000000E+08    0.6886312925E+00    0.3033842857E-01
    0.1700000000E+08    0.6938174721E+00    0.3062900705E-01
    0.1900000000E+08    0.6989343391E+00    0.3091313305E-01
    0.2100000000E+08    0.7039828440E+00    0.3119143180E-01
    0.2300000000E+08    0.7089640413E+00    0.3146437660E-01
    0.2500000000E+08    0.7138790425E+00    0.3173233892E-01
    0.2700000000E+08    0.7187289886E+00    0.3199561928E-01
    0.2900000000E+08    0.7235150315E+00    0.3225446700E-01
    0.3100000000E+08    0.7282383234E+00    0.3250909349E-01
    0.3300000000E+08    0.7329000083E+00    0.3275968126E-01
    0.3500000000E+08    0.7375012177E+00    0.3300639043E-01
    0.3700000000E+08    0.7420430668E+00    0.3324936335E-01
    0.3900000000E+08    0.7465266524E+00    0.3348872805E-01
    0.4100000000E+08    0.7509530514E+00    0.3372460084E-01
    0.4300000000E+08    0.7553233196E+00    0.3395708828E-01
    0.4500000000E+08    0.7596384916E+00    0.3418628877E-01
    0.4700000000E+08    0.7638995803E+00    0.3441229371E-01
    0.4900000000E+08    0.7681075768E+00    0.3463518850E-01
    0.5100000000E+08    0.7722634505E+00    0.3485505334E-01
