  Pressure (Pa) 22mC5-400 (mol/kg) 2mC6-400 (mol/kg) 33mC5-400 (mol/kg) 23mC5-400 (mol/kg) C7-400 (mol/kg)
    0.1000000000E+01    0.5299137052E-03    0.3934214824E-02    0.1922231539E-03    0.3721877823E-03    0.1183475416E-01
    0.3000000000E+01    0.1572911626E-02    0.1132882732E-01    0.5536980800E-03    0.1104749829E-02    0.3400048534E-01
    0.5000000000E+01    0.2594231784E-02    0.1815609216E-01    0.8876749313E-03    0.1822095032E-02    0.5437150555E-01
    0.7000000000E+01    0.3594743549E-02    0.2448233638E-01    0.1197376091E-02    0.2524833577E-02    0.7316435969E-01
    0.9000000000E+01    0.4575268611E-02    0.3036357746E-01    0.1485521823E-02    0.3213542191E-02    0.9056183177E-01
    0.1100000000E+02    0.5536584251E-02    0.3584747486E-01    0.1754425476E-02    0.3888766432E-02    0.1067192932E+00
    0.1300000000E+02    0.6479426343E-02    0.4097485318E-01    0.2006067777E-02    0.4551022794E-02    0.1217696696E+00
    0.1500000000E+02    0.7404492104E-02    0.4578090295E-01    0.2242155367E-02    0.5200800645E-02    0.1358273642E+00
    0.1700000000E+02    0.8312442643E-02    0.5029613571E-01    0.2464167360E-02    0.5838564010E-02    0.1489913852E+00
    0.1900000000E+02    0.9203905294E-02    0.5454715029E-01    0.2673392678E-02    0.6464753210E-02    0.1613478601E+00
    0.2100000000E+02    0.1007947578E-01    0.5855725239E-01    0.2870960230E-02    0.7079786380E-02    0.1729720714E+00
    0.2300000000E+02    0.1093972022E-01    0.6234695928E-01    0.3057863491E-02    0.7684060871E-02    0.1839301183E+00
    0.2500000000E+02    0.1178517694E-01    0.6593441380E-01    0.3234980648E-02    0.8277954541E-02    0.1942802806E+00
    0.2700000000E+02    0.1261635821E-01    0.6933572604E-01    0.3403091236E-02    0.8861826954E-02    0.2040741473E+00
    0.2900000000E+02    0.1343375182E-01    0.7256525720E-01    0.3562889940E-02    0.9436020496E-02    0.2133575537E+00
    0.3100000000E+02    0.1423782256E-01    0.7563585667E-01    0.3714998127E-02    0.1000086140E-01    0.2221713659E+00
    0.3300000000E+02    0.1502901355E-01    0.7855906117E-01    0.3859973528E-02    0.1055666069E-01    0.2305521398E+00
    0.3500000000E+02    0.1580774753E-01    0.8134526281E-01    0.3998318399E-02    0.1110371511E-01    0.2385326773E+00
    0.3700000000E+02    0.1657442803E-01    0.8400385169E-01    0.4130486460E-02    0.1164230790E-01    0.2461424993E+00
    0.3900000000E+02    0.1732944048E-01    0.8654333740E-01    0.4256888782E-02    0.1217270959E-01    0.2534082476E+00
    0.4100000000E+02    0.1807315321E-01    0.8897145299E-01    0.4377898848E-02    0.1269517874E-01    0.2603540300E+00
    0.4300000000E+02    0.1880591842E-01    0.9129524434E-01    0.4493856880E-02    0.1320996255E-01    0.2670017166E+00
    0.4500000000E+02    0.1952807307E-01    0.9352114729E-01    0.4605073588E-02    0.1371729755E-01    0.2733711945E+00
    0.4700000000E+02    0.2023993968E-01    0.9565505439E-01    0.4711833403E-02    0.1421741012E-01    0.2794805896E+00
    0.4900000000E+02    0.2094182716E-01    0.9770237294E-01    0.4814397295E-02    0.1471051709E-01    0.2853464585E+00
    0.1000000000E+02    0.5058280680E-02    0.3315249782E-01    0.1622248071E-02    0.3552806920E-02    0.9878678030E-01
    0.3000000000E+02    0.1383742436E-01    0.7411967369E-01    0.3639869101E-02    0.9719590241E-02    0.2178207803E+00
    0.5000000000E+02    0.2128912170E-01    0.9869513120E-01    0.4864181517E-02    0.1495450875E-01    0.2881928571E+00
    0.7000000000E+02    0.2777690341E-01    0.1150234412E+00    0.5688744327E-02    0.1951273269E-01    0.3354104071E+00
    0.9000000000E+02    0.3353804155E-01    0.1265198654E+00    0.6278324125E-02    0.2356081474E-01    0.3696771826E+00
    0.1100000000E+03    0.3873460347E-01    0.1349116817E+00    0.6716245893E-02    0.2721252162E-01    0.3959059758E+00
    0.1300000000E+03    0.4348145710E-01    0.1411821115E+00    0.7049989805E-02    0.3054848987E-01    0.4167693130E+00
    0.1500000000E+03    0.4786255149E-01    0.1459379069E+00    0.7308909518E-02    0.3362765289E-01    0.4338532017E+00
    0.1700000000E+03    0.5194084499E-01    0.1495760354E+00    0.7512255616E-02    0.3649420944E-01    0.4481623837E+00
    0.1900000000E+03    0.5576460742E-01    0.1523679615E+00    0.7673229767E-02    0.3918204731E-01    0.4603665959E+00
    0.2100000000E+03    0.5937155943E-01    0.1545058800E+00    0.7801208351E-02    0.4171764886E-01    0.4709308530E+00
    0.2300000000E+03    0.6279167255E-01    0.1561297275E+00    0.7903041968E-02    0.4412205649E-01    0.4801889983E+00
    0.2500000000E+03    0.6604911242E-01    0.1573437741E+00    0.7983854196E-02    0.4641223676E-01    0.4883874822E+00
    0.2700000000E+03    0.6916361811E-01    0.1582272395E+00    0.8047553133E-02    0.4860204857E-01    0.4957125867E+00
    0.2900000000E+03    0.7215150091E-01    0.1588413189E+00    0.8097170349E-02    0.5070294438E-01    0.5023079958E+00
    0.3100000000E+03    0.7502638060E-01    0.1592339685E+00    0.8135092031E-02    0.5272448703E-01    0.5082864992E+00
    0.3300000000E+03    0.7779973693E-01    0.1594432441E+00    0.8163220533E-02    0.5467473692E-01    0.5137380061E+00
    0.3500000000E+03    0.8048132869E-01    0.1594996819E+00    0.8183089713E-02    0.5656054617E-01    0.5187351642E+00
    0.3700000000E+03    0.8307951642E-01    0.1594280268E+00    0.8195948835E-02    0.5838778518E-01    0.5233373853E+00
    0.3900000000E+03    0.8560151377E-01    0.1592485080E+00    0.8202824616E-02    0.6016151913E-01    0.5275937825E+00
    0.4100000000E+03    0.8805358560E-01    0.1589777952E+00    0.8204567789E-02    0.6188614705E-01    0.5315453510E+00
    0.4300000000E+03    0.9044120558E-01    0.1586297235E+00    0.8201888512E-02    0.6356551241E-01    0.5352266108E+00
    0.4500000000E+03    0.9276918273E-01    0.1582158501E+00    0.8195383622E-02    0.6520299207E-01    0.5386668616E+00
    0.4700000000E+03    0.9504176398E-01    0.1577458876E+00    0.8185557829E-02    0.6680156816E-01    0.5418911537E+00
    0.4900000000E+03    0.9726271786E-01    0.1572280418E+00    0.8172840379E-02    0.6836388693E-01    0.5449210468E+00
    0.1000000000E+03    0.3619884007E-01    0.1310307171E+00    0.6512712293E-02    0.2543056094E-01    0.3835950254E+00
    0.3000000000E+03    0.7360230396E-01    0.1590627436E+00    0.8117464429E-02    0.5172309969E-01    0.5053682803E+00
    0.5000000000E+03    0.9835489857E-01    0.1569533824E+00    0.8165514092E-02    0.6913219698E-01    0.5463690271E+00
    0.7000000000E+03    0.1181400911E+00    0.1501806081E+00    0.7933100352E-02    0.8305273827E-01    0.5685690109E+00
    0.9000000000E+03    0.1350826285E+00    0.1425726425E+00    0.7626458018E-02    0.9497673314E-01    0.5829631856E+00
    0.1100000000E+04    0.1500769960E+00    0.1350840149E+00    0.7303028545E-02    0.1055322973E+00    0.5932479145E+00
    0.1300000000E+04    0.1635920362E+00    0.1279923618E+00    0.6982984102E-02    0.1150486425E+00    0.6010594943E+00
    0.1500000000E+04    0.1759105537E+00    0.1213701979E+00    0.6674199754E-02    0.1237243359E+00    0.6072478467E+00
    0.1700000000E+04    0.1872210745E+00    0.1152194866E+00    0.6379764049E-02    0.1316917401E+00    0.6123037502E+00
    0.1900000000E+04    0.1976590852E+00    0.1095169930E+00    0.6100690747E-02    0.1390459747E+00    0.6165329029E+00
    0.2100000000E+04    0.2073277495E+00    0.1042312269E+00    0.5837029669E-02    0.1458594657E+00    0.6201369014E+00
    0.2300000000E+04    0.2163092096E+00    0.9932914671E-01    0.5588366083E-02    0.1521898813E+00    0.6232547567E+00
    0.2500000000E+04    0.2246711585E+00    0.9477884378E-01    0.5354061721E-02    0.1580847477E+00    0.6259858250E+00
    0.2700000000E+04    0.2324708679E+00    0.9055055607E-01    0.5133377646E-02    0.1635842771E+00    0.6284032465E+00
    0.2900000000E+04    0.2397577700E+00    0.8661696557E-01    0.4925539525E-02    0.1687231802E+00    0.6305622083E+00
    0.3100000000E+04    0.2465751794E+00    0.8295318695E-01    0.4729773269E-02    0.1735318748E+00    0.6325052349E+00
    0.3300000000E+04    0.2529614850E+00    0.7953662871E-01    0.4545324722E-02    0.1780373228E+00    0.6342656902E+00
    0.3500000000E+04    0.2589510044E+00    0.7634680840E-01    0.4371470413E-02    0.1822636292E+00    0.6358701654E+00
    0.3700000000E+04    0.2645746168E+00    0.7336515908E-01    0.4207523136E-02    0.1862324864E+00    0.6373401474E+00
    0.3900000000E+04    0.2698602471E+00    0.7057484309E-01    0.4052834454E-02    0.1899635135E+00    0.6386932121E+00
    0.4100000000E+04    0.2748332459E+00    0.6796057981E-01    0.3906795341E-02    0.1934745232E+00    0.6399438927E+00
    0.4300000000E+04    0.2795166969E+00    0.6550848917E-01    0.3768835680E-02    0.1967817371E+00    0.6411043246E+00
    0.4500000000E+04    0.2839316705E+00    0.6320595098E-01    0.3638423068E-02    0.1998999639E+00    0.6421847298E+00
    0.4700000000E+04    0.2880974371E+00    0.6104147886E-01    0.3515061207E-02    0.2028427484E+00    0.6431937878E+00
    0.4900000000E+04    0.2920316499E+00    0.5900460766E-01    0.3398288058E-02    0.2056225003E+00    0.6441389219E+00
    0.1000000000E+04    0.1427879998E+00    0.1387885040E+00    0.7465142803E-02    0.1004007580E+00    0.5884903868E+00
    0.3000000000E+04    0.2432226579E+00    0.8475281344E-01    0.4826195174E-02    0.1711670454E+00    0.6315584458E+00
    0.5000000000E+04    0.2939170375E+00    0.5803100629E-01    0.3342236753E-02    0.2069548341E+00    0.6445895498E+00
    0.7000000000E+04    0.3227554495E+00    0.4334460307E-01    0.2478058056E-02    0.2273538227E+00    0.6514149923E+00
    0.9000000000E+04    0.3405556537E+00    0.3446589137E-01    0.1938581994E-02    0.2399721653E+00    0.6557592419E+00
    0.1100000000E+05    0.3523001140E+00    0.2867183768E-01    0.1580036740E-02    0.2483172329E+00    0.6588261449E+00
    0.1300000000E+05    0.3604765859E+00    0.2465455902E-01    0.1329007838E-02    0.2541416951E+00    0.6611362575E+00
    0.1500000000E+05    0.3664203170E+00    0.2173159393E-01    0.1145620026E-02    0.2583869970E+00    0.6629554426E+00
    0.1700000000E+05    0.3708950257E+00    0.1952074092E-01    0.1006900796E-02    0.2615920349E+00    0.6644352311E+00
    0.1900000000E+05    0.3743620090E+00    0.1779482976E-01    0.8989086056E-03    0.2640825670E+00    0.6656690282E+00
    0.2100000000E+05    0.3771131201E+00    0.1641190412E-01    0.8127939691E-03    0.2660648602E+00    0.6667179052E+00
    0.2300000000E+05    0.3793404452E+00    0.1527941918E-01    0.7427186244E-03    0.2676747833E+00    0.6676236736E+00
    0.2500000000E+05    0.3811747555E+00    0.1433482449E-01    0.6847007305E-03    0.2690049133E+00    0.6684160370E+00
    0.2700000000E+05    0.3827077128E+00    0.1353450981E-01    0.6359452640E-03    0.2701201967E+00    0.6691167484E+00
    0.2900000000E+05    0.3840052132E+00    0.1284724100E-01    0.5944404316E-03    0.2710673657E+00    0.6697421477E+00
    0.3100000000E+05    0.3851156914E+00    0.1225011606E-01    0.5587059589E-03    0.2718808000E+00    0.6703047764E+00
    0.3300000000E+05    0.3860754490E+00    0.1172599169E-01    0.5276312802E-03    0.2725862915E+00    0.6708144407E+00
    0.3500000000E+05    0.3869121691E+00    0.1126179824E-01    0.5003686833E-03    0.2732035273E+00    0.6712789323E+00
    0.3700000000E+05    0.3876472907E+00    0.1084740798E-01    0.4762610310E-03    0.2737477686E+00    0.6717045305E+00
    0.3900000000E+05    0.3882976484E+00    0.1047485739E-01    0.4547918052E-03    0.2742310112E+00    0.6720963591E+00
    0.4100000000E+05    0.3888766277E+00    0.1013780186E-01    0.4355499021E-03    0.2746628023E+00    0.6724586462E+00
    0.4300000000E+05    0.3893949921E+00    0.9831126094E-02    0.4182043837E-03    0.2750508272E+00    0.6727949151E+00
    0.4500000000E+05    0.3898614863E+00    0.9550661164E-02    0.4024860778E-03    0.2754013359E+00    0.6731081289E+00
    0.4700000000E+05    0.3902832819E+00    0.9292975790E-02    0.3881739719E-03    0.2757194599E+00    0.6734007996E+00
    0.4900000000E+05    0.3906663110E+00    0.9055220272E-02    0.3750850172E-03    0.2760094479E+00    0.6736750725E+00
    0.1000000000E+05    0.3469920685E+00    0.3128554727E-01    0.1742358421E-02    0.2445430695E+00    0.6574111606E+00
    0.3000000000E+05    0.3845813249E+00    0.1253859390E-01    0.5759285161E-03    0.2714890203E+00    0.6700306411E+00
    0.5000000000E+05    0.3908448666E+00    0.8943055005E-02    0.3689504567E-03    0.2761450226E+00    0.6738058966E+00
    0.7000000000E+05    0.3932377247E+00    0.7328801809E-02    0.2839240397E-03    0.2779950877E+00    0.6757933277E+00
    0.9000000000E+05    0.3944695411E+00    0.6370351920E-02    0.2367969785E-03    0.2789869796E+00    0.6770664995E+00
    0.1100000000E+06    0.3952100877E+00    0.5717921586E-02    0.2063626080E-03    0.2796084016E+00    0.6779706678E+00
    0.1300000000E+06    0.3956997447E+00    0.5236638731E-02    0.1848168680E-03    0.2800367169E+00    0.6786552204E+00
    0.1500000000E+06    0.3960450024E+00    0.4862399487E-02    0.1686058291E-03    0.2803515644E+00    0.6791966633E+00
    0.1700000000E+06    0.3962999662E+00    0.4560384631E-02    0.1558710185E-03    0.2805939634E+00    0.6796387521E+00
    0.1900000000E+06    0.3964949205E+00    0.4309843348E-02    0.1455412728E-03    0.2807871926E+00    0.6800085550E+00
    0.2100000000E+06    0.3966480858E+00    0.4097535896E-02    0.1369529762E-03    0.2809454538E+00    0.6803238313E+00
    0.2300000000E+06    0.3967710559E+00    0.3914561404E-02    0.1296714438E-03    0.2810779109E+00    0.6805967793E+00
    0.2500000000E+06    0.3968715452E+00    0.3754683306E-02    0.1233990583E-03    0.2811907476E+00    0.6808360911E+00
    0.2700000000E+06    0.3969548782E+00    0.3613382866E-02    0.1179245787E-03    0.2812882923E+00    0.6810481501E+00
    0.2900000000E+06    0.3970248432E+00    0.3487293962E-02    0.1130935293E-03    0.2813736683E+00    0.6812377635E+00
    0.3100000000E+06    0.3970842059E+00    0.3373849945E-02    0.1087900717E-03    0.2814491884E+00    0.6814086297E+00
    0.3300000000E+06    0.3971350307E+00    0.3271054475E-02    0.1049254585E-03    0.2815166030E+00    0.6815636470E+00
    0.3500000000E+06    0.3971788878E+00    0.3177327942E-02    0.1014304279E-03    0.2815772629E+00    0.6817051229E+00
    0.3700000000E+06    0.3972169921E+00    0.3091401654E-02    0.9825004674E-04    0.2816322277E+00    0.6818349205E+00
    0.3900000000E+06    0.3972502973E+00    0.3012243161E-02    0.9534012458E-04    0.2816823412E+00    0.6819545628E+00
    0.4100000000E+06    0.3972795620E+00    0.2939002420E-02    0.9266466351E-04    0.2817282839E+00    0.6820653086E+00
    0.4300000000E+06    0.3973053966E+00    0.2870972252E-02    0.9019400925E-04    0.2817706114E+00    0.6821682086E+00
    0.4500000000E+06    0.3973282978E+00    0.2807558820E-02    0.8790348666E-04    0.2818097819E+00    0.6822641475E+00
    0.4700000000E+06    0.3973486732E+00    0.2748259238E-02    0.8577237672E-04    0.2818461770E+00    0.6823538765E+00
    0.4900000000E+06    0.3973668605E+00    0.2692644371E-02    0.8378313881E-04    0.2818801172E+00    0.6824380379E+00
    0.1000000000E+06    0.3948814031E+00    0.6016802271E-02    0.2201322899E-03    0.2793294248E+00    0.6775528925E+00
    0.3000000000E+06    0.3970557072E+00    0.3429127395E-02    0.1108819293E-03    0.2814125400E+00    0.6813253429E+00
    0.5000000000E+06    0.3973752237E+00    0.2666101414E-02    0.8283695919E-04    0.2818962531E+00    0.6824782066E+00
    0.7000000000E+06    0.3974765579E+00    0.2261405668E-02    0.6866452448E-04    0.2821384091E+00    0.6830904643E+00
    0.9000000000E+06    0.3975143724E+00    0.2000382075E-02    0.5977291061E-04    0.2822927532E+00    0.6834847440E+00
    0.1100000000E+07    0.3975269397E+00    0.1813981083E-02    0.5354229563E-04    0.2824036529E+00    0.6837657620E+00
    0.1300000000E+07    0.3975277521E+00    0.1672213654E-02    0.4887049913E-04    0.2824892199E+00    0.6839790958E+00
    0.1500000000E+07    0.3975225840E+00    0.1559658160E-02    0.4520310794E-04    0.2825584137E+00    0.6841481866E+00
    0.1700000000E+07    0.3975142293E+00    0.1467460195E-02    0.4222705433E-04    0.2826162510E+00    0.6842864856E+00
    0.1900000000E+07    0.3975041576E+00    0.1390122861E-02    0.3975053415E-04    0.2826657957E+00    0.6844023360E+00
    0.2100000000E+07    0.3974931889E+00    0.1324028112E-02    0.3764866943E-04    0.2827090438E+00    0.6845012240E+00
    0.2300000000E+07    0.3974817998E+00    0.1266683674E-02    0.3583622777E-04    0.2827473622E+00    0.6845869248E+00
    0.2500000000E+07    0.3974702754E+00    0.1216308990E-02    0.3425279961E-04    0.2827817243E+00    0.6846621331E+00
    0.2700000000E+07    0.3974587889E+00    0.1171593362E-02    0.3285422653E-04    0.2828128465E+00    0.6847288305E+00
    0.2900000000E+07    0.3974474460E+00    0.1131547562E-02    0.3160738755E-04    0.2828412699E+00    0.6847885111E+00
    0.3100000000E+07    0.3974363105E+00    0.1095409003E-02    0.3048689269E-04    0.2828674129E+00    0.6848423259E+00
    0.3300000000E+07    0.3974254195E+00    0.1062579018E-02    0.2947291076E-04    0.2828916050E+00    0.6848911777E+00
    0.3500000000E+07    0.3974147934E+00    0.1032580135E-02    0.2854969876E-04    0.2829141103E+00    0.6849357859E+00
    0.3700000000E+07    0.3974044412E+00    0.1005026231E-02    0.2770458009E-04    0.2829351434E+00    0.6849767318E+00
    0.3900000000E+07    0.3973943649E+00    0.9796012082E-03    0.2692721822E-04    0.2829548808E+00    0.6850144912E+00
    0.4100000000E+07    0.3973845619E+00    0.9560434514E-03    0.2620908990E-04    0.2829734696E+00    0.6850494574E+00
    0.4300000000E+07    0.3973750263E+00    0.9341343142E-03    0.2554309637E-04    0.2829910336E+00    0.6850819589E+00
    0.4500000000E+07    0.3973657509E+00    0.9136894427E-03    0.2492327166E-04    0.2830076778E+00    0.6851122726E+00
    0.4700000000E+07    0.3973567268E+00    0.8945521513E-03    0.2434456070E-04    0.2830234919E+00    0.6851406337E+00
    0.4900000000E+07    0.3973479449E+00    0.8765882982E-03    0.2380264827E-04    0.2830385533E+00    0.6851672433E+00
    0.1000000000E+07    0.3975226914E+00    0.1900223187E-02    0.5641265315E-04    0.2823521848E+00    0.6836358103E+00
    0.3000000000E+07    0.3974418495E+00    0.1113030559E-02    0.3103269694E-04    0.2828546041E+00    0.6848160904E+00
    0.5000000000E+07    0.3973436419E+00    0.8680096514E-03    0.2354431185E-04    0.2830458232E+00    0.6851799465E+00
    0.7000000000E+07    0.3972680887E+00    0.7368553988E-03    0.1963295441E-04    0.2831641883E+00    0.6853737976E+00
    0.9000000000E+07    0.3972076701E+00    0.6519816664E-03    0.1714282940E-04    0.2832498155E+00    0.6854988583E+00
    0.1100000000E+08    0.3971575010E+00    0.5912785853E-03    0.1538368069E-04    0.2833168457E+00    0.6855881003E+00
    0.1300000000E+08    0.3971146516E+00    0.5450732887E-03    0.1405789402E-04    0.2833718920E+00    0.6856559063E+00
    0.1500000000E+08    0.3970772715E+00    0.5083719816E-03    0.1301352432E-04    0.2834185765E+00    0.6857096853E+00
    0.1700000000E+08    0.3970441269E+00    0.4783006185E-03    0.1216391377E-04    0.2834590965E+00    0.6857536938E+00
    0.1900000000E+08    0.3970143570E+00    0.4530721988E-03    0.1145559274E-04    0.2834948851E+00    0.6857905743E+00
    0.2100000000E+08    0.3969873380E+00    0.4315092754E-03    0.1085356389E-04    0.2835269282E+00    0.6858220659E+00
    0.2300000000E+08    0.3969626041E+00    0.4128001602E-03    0.1033384270E-04    0.2835559332E+00    0.6858493660E+00
    0.2500000000E+08    0.3969397985E+00    0.3963646412E-03    0.9879374560E-05    0.2835824246E+00    0.6858733296E+00
    0.2700000000E+08    0.3969186417E+00    0.3817754410E-03    0.9477659958E-05    0.2836068019E+00    0.6858945860E+00
