  Pressure (Pa) 22mC5-400 (mol/kg) 2mC6-400 (mol/kg) 33mC5-400 (mol/kg) 23mC5-400 (mol/kg) C7-400 (mol/kg)
    0.1000000000E+01    0.5303987749E-03    0.3144579441E-02    0.3200971241E-03    0.1862641356E-03    0.1350287054E-01
    0.3000000000E+01    0.1577167890E-02    0.9041086463E-02    0.9206760995E-03    0.5538687354E-03    0.3867173378E-01
    0.5000000000E+01    0.2605762698E-02    0.1447137343E-01    0.1474236818E-02    0.9150945326E-03    0.6166387419E-01
    0.7000000000E+01    0.3616793574E-02    0.1949379434E-01    0.1986683518E-02    0.1270155730E-02    0.8275718116E-01
    0.9000000000E+01    0.4610842783E-02    0.2415702608E-01    0.2462938445E-02    0.1619256668E-02    0.1021838760E+00
    0.1100000000E+02    0.5588466109E-02    0.2850200701E-01    0.2907138931E-02    0.1962592392E-02    0.1201395407E+00
    0.1300000000E+02    0.6550194359E-02    0.3256342795E-01    0.3322788913E-02    0.2300349186E-02    0.1367900853E+00
    0.1500000000E+02    0.7496534771E-02    0.3637089123E-01    0.3712876684E-02    0.2632705060E-02    0.1522771818E+00
    0.1700000000E+02    0.8427972327E-02    0.3994982093E-01    0.4079967336E-02    0.2959830217E-02    0.1667225458E+00
    0.1900000000E+02    0.9344970977E-02    0.4332218429E-01    0.4426275993E-02    0.3281887476E-02    0.1802313405E+00
    0.2100000000E+02    0.1024797478E-01    0.4650706844E-01    0.4753726343E-02    0.3599032681E-02    0.1928949058E+00
    0.2300000000E+02    0.1113740899E-01    0.4952114509E-01    0.5063997774E-02    0.3911415069E-02    0.2047929647E+00
    0.2500000000E+02    0.1201368102E-01    0.5237904788E-01    0.5358563644E-02    0.4219177626E-02    0.2159954196E+00
    0.2700000000E+02    0.1287718143E-01    0.5509368074E-01    0.5638722537E-02    0.4522457417E-02    0.2265638242E+00
    0.2900000000E+02    0.1372828477E-01    0.5767647182E-01    0.5905623989E-02    0.4821385888E-02    0.2365525987E+00
    0.3100000000E+02    0.1456735039E-01    0.6013758355E-01    0.6160289771E-02    0.5116089161E-02    0.2460100384E+00
    0.3300000000E+02    0.1539472328E-01    0.6248608768E-01    0.6403631608E-02    0.5406688305E-02    0.2549791549E+00
    0.3500000000E+02    0.1621073472E-01    0.6473011184E-01    0.6636466007E-02    0.5693299585E-02    0.2634983831E+00
    0.3700000000E+02    0.1701570300E-01    0.6687696283E-01    0.6859526739E-02    0.5976034709E-02    0.2716021765E+00
    0.3900000000E+02    0.1780993406E-01    0.6893323096E-01    0.7073475381E-02    0.6255001047E-02    0.2793215126E+00
    0.4100000000E+02    0.1859372208E-01    0.7090487865E-01    0.7278910278E-02    0.6530301847E-02    0.2866843224E+00
    0.4300000000E+02    0.1936735008E-01    0.7279731611E-01    0.7476374185E-02    0.6802036432E-02    0.2937158581E+00
    0.4500000000E+02    0.2013109039E-01    0.7461546612E-01    0.7666360813E-02    0.7070300387E-02    0.3004390080E+00
    0.4700000000E+02    0.2088520525E-01    0.7636381984E-01    0.7849320462E-02    0.7335185740E-02    0.3068745690E+00
    0.4900000000E+02    0.2162994719E-01    0.7804648498E-01    0.8025664881E-02    0.7596781124E-02    0.3130414810E+00
    0.1000000000E+02    0.5101673938E-02    0.2636699827E-01    0.2688813173E-02    0.1791633339E-02    0.1113345924E+00
    0.3000000000E+02    0.1414930040E-01    0.5892164690E-01    0.6034426963E-02    0.4969257992E-02    0.2413449322E+00
    0.5000000000E+02    0.2199887971E-01    0.7886437352E-01    0.8111475558E-02    0.7726371887E-02    0.3160296553E+00
    0.7000000000E+02    0.2894018691E-01    0.9254124992E-01    0.9557301728E-02    0.1016467396E-01    0.3651777338E+00
    0.9000000000E+02    0.3517321458E-01    0.1025189916E+00    0.1062900589E-01    0.1235435545E-01    0.4003224993E+00
    0.1100000000E+03    0.4084085129E-01    0.1100795229E+00    0.1145493572E-01    0.1434556734E-01    0.4269010951E+00
    0.1300000000E+03    0.4604817863E-01    0.1159535482E+00    0.1210833502E-01    0.1617519214E-01    0.4478267688E+00
    0.1500000000E+03    0.5087438949E-01    0.1205962630E+00    0.1263493485E-01    0.1787102640E-01    0.4648082320E+00
    0.1700000000E+03    0.5538043316E-01    0.1243096511E+00    0.1306516487E-01    0.1945446372E-01    0.4789176890E+00
    0.1900000000E+03    0.5961408075E-01    0.1273036006E+00    0.1342024830E-01    0.2094227244E-01    0.4908641167E+00
    0.2100000000E+03    0.6361337686E-01    0.1297292973E+00    0.1371553069E-01    0.2234780703E-01    0.5011363457E+00
    0.2300000000E+03    0.6740904983E-01    0.1316987668E+00    0.1396242863E-01    0.2368185404E-01    0.5100831452E+00
    0.2500000000E+03    0.7102623162E-01    0.1332969471E+00    0.1416963461E-01    0.2495323564E-01    0.5179605442E+00
    0.2700000000E+03    0.7448570881E-01    0.1345894796E+00    0.1434389538E-01    0.2616924881E-01    0.5249610731E+00
    0.2900000000E+03    0.7780484829E-01    0.1356279176E+00    0.1449053331E-01    0.2733599011E-01    0.5312325307E+00
    0.3100000000E+03    0.8099829291E-01    0.1364533149E+00    0.1461380612E-01    0.2845859998E-01    0.5368904226E+00
    0.3300000000E+03    0.8407849166E-01    0.1370987606E+00    0.1471716148E-01    0.2954144872E-01    0.5420264385E+00
    0.3500000000E+03    0.8705610875E-01    0.1375912080E+00    0.1480342112E-01    0.3058828015E-01    0.5467143728E+00
    0.3700000000E+03    0.8994034319E-01    0.1379528201E+00    0.1487491654E-01    0.3160232371E-01    0.5510143483E+00
    0.3900000000E+03    0.9273918080E-01    0.1382019745E+00    0.1493359063E-01    0.3258638302E-01    0.5549758879E+00
    0.4100000000E+03    0.9545959521E-01    0.1383540258E+00    0.1498107494E-01    0.3354290635E-01    0.5586401870E+00
    0.4300000000E+03    0.9810770935E-01    0.1384218912E+00    0.1501874913E-01    0.3447404332E-01    0.5620418198E+00
    0.4500000000E+03    0.1006889265E+00    0.1384165054E+00    0.1504778733E-01    0.3538169094E-01    0.5652100391E+00
    0.4700000000E+03    0.1032080373E+00    0.1383471780E+00    0.1506919456E-01    0.3626753115E-01    0.5681697782E+00
    0.4900000000E+03    0.1056693080E+00    0.1382218764E+00    0.1508383575E-01    0.3713306176E-01    0.5709424330E+00
    0.1000000000E+03    0.3807041919E-01    0.1065471700E+00    0.1106725895E-01    0.1337221224E-01    0.4144622975E+00
    0.3000000000E+03    0.7941645828E-01    0.1360650158E+00    0.1455485833E-01    0.2790252214E-01    0.5341319629E+00
    0.5000000000E+03    0.1068794613E+00    0.1381404149E+00    0.1508885689E-01    0.3755863508E-01    0.5722644771E+00
    0.7000000000E+03    0.1287900602E+00    0.1348149127E+00    0.1497124655E-01    0.4526511324E-01    0.5922764680E+00
    0.9000000000E+03    0.1475753939E+00    0.1299765967E+00    0.1463439937E-01    0.5187412317E-01    0.6049724667E+00
    0.1100000000E+04    0.1642695523E+00    0.1247486836E+00    0.1421322283E-01    0.5774874738E-01    0.6138955246E+00
    0.1300000000E+04    0.1794122584E+00    0.1195309112E+00    0.1376092772E-01    0.6307848917E-01    0.6205846619E+00
    0.1500000000E+04    0.1933242835E+00    0.1144793147E+00    0.1330157342E-01    0.6797597177E-01    0.6258270794E+00
    0.1700000000E+04    0.2062146531E+00    0.1096546351E+00    0.1284698271E-01    0.7251458071E-01    0.6300715005E+00
    0.1900000000E+04    0.2182293986E+00    0.1050767097E+00    0.1240323299E-01    0.7674558255E-01    0.6335943390E+00
    0.2100000000E+04    0.2294763013E+00    0.1007468393E+00    0.1197347418E-01    0.8070681374E-01    0.6365761172E+00
    0.2300000000E+04    0.2400385216E+00    0.9665776787E-01    0.1155927002E-01    0.8442746640E-01    0.6391402485E+00
    0.2500000000E+04    0.2499825943E+00    0.9279840245E-01    0.1116128419E-01    0.8793089602E-01    0.6413742663E+00
    0.2700000000E+04    0.2593633621E+00    0.8915613452E-01    0.1077965217E-01    0.9123635368E-01    0.6433421629E+00
    0.2900000000E+04    0.2682271469E+00    0.8571800821E-01    0.1041419272E-01    0.9436009974E-01    0.6450919216E+00
    0.3100000000E+04    0.2766138612E+00    0.8247130920E-01    0.1006453307E-01    0.9731614506E-01    0.6466603053E+00
    0.3300000000E+04    0.2845584560E+00    0.7940385412E-01    0.9730185524E-02    0.1001167594E+00    0.6480760075E+00
    0.3500000000E+04    0.2920919411E+00    0.7650412153E-01    0.9410595770E-02    0.1027728297E+00    0.6493617874E+00
    0.3700000000E+04    0.2992421216E+00    0.7376129828E-01    0.9105173969E-02    0.1052941183E+00    0.6505359548E+00
    0.3900000000E+04    0.3060341418E+00    0.7116528066E-01    0.8813315184E-02    0.1076894541E+00    0.6516134258E+00
    0.4100000000E+04    0.3124908954E+00    0.6870665194E-01    0.8534412948E-02    0.1099668763E+00    0.6526064879E+00
    0.4300000000E+04    0.3186333420E+00    0.6637664820E-01    0.8267868331E-02    0.1121337457E+00    0.6535253652E+00
    0.4500000000E+04    0.3244807554E+00    0.6416711905E-01    0.8013095994E-02    0.1141968318E+00    0.6543786422E+00
    0.4700000000E+04    0.3300509233E+00    0.6207048690E-01    0.7769528173E-02    0.1161623823E+00    0.6551735856E+00
    0.4900000000E+04    0.3353603088E+00    0.6007970687E-01    0.7536617223E-02    0.1180361806E+00    0.6559163930E+00
    0.1000000000E+04    0.1561430646E+00    0.1273777059E+00    0.1443001398E-01    0.5488890610E-01    0.6097838778E+00
    0.3000000000E+04    0.2724778508E+00    0.8407150628E-01    0.1023741638E-01    0.9585828210E-01    0.6458968318E+00
    0.5000000000E+04    0.3379220247E+00    0.5912194602E-01    0.7423992830E-02    0.1189403646E+00    0.6562699384E+00
    0.7000000000E+04    0.3786489318E+00    0.4416138125E-01    0.5615496093E-02    0.1333257268E+00    0.6615727750E+00
    0.9000000000E+04    0.4054372114E+00    0.3463004153E-01    0.4412608269E-02    0.1428024295E+00    0.6648908250E+00
    0.1100000000E+05    0.4239060962E+00    0.2822415627E-01    0.3580162249E-02    0.1493468777E+00    0.6672021797E+00
    0.1300000000E+05    0.4371645704E+00    0.2371784278E-01    0.2982335007E-02    0.1540533228E+00    0.6689243391E+00
    0.1500000000E+05    0.4470148618E+00    0.2042350658E-01    0.2538781237E-02    0.1575564860E+00    0.6702682871E+00
    0.1700000000E+05    0.4545484728E+00    0.1793594560E-01    0.2200312613E-02    0.1602410138E+00    0.6713531553E+00
    0.1900000000E+05    0.4604536411E+00    0.1600548586E-01    0.1935728345E-02    0.1623495868E+00    0.6722517572E+00
    0.2100000000E+05    0.4651803247E+00    0.1447209057E-01    0.1724565060E-02    0.1640409605E+00    0.6730113348E+00
    0.2300000000E+05    0.4690323028E+00    0.1322955678E-01    0.1552987661E-02    0.1654223797E+00    0.6736640047E+00
    0.2500000000E+05    0.4722205712E+00    0.1220522604E-01    0.1411384120E-02    0.1665683792E+00    0.6742324378E+00
    0.2700000000E+05    0.4748954049E+00    0.1134803849E-01    0.1292912152E-02    0.1675320772E+00    0.6747331393E+00
    0.2900000000E+05    0.4771662385E+00    0.1062125253E-01    0.1192594395E-02    0.1683521803E+00    0.6751784416E+00
    0.3100000000E+05    0.4791143557E+00    0.9997868283E-02    0.1106739309E-02    0.1690574571E+00    0.6755777638E+00
    0.3300000000E+05    0.4808012058E+00    0.9457669494E-02    0.1032561066E-02    0.1696696706E+00    0.6759384374E+00
    0.3500000000E+05    0.4822739834E+00    0.8985263092E-02    0.9679242538E-03    0.1702055464E+00    0.6762662639E+00
    0.3700000000E+05    0.4835694558E+00    0.8568750195E-02    0.9111687802E-03    0.1706781238E+00    0.6765659005E+00
    0.3900000000E+05    0.4847166370E+00    0.8198806594E-02    0.8609874795E-03    0.1710976998E+00    0.6768411344E+00
    0.4100000000E+05    0.4857386926E+00    0.7868034625E-02    0.8163390480E-03    0.1714725013E+00    0.6770950797E+00
    0.4300000000E+05    0.4866543160E+00    0.7570498543E-02    0.7763851227E-03    0.1718091720E+00    0.6773303241E+00
    0.4500000000E+05    0.4874787394E+00    0.7301386250E-02    0.7404441373E-03    0.1721131295E+00    0.6775490371E+00
    0.4700000000E+05    0.4882244864E+00    0.7056759513E-02    0.7079570258E-03    0.1723888312E+00    0.6777530531E+00
    0.4900000000E+05    0.4889019379E+00    0.6833367079E-02    0.6784614143E-03    0.1726399748E+00    0.6779439349E+00
    0.1000000000E+05    0.4154766534E+00    0.3113002479E-01    0.3960263828E-02    0.1463585162E+00    0.6661391940E+00
    0.3000000000E+05    0.4781764070E+00    0.1029803095E-01    0.1148050891E-02    0.1687176744E+00    0.6753833506E+00
    0.5000000000E+05    0.4892178197E+00    0.6728770016E-02    0.6647124353E-03    0.1727573235E+00    0.6780348770E+00
    0.7000000000E+05    0.4934557084E+00    0.5284028398E-02    0.4801292030E-03    0.1743525161E+00    0.6794079711E+00
    0.9000000000E+05    0.4956428628E+00    0.4483728033E-02    0.3839667427E-03    0.1752005443E+00    0.6802791317E+00
    0.1100000000E+06    0.4969627594E+00    0.3964210975E-02    0.3248983000E-03    0.1757279569E+00    0.6808937064E+00
    0.1300000000E+06    0.4978401122E+00    0.3593703024E-02    0.2847427596E-03    0.1760892977E+00    0.6813566973E+00
    0.1500000000E+06    0.4984628112E+00    0.3312689799E-02    0.2555162048E-03    0.1763536097E+00    0.6817214620E+00
    0.1700000000E+06    0.4989261887E+00    0.3090166612E-02    0.2331803465E-03    0.1765562768E+00    0.6820183362E+00
    0.1900000000E+06    0.4992835522E+00    0.2908279863E-02    0.2154767659E-03    0.1767172866E+00    0.6822659970E+00
    0.2100000000E+06    0.4995669565E+00    0.2755958687E-02    0.2010438459E-03    0.1768487821E+00    0.6824766500E+00
    0.2300000000E+06    0.4997967961E+00    0.2625936249E-02    0.1890113129E-03    0.1769585691E+00    0.6826586510E+00
    0.2500000000E+06    0.4999866456E+00    0.2513223002E-02    0.1787963840E-03    0.1770518973E+00    0.6828179367E+00
    0.2700000000E+06    0.5001458799E+00    0.2414265760E-02    0.1699936458E-03    0.1771324301E+00    0.6829588559E+00
    0.2900000000E+06    0.5002811758E+00    0.2326456834E-02    0.1623119957E-03    0.1772028041E+00    0.6830846765E+00
    0.3100000000E+06    0.5003974140E+00    0.2247833445E-02    0.1555367452E-03    0.1772649663E+00    0.6831979073E+00
    0.3300000000E+06    0.5004982426E+00    0.2176886120E-02    0.1495058989E-03    0.1773203875E+00    0.6833005108E+00
    0.3500000000E+06    0.5005864418E+00    0.2112432318E-02    0.1440947813E-03    0.1773702003E+00    0.6833940471E+00
    0.3700000000E+06    0.5006641661E+00    0.2053530598E-02    0.1392057699E-03    0.1774152913E+00    0.6834797736E+00
    0.3900000000E+06    0.5007331109E+00    0.1999420810E-02    0.1347612557E-03    0.1774563655E+00    0.6835587170E+00
    0.4100000000E+06    0.5007946274E+00    0.1949481482E-02    0.1306987051E-03    0.1774939907E+00    0.6836317246E+00
    0.4300000000E+06    0.5008498059E+00    0.1903198844E-02    0.1269671232E-03    0.1775286296E+00    0.6836995028E+00
    0.4500000000E+06    0.5008995353E+00    0.1860143918E-02    0.1235244741E-03    0.1775606633E+00    0.6837626458E+00
    0.4700000000E+06    0.5009445474E+00    0.1819955298E-02    0.1203357691E-03    0.1775904089E+00    0.6838216576E+00
    0.4900000000E+06    0.5009854503E+00    0.1782326028E-02    0.1173716275E-03    0.1776181325E+00    0.6838769686E+00
    0.1000000000E+06    0.4963761882E+00    0.4199691685E-02    0.3512988636E-03    0.1754916123E+00    0.6806101669E+00
    0.3000000000E+06    0.5003414252E+00    0.2286100189E-02    0.1588222191E-03    0.1772348104E+00    0.6831427321E+00
    0.5000000000E+06    0.5010045231E+00    0.1764387571E-02    0.1159658443E-03    0.1776313076E+00    0.6839033542E+00
    0.7000000000E+06    0.5012590896E+00    0.1492378796E-02    0.9521059833E-04    0.1778286431E+00    0.6843044182E+00
    0.9000000000E+06    0.5013864964E+00    0.1318214215E-02    0.8245405591E-04    0.1779540722E+00    0.6845615407E+00
    0.1100000000E+07    0.5014591485E+00    0.1194335493E-02    0.7362230319E-04    0.1780440489E+00    0.6847442115E+00
    0.1300000000E+07    0.5015037454E+00    0.1100353357E-02    0.6705215844E-04    0.1781133961E+00    0.6848825383E+00
    0.1500000000E+07    0.5015323068E+00    0.1025862575E-02    0.6192304553E-04    0.1781694287E+00    0.6849919542E+00
    0.1700000000E+07    0.5015509883E+00    0.9649188428E-03    0.5777782281E-04    0.1782162354E+00    0.6850812917E+00
    0.1900000000E+07    0.5015632415E+00    0.9138449011E-03    0.5433919981E-04    0.1782563106E+00    0.6851560174E+00
    0.2100000000E+07    0.5015711369E+00    0.8702267113E-03    0.5142801949E-04    0.1782912776E+00    0.6852197193E+00
    0.2300000000E+07    0.5015759830E+00    0.8324047115E-03    0.4892274190E-04    0.1783222472E+00    0.6852748626E+00
    0.2500000000E+07    0.5015786413E+00    0.7991951410E-03    0.4673764620E-04    0.1783500103E+00    0.6853232043E+00
    0.2700000000E+07    0.5015796990E+00    0.7697277318E-03    0.4481032549E-04    0.1783751482E+00    0.6853660349E+00
    0.2900000000E+07    0.5015795671E+00    0.7433463584E-03    0.4309413066E-04    0.1783981003E+00    0.6854043266E+00
    0.3100000000E+07    0.5015785405E+00    0.7195456675E-03    0.4155340461E-04    0.1784192058E+00    0.6854388272E+00
    0.3300000000E+07    0.5015768345E+00    0.6979292305E-03    0.4016036617E-04    0.1784387320E+00    0.6854701229E+00
    0.3500000000E+07    0.5015746097E+00    0.6781810785E-03    0.3889300891E-04    0.1784568930E+00    0.6854986804E+00
    0.3700000000E+07    0.5015719870E+00    0.6600458359E-03    0.3773364639E-04    0.1784738627E+00    0.6855248765E+00
    0.3900000000E+07    0.5015690588E+00    0.6433145416E-03    0.3666788111E-04    0.1784897842E+00    0.6855490192E+00
    0.4100000000E+07    0.5015658965E+00    0.6278143283E-03    0.3568385901E-04    0.1785047768E+00    0.6855713633E+00
    0.4300000000E+07    0.5015625559E+00    0.6134007757E-03    0.3477172028E-04    0.1785189405E+00    0.6855921211E+00
    0.4500000000E+07    0.5015590807E+00    0.5999521563E-03    0.3392318848E-04    0.1785323604E+00    0.6856114718E+00
    0.4700000000E+07    0.5015555057E+00    0.5873650439E-03    0.3313125841E-04    0.1785451093E+00    0.6856295671E+00
    0.4900000000E+07    0.5015518585E+00    0.5755509181E-03    0.3238995605E-04    0.1785572498E+00    0.6856465371E+00
    0.1000000000E+07    0.5014274764E+00    0.1251604072E-02    0.7768068029E-04    0.1780023054E+00    0.6846598017E+00
    0.3000000000E+07    0.5015791506E+00    0.7311503727E-03    0.4230372648E-04    0.1784088657E+00    0.6854220110E+00
    0.5000000000E+07    0.5015500149E+00    0.5699094729E-03    0.3203665846E-04    0.1785631092E+00    0.6856546357E+00
    0.7000000000E+07    0.5015128738E+00    0.4836901722E-03    0.2669418224E-04    0.1786584581E+00    0.6857779897E+00
    0.9000000000E+07    0.5014785098E+00    0.4279218863E-03    0.2329877520E-04    0.1787273752E+00    0.6858573210E+00
    0.1100000000E+08    0.5014478560E+00    0.3880467668E-03    0.2090244236E-04    0.1787812905E+00    0.6859137973E+00
    0.1300000000E+08    0.5014205188E+00    0.3577008054E-03    0.1909758899E-04    0.1788255450E+00    0.6859566266E+00
    0.1500000000E+08    0.5013959656E+00    0.3336000168E-03    0.1767647567E-04    0.1788630622E+00    0.6859905418E+00
    0.1700000000E+08    0.5013737299E+00    0.3138550001E-03    0.1652076063E-04    0.1788956147E+00    0.6860182575E+00
    0.1900000000E+08    0.5013534341E+00    0.2972912566E-03    0.1555748558E-04    0.1789243582E+00    0.6860414563E+00
    0.2100000000E+08    0.5013347783E+00    0.2831350545E-03    0.1473892753E-04    0.1789500873E+00    0.6860612441E+00
    0.2300000000E+08    0.5013175230E+00    0.2708530894E-03    0.1403239701E-04    0.1789733720E+00    0.6860783816E+00
    0.2500000000E+08    0.5013014760E+00    0.2600641886E-03    0.1341465890E-04    0.1789946348E+00    0.6860934114E+00
    0.2700000000E+08    0.5012864807E+00    0.2504876785E-03    0.1286868951E-04    0.1790141976E+00    0.6861067325E+00
